Iter | Sampling Pol | Evaluation Pol | Best (Sampled) 
   0 -1.96 -1.97 -100000000.00 
   1 -1.94 -1.96 -1.96 
   2 -1.95 -1.96 -1.94 
   3 -1.97 -1.96 -1.94 
   4 -1.95 -1.96 -1.94 
   5 -1.96 -1.96 -1.94 
   6 -1.96 -1.96 -1.94 
   7 -1.97 -1.96 -1.94 
   8 -1.97 -1.95 -1.94 
   9 -1.96 -1.95 -1.94 
  10 -1.97 -1.95 -1.94 
  11 -1.96 -1.95 -1.94 
  12 -1.95 -1.94 -1.94 
  13 -1.97 -1.94 -1.94 
  14 -1.95 -1.94 -1.94 
  15 -1.96 -1.95 -1.94 
  16 -1.96 -1.94 -1.94 
  17 -1.96 -1.94 -1.94 
  18 -1.97 -1.94 -1.94 
  19 -1.96 -1.94 -1.94 
  20 -1.96 -1.95 -1.94 
  21 -1.96 -1.94 -1.94 
  22 -1.93 -1.94 -1.94 
  23 -1.96 -1.95 -1.93 
  24 -1.96 -1.95 -1.93 
  25 -1.94 -1.94 -1.93 
  26 -1.96 -1.94 -1.93 
  27 -1.95 -1.94 -1.93 
  28 -1.96 -1.94 -1.93 
  29 -1.94 -1.94 -1.93 
  30 -1.96 -1.94 -1.93 
  31 -1.93 -1.94 -1.93 
  32 -1.95 -1.94 -1.93 
  33 -1.96 -1.93 -1.93 
  34 -1.93 -1.92 -1.93 
  35 -1.93 -1.92 -1.93 
  36 -1.95 -1.91 -1.93 
  37 -1.93 -1.91 -1.93 
  38 -1.94 -1.91 -1.93 
  39 -1.91 -1.91 -1.93 
  40 -1.94 -1.89 -1.91 
  41 -1.94 -1.86 -1.91 
  42 -1.94 -1.89 -1.91 
  43 -1.91 -1.89 -1.91 
  44 -1.93 -1.89 -1.91 
  45 -1.93 -1.88 -1.91 
  46 -1.95 -1.89 -1.91 
  47 -1.94 -1.87 -1.91 
  48 -1.95 -1.88 -1.91 
  49 -1.95 -1.89 -1.91 
  50 -1.94 -1.87 -1.91 
  51 -1.94 -1.87 -1.91 
  52 -1.90 -1.87 -1.91 
  53 -1.95 -1.88 -1.90 
  54 -1.96 -1.89 -1.90 
  55 -1.94 -1.87 -1.90 
  56 -1.96 -1.89 -1.90 
  57 -1.91 -1.88 -1.90 
  58 -1.95 -1.89 -1.90 
  59 -1.94 -1.89 -1.90 
  60 -1.94 -1.87 -1.90 
  61 -1.94 -1.86 -1.90 
  62 -1.92 -1.87 -1.90 
  63 -1.91 -1.88 -1.90 
  64 -1.93 -1.82 -1.90 
  65 -1.94 -1.82 -1.90 
  66 -1.94 -1.83 -1.90 
  67 -1.94 -1.84 -1.90 
  68 -1.92 -1.86 -1.90 
  69 -1.95 -1.88 -1.90 
  70 -1.92 -1.87 -1.90 
  71 -1.93 -1.87 -1.90 
  72 -1.96 -1.89 -1.90 
  73 -1.91 -1.86 -1.90 
  74 -1.95 -1.85 -1.90 
  75 -1.91 -1.86 -1.90 
  76 -1.95 -1.83 -1.90 
  77 -1.95 -1.86 -1.90 
  78 -1.91 -1.82 -1.90 
  79 -1.94 -1.81 -1.90 
  80 -1.90 -1.82 -1.90 
  81 -1.94 -1.84 -1.90 
  82 -1.94 -1.88 -1.90 
  83 -1.92 -1.86 -1.90 
  84 -1.88 -1.87 -1.90 
  85 -1.95 -1.87 -1.88 
  86 -1.92 -1.87 -1.88 
  87 -1.95 -1.85 -1.88 
  88 -1.95 -1.91 -1.88 
  89 -1.92 -1.91 -1.88 
  90 -1.89 -1.92 -1.88 
  91 -1.82 -1.90 -1.88 
  92 -1.95 -1.91 -1.82 
  93 -1.85 -1.93 -1.82 
  94 -1.91 -1.93 -1.82 
  95 -1.93 -1.90 -1.82 
  96 -1.92 -1.90 -1.82 
  97 -1.92 -1.88 -1.82 
  98 -1.93 -1.90 -1.82 
  99 -1.95 -1.93 -1.82 
 100 -1.94 -1.91 -1.82 
 101 -1.94 -1.90 -1.82 
 102 -1.89 -1.91 -1.82 
 103 -1.96 -1.89 -1.82 
 104 -1.96 -1.84 -1.82 
 105 -1.91 -1.87 -1.82 
 106 -1.92 -1.87 -1.82 
 107 -1.93 -1.86 -1.82 
 108 -1.95 -1.89 -1.82 
 109 -1.94 -1.89 -1.82 
 110 -1.91 -1.89 -1.82 
 111 -1.95 -1.87 -1.82 
 112 -1.76 -1.89 -1.82 
 113 -1.93 -1.92 -1.76 
 114 -1.92 -1.92 -1.76 
 115 -1.93 -1.92 -1.76 
 116 -1.92 -1.92 -1.76 
 117 -1.79 -1.91 -1.76 
 118 -1.93 -1.91 -1.76 
 119 -1.92 -1.91 -1.76 
 120 -1.85 -1.90 -1.76 
 121 -1.92 -1.90 -1.76 
 122 -1.80 -1.91 -1.76 
 123 -1.91 -1.92 -1.76 
 124 -1.92 -1.93 -1.76 
 125 -1.94 -1.93 -1.76 
 126 -1.94 -1.93 -1.76 
 127 -1.93 -1.93 -1.76 
 128 -1.89 -1.93 -1.76 
 129 -1.84 -1.93 -1.76 
 130 -1.79 -1.92 -1.76 
 131 -1.93 -1.92 -1.76 
 132 -1.93 -1.92 -1.76 
 133 -1.94 -1.93 -1.76 
 134 -1.95 -1.94 -1.76 
 135 -1.91 -1.94 -1.76 
 136 -1.87 -1.94 -1.76 
 137 -1.94 -1.94 -1.76 
 138 -1.86 -1.94 -1.76 
 139 -1.80 -1.94 -1.76 
 140 -1.91 -1.93 -1.76 
 141 -1.70 -1.93 -1.76 
 142 -1.92 -1.94 -1.70 
 143 -1.92 -1.93 -1.70 
 144 -1.85 -1.91 -1.70 
 145 -1.91 -1.92 -1.70 
 146 -1.89 -1.93 -1.70 
 147 -1.84 -1.93 -1.70 
 148 -1.94 -1.91 -1.70 
 149 -1.87 -1.86 -1.70 
 150 -1.88 -1.84 -1.70 
 151 -1.91 -1.87 -1.70 
 152 -1.86 -1.86 -1.70 
 153 -1.92 -1.88 -1.70 
 154 -1.93 -1.90 -1.70 
 155 -1.93 -1.91 -1.70 
 156 -1.90 -1.92 -1.70 
 157 -1.89 -1.92 -1.70 
 158 -1.84 -1.92 -1.70 
 159 -1.81 -1.92 -1.70 
 160 -1.86 -1.93 -1.70 
 161 -1.87 -1.91 -1.70 
 162 -1.83 -1.91 -1.70 
 163 -1.89 -1.89 -1.70 
 164 -1.94 -1.88 -1.70 
 165 -1.88 -1.87 -1.70 
 166 -1.82 -1.86 -1.70 
 167 -1.91 -1.82 -1.70 
 168 -1.88 -1.81 -1.70 
 169 -1.89 -1.82 -1.70 
 170 -1.85 -1.85 -1.70 
 171 -1.87 -1.71 -1.70 
 172 -1.91 -1.73 -1.70 
 173 -1.93 -1.83 -1.70 
 174 -1.87 -1.83 -1.70 
 175 -1.83 -1.80 -1.70 
 176 -1.90 -1.75 -1.70 
 177 -1.92 -1.70 -1.70 
 178 -1.94 -1.82 -1.70 
 179 -1.89 -1.77 -1.70 
 180 -1.86 -1.72 -1.70 
 181 -1.76 -1.70 -1.70 
 182 -1.91 -1.87 -1.70 
 183 -1.71 -1.78 -1.70 
 184 -1.90 -1.48 -1.70 
 185 -1.89 -1.54 -1.70 
 186 -1.79 -1.37 -1.70 
 187 -1.80 -1.43 -1.70 
 188 -1.91 -1.38 -1.70 
 189 -1.93 -1.49 -1.70 
 190 -1.93 -1.57 -1.70 
 191 -1.74 -1.37 -1.70 
 192 -1.85 -1.71 -1.70 
 193 -1.92 -1.63 -1.70 
 194 -1.88 -1.46 -1.70 
 195 -1.80 -1.66 -1.70 
 196 -1.86 -1.65 -1.70 
 197 -1.76 -1.50 -1.70 
 198 -1.76 -1.47 -1.70 
 199 -1.79 -1.21 -1.70 
 200 -1.85 -1.44 -1.70 
 201 -1.89 -1.64 -1.70 
 202 -1.59 -1.61 -1.70 
 203 -1.92 -1.72 -1.59 
 204 -1.91 -1.70 -1.59 
 205 -1.90 -1.76 -1.59 
 206 -1.87 -1.82 -1.59 
 207 -1.89 -1.83 -1.59 
 208 -1.83 -1.82 -1.59 
 209 -1.94 -1.82 -1.59 
 210 -1.81 -1.80 -1.59 
 211 -1.88 -1.81 -1.59 
 212 -1.87 -1.84 -1.59 
 213 -1.54 -1.83 -1.59 
 214 -1.89 -1.79 -1.54 
 215 -1.76 -1.81 -1.54 
 216 -1.85 -1.83 -1.54 
 217 -1.67 -1.75 -1.54 
 218 -1.78 -1.64 -1.54 
 219 -1.60 -1.65 -1.54 
 220 -1.78 -1.60 -1.54 
 221 -1.79 -1.39 -1.54 
 222 -1.86 -1.26 -1.54 
 223 -1.29 -1.30 -1.54 
 224 -1.83 -1.36 -1.29 
 225 -1.84 -1.16 -1.29 
 226 -1.83 -1.39 -1.29 
 227 -1.86 -1.40 -1.29 
 228 -1.85 -1.40 -1.29 
 229 -1.88 -1.62 -1.29 
 230 -1.82 -1.53 -1.29 
 231 -1.77 -1.62 -1.29 
 232 -1.88 -1.55 -1.29 
 233 -1.89 -1.55 -1.29 
 234 -1.78 -1.39 -1.29 
 235 -1.74 -1.44 -1.29 
 236 -1.68 -1.35 -1.29 
 237 -1.65 -1.30 -1.29 
 238 -1.80 -1.35 -1.29 
 239 -1.88 -1.42 -1.29 
 240 -1.79 -1.46 -1.29 
 241 -1.72 -1.41 -1.29 
 242 -1.76 -1.34 -1.29 
 243 -1.67 -1.15 -1.29 
 244 -1.89 -1.06 -1.29 
 245 -1.87 -1.25 -1.29 
 246 -1.90 -1.22 -1.29 
 247 -1.76 -1.18 -1.29 
 248 -1.91 -1.44 -1.29 
 249 -1.45 -1.35 -1.29 
 250 -1.67 -1.43 -1.29 
 251 -1.77 -1.29 -1.29 
 252 -1.77 -1.31 -1.29 
 253 -1.88 -1.41 -1.29 
 254 -1.85 -1.52 -1.29 
 255 -1.58 -1.13 -1.29 
 256 -1.71 -1.05 -1.29 
 257 -1.67 -1.02 -1.29 
 258 -1.69 -1.10 -1.29 
 259 -1.53 -1.02 -1.29 
 260 -1.82 -1.06 -1.29 
 261 -1.75 -1.06 -1.29 
 262 -1.87 -1.27 -1.29 
 263 -1.82 -1.24 -1.29 
 264 -1.83 -1.25 -1.29 
 265 -1.57 -1.14 -1.29 
 266 -1.74 -1.06 -1.29 
 267 -1.80 -1.00 -1.29 
 268 -1.66 -0.93 -1.29 
 269 -1.70 -1.08 -1.29 
 270 -1.63 -0.92 -1.29 
 271 -1.72 -0.95 -1.29 
 272 -1.77 -0.97 -1.29 
 273 -1.82 -0.91 -1.29 
 274 -1.86 -0.96 -1.29 
 275 -1.89 -1.13 -1.29 
 276 -1.60 -0.98 -1.29 
 277 -1.82 -1.07 -1.29 
 278 -1.72 -1.08 -1.29 
 279 -1.74 -1.07 -1.29 
 280 -1.68 -0.99 -1.29 
 281 -1.64 -1.00 -1.29 
 282 -1.78 -1.08 -1.29 
 283 -1.81 -1.07 -1.29 
 284 -1.50 -1.03 -1.29 
 285 -1.86 -1.04 -1.29 
 286 -1.83 -0.98 -1.29 
 287 -1.67 -1.00 -1.29 
 288 -1.90 -1.15 -1.29 
 289 -1.76 -1.00 -1.29 
 290 -1.68 -1.09 -1.29 
 291 -1.63 -1.03 -1.29 
 292 -1.72 -0.81 -1.29 
 293 -1.72 -0.99 -1.29 
 294 -1.74 -1.05 -1.29 
 295 -1.76 -1.13 -1.29 
 296 -1.66 -1.15 -1.29 
 297 -1.78 -1.12 -1.29 
 298 -1.85 -0.87 -1.29 
 299 -1.78 -0.99 -1.29 
 300 -1.90 -1.05 -1.29 
 301 -1.72 -1.03 -1.29 
 302 -1.88 -0.91 -1.29 
 303 -1.63 -1.04 -1.29 
 304 -1.81 -1.08 -1.29 
 305 -1.83 -1.09 -1.29 
 306 -1.91 -1.22 -1.29 
 307 -1.78 -1.23 -1.29 
 308 -1.81 -1.24 -1.29 
 309 -1.70 -1.12 -1.29 
 310 -1.62 -1.20 -1.29 
 311 -1.68 -1.13 -1.29 
 312 -1.86 -1.13 -1.29 
 313 -1.58 -1.20 -1.29 
 314 -1.68 -1.22 -1.29 
 315 -1.90 -1.17 -1.29 
 316 -1.72 -1.20 -1.29 
 317 -1.69 -1.12 -1.29 
 318 -1.85 -1.11 -1.29 
 319 -1.71 -1.09 -1.29 
 320 -1.81 -1.19 -1.29 
 321 -1.76 -1.27 -1.29 
 322 -1.61 -1.24 -1.29 
 323 -1.67 -1.26 -1.29 
 324 -1.68 -1.19 -1.29 
 325 -1.79 -1.24 -1.29 
 326 -1.68 -1.32 -1.29 
 327 -1.87 -1.24 -1.29 
 328 -1.57 -1.26 -1.29 
 329 -1.66 -1.26 -1.29 
 330 -1.72 -1.16 -1.29 
 331 -1.58 -1.18 -1.29 
 332 -1.78 -1.18 -1.29 
 333 -1.83 -1.12 -1.29 
 334 -1.78 -1.13 -1.29 
 335 -1.71 -1.18 -1.29 
 336 -1.61 -1.24 -1.29 
 337 -1.87 -1.18 -1.29 
 338 -1.80 -1.17 -1.29 
 339 -1.62 -1.31 -1.29 
 340 -1.77 -1.35 -1.29 
 341 -1.68 -1.37 -1.29 
 342 -1.75 -1.37 -1.29 
 343 -1.59 -1.36 -1.29 
 344 -1.88 -1.33 -1.29 
 345 -1.75 -1.37 -1.29 
 346 -1.70 -1.32 -1.29 
 347 -1.61 -1.33 -1.29 
 348 -1.72 -1.38 -1.29 
 349 -1.71 -1.36 -1.29 
 350 -1.70 -1.36 -1.29 
 351 -1.59 -1.37 -1.29 
 352 -1.64 -1.31 -1.29 
 353 -1.70 -1.29 -1.29 
 354 -1.71 -1.32 -1.29 
 355 -1.74 -1.32 -1.29 
 356 -1.48 -1.34 -1.29 
 357 -1.51 -1.33 -1.29 
 358 -1.69 -1.26 -1.29 
 359 -1.70 -1.29 -1.29 
 360 -1.75 -1.33 -1.29 
 361 -1.46 -1.31 -1.29 
 362 -1.64 -1.28 -1.29 
 363 -1.36 -1.27 -1.29 
 364 -1.72 -1.25 -1.29 
 365 -1.51 -1.25 -1.29 
 366 -1.62 -1.24 -1.29 
 367 -1.59 -1.32 -1.29 
 368 -1.54 -1.22 -1.29 
 369 -1.55 -1.23 -1.29 
 370 -1.76 -1.21 -1.29 
 371 -1.68 -1.26 -1.29 
 372 -1.79 -1.28 -1.29 
 373 -1.76 -1.34 -1.29 
 374 -1.44 -1.31 -1.29 
 375 -1.49 -1.25 -1.29 
 376 -1.36 -1.20 -1.29 
 377 -1.47 -1.29 -1.29 
 378 -1.38 -1.20 -1.29 
 379 -1.63 -1.17 -1.29 
 380 -1.61 -1.22 -1.29 
 381 -1.32 -1.26 -1.29 
 382 -1.69 -1.27 -1.29 
 383 -1.64 -1.24 -1.29 
 384 -1.42 -1.35 -1.29 
 385 -1.50 -1.35 -1.29 
 386 -1.73 -1.20 -1.29 
 387 -1.65 -1.18 -1.29 
 388 -1.75 -1.13 -1.29 
 389 -1.67 -1.18 -1.29 
 390 -1.55 -1.15 -1.29 
 391 -1.66 -1.28 -1.29 
 392 -1.66 -1.13 -1.29 
 393 -1.65 -1.35 -1.29 
 394 -1.65 -1.22 -1.29 
 395 -1.65 -1.23 -1.29 
 396 -1.19 -1.28 -1.29 
 397 -1.59 -1.26 -1.19 
 398 -1.61 -1.16 -1.19 
 399 -1.74 -1.20 -1.19 
 400 -1.48 -1.21 -1.19 
 401 -1.60 -1.09 -1.19 
 402 -1.52 -1.20 -1.19 
 403 -1.39 -1.20 -1.19 
 404 -1.36 -1.22 -1.19 
 405 -1.46 -1.16 -1.19 
 406 -1.51 -1.16 -1.19 
 407 -1.58 -1.35 -1.19 
 408 -1.75 -1.23 -1.19 
 409 -1.38 -1.26 -1.19 
 410 -1.56 -1.31 -1.19 
 411 -1.52 -1.40 -1.19 
 412 -1.48 -1.44 -1.19 
 413 -1.56 -1.32 -1.19 
 414 -1.56 -1.34 -1.19 
 415 -1.60 -1.32 -1.19 
 416 -1.72 -1.35 -1.19 
 417 -1.71 -1.32 -1.19 
 418 -1.57 -1.23 -1.19 
 419 -1.39 -1.22 -1.19 
 420 -1.74 -1.21 -1.19 
 421 -1.55 -1.28 -1.19 
 422 -1.54 -1.23 -1.19 
 423 -1.70 -1.38 -1.19 
 424 -1.24 -1.22 -1.19 
 425 -1.48 -1.28 -1.19 
 426 -1.54 -1.28 -1.19 
 427 -1.43 -1.33 -1.19 
 428 -1.64 -1.35 -1.19 
 429 -1.61 -1.43 -1.19 
 430 -1.50 -1.42 -1.19 
 431 -1.56 -1.45 -1.19 
 432 -1.42 -1.43 -1.19 
 433 -1.70 -1.43 -1.19 
 434 -1.64 -1.39 -1.19 
 435 -1.40 -1.41 -1.19 
 436 -1.41 -1.30 -1.19 
 437 -1.54 -1.43 -1.19 
 438 -1.62 -1.27 -1.19 
 439 -1.09 -1.20 -1.19 
 440 -1.58 -1.31 -1.09 
 441 -1.56 -1.17 -1.09 
 442 -1.65 -1.21 -1.09 
 443 -1.52 -1.24 -1.09 
 444 -1.28 -1.08 -1.09 
 445 -1.38 -1.11 -1.09 
 446 -1.38 -1.05 -1.09 
 447 -1.39 -1.24 -1.09 
 448 -1.57 -1.27 -1.09 
 449 -1.43 -1.29 -1.09 
 450 -1.58 -1.47 -1.09 
 451 -1.55 -1.14 -1.09 
 452 -1.32 -1.36 -1.09 
 453 -1.68 -1.20 -1.09 
 454 -1.69 -1.27 -1.09 
 455 -1.30 -1.41 -1.09 
 456 -1.53 -1.48 -1.09 
 457 -1.44 -1.25 -1.09 
 458 -1.40 -1.12 -1.09 
 459 -1.56 -1.04 -1.09 
 460 -1.45 -1.10 -1.09 
 461 -1.44 -1.21 -1.09 
 462 -1.51 -1.22 -1.09 
 463 -1.39 -1.34 -1.09 
 464 -1.44 -1.34 -1.09 
 465 -1.52 -1.25 -1.09 
 466 -1.59 -1.36 -1.09 
 467 -1.49 -1.26 -1.09 
 468 -1.03 -1.09 -1.09 
 469 -1.61 -1.27 -1.03 
 470 -1.64 -1.32 -1.03 
 471 -1.65 -1.33 -1.03 
 472 -1.49 -1.41 -1.03 
 473 -1.81 -1.48 -1.03 
 474 -1.20 -1.37 -1.03 
 475 -1.66 -1.35 -1.03 
 476 -1.51 -1.40 -1.03 
 477 -1.43 -1.43 -1.03 
 478 -1.40 -1.55 -1.03 
 479 -1.17 -1.44 -1.03 
 480 -1.58 -1.45 -1.03 
 481 -1.56 -1.42 -1.03 
 482 -1.08 -1.39 -1.03 
 483 -1.37 -1.31 -1.03 
 484 -1.21 -1.32 -1.03 
 485 -1.64 -1.22 -1.03 
 486 -1.40 -1.11 -1.03 
 487 -1.43 -1.07 -1.03 
 488 -1.48 -1.06 -1.03 
 489 -1.53 -1.02 -1.03 
 490 -1.16 -0.94 -1.03 
 491 -1.25 -0.99 -1.03 
 492 -1.34 -1.04 -1.03 
 493 -1.12 -1.05 -1.03 
 494 -1.58 -1.04 -1.03 
 495 -1.37 -1.02 -1.03 
 496 -1.37 -1.03 -1.03 
 497 -1.41 -0.99 -1.03 
 498 -1.15 -1.11 -1.03 
 499 -1.36 -1.24 -1.03 
 500 -1.13 -1.04 -1.03 
 501 -1.44 -1.06 -1.03 
 502 -0.88 -0.99 -1.03 
 503 -1.20 -0.98 -0.88 
 504 -1.54 -1.07 -0.88 
 505 -1.25 -1.05 -0.88 
 506 -1.43 -1.07 -0.88 
 507 -1.46 -1.08 -0.88 
 508 -1.08 -1.00 -0.88 
 509 -1.44 -1.03 -0.88 
 510 -1.68 -0.99 -0.88 
 511 -1.14 -0.95 -0.88 
 512 -1.34 -0.94 -0.88 
 513 -1.54 -1.07 -0.88 
 514 -0.79 -1.12 -0.88 
 515 -1.44 -1.11 -0.79 
 516 -1.67 -1.08 -0.79 
 517 -1.55 -1.10 -0.79 
 518 -1.45 -1.17 -0.79 
 519 -1.25 -1.14 -0.79 
 520 -1.67 -1.06 -0.79 
 521 -1.33 -1.10 -0.79 
 522 -1.13 -1.18 -0.79 
 523 -1.27 -1.01 -0.79 
 524 -1.40 -1.04 -0.79 
 525 -1.39 -1.33 -0.79 
 526 -1.17 -1.12 -0.79 
 527 -1.50 -1.12 -0.79 
 528 -1.63 -1.03 -0.79 
 529 -1.42 -1.09 -0.79 
 530 -1.54 -1.13 -0.79 
 531 -1.59 -1.08 -0.79 
 532 -1.20 -1.15 -0.79 
 533 -1.28 -1.18 -0.79 
 534 -1.48 -1.12 -0.79 
 535 -1.43 -1.15 -0.79 
 536 -1.13 -1.19 -0.79 
 537 -1.35 -1.21 -0.79 
 538 -1.31 -1.15 -0.79 
 539 -1.33 -1.21 -0.79 
 540 -1.33 -1.14 -0.79 
 541 -1.46 -1.18 -0.79 
 542 -1.27 -1.13 -0.79 
 543 -1.27 -1.09 -0.79 
 544 -1.27 -1.12 -0.79 
 545 -1.41 -1.06 -0.79 
 546 -1.24 -1.05 -0.79 
 547 -1.22 -1.03 -0.79 
 548 -1.24 -1.02 -0.79 
 549 -1.40 -1.10 -0.79 
 550 -1.16 -1.04 -0.79 
 551 -1.32 -1.02 -0.79 
 552 -1.29 -0.95 -0.79 
 553 -1.24 -0.92 -0.79 
 554 -1.24 -0.88 -0.79 
 555 -1.20 -0.89 -0.79 
 556 -1.17 -0.85 -0.79 
 557 -1.26 -0.86 -0.79 
 558 -1.37 -0.88 -0.79 
 559 -1.32 -0.87 -0.79 
 560 -1.22 -0.89 -0.79 
 561 -1.24 -0.93 -0.79 
 562 -1.46 -0.92 -0.79 
 563 -1.11 -0.92 -0.79 
 564 -1.09 -0.94 -0.79 
 565 -1.19 -0.98 -0.79 
 566 -1.35 -1.00 -0.79 
 567 -1.30 -1.07 -0.79 
 568 -1.29 -1.08 -0.79 
 569 -1.50 -1.04 -0.79 
 570 -1.35 -1.12 -0.79 
 571 -1.20 -1.08 -0.79 
 572 -1.34 -1.02 -0.79 
 573 -1.17 -1.07 -0.79 
 574 -1.31 -1.06 -0.79 
 575 -1.39 -1.10 -0.79 
 576 -1.22 -1.14 -0.79 
 577 -1.30 -1.11 -0.79 
 578 -1.23 -1.11 -0.79 
 579 -1.28 -1.08 -0.79 
 580 -1.31 -1.09 -0.79 
 581 -0.95 -1.05 -0.79 
 582 -1.16 -1.05 -0.79 
 583 -1.39 -1.14 -0.79 
 584 -1.38 -1.03 -0.79 
 585 -1.50 -0.98 -0.79 
 586 -1.31 -0.99 -0.79 
 587 -1.16 -0.98 -0.79 
 588 -1.04 -1.01 -0.79 
 589 -1.39 -1.00 -0.79 
 590 -1.21 -1.04 -0.79 
 591 -1.49 -1.00 -0.79 
 592 -1.38 -0.98 -0.79 
 593 -0.98 -0.94 -0.79 
 594 -1.07 -0.95 -0.79 
 595 -1.07 -0.94 -0.79 
 596 -1.07 -0.95 -0.79 
 597 -0.95 -0.94 -0.79 
 598 -1.23 -0.95 -0.79 
 599 -1.17 -0.91 -0.79 
 600 -1.30 -0.92 -0.79 
 601 -1.40 -0.94 -0.79 
 602 -1.12 -0.90 -0.79 
 603 -1.28 -0.94 -0.79 
 604 -1.38 -0.96 -0.79 
 605 -1.09 -0.95 -0.79 
 606 -0.90 -0.94 -0.79 
 607 -1.59 -0.98 -0.79 
 608 -1.06 -0.88 -0.79 
 609 -1.22 -0.86 -0.79 
 610 -1.20 -0.91 -0.79 
 611 -1.16 -0.89 -0.79 
 612 -1.25 -0.89 -0.79 
 613 -1.24 -0.91 -0.79 
 614 -1.17 -0.90 -0.79 
 615 -1.12 -1.00 -0.79 
 616 -1.11 -0.87 -0.79 
 617 -1.06 -0.92 -0.79 
 618 -1.08 -0.91 -0.79 
 619 -1.11 -0.88 -0.79 
 620 -1.05 -0.89 -0.79 
 621 -1.29 -0.96 -0.79 
 622 -0.86 -0.94 -0.79 
 623 -1.27 -0.96 -0.79 
 624 -1.09 -0.94 -0.79 
 625 -1.07 -0.96 -0.79 
 626 -1.08 -0.85 -0.79 
 627 -1.10 -0.85 -0.79 
 628 -1.21 -0.90 -0.79 
 629 -1.13 -0.72 -0.79 
 630 -1.14 -0.72 -0.79 
 631 -0.91 -0.70 -0.79 
 632 -1.39 -0.72 -0.79 
 633 -0.96 -0.72 -0.79 
 634 -1.08 -0.79 -0.79 
 635 -1.07 -0.67 -0.79 
 636 -1.06 -0.81 -0.79 
 637 -0.90 -0.78 -0.79 
 638 -1.13 -0.64 -0.79 
 639 -1.07 -0.77 -0.79 
 640 -1.31 -0.77 -0.79 
 641 -0.99 -0.65 -0.79 
 642 -0.97 -0.64 -0.79 
 643 -0.43 -0.84 -0.79 
 644 -1.21 -0.86 -0.43 
 645 -1.59 -0.83 -0.43 
 646 -0.88 -0.64 -0.43 
 647 -1.01 -0.64 -0.43 
 648 -1.21 -0.72 -0.43 
 649 -1.04 -0.89 -0.43 
 650 -0.90 -0.88 -0.43 
 651 -1.02 -0.89 -0.43 
 652 -1.36 -0.91 -0.43 
 653 -1.08 -0.92 -0.43 
 654 -1.09 -0.89 -0.43 
 655 -1.28 -0.88 -0.43 
 656 -1.32 -0.85 -0.43 
 657 -1.16 -0.73 -0.43 
 658 -1.12 -0.76 -0.43 
 659 -1.24 -0.76 -0.43 
 660 -1.20 -0.79 -0.43 
 661 -1.09 -0.79 -0.43 
 662 -1.11 -0.78 -0.43 
 663 -1.12 -0.78 -0.43 
 664 -1.33 -0.77 -0.43 
 665 -0.90 -0.80 -0.43 
 666 -1.16 -0.74 -0.43 
 667 -1.17 -0.74 -0.43 
 668 -1.06 -0.75 -0.43 
 669 -1.21 -0.76 -0.43 
 670 -1.20 -0.82 -0.43 
 671 -1.14 -0.93 -0.43 
 672 -1.03 -0.83 -0.43 
 673 -1.23 -0.92 -0.43 
 674 -1.29 -0.91 -0.43 
 675 -1.15 -0.74 -0.43 
 676 -1.09 -0.71 -0.43 
 677 -1.11 -0.79 -0.43 
 678 -1.26 -0.87 -0.43 
 679 -1.18 -0.75 -0.43 
 680 -1.27 -0.72 -0.43 
 681 -1.22 -0.76 -0.43 
 682 -1.24 -0.75 -0.43 
 683 -0.91 -0.75 -0.43 
 684 -1.12 -0.73 -0.43 
 685 -1.04 -0.72 -0.43 
 686 -0.88 -0.75 -0.43 
 687 -1.16 -0.76 -0.43 
 688 -1.22 -0.79 -0.43 
 689 -0.98 -0.77 -0.43 
 690 -1.07 -0.79 -0.43 
 691 -1.13 -0.76 -0.43 
 692 -1.08 -0.75 -0.43 
 693 -1.24 -0.77 -0.43 
 694 -0.96 -0.78 -0.43 
 695 -1.05 -0.82 -0.43 
 696 -1.07 -0.79 -0.43 
 697 -1.06 -0.76 -0.43 
 698 -0.85 -0.78 -0.43 
 699 -1.02 -0.76 -0.43 
 700 -1.18 -0.71 -0.43 
 701 -0.89 -0.72 -0.43 
 702 -0.90 -0.70 -0.43 
 703 -1.09 -0.72 -0.43 
 704 -1.01 -0.70 -0.43 
 705 -1.09 -0.70 -0.43 
 706 -0.97 -0.73 -0.43 
 707 -1.04 -0.69 -0.43 
 708 -0.97 -0.69 -0.43 
 709 -1.07 -0.69 -0.43 
 710 -0.99 -0.70 -0.43 
 711 -1.30 -0.75 -0.43 
 712 -1.05 -0.72 -0.43 
 713 -1.07 -0.71 -0.43 
 714 -1.14 -0.68 -0.43 
 715 -0.88 -0.66 -0.43 
 716 -1.04 -0.68 -0.43 
 717 -0.94 -0.71 -0.43 
 718 -1.66 -0.67 -0.43 
 719 -1.25 -0.67 -0.43 
 720 -1.33 -0.70 -0.43 
 721 -0.96 -0.68 -0.43 
 722 -1.43 -0.68 -0.43 
 723 -0.97 -0.69 -0.43 
 724 -0.95 -0.70 -0.43 
 725 -1.02 -0.73 -0.43 
 726 -1.09 -0.70 -0.43 
 727 -0.21 -0.71 -0.43 
 728 -1.26 -0.81 -0.21 
 729 -0.85 -0.81 -0.21 
 730 -1.10 -0.81 -0.21 
 731 -0.98 -0.81 -0.21 
 732 -0.97 -0.85 -0.21 
 733 -1.11 -0.89 -0.21 
 734 -0.98 -0.86 -0.21 
 735 -1.45 -0.84 -0.21 
 736 -1.15 -0.86 -0.21 
 737 -0.93 -0.86 -0.21 
 738 -1.08 -0.84 -0.21 
 739 -1.03 -0.82 -0.21 
 740 -1.16 -0.82 -0.21 
 741 -1.14 -0.81 -0.21 
 742 -1.24 -0.79 -0.21 
 743 -0.96 -0.84 -0.21 
 744 -1.03 -0.80 -0.21 
 745 -0.99 -0.76 -0.21 
 746 -1.02 -0.78 -0.21 
 747 -1.24 -0.76 -0.21 
 748 -1.16 -0.75 -0.21 
 749 -0.98 -0.79 -0.21 
 750 -1.38 -0.84 -0.21 
 751 -1.00 -0.82 -0.21 
 752 -0.98 -0.84 -0.21 
 753 -0.93 -0.83 -0.21 
 754 -1.15 -0.82 -0.21 
 755 -1.01 -0.79 -0.21 
 756 -1.25 -0.81 -0.21 
 757 -1.30 -0.79 -0.21 
 758 -1.13 -0.79 -0.21 
 759 -1.23 -0.77 -0.21 
 760 -1.06 -0.77 -0.21 
 761 -1.00 -0.80 -0.21 
 762 -0.87 -0.79 -0.21 
 763 -0.96 -0.79 -0.21 
 764 -1.06 -0.79 -0.21 
 765 -0.87 -0.79 -0.21 
 766 -1.07 -0.77 -0.21 
 767 -1.29 -0.78 -0.21 
 768 -0.93 -0.79 -0.21 
 769 -1.27 -0.76 -0.21 
 770 -0.97 -0.76 -0.21 
 771 -0.85 -0.76 -0.21 
 772 -0.95 -0.75 -0.21 
 773 -1.34 -0.75 -0.21 
 774 -1.10 -0.75 -0.21 
 775 -0.99 -0.75 -0.21 
 776 -0.96 -0.74 -0.21 
 777 -0.97 -0.77 -0.21 
 778 -0.82 -0.79 -0.21 
 779 -0.98 -0.75 -0.21 
 780 -1.33 -0.85 -0.21 
 781 -0.98 -0.86 -0.21 
 782 -1.12 -0.82 -0.21 
 783 -0.86 -0.81 -0.21 
 784 -0.81 -0.80 -0.21 
 785 -1.04 -0.81 -0.21 
 786 -0.95 -0.77 -0.21 
 787 -1.18 -0.76 -0.21 
 788 -1.11 -0.74 -0.21 
 789 -0.99 -0.72 -0.21 
 790 -1.06 -0.73 -0.21 
 791 -0.93 -0.73 -0.21 
 792 -1.11 -0.79 -0.21 
 793 -1.01 -0.79 -0.21 
 794 -1.23 -0.86 -0.21 
 795 -1.16 -0.82 -0.21 
 796 -1.13 -0.82 -0.21 
 797 -1.02 -0.82 -0.21 
 798 -0.90 -0.79 -0.21 
 799 -1.08 -0.81 -0.21 
 800 -1.02 -0.82 -0.21 
 801 -0.72 -0.80 -0.21 
 802 -0.89 -0.80 -0.21 
 803 -0.89 -0.83 -0.21 
 804 -1.08 -0.83 -0.21 
 805 -0.99 -0.88 -0.21 
 806 -1.17 -0.90 -0.21 
 807 -0.88 -0.87 -0.21 
 808 -0.83 -0.90 -0.21 
 809 -0.99 -0.88 -0.21 
 810 -1.07 -0.85 -0.21 
 811 -1.04 -0.86 -0.21 
 812 -0.97 -0.88 -0.21 
 813 -0.81 -0.86 -0.21 
 814 -1.24 -0.84 -0.21 
 815 -1.00 -0.86 -0.21 
 816 -0.83 -0.85 -0.21 
 817 -1.00 -0.85 -0.21 
 818 -0.83 -0.81 -0.21 
 819 -0.92 -0.84 -0.21 
 820 -0.97 -0.89 -0.21 
 821 -0.93 -0.91 -0.21 
 822 -1.04 -0.91 -0.21 
 823 -1.03 -0.94 -0.21 
 824 -0.96 -0.91 -0.21 
 825 -0.89 -0.88 -0.21 
 826 -0.76 -0.88 -0.21 
 827 -1.00 -0.91 -0.21 
 828 -1.03 -0.96 -0.21 
 829 -1.01 -0.96 -0.21 
 830 -0.94 -0.93 -0.21 
 831 -0.82 -0.92 -0.21 
 832 -0.96 -0.94 -0.21 
 833 -0.96 -0.91 -0.21 
 834 -0.98 -0.80 -0.21 
 835 -1.20 -0.91 -0.21 
 836 -1.08 -0.82 -0.21 
 837 -1.17 -0.81 -0.21 
 838 -0.96 -0.90 -0.21 
 839 -0.97 -0.88 -0.21 
 840 -0.76 -0.77 -0.21 
 841 -1.06 -0.78 -0.21 
 842 -1.07 -0.77 -0.21 
 843 -0.94 -0.76 -0.21 
 844 -0.85 -0.75 -0.21 
 845 -1.04 -0.88 -0.21 
 846 -0.89 -0.79 -0.21 
 847 -0.79 -0.92 -0.21 
 848 -0.83 -0.90 -0.21 
 849 -1.14 -0.82 -0.21 
 850 -0.91 -0.81 -0.21 
 851 -1.07 -0.89 -0.21 
 852 -1.09 -0.90 -0.21 
 853 -1.09 -0.89 -0.21 
 854 -0.99 -0.90 -0.21 
 855 -0.84 -0.80 -0.21 
 856 -1.03 -0.76 -0.21 
 857 -0.99 -0.76 -0.21 
 858 -1.00 -0.76 -0.21 
 859 -0.91 -0.77 -0.21 
 860 -0.88 -0.76 -0.21 
 861 -1.20 -0.76 -0.21 
 862 -1.36 -0.77 -0.21 
 863 -1.00 -0.78 -0.21 
 864 -1.27 -0.75 -0.21 
 865 -0.82 -0.75 -0.21 
 866 -0.98 -0.75 -0.21 
 867 -0.92 -0.77 -0.21 
 868 -1.39 -0.77 -0.21 
 869 -1.19 -0.78 -0.21 
 870 -0.99 -0.76 -0.21 
 871 -0.93 -0.92 -0.21 
 872 -1.04 -0.95 -0.21 
 873 -1.05 -0.78 -0.21 
 874 -0.91 -0.77 -0.21 
 875 -0.93 -0.76 -0.21 
 876 -1.19 -0.75 -0.21 
 877 -1.24 -0.75 -0.21 
 878 -0.89 -0.94 -0.21 
 879 -1.01 -0.96 -0.21 
 880 -1.14 -0.97 -0.21 
 881 -0.98 -0.93 -0.21 
 882 -1.15 -0.83 -0.21 
 883 -1.02 -0.75 -0.21 
 884 -0.93 -0.79 -0.21 
 885 -0.88 -0.80 -0.21 
 886 -0.96 -0.77 -0.21 
 887 -0.98 -0.77 -0.21 
 888 -0.88 -0.78 -0.21 
 889 -1.18 -0.84 -0.21 
 890 -0.94 -0.85 -0.21 
 891 -1.05 -0.87 -0.21 
 892 -1.07 -0.88 -0.21 
 893 -0.86 -0.86 -0.21 
 894 -0.98 -0.87 -0.21 
 895 -1.01 -0.96 -0.21 
 896 -0.96 -0.90 -0.21 
 897 -1.11 -0.87 -0.21 
 898 -0.89 -0.92 -0.21 
 899 -0.82 -1.00 -0.21 
 900 -1.04 -0.89 -0.21 
 901 -0.91 -1.03 -0.21 
 902 -1.14 -0.98 -0.21 
 903 -1.04 -1.02 -0.21 
 904 -1.15 -0.98 -0.21 
 905 -0.80 -0.94 -0.21 
 906 -0.77 -0.87 -0.21 
 907 -0.95 -0.82 -0.21 
 908 -0.92 -0.87 -0.21 
 909 -0.84 -0.82 -0.21 
 910 -1.01 -0.93 -0.21 
 911 -1.01 -0.85 -0.21 
 912 -1.14 -1.00 -0.21 
 913 -0.92 -0.97 -0.21 
 914 -0.91 -1.00 -0.21 
 915 -0.82 -0.95 -0.21 
 916 -1.16 -0.94 -0.21 
 917 -0.86 -0.92 -0.21 
 918 -1.22 -0.93 -0.21 
 919 -0.76 -0.92 -0.21 
 920 -1.13 -0.94 -0.21 
 921 -0.82 -0.94 -0.21 
 922 -1.05 -0.89 -0.21 
 923 -0.90 -0.75 -0.21 
 924 -1.27 -0.99 -0.21 
 925 -1.20 -0.96 -0.21 
 926 -1.04 -1.08 -0.21 
 927 -1.07 -1.06 -0.21 
 928 -0.95 -1.05 -0.21 
 929 -1.06 -0.93 -0.21 
 930 -0.94 -1.05 -0.21 
 931 -1.12 -1.07 -0.21 
 932 -1.23 -1.04 -0.21 
 933 -1.03 -0.99 -0.21 
 934 -0.95 -0.88 -0.21 
 935 -0.89 -1.01 -0.21 
 936 -0.95 -1.00 -0.21 
 937 -1.15 -0.99 -0.21 
 938 -0.96 -1.03 -0.21 
 939 -1.24 -1.04 -0.21 
 940 -1.15 -1.01 -0.21 
 941 -0.89 -1.04 -0.21 
 942 -1.02 -1.02 -0.21 
 943 -0.89 -0.97 -0.21 
 944 -1.01 -0.97 -0.21 
 945 -0.82 -1.00 -0.21 
 946 -1.00 -0.99 -0.21 
 947 -1.11 -0.96 -0.21 
 948 -1.03 -0.97 -0.21 
 949 -0.97 -0.96 -0.21 
 950 -0.81 -0.98 -0.21 
 951 -1.09 -0.97 -0.21 
 952 -1.03 -0.97 -0.21 
 953 -0.96 -0.97 -0.21 
 954 -1.04 -0.96 -0.21 
 955 -0.85 -0.98 -0.21 
 956 -1.17 -0.97 -0.21 
 957 -1.04 -0.99 -0.21 
 958 -1.33 -0.95 -0.21 
 959 -1.08 -0.96 -0.21 
 960 -0.84 -0.96 -0.21 
 961 -0.79 -0.98 -0.21 
 962 -0.89 -0.98 -0.21 
 963 -1.19 -0.99 -0.21 
 964 -0.96 -0.99 -0.21 
 965 -0.87 -0.97 -0.21 
 966 -0.91 -0.99 -0.21 
 967 -1.29 -0.95 -0.21 
 968 -0.91 -0.94 -0.21 
 969 -0.88 -0.97 -0.21 
 970 -1.27 -0.96 -0.21 
 971 -0.82 -0.96 -0.21 
 972 -1.33 -0.99 -0.21 
 973 -0.98 -0.84 -0.21 
 974 -0.79 -0.86 -0.21 
 975 -1.06 -0.88 -0.21 
 976 -1.14 -0.92 -0.21 
 977 -0.80 -0.92 -0.21 
 978 -1.07 -0.92 -0.21 
 979 -0.72 -0.83 -0.21 
 980 -0.97 -0.85 -0.21 
 981 -0.99 -1.03 -0.21 
 982 -0.87 -0.74 -0.21 
 983 -0.91 -0.85 -0.21 
 984 -0.57 -0.80 -0.21 
 985 -0.85 -0.79 -0.21 
 986 -1.02 -0.77 -0.21 
 987 -0.81 -0.79 -0.21 
 988 -0.98 -0.70 -0.21 
 989 -0.93 -0.70 -0.21 
 990 -0.78 -0.68 -0.21 
 991 -1.02 -0.81 -0.21 
 992 -0.88 -0.93 -0.21 
 993 -0.93 -0.81 -0.21 
 994 -0.87 -0.80 -0.21 
 995 -0.95 -0.79 -0.21 
 996 -0.88 -0.78 -0.21 
 997 -1.05 -0.71 -0.21 
 998 -0.82 -0.71 -0.21 
 999 -1.13 -0.72 -0.21 
1000 -1.05 -0.73 -0.21 
1001 -1.00 -0.75 -0.21 
1002 -0.99 -0.70 -0.21 
1003 -0.96 -0.72 -0.21 
1004 -0.91 -0.80 -0.21 
1005 -1.05 -0.78 -0.21 
1006 -1.08 -0.76 -0.21 
1007 -1.29 -0.71 -0.21 
1008 -0.88 -0.67 -0.21 
1009 -1.07 -0.65 -0.21 
1010 -1.09 -0.75 -0.21 
1011 -0.88 -0.84 -0.21 
1012 -0.84 -0.67 -0.21 
1013 -1.01 -0.72 -0.21 
1014 -1.18 -0.69 -0.21 
1015 -0.76 -0.70 -0.21 
1016 -1.01 -0.69 -0.21 
1017 -0.79 -0.68 -0.21 
1018 -1.01 -0.71 -0.21 
1019 -0.90 -0.70 -0.21 
1020 -0.94 -0.78 -0.21 
1021 -0.91 -0.79 -0.21 
1022 -0.86 -0.77 -0.21 
1023 -1.02 -0.79 -0.21 
1024 -1.07 -0.69 -0.21 
1025 -0.83 -0.72 -0.21 
1026 -1.12 -0.77 -0.21 
1027 -0.79 -0.78 -0.21 
1028 -0.80 -0.76 -0.21 
1029 -1.06 -0.72 -0.21 
1030 -0.98 -0.74 -0.21 
1031 -0.88 -0.72 -0.21 
1032 -0.94 -0.70 -0.21 
1033 -1.01 -0.69 -0.21 
1034 -1.04 -0.76 -0.21 
1035 -0.90 -0.81 -0.21 
1036 -0.90 -0.64 -0.21 
1037 -1.10 -0.65 -0.21 
1038 -0.89 -0.63 -0.21 
1039 -1.05 -0.67 -0.21 
1040 -0.83 -0.66 -0.21 
1041 -1.05 -0.61 -0.21 
1042 -0.96 -0.63 -0.21 
1043 -0.75 -0.63 -0.21 
1044 -0.91 -0.76 -0.21 
1045 -1.14 -0.86 -0.21 
1046 -0.83 -0.71 -0.21 
1047 -0.85 -0.84 -0.21 
1048 -1.14 -0.74 -0.21 
1049 -0.99 -0.70 -0.21 
1050 -0.90 -0.70 -0.21 
1051 -1.24 -0.71 -0.21 
1052 -1.04 -0.75 -0.21 
1053 -0.85 -0.89 -0.21 
1054 -1.02 -0.77 -0.21 
1055 -1.04 -0.76 -0.21 
1056 -1.03 -0.74 -0.21 
1057 -0.83 -0.74 -0.21 
1058 -1.03 -0.74 -0.21 
1059 -0.82 -0.75 -0.21 
1060 -0.98 -0.84 -0.21 
1061 -0.85 -0.75 -0.21 
1062 -0.71 -0.74 -0.21 
1063 -1.13 -0.74 -0.21 
1064 -0.99 -0.73 -0.21 
1065 -0.91 -0.75 -0.21 
1066 -1.01 -0.84 -0.21 
1067 -0.90 -0.78 -0.21 
1068 -0.98 -0.84 -0.21 
1069 -0.90 -0.78 -0.21 
1070 -1.24 -0.84 -0.21 
1071 -1.20 -0.74 -0.21 
1072 -1.16 -0.99 -0.21 
1073 -0.86 -0.94 -0.21 
1074 -0.98 -0.85 -0.21 
1075 -0.97 -0.94 -0.21 
1076 -1.22 -0.71 -0.21 
1077 -1.03 -0.80 -0.21 
1078 -0.95 -0.86 -0.21 
1079 -0.98 -0.73 -0.21 
1080 -0.89 -0.77 -0.21 
1081 -1.22 -0.83 -0.21 
1082 -0.94 -0.96 -0.21 
1083 -0.87 -0.82 -0.21 
1084 -1.10 -0.85 -0.21 
1085 -1.21 -0.86 -0.21 
1086 -1.06 -0.87 -0.21 
1087 -0.97 -0.98 -0.21 
1088 -0.99 -0.94 -0.21 
1089 -1.19 -0.91 -0.21 
1090 -1.00 -0.90 -0.21 
1091 -0.99 -1.01 -0.21 
1092 -0.92 -0.92 -0.21 
1093 -1.24 -1.01 -0.21 
1094 -0.81 -0.82 -0.21 
1095 -1.01 -1.00 -0.21 
1096 -0.87 -0.97 -0.21 
1097 -1.00 -1.05 -0.21 
1098 -0.90 -0.99 -0.21 
1099 -0.86 -0.99 -0.21 
1100 -0.99 -0.98 -0.21 
1101 -1.11 -0.92 -0.21 
1102 -1.12 -1.00 -0.21 
1103 -0.67 -0.85 -0.21 
1104 -0.96 -0.94 -0.21 
1105 -1.15 -0.86 -0.21 
1106 -0.89 -0.89 -0.21 
1107 -1.00 -1.01 -0.21 
1108 -0.96 -0.97 -0.21 
1109 -0.94 -0.82 -0.21 
1110 -1.04 -0.68 -0.21 
1111 -0.89 -0.70 -0.21 
1112 -1.08 -0.70 -0.21 
1113 -0.89 -0.78 -0.21 
1114 -1.09 -0.75 -0.21 
1115 -0.93 -0.73 -0.21 
1116 -0.89 -0.72 -0.21 
1117 -0.71 -0.67 -0.21 
1118 -0.96 -0.70 -0.21 
1119 -0.97 -0.68 -0.21 
1120 -0.67 -0.64 -0.21 
1121 -0.79 -0.67 -0.21 
1122 -0.78 -0.67 -0.21 
1123 -0.95 -0.80 -0.21 
1124 -0.94 -0.66 -0.21 
1125 -0.85 -0.69 -0.21 
1126 -1.04 -0.67 -0.21 
1127 -0.82 -0.66 -0.21 
1128 -1.06 -0.60 -0.21 
1129 -0.88 -0.60 -0.21 
1130 -0.99 -0.59 -0.21 
1131 -0.92 -0.59 -0.21 
1132 -1.30 -0.65 -0.21 
1133 -1.32 -0.66 -0.21 
1134 -1.04 -0.66 -0.21 
1135 -0.97 -0.68 -0.21 
1136 -0.93 -0.70 -0.21 
1137 -0.75 -0.63 -0.21 
1138 -0.94 -0.63 -0.21 
1139 -0.93 -0.64 -0.21 
1140 -0.99 -0.74 -0.21 
1141 -0.93 -0.66 -0.21 
1142 -1.03 -0.74 -0.21 
1143 -0.86 -0.73 -0.21 
1144 -1.22 -0.67 -0.21 
1145 -1.01 -0.69 -0.21 
1146 -1.33 -0.68 -0.21 
1147 -1.06 -0.69 -0.21 
1148 -1.27 -0.70 -0.21 
1149 -1.05 -0.74 -0.21 
1150 -1.00 -0.67 -0.21 
1151 -1.14 -0.63 -0.21 
1152 -0.70 -0.64 -0.21 
1153 -1.17 -0.71 -0.21 
1154 -0.67 -0.68 -0.21 
1155 -0.94 -0.72 -0.21 
1156 -1.13 -0.72 -0.21 
1157 -0.94 -0.74 -0.21 
1158 -0.76 -0.71 -0.21 
1159 -0.79 -0.72 -0.21 
1160 -0.92 -0.70 -0.21 
1161 -0.85 -0.79 -0.21 
1162 -1.04 -0.76 -0.21 
1163 -0.93 -0.75 -0.21 
1164 -1.04 -0.72 -0.21 
1165 -1.11 -0.72 -0.21 
1166 -0.86 -0.73 -0.21 
1167 -1.08 -0.70 -0.21 
1168 -0.94 -0.71 -0.21 
1169 -0.80 -0.72 -0.21 
1170 -0.90 -0.69 -0.21 
1171 -1.01 -0.68 -0.21 
1172 -0.78 -0.69 -0.21 
1173 -0.85 -0.72 -0.21 
1174 -1.06 -0.72 -0.21 
1175 -1.01 -0.68 -0.21 
1176 -0.85 -0.67 -0.21 
1177 -1.01 -0.69 -0.21 
1178 -1.11 -0.70 -0.21 
1179 -0.94 -0.70 -0.21 
1180 -0.79 -0.70 -0.21 
1181 -1.05 -0.70 -0.21 
1182 -1.02 -0.69 -0.21 
1183 -0.92 -0.69 -0.21 
1184 -0.94 -0.68 -0.21 
1185 -1.12 -0.69 -0.21 
1186 -1.06 -0.75 -0.21 
1187 -0.92 -0.72 -0.21 
1188 -1.06 -0.75 -0.21 
1189 -0.91 -0.75 -0.21 
1190 -1.24 -0.72 -0.21 
1191 -1.05 -0.77 -0.21 
1192 -0.92 -0.75 -0.21 
1193 -0.91 -0.77 -0.21 
1194 -0.88 -0.79 -0.21 
1195 -0.70 -0.77 -0.21 
1196 -1.18 -0.72 -0.21 
1197 -1.25 -0.77 -0.21 
1198 -0.95 -0.70 -0.21 
1199 -0.88 -0.71 -0.21 
1200 -1.04 -0.77 -0.21 
1201 -1.23 -0.79 -0.21 
1202 -1.01 -0.74 -0.21 
1203 -0.80 -0.79 -0.21 
1204 -0.83 -0.81 -0.21 
1205 -0.91 -0.82 -0.21 
1206 -1.15 -0.83 -0.21 
1207 -1.12 -0.75 -0.21 
1208 -0.94 -0.75 -0.21 
1209 -0.95 -0.79 -0.21 
1210 -0.62 -0.74 -0.21 
1211 -0.86 -0.78 -0.21 
1212 -0.85 -0.82 -0.21 
1213 -0.83 -0.81 -0.21 
1214 -1.11 -0.77 -0.21 
1215 -1.18 -0.83 -0.21 
1216 -0.92 -0.80 -0.21 
1217 -0.91 -0.85 -0.21 
1218 -0.95 -0.76 -0.21 
1219 -1.15 -0.80 -0.21 
1220 -0.81 -0.81 -0.21 
1221 -1.03 -0.75 -0.21 
1222 -0.93 -0.73 -0.21 
1223 -0.78 -0.82 -0.21 
1224 -0.96 -0.72 -0.21 
1225 -0.95 -0.76 -0.21 
1226 -0.83 -0.75 -0.21 
1227 -1.05 -0.75 -0.21 
1228 -0.88 -0.81 -0.21 
1229 -1.05 -0.72 -0.21 
1230 -1.24 -0.76 -0.21 
1231 -1.01 -0.74 -0.21 
1232 -0.78 -0.75 -0.21 
1233 -1.05 -0.74 -0.21 
1234 -0.98 -0.75 -0.21 
1235 -0.94 -0.74 -0.21 
1236 -1.08 -0.80 -0.21 
1237 -1.09 -0.76 -0.21 
1238 -1.01 -0.76 -0.21 
1239 -0.98 -0.77 -0.21 
1240 -0.98 -0.76 -0.21 
1241 -1.12 -0.79 -0.21 
1242 -1.04 -0.80 -0.21 
1243 -0.86 -0.75 -0.21 
1244 -0.84 -0.81 -0.21 
1245 -1.24 -0.81 -0.21 
1246 -0.99 -0.74 -0.21 
1247 -0.97 -0.74 -0.21 
1248 -0.74 -0.61 -0.21 
1249 -0.83 -0.71 -0.21 
1250 -0.72 -0.71 -0.21 
1251 -1.05 -0.68 -0.21 
1252 -0.85 -0.71 -0.21 
1253 -1.18 -0.64 -0.21 
1254 -0.80 -0.67 -0.21 
1255 -1.20 -0.73 -0.21 
1256 -1.05 -0.71 -0.21 
1257 -0.75 -0.69 -0.21 
1258 -0.93 -0.69 -0.21 
1259 -0.65 -0.71 -0.21 
1260 -0.96 -0.70 -0.21 
1261 -0.94 -0.69 -0.21 
1262 -1.08 -0.67 -0.21 
1263 -0.81 -0.67 -0.21 
1264 -1.12 -0.67 -0.21 
1265 -0.95 -0.69 -0.21 
1266 -1.04 -0.69 -0.21 
1267 -1.16 -0.70 -0.21 
1268 -0.85 -0.70 -0.21 
1269 -0.78 -0.69 -0.21 
1270 -0.71 -0.70 -0.21 
1271 -0.95 -0.69 -0.21 
1272 -0.97 -0.71 -0.21 
1273 -0.96 -0.72 -0.21 
1274 -0.81 -0.70 -0.21 
1275 -0.83 -0.68 -0.21 
1276 -0.93 -0.65 -0.21 
1277 -0.87 -0.65 -0.21 
1278 -0.79 -0.69 -0.21 
1279 -0.77 -0.66 -0.21 
1280 -1.06 -0.64 -0.21 
1281 -0.97 -0.67 -0.21 
1282 -0.98 -0.66 -0.21 
1283 -0.95 -0.63 -0.21 
1284 -0.89 -0.71 -0.21 
1285 -1.25 -0.65 -0.21 
1286 -0.96 -0.65 -0.21 
1287 -0.93 -0.68 -0.21 
1288 -0.92 -0.69 -0.21 
1289 -0.86 -0.65 -0.21 
1290 -1.14 -0.68 -0.21 
1291 -1.04 -0.74 -0.21 
1292 -0.77 -0.72 -0.21 
1293 -0.96 -0.72 -0.21 
1294 -0.74 -0.74 -0.21 
1295 -0.91 -0.74 -0.21 
1296 -0.94 -0.74 -0.21 
1297 -1.24 -0.72 -0.21 
1298 -0.98 -0.70 -0.21 
1299 -0.87 -0.67 -0.21 
1300 -1.03 -0.66 -0.21 
1301 -0.90 -0.64 -0.21 
1302 -0.91 -0.66 -0.21 
1303 -0.86 -0.67 -0.21 
1304 -0.92 -0.76 -0.21 
1305 -0.96 -0.67 -0.21 
1306 -1.09 -0.74 -0.21 
1307 -0.96 -0.74 -0.21 
1308 -1.23 -0.74 -0.21 
1309 -1.01 -0.77 -0.21 
1310 -1.04 -0.77 -0.21 
1311 -0.94 -0.79 -0.21 
1312 -1.10 -0.67 -0.21 
1313 -1.00 -0.70 -0.21 
1314 -0.87 -0.80 -0.21 
1315 -0.87 -0.81 -0.21 
1316 -1.07 -0.70 -0.21 
1317 -1.05 -0.74 -0.21 
1318 -1.06 -0.82 -0.21 
1319 -1.35 -0.71 -0.21 
1320 -1.17 -0.78 -0.21 
1321 -0.84 -0.73 -0.21 
1322 -0.98 -0.81 -0.21 
1323 -1.03 -0.69 -0.21 
1324 -1.12 -0.89 -0.21 
1325 -0.93 -0.85 -0.21 
1326 -1.07 -0.86 -0.21 
1327 -0.94 -0.80 -0.21 
1328 -0.89 -0.80 -0.21 
1329 -0.99 -0.82 -0.21 
1330 -1.13 -0.80 -0.21 
1331 -0.79 -0.67 -0.21 
1332 -0.76 -0.76 -0.21 
1333 -0.99 -0.76 -0.21 
1334 -0.87 -0.77 -0.21 
1335 -0.93 -0.72 -0.21 
1336 -0.76 -0.81 -0.21 
1337 -1.11 -0.67 -0.21 
1338 -0.94 -0.80 -0.21 
1339 -1.02 -0.72 -0.21 
1340 -0.74 -0.82 -0.21 
1341 -0.75 -0.81 -0.21 
1342 -1.05 -0.80 -0.21 
1343 -0.97 -0.84 -0.21 
1344 -0.98 -0.81 -0.21 
1345 -0.92 -0.60 -0.21 
1346 -0.79 -0.79 -0.21 
1347 -0.80 -0.69 -0.21 
1348 -0.98 -0.73 -0.21 
1349 -1.04 -0.73 -0.21 
1350 -1.44 -0.70 -0.21 
1351 -0.91 -0.64 -0.21 
1352 -1.08 -0.69 -0.21 
1353 -0.76 -0.70 -0.21 
1354 -1.28 -0.65 -0.21 
1355 -0.89 -0.73 -0.21 
1356 -0.86 -0.67 -0.21 
1357 -0.99 -0.70 -0.21 
1358 -0.93 -0.69 -0.21 
1359 -1.22 -0.73 -0.21 
1360 -0.77 -0.74 -0.21 
1361 -0.83 -0.74 -0.21 
1362 -0.67 -0.74 -0.21 
1363 -1.07 -0.73 -0.21 
1364 -0.94 -0.75 -0.21 
1365 -0.89 -0.70 -0.21 
1366 -0.75 -0.72 -0.21 
1367 -1.22 -0.71 -0.21 
1368 -1.01 -0.75 -0.21 
1369 -1.07 -0.73 -0.21 
1370 -1.21 -0.77 -0.21 
1371 -0.84 -0.67 -0.21 
1372 -0.96 -0.76 -0.21 
1373 -1.04 -0.58 -0.21 
1374 -0.88 -0.74 -0.21 
1375 -0.80 -0.74 -0.21 
1376 -0.88 -0.73 -0.21 
1377 -1.01 -0.75 -0.21 
1378 -0.92 -0.75 -0.21 
1379 -1.08 -0.59 -0.21 
1380 -0.83 -0.63 -0.21 
1381 -0.85 -0.75 -0.21 
1382 -0.97 -0.62 -0.21 
1383 -0.90 -0.66 -0.21 
1384 -0.99 -0.55 -0.21 
1385 -0.96 -0.54 -0.21 
1386 -0.96 -0.67 -0.21 
1387 -0.68 -0.65 -0.21 
1388 -0.86 -0.66 -0.21 
1389 -0.90 -0.71 -0.21 
1390 -0.91 -0.57 -0.21 
1391 -0.86 -0.60 -0.21 
1392 -0.80 -0.54 -0.21 
1393 -0.86 -0.61 -0.21 
1394 -0.81 -0.59 -0.21 
1395 -0.66 -0.65 -0.21 
1396 -0.69 -0.68 -0.21 
1397 -0.90 -0.69 -0.21 
1398 -0.91 -0.63 -0.21 
1399 -0.88 -0.57 -0.21 
1400 -0.92 -0.66 -0.21 
1401 -0.87 -0.70 -0.21 
1402 -1.01 -0.74 -0.21 
1403 -0.75 -0.90 -0.21 
1404 -0.68 -0.66 -0.21 
1405 -0.88 -0.96 -0.21 
1406 -0.83 -1.03 -0.21 
1407 -0.92 -1.08 -0.21 
1408 -1.07 -1.05 -0.21 
1409 -1.02 -0.96 -0.21 
1410 -1.00 -0.69 -0.21 
1411 -0.84 -0.72 -0.21 
1412 -0.80 -0.69 -0.21 
1413 -0.90 -0.69 -0.21 
1414 -0.94 -0.73 -0.21 
1415 -0.98 -0.68 -0.21 
1416 -0.83 -1.05 -0.21 
1417 -0.76 -1.29 -0.21 
1418 -0.93 -0.63 -0.21 
1419 -0.76 -0.69 -0.21 
1420 -0.87 -0.73 -0.21 
1421 -0.92 -0.90 -0.21 
1422 -0.86 -0.66 -0.21 
1423 -0.75 -1.22 -0.21 
1424 -0.74 -1.19 -0.21 
1425 -0.85 -0.87 -0.21 
1426 -0.83 -1.03 -0.21 
1427 -0.89 -0.73 -0.21 
1428 -0.78 -0.69 -0.21 
1429 -0.84 -1.03 -0.21 
1430 -1.03 -0.97 -0.21 
1431 -0.80 -0.65 -0.21 
1432 -0.71 -0.95 -0.21 
1433 -1.17 -0.67 -0.21 
1434 -0.73 -0.69 -0.21 
1435 -1.22 -1.06 -0.21 
1436 -0.99 -0.82 -0.21 
1437 -0.92 -1.11 -0.21 
1438 -1.11 -0.99 -0.21 
1439 -0.80 -1.14 -0.21 
1440 -0.78 -1.26 -0.21 
1441 -1.13 -1.06 -0.21 
1442 -0.84 -0.92 -0.21 
1443 -0.69 -1.21 -0.21 
1444 -0.78 -0.63 -0.21 
1445 -0.92 -0.61 -0.21 
1446 -1.09 -0.59 -0.21 
1447 -0.88 -0.61 -0.21 
1448 -1.14 -0.59 -0.21 
1449 -0.81 -0.60 -0.21 
1450 -0.64 -0.61 -0.21 
1451 -0.86 -0.59 -0.21 
1452 -0.93 -0.61 -0.21 
1453 -0.84 -0.61 -0.21 
1454 -1.04 -0.59 -0.21 
1455 -0.80 -0.64 -0.21 
1456 -0.75 -0.63 -0.21 
1457 -0.76 -0.64 -0.21 
1458 -0.90 -1.15 -0.21 
1459 -1.01 -1.05 -0.21 
1460 -0.82 -1.11 -0.21 
1461 -1.06 -1.06 -0.21 
1462 -0.79 -1.09 -0.21 
1463 -0.88 -1.11 -0.21 
1464 -0.99 -1.00 -0.21 
1465 -0.95 -1.13 -0.21 
1466 -0.76 -1.06 -0.21 
1467 -1.11 -1.08 -0.21 
1468 -1.12 -1.11 -0.21 
1469 -0.81 -0.99 -0.21 
1470 -1.08 -1.06 -0.21 
1471 -0.78 -1.08 -0.21 
1472 -0.72 -1.00 -0.21 
1473 -0.92 -0.87 -0.21 
1474 -0.95 -1.00 -0.21 
1475 -1.20 -1.15 -0.21 
1476 -0.90 -1.03 -0.21 
1477 -1.00 -0.98 -0.21 
1478 -0.92  0.02 -0.21 
1479 -0.85 -1.15 -0.21 
1480 -0.70  0.00 -0.21 
1481 -1.25 -0.94 -0.21 
1482 -0.94  0.01 -0.21 
1483 -0.83 -0.91 -0.21 
1484 -0.96  0.05 -0.21 
1485 -0.77 -1.36 -0.21 
1486 -0.87 -1.32 -0.21 
1487 -0.85 -1.03 -0.21 
1488 -0.85 -0.97 -0.21 
1489 -0.93 -0.93 -0.21 
1490 -0.16 -0.89 -0.21 
1491 -1.00 -0.91 -0.16 
1492 -1.09 -1.20 -0.16 
1493 -0.91  0.04 -0.16 
1494 -1.06 -1.21 -0.16 
1495 -0.96 -0.93 -0.16 
1496 -0.82 -1.71 -0.16 
1497 -0.78 -1.66 -0.16 
1498 -0.95 -1.82 -0.16 
1499 -0.66 -1.80 -0.16 
1500 -0.81 -1.75 -0.16 
1501 -0.80 -1.80 -0.16 
1502 -1.10  0.03 -0.16 
1503 -0.81 -1.80 -0.16 
1504 -0.92 -1.83 -0.16 
1505 -0.99 -0.01 -0.16 
1506 -0.80 -1.11 -0.16 
1507 -0.79 -0.97 -0.16 
1508 -0.93 -0.98 -0.16 
1509 -1.16 -1.82 -0.16 
1510 -0.69 -1.27 -0.16 
1511 -1.10 -1.72 -0.16 
1512 -0.80 -1.72 -0.16 
1513 -0.83 -0.89 -0.16 
1514 -1.16 -1.31 -0.16 
1515 -0.87 -1.24 -0.16 
1516 -1.04 -1.26 -0.16 
1517 -1.31 -0.98 -0.16 
1518 -1.07 -0.90 -0.16 
1519 -1.36 -0.93 -0.16 
1520 -0.65 -1.03 -0.16 
1521 -0.73 -1.01 -0.16 
1522 -0.72 -1.14 -0.16 
1523 -0.86 -1.01 -0.16 
1524 -0.57 -1.16 -0.16 
1525 -0.91 -1.10 -0.16 
1526 -1.00 -1.10 -0.16 
1527 -0.83 -0.97 -0.16 
1528 -0.82 -0.86 -0.16 
1529 -0.92 -1.07 -0.16 
1530 -0.93 -0.94 -0.16 
1531 -0.79 -1.13 -0.16 
1532 -0.99 -0.96 -0.16 
1533 -0.75 -1.11 -0.16 
1534 -0.76 -1.18 -0.16 
1535 -0.71 -1.03 -0.16 
1536 -0.68 -1.14 -0.16 
1537 -0.68 -1.02 -0.16 
1538 -0.69 -1.03 -0.16 
1539 -0.75 -1.05 -0.16 
1540 -0.72 -0.93 -0.16 
1541 -0.97 -1.14 -0.16 
1542 -1.15 -1.17 -0.16 
1543 -0.74 -1.11 -0.16 
1544 -0.91 -1.00 -0.16 
1545 -0.59 -1.14 -0.16 
1546 -0.97 -1.02 -0.16 
1547 -0.80 -1.13 -0.16 
1548 -0.76 -1.24 -0.16 
1549 -0.84 -0.96 -0.16 
1550 -0.93 -0.94 -0.16 
1551 -0.83 -0.83 -0.16 
1552 -0.85 -0.73 -0.16 
1553 -0.91 -1.01 -0.16 
1554 -0.75 -0.66 -0.16 
1555 -0.91 -0.73 -0.16 
1556 -0.93 -0.71 -0.16 
1557 -1.03 -0.75 -0.16 
1558 -0.72 -0.77 -0.16 
1559 -0.88 -0.95 -0.16 
1560 -0.73 -0.72 -0.16 
1561 -0.84 -0.72 -0.16 
1562 -0.73 -0.68 -0.16 
1563 -1.02 -0.67 -0.16 
1564 -0.73 -0.68 -0.16 
1565 -0.98 -0.71 -0.16 
1566 -0.70 -0.66 -0.16 
1567 -0.68 -0.80 -0.16 
1568 -0.67 -0.70 -0.16 
1569 -0.99 -0.65 -0.16 
1570 -0.82 -0.68 -0.16 
1571 -0.63 -0.92 -0.16 
1572 -0.81 -0.66 -0.16 
1573  0.05 -0.67 -0.16 
1574 -0.85 -0.70  0.05 
1575 -0.86 -0.69  0.05 
1576 -0.74 -0.64  0.05 
1577 -0.71 -0.72  0.05 
1578 -0.65 -0.73  0.05 
1579 -0.64 -0.77  0.05 
1580 -0.72 -0.81  0.05 
1581 -0.97 -0.76  0.05 
1582 -0.77 -0.79  0.05 
1583 -0.78 -0.81  0.05 
1584 -0.71 -0.76  0.05 
1585 -0.78 -0.80  0.05 
1586 -0.66 -0.81  0.05 
1587 -0.82 -0.83  0.05 
1588 -1.02 -0.75  0.05 
1589 -0.80 -0.76  0.05 
1590 -0.78 -0.79  0.05 
1591 -0.68 -0.77  0.05 
1592 -0.62 -0.74  0.05 
1593 -0.80 -0.98  0.05 
1594 -0.80 -0.67  0.05 
1595 -0.71 -0.91  0.05 
1596 -0.78 -1.01  0.05 
1597 -1.21 -0.86  0.05 
1598 -1.01 -0.62  0.05 
1599 -0.69 -0.65  0.05 
1600 -0.79 -0.70  0.05 
1601 -1.01 -0.68  0.05 
1602 -0.79 -0.76  0.05 
1603 -0.83 -0.67  0.05 
1604 -0.90 -0.68  0.05 
1605 -0.64 -0.70  0.05 
1606 -0.70 -0.82  0.05 
1607 -0.96 -0.72  0.05 
1608 -0.82 -0.69  0.05 
1609 -0.71 -0.69  0.05 
1610 -0.78 -0.66  0.05 
1611 -0.82 -1.15  0.05 
1612 -0.95 -0.94  0.05 
1613 -0.94 -0.96  0.05 
1614 -0.69 -0.71  0.05 
1615 -0.85 -0.70  0.05 
1616 -0.85 -0.70  0.05 
1617 -0.80 -0.69  0.05 
1618 -0.65 -0.73  0.05 
1619 -0.80 -0.68  0.05 
1620 -0.74 -0.68  0.05 
1621 -0.90 -0.65  0.05 
1622 -0.86 -0.66  0.05 
1623 -0.82 -0.92  0.05 
1624 -0.86 -0.65  0.05 
1625 -0.74 -1.01  0.05 
1626 -1.10 -0.93  0.05 
1627 -0.97 -0.98  0.05 
1628 -0.87 -0.99  0.05 
1629 -0.86 -0.96  0.05 
1630 -0.91 -1.05  0.05 
1631 -0.60 -1.01  0.05 
1632 -0.72 -0.88  0.05 
1633 -0.81 -0.98  0.05 
1634 -0.70 -0.70  0.05 
1635 -0.83 -1.11  0.05 
1636 -0.79 -0.68  0.05 
1637 -0.76 -0.70  0.05 
1638 -0.65 -0.64  0.05 
1639 -0.55 -0.93  0.05 
1640 -0.89 -0.96  0.05 
1641 -0.77 -1.03  0.05 
1642 -0.73 -1.03  0.05 
1643 -0.66 -0.62  0.05 
1644 -0.82 -1.21  0.05 
1645 -0.72 -0.66  0.05 
1646 -0.73 -0.69  0.05 
1647 -0.66 -1.16  0.05 
1648 -0.78 -0.67  0.05 
1649 -0.76 -1.07  0.05 
1650 -0.80 -0.63  0.05 
1651 -0.84 -0.98  0.05 
1652 -0.72 -1.19  0.05 
1653 -0.76 -0.74  0.05 
1654 -0.66 -1.12  0.05 
1655 -0.89 -1.12  0.05 
1656 -0.74 -1.09  0.05 
1657 -0.76 -1.13  0.05 
1658 -0.60 -0.90  0.05 
1659 -0.80 -0.80  0.05 
1660 -1.00 -0.70  0.05 
1661 -0.71 -0.98  0.05 
1662 -0.78 -1.02  0.05 
1663 -0.83 -0.97  0.05 
1664 -0.89 -1.03  0.05 
1665 -0.85 -0.94  0.05 
1666 -0.76 -0.97  0.05 
1667 -0.72 -1.00  0.05 
1668 -0.75 -1.00  0.05 
1669 -0.82 -0.99  0.05 
1670 -0.71 -0.90  0.05 
1671 -0.65 -0.91  0.05 
1672 -0.69 -0.73  0.05 
1673 -1.01 -0.92  0.05 
1674 -0.94 -0.85  0.05 
1675 -1.13 -0.91  0.05 
1676 -0.94 -0.97  0.05 
1677 -0.64 -0.68  0.05 
1678 -0.77 -0.91  0.05 
1679 -0.91 -0.62  0.05 
1680 -1.13 -0.86  0.05 
1681 -0.69 -0.67  0.05 
1682 -1.01 -0.78  0.05 
1683 -0.75 -0.66  0.05 
1684 -0.66 -0.94  0.05 
1685 -0.83 -0.95  0.05 
1686 -0.70 -0.80  0.05 
1687 -0.67 -1.02  0.05 
1688 -0.93 -0.73  0.05 
1689 -1.03 -0.75  0.05 
1690 -0.74 -0.72  0.05 
1691 -0.67 -1.01  0.05 
1692 -0.67 -0.76  0.05 
1693 -0.70 -0.68  0.05 
1694 -0.68 -1.20  0.05 
1695 -0.70 -0.68  0.05 
1696 -0.80 -0.70  0.05 
1697 -0.72 -0.73  0.05 
1698 -0.84 -0.72  0.05 
1699 -0.91 -0.75  0.05 
1700 -0.68 -0.85  0.05 
1701 -0.91 -0.76  0.05 
1702 -0.89 -0.85  0.05 
1703 -0.89 -0.80  0.05 
1704 -0.70 -0.76  0.05 
1705 -0.72 -0.94  0.05 
1706 -0.70 -0.70  0.05 
1707 -0.58 -0.66  0.05 
1708 -0.77 -0.76  0.05 
1709 -0.87 -0.71  0.05 
1710 -0.87 -0.79  0.05 
1711 -0.62 -0.65  0.05 
1712 -0.57 -0.66  0.05 
1713 -0.96 -0.82  0.05 
1714 -0.77 -0.74  0.05 
1715 -0.68 -0.78  0.05 
1716 -0.80 -0.67  0.05 
1717 -0.81 -0.84  0.05 
1718 -0.58 -0.71  0.05 
1719 -0.76 -1.01  0.05 
1720 -0.74 -0.84  0.05 
1721 -0.75 -1.05  0.05 
1722 -0.80 -0.65  0.05 
1723 -0.58 -0.76  0.05 
1724 -0.86 -1.09  0.05 
1725 -0.62 -0.96  0.05 
1726 -0.66 -0.63  0.05 
1727 -0.66 -0.92  0.05 
1728 -0.95 -0.68  0.05 
1729 -0.95 -0.89  0.05 
1730 -1.04 -0.80  0.05 
1731 -0.64 -0.86  0.05 
1732 -0.80 -0.76  0.05 
1733 -0.81 -0.72  0.05 
1734 -0.71 -0.82  0.05 
1735 -0.75 -0.69  0.05 
1736 -1.05 -0.74  0.05 
1737 -0.80 -0.68  0.05 
1738 -0.79 -0.82  0.05 
1739 -0.82 -0.69  0.05 
1740 -0.64 -1.20  0.05 
1741 -0.64 -0.72  0.05 
1742 -0.59 -0.83  0.05 
1743 -0.71 -0.85  0.05 
1744 -0.70 -0.86  0.05 
1745 -0.72 -0.73  0.05 
1746 -0.94 -0.83  0.05 
1747 -0.70 -0.78  0.05 
1748 -0.73 -0.67  0.05 
1749 -0.62 -0.79  0.05 
1750 -0.75 -0.76  0.05 
1751 -0.73 -0.64  0.05 
1752 -0.71 -1.35  0.05 
1753 -0.86 -1.20  0.05 
1754 -0.65 -0.84  0.05 
1755 -0.69 -1.32  0.05 
1756 -0.86 -0.59  0.05 
1757 -0.83 -0.81  0.05 
1758 -0.90 -1.16  0.05 
1759 -0.92 -1.42  0.05 
1760 -0.72 -0.67  0.05 
1761 -0.72 -1.34  0.05 
1762 -0.85 -0.61  0.05 
1763 -0.72 -0.89  0.05 
1764 -0.71 -0.64  0.05 
1765 -0.68 -0.90  0.05 
1766 -0.98 -0.64  0.05 
1767 -0.77 -0.81  0.05 
1768 -0.76 -0.66  0.05 
1769 -0.79 -0.73  0.05 
1770 -0.71 -0.58  0.05 
1771 -0.79 -0.66  0.05 
1772 -0.66 -0.70  0.05 
1773 -0.75 -0.64  0.05 
1774 -0.91 -0.93  0.05 
1775 -0.69 -0.68  0.05 
1776 -0.59 -0.81  0.05 
1777 -0.82 -0.78  0.05 
1778 -0.87 -0.60  0.05 
1779 -0.92 -0.64  0.05 
1780 -0.83 -0.63  0.05 
1781 -0.94 -0.61  0.05 
1782 -0.64 -0.59  0.05 
1783 -0.80 -0.65  0.05 
1784 -0.77 -0.90  0.05 
1785 -0.95 -0.87  0.05 
1786 -0.88 -0.70  0.05 
1787 -0.82 -0.95  0.05 
1788 -0.84 -0.63  0.05 
1789 -0.84 -1.04  0.05 
1790 -0.86 -0.67  0.05 
1791 -0.94 -0.66  0.05 
1792 -0.90 -0.63  0.05 
1793 -0.88 -0.65  0.05 
1794 -0.89 -0.62  0.05 
1795 -0.78 -0.83  0.05 
1796 -0.81 -1.00  0.05 
1797 -0.90 -0.62  0.05 
1798 -0.86 -0.65  0.05 
1799 -0.71 -0.60  0.05 
1800 -0.87 -0.87  0.05 
1801 -0.71 -0.72  0.05 
1802 -0.68 -0.75  0.05 
1803 -0.71 -0.83  0.05 
1804 -0.72 -0.58  0.05 
1805 -0.85 -0.69  0.05 
1806 -0.97 -0.60  0.05 
1807 -0.82 -0.58  0.05 
1808 -1.02 -0.61  0.05 
1809 -0.77 -0.62  0.05 
1810 -0.96 -0.69  0.05 
1811 -0.69 -0.63  0.05 
1812 -0.64 -0.62  0.05 
1813 -0.88 -0.64  0.05 
1814 -0.94 -0.89  0.05 
1815 -0.90 -0.65  0.05 
1816 -0.60 -0.97  0.05 
1817 -0.66 -0.65  0.05 
1818 -0.74 -0.66  0.05 
1819 -0.81 -0.74  0.05 
1820 -0.73 -0.68  0.05 
1821 -0.74 -0.67  0.05 
1822 -0.70 -0.77  0.05 
1823 -0.68 -0.70  0.05 
1824 -0.70 -0.88  0.05 
1825 -0.67 -0.71  0.05 
1826 -0.66 -0.78  0.05 
1827 -0.77 -0.86  0.05 
1828 -0.75 -0.93  0.05 
1829 -0.74 -0.81  0.05 
1830 -0.70 -0.70  0.05 
1831 -0.65 -0.62  0.05 
1832 -0.83 -0.68  0.05 
1833 -0.64 -0.63  0.05 
1834 -1.01 -0.64  0.05 
1835 -0.75 -1.11  0.05 
1836 -0.63 -1.08  0.05 
1837 -0.65 -1.00  0.05 
1838 -0.75 -0.65  0.05 
1839  0.21 -0.92  0.05 
1840 -0.55 -0.65  0.21 
1841 -0.60 -0.90  0.21 
1842 -0.72 -0.89  0.21 
1843 -1.06 -0.97  0.21 
1844 -0.62 -0.69  0.21 
1845 -0.38 -0.69  0.21 
1846 -0.75 -0.90  0.21 
1847 -0.67 -0.81  0.21 
1848 -0.76 -0.96  0.21 
1849 -0.70 -0.93  0.21 
1850 -0.58 -0.89  0.21 
1851 -0.91 -0.99  0.21 
1852 -0.76 -0.95  0.21 
1853 -0.71 -1.02  0.21 
1854 -0.93 -1.02  0.21 
1855 -0.79 -0.88  0.21 
1856 -1.03 -0.92  0.21 
1857 -0.69 -0.85  0.21 
1858 -0.77 -0.95  0.21 
1859 -0.79 -0.97  0.21 
1860 -0.60 -0.81  0.21 
1861 -0.49 -0.99  0.21 
1862 -0.12 -0.93  0.21 
1863 -0.97 -0.89  0.21 
1864 -0.93 -0.90  0.21 
1865 -0.76 -0.80  0.21 
1866 -0.62 -0.88  0.21 
1867 -0.63 -0.90  0.21 
1868 -0.21 -0.94  0.21 
1869 -0.90 -0.95  0.21 
1870 -0.68 -0.86  0.21 
1871 -0.84 -0.98  0.21 
1872 -0.66 -1.02  0.21 
1873 -1.05 -1.11  0.21 
1874 -0.66 -0.99  0.21 
1875 -0.77 -1.04  0.21 
1876 -0.94 -0.59  0.21 
1877 -1.08 -1.14  0.21 
1878 -0.78 -1.00  0.21 
1879 -0.84 -0.91  0.21 
1880 -0.95 -0.62  0.21 
1881 -0.84 -1.12  0.21 
1882 -0.59 -0.64  0.21 
1883 -0.98 -0.89  0.21 
1884 -0.91 -0.62  0.21 
1885 -0.75 -0.99  0.21 
1886 -0.85 -1.07  0.21 
1887 -0.88 -0.74  0.21 
1888 -0.78 -0.75  0.21 
1889 -0.86 -0.98  0.21 
1890 -0.91 -0.80  0.21 
1891 -0.79 -0.71  0.21 
1892 -0.84 -0.67  0.21 
1893 -0.63 -0.77  0.21 
1894 -0.88 -0.70  0.21 
1895 -0.81 -0.82  0.21 
1896 -0.80 -1.14  0.21 
1897 -0.93 -0.70  0.21 
1898 -0.68 -1.00  0.21 
1899 -0.88 -1.08  0.21 
1900 -0.90 -1.18  0.21 
1901 -0.74 -0.89  0.21 
1902 -0.89 -1.34  0.21 
1903 -1.01 -0.77  0.21 
1904 -0.75 -0.79  0.21 
1905 -0.74 -0.66  0.21 
1906 -0.93 -0.73  0.21 
1907 -0.94 -0.73  0.21 
1908 -0.82 -0.74  0.21 
1909 -0.87 -0.79  0.21 
1910 -0.91 -0.68  0.21 
1911 -0.73 -0.73  0.21 
1912 -0.92 -0.76  0.21 
1913 -0.80 -0.80  0.21 
1914 -0.84 -0.69  0.21 
1915 -0.90 -0.66  0.21 
1916 -1.12 -0.89  0.21 
1917 -0.67 -0.69  0.21 
1918 -0.76 -0.90  0.21 
1919 -1.03 -0.87  0.21 
1920 -0.75 -0.83  0.21 
1921 -0.82 -0.83  0.21 
1922 -0.86 -0.83  0.21 
1923 -0.82 -0.74  0.21 
1924 -0.92 -0.73  0.21 
1925 -0.81 -0.83  0.21 
1926 -0.69 -0.73  0.21 
1927 -0.78 -0.76  0.21 
1928 -0.87 -0.77  0.21 
1929 -0.57 -0.68  0.21 
1930 -0.80 -0.76  0.21 
1931 -0.85 -0.80  0.21 
1932 -0.81 -0.79  0.21 
1933 -0.86 -0.76  0.21 
1934 -0.80 -0.77  0.21 
1935 -0.76 -0.73  0.21 
1936 -1.05 -0.65  0.21 
1937 -0.92 -0.69  0.21 
1938 -0.83 -0.72  0.21 
1939 -0.79 -0.84  0.21 
1940 -1.11 -0.91  0.21 
1941 -0.92 -0.87  0.21 
1942 -1.15 -0.83  0.21 
1943 -0.79 -0.80  0.21 
1944 -0.77 -0.76  0.21 
1945 -0.80 -0.85  0.21 
1946 -0.95 -0.67  0.21 
1947 -0.86 -0.85  0.21 
1948 -1.00 -0.74  0.21 
1949 -0.96 -0.76  0.21 
1950 -0.90 -0.76  0.21 
1951 -0.84 -0.74  0.21 
1952 -0.83 -0.75  0.21 
1953 -0.78 -0.72  0.21 
1954 -0.78 -0.70  0.21 
1955 -0.66 -0.77  0.21 
1956 -0.77 -0.87  0.21 
1957 -0.77 -0.76  0.21 
1958 -0.84 -0.71  0.21 
1959 -0.90 -0.70  0.21 
1960 -0.88 -0.71  0.21 
1961 -0.78 -0.83  0.21 
1962 -1.04 -0.78  0.21 
1963 -0.75 -0.72  0.21 
1964 -0.69 -0.80  0.21 
1965 -0.91 -0.91  0.21 
1966 -0.80 -0.95  0.21 
1967 -0.69 -1.03  0.21 
1968 -0.72 -1.03  0.21 
1969 -0.66 -0.88  0.21 
1970 -1.01 -0.81  0.21 
1971 -0.77 -0.77  0.21 
1972 -0.79 -0.77  0.21 
1973 -0.73 -0.77  0.21 
1974 -0.74 -0.73  0.21 
1975 -0.87 -0.78  0.21 
1976 -0.85 -0.84  0.21 
1977 -0.91 -0.74  0.21 
1978 -0.77 -0.88  0.21 
1979 -0.92 -0.83  0.21 
1980 -0.88 -0.84  0.21 
1981 -0.82 -0.85  0.21 
1982 -0.73 -0.86  0.21 
1983 -0.71 -0.80  0.21 
1984 -0.84 -0.92  0.21 
1985 -0.87 -0.95  0.21 
1986 -0.80 -0.75  0.21 
1987 -1.06 -0.81  0.21 
1988 -0.88 -0.95  0.21 
1989 -0.98 -0.80  0.21 
1990 -1.02 -0.87  0.21 
1991 -0.67 -0.91  0.21 
1992 -1.11 -0.79  0.21 
1993 -1.03 -0.90  0.21 
1994 -0.79 -0.80  0.21 
1995 -0.88 -0.81  0.21 
1996 -0.93 -0.93  0.21 
1997 -0.81 -0.91  0.21 
1998 -0.89 -0.84  0.21 
1999 -0.66 -0.84  0.21 
2000 -0.78 -0.89  0.21 
2001 -0.72 -0.89  0.21 
2002 -0.98 -0.83  0.21 
2003 -0.91 -0.98  0.21 
2004 -0.83 -0.93  0.21 
2005 -0.84 -0.84  0.21 
2006 -0.80 -0.95  0.21 
2007 -0.79 -0.84  0.21 
2008 -0.94 -0.74  0.21 
2009 -0.69 -0.74  0.21 
2010 -0.87 -0.97  0.21 
2011 -0.93 -1.00  0.21 
2012 -0.91 -0.91  0.21 
2013 -1.14 -0.77  0.21 
2014 -0.65 -0.85  0.21 
2015 -0.92 -0.80  0.21 
2016 -0.87 -0.73  0.21 
2017 -0.82 -0.76  0.21 
2018 -1.10 -0.69  0.21 
2019 -0.80 -0.67  0.21 
2020 -0.82 -0.72  0.21 
2021 -0.91 -0.82  0.21 
2022 -0.88 -0.71  0.21 
2023 -0.90 -0.77  0.21 
2024 -0.91 -0.75  0.21 
2025 -0.60 -0.76  0.21 
2026 -0.82 -0.70  0.21 
2027 -0.89 -0.72  0.21 
2028 -0.84 -0.77  0.21 
2029 -0.59 -0.75  0.21 
2030 -0.86 -0.76  0.21 
2031 -0.78 -0.79  0.21 
2032 -0.85 -0.69  0.21 
2033 -0.89 -0.68  0.21 
2034 -0.63 -0.74  0.21 
2035 -0.73 -0.72  0.21 
2036 -0.64 -0.71  0.21 
2037 -0.93 -0.91  0.21 
2038 -0.64 -0.74  0.21 
2039 -0.82 -0.71  0.21 
2040 -0.72 -0.78  0.21 
2041 -0.95 -0.73  0.21 
2042 -0.91 -0.70  0.21 
2043 -0.73 -0.76  0.21 
2044 -0.68 -0.75  0.21 
2045 -0.89 -0.76  0.21 
2046 -0.88 -0.73  0.21 
2047 -0.71 -0.74  0.21 
2048 -0.62 -0.71  0.21 
2049 -0.88 -0.67  0.21 
2050 -0.88 -0.67  0.21 
2051 -0.90 -0.70  0.21 
2052 -0.67 -0.66  0.21 
2053 -0.73 -0.68  0.21 
2054 -0.75 -0.67  0.21 
2055 -0.95 -0.68  0.21 
2056 -0.67 -0.61  0.21 
2057 -0.73 -0.69  0.21 
2058 -0.77 -0.67  0.21 
2059 -0.80 -0.64  0.21 
2060 -0.78 -0.65  0.21 
2061 -0.85 -0.61  0.21 
2062 -0.78 -0.65  0.21 
2063 -0.84 -0.71  0.21 
2064 -0.93 -0.71  0.21 
2065 -0.84 -0.72  0.21 
2066 -0.73 -0.69  0.21 
2067 -0.54 -0.68  0.21 
2068 -0.70 -0.69  0.21 
2069 -0.73 -0.68  0.21 
2070 -0.79 -0.60  0.21 
2071 -0.87 -0.67  0.21 
2072 -0.87 -0.67  0.21 
2073 -0.80 -0.77  0.21 
2074 -0.85 -0.54  0.21 
2075 -0.69 -0.55  0.21 
2076 -0.65 -0.83  0.21 
2077 -1.00 -0.57  0.21 
2078 -0.76 -0.57  0.21 
2079 -0.65 -0.62  0.21 
2080 -0.78 -0.61  0.21 
2081 -0.62 -0.59  0.21 
2082 -0.80 -0.59  0.21 
2083 -0.95 -0.58  0.21 
2084 -0.80 -0.81  0.21 
2085 -0.79 -0.69  0.21 
2086 -0.74 -0.73  0.21 
2087 -0.77 -0.55  0.21 
2088 -0.69 -0.64  0.21 
2089 -0.83 -0.64  0.21 
2090 -0.58 -0.67  0.21 
2091 -0.82 -0.68  0.21 
2092 -0.66 -0.67  0.21 
2093 -0.72 -0.69  0.21 
2094 -0.76 -0.73  0.21 
2095 -0.77 -0.82  0.21 
2096 -0.72 -0.62  0.21 
2097 -0.78 -0.65  0.21 
2098 -1.03 -0.56  0.21 
2099 -0.69 -0.72  0.21 
2100 -0.97 -0.67  0.21 
2101 -0.61 -0.64  0.21 
2102 -0.65 -0.64  0.21 
2103 -0.83 -0.83  0.21 
2104 -0.72 -0.80  0.21 
2105 -0.73 -0.83  0.21 
2106 -0.71 -0.89  0.21 
2107 -0.77 -0.54  0.21 
2108 -0.76 -0.66  0.21 
2109 -0.93 -0.57  0.21 
2110 -0.75 -0.49  0.21 
2111 -0.87 -0.52  0.21 
2112 -0.85 -0.56  0.21 
2113 -0.70 -0.85  0.21 
2114 -0.25 -0.75  0.21 
2115 -0.74 -0.73  0.21 
2116 -1.08 -0.73  0.21 
2117 -0.69 -0.77  0.21 
2118 -0.64 -0.91  0.21 
2119 -0.74 -0.76  0.21 
2120 -0.64 -0.78  0.21 
2121 -0.79 -0.69  0.21 
2122 -0.64 -0.72  0.21 
2123 -0.73 -0.60  0.21 
2124 -0.68 -0.76  0.21 
2125 -0.71 -0.85  0.21 
2126 -0.71 -0.69  0.21 
2127 -0.63 -0.74  0.21 
2128 -0.68 -0.83  0.21 
2129 -0.65 -0.64  0.21 
2130 -0.58 -1.07  0.21 
2131 -0.78 -0.96  0.21 
2132 -0.66 -1.03  0.21 
2133 -0.92 -1.10  0.21 
2134 -0.72 -1.01  0.21 
2135 -0.61 -0.96  0.21 
2136 -0.70 -0.98  0.21 
2137 -0.68 -0.81  0.21 
2138 -0.72 -0.88  0.21 
2139 -0.89 -0.93  0.21 
2140 -0.97 -1.02  0.21 
2141 -0.92 -0.83  0.21 
2142 -0.87 -0.72  0.21 
2143 -0.78 -0.97  0.21 
2144 -0.74 -0.82  0.21 
2145 -0.72 -0.71  0.21 
2146 -0.96 -0.96  0.21 
2147 -0.89 -1.00  0.21 
2148 -0.97 -0.67  0.21 
2149 -0.60 -0.65  0.21 
2150 -0.81 -0.71  0.21 
2151 -0.86 -0.56  0.21 
2152 -0.76 -0.56  0.21 
2153 -0.94 -0.59  0.21 
2154 -1.03 -0.71  0.21 
2155 -0.79 -0.75  0.21 
2156 -0.79 -0.76  0.21 
2157 -0.80 -0.65  0.21 
2158 -0.70 -1.02  0.21 
2159 -0.75 -0.79  0.21 
2160 -0.85 -0.91  0.21 
2161 -0.83 -1.03  0.21 
2162 -0.62 -0.92  0.21 
2163 -0.93 -0.83  0.21 
2164 -0.65 -0.98  0.21 
2165 -0.86 -0.86  0.21 
2166 -0.68 -0.86  0.21 
2167 -0.74 -0.69  0.21 
2168 -0.88 -0.76  0.21 
2169 -0.69 -0.77  0.21 
2170 -0.82 -0.73  0.21 
2171 -0.73 -0.74  0.21 
2172 -0.78 -0.74  0.21 
2173 -0.78 -0.70  0.21 
2174 -0.81 -0.74  0.21 
2175 -0.82 -0.89  0.21 
2176 -0.77 -0.62  0.21 
2177 -0.79 -0.80  0.21 
2178 -0.66 -0.74  0.21 
2179 -0.60 -0.82  0.21 
2180 -0.97 -0.96  0.21 
2181 -0.82 -0.70  0.21 
2182 -0.64 -0.72  0.21 
2183 -0.85 -0.66  0.21 
2184 -0.85 -0.70  0.21 
2185 -0.71 -0.96  0.21 
2186 -0.85 -0.57  0.21 
2187 -0.66 -0.47  0.21 
2188 -0.83 -0.52  0.21 
2189 -0.79 -0.68  0.21 
2190 -0.75 -0.64  0.21 
2191 -0.75 -0.64  0.21 
2192 -0.73 -0.57  0.21 
2193 -0.61 -0.58  0.21 
2194 -0.86 -0.61  0.21 
2195 -0.82 -0.59  0.21 
2196 -0.73 -0.64  0.21 
2197 -0.62 -0.65  0.21 
2198 -0.75 -0.61  0.21 
2199 -0.65 -0.59  0.21 
2200 -0.83 -0.56  0.21 
2201 -0.77 -0.67  0.21 
2202 -0.59 -0.68  0.21 
2203 -0.70 -0.60  0.21 
2204 -0.62 -0.61  0.21 
2205 -0.63 -0.56  0.21 
2206 -0.67 -0.61  0.21 
2207 -0.70 -0.58  0.21 
2208 -0.65 -0.63  0.21 
2209 -0.66 -0.62  0.21 
2210 -0.83 -0.63  0.21 
2211 -0.77 -0.65  0.21 
2212 -0.76 -0.70  0.21 
2213 -0.72 -0.69  0.21 
2214 -0.91 -0.68  0.21 
2215 -0.59 -0.65  0.21 
2216 -0.85 -0.53  0.21 
2217 -0.80 -0.53  0.21 
2218 -0.78 -0.66  0.21 
2219 -0.68 -0.67  0.21 
2220 -0.79 -0.62  0.21 
2221 -0.74 -0.62  0.21 
2222 -0.58 -0.58  0.21 
2223 -0.77 -0.55  0.21 
2224 -0.69 -0.56  0.21 
2225 -0.69 -0.51  0.21 
2226 -0.73 -0.57  0.21 
2227 -0.73 -0.54  0.21 
2228 -0.84 -0.67  0.21 
2229 -0.78 -0.69  0.21 
2230 -0.57 -0.66  0.21 
2231 -0.69 -0.66  0.21 
2232 -0.73 -0.68  0.21 
2233 -0.76 -0.69  0.21 
2234 -0.76 -0.68  0.21 
2235 -0.68 -0.65  0.21 
2236 -0.85 -0.67  0.21 
2237 -0.63 -0.63  0.21 
2238 -0.72 -0.64  0.21 
2239 -0.79 -0.67  0.21 
2240 -0.76 -0.66  0.21 
2241 -0.76 -0.69  0.21 
2242 -0.74 -0.68  0.21 
2243 -0.63 -0.65  0.21 
2244 -0.64 -0.68  0.21 
2245 -0.66 -0.68  0.21 
2246 -0.76 -0.65  0.21 
2247 -0.67 -0.70  0.21 
2248 -0.86 -0.53  0.21 
2249 -0.85 -0.63  0.21 
2250 -0.85 -0.61  0.21 
2251 -0.78 -0.54  0.21 
2252 -0.81 -0.56  0.21 
2253 -0.80 -0.55  0.21 
2254 -0.64 -0.52  0.21 
2255 -0.67 -0.51  0.21 
2256 -0.66 -0.58  0.21 
2257 -0.63 -0.58  0.21 
2258 -0.69 -0.50  0.21 
2259 -0.66 -0.46  0.21 
2260 -0.81 -0.62  0.21 
2261 -0.62 -0.64  0.21 
2262 -0.75 -0.63  0.21 
2263 -0.66 -0.57  0.21 
2264 -0.73 -0.54  0.21 
2265 -0.72 -0.60  0.21 
2266 -0.60 -0.57  0.21 
2267 -0.83 -0.68  0.21 
2268 -0.92 -0.51  0.21 
2269 -0.75 -0.52  0.21 
2270 -0.76 -0.62  0.21 
2271 -0.63 -0.48  0.21 
2272 -0.34 -0.55  0.21 
2273 -0.69 -0.59  0.21 
2274 -0.66 -0.60  0.21 
2275 -0.79 -0.54  0.21 
2276 -0.65 -0.63  0.21 
2277 -0.71 -0.68  0.21 
2278 -0.78 -0.58  0.21 
2279 -0.69 -0.51  0.21 
2280 -0.82 -0.53  0.21 
2281 -0.77 -0.53  0.21 
2282 -0.76 -0.58  0.21 
2283 -0.68 -0.60  0.21 
2284 -0.65 -0.60  0.21 
2285 -0.79 -0.59  0.21 
2286 -0.69 -0.64  0.21 
2287 -0.81 -0.58  0.21 
2288 -0.60 -0.63  0.21 
2289 -0.67 -0.60  0.21 
2290 -0.70 -0.59  0.21 
2291 -0.81 -0.58  0.21 
2292 -0.87 -0.68  0.21 
2293 -1.00 -0.57  0.21 
2294 -1.00 -0.71  0.21 
2295 -0.74 -0.58  0.21 
2296 -0.63 -0.57  0.21 
2297 -0.70 -0.58  0.21 
2298 -0.78 -0.64  0.21 
2299 -0.79 -0.61  0.21 
2300 -0.73 -0.59  0.21 
2301 -0.79 -0.63  0.21 
2302 -0.72 -0.63  0.21 
2303 -0.90 -0.68  0.21 
2304 -0.64 -0.63  0.21 
2305 -0.89 -0.59  0.21 
2306 -0.62 -0.65  0.21 
2307 -0.79 -0.60  0.21 
2308 -0.75 -0.63  0.21 
2309 -0.91 -0.63  0.21 
2310 -0.69 -0.65  0.21 
2311 -0.58 -0.81  0.21 
2312 -0.66 -0.70  0.21 
2313 -0.60 -0.69  0.21 
2314 -0.83 -0.73  0.21 
2315 -0.69 -0.69  0.21 
2316 -0.83 -0.68  0.21 
2317 -0.70 -0.59  0.21 
2318 -0.93 -0.70  0.21 
2319 -0.68 -0.66  0.21 
2320 -0.88 -0.73  0.21 
2321 -0.69 -0.74  0.21 
2322 -0.84 -0.74  0.21 
2323 -0.97 -0.68  0.21 
2324 -1.05 -0.66  0.21 
2325 -0.60 -0.67  0.21 
2326 -0.75 -0.70  0.21 
2327 -0.72 -0.59  0.21 
2328 -0.77 -0.57  0.21 
2329 -0.75 -0.67  0.21 
2330 -0.78 -0.72  0.21 
2331 -0.68 -0.77  0.21 
2332 -0.76 -0.68  0.21 
2333 -0.74 -0.68  0.21 
2334 -0.65 -0.71  0.21 
2335 -0.62 -0.71  0.21 
2336 -0.69 -0.82  0.21 
2337 -0.88 -0.91  0.21 
2338 -0.70 -1.13  0.21 
2339 -0.67 -1.08  0.21 
2340 -0.69 -1.31  0.21 
2341 -1.09 -1.01  0.21 
2342 -0.74 -0.65  0.21 
2343 -0.73 -0.89  0.21 
2344 -0.72 -0.67  0.21 
2345 -0.81 -0.68  0.21 
2346 -0.58 -0.81  0.21 
2347 -0.80 -0.64  0.21 
2348 -0.78 -0.68  0.21 
2349 -0.59 -0.60  0.21 
2350 -0.81 -0.65  0.21 
2351 -0.66 -0.69  0.21 
2352 -0.58 -0.72  0.21 
2353 -0.83 -0.71  0.21 
2354 -0.67 -0.65  0.21 
2355 -0.63 -0.68  0.21 
2356 -0.60 -0.75  0.21 
2357 -0.74 -0.77  0.21 
2358 -0.58 -0.99  0.21 
2359 -0.66 -0.65  0.21 
2360 -0.77 -0.59  0.21 
2361 -0.61 -0.96  0.21 
2362 -0.70 -1.07  0.21 
2363 -0.77 -0.59  0.21 
2364 -0.71 -0.65  0.21 
2365 -0.85 -0.74  0.21 
2366 -0.71 -1.15  0.21 
2367 -0.78 -0.49  0.21 
2368 -0.83 -0.77  0.21 
2369 -0.64 -0.53  0.21 
2370 -1.03 -0.51  0.21 
2371 -1.03 -0.52  0.21 
2372 -0.65 -0.64  0.21 
2373 -0.56 -0.45  0.21 
2374 -0.59 -0.55  0.21 
2375 -0.70 -0.52  0.21 
2376 -0.69 -0.58  0.21 
2377 -0.62 -0.62  0.21 
2378 -0.77 -0.45  0.21 
2379 -0.67 -0.51  0.21 
2380 -0.74 -0.57  0.21 
2381 -0.79 -0.71  0.21 
2382 -0.57 -0.55  0.21 
2383 -0.86 -0.54  0.21 
2384 -0.63 -0.43  0.21 
2385 -0.60 -0.64  0.21 
2386 -0.89 -0.42  0.21 
2387 -0.58 -0.56  0.21 
2388 -0.64 -0.43  0.21 
2389 -0.62 -0.48  0.21 
2390 -0.89 -0.52  0.21 
2391 -0.71 -0.45  0.21 
2392 -0.66 -0.43  0.21 
2393 -1.02 -0.46  0.21 
2394 -0.75 -0.51  0.21 
2395 -0.78 -0.47  0.21 
2396 -0.62 -0.64  0.21 
2397 -0.93 -0.44  0.21 
2398 -0.63 -0.51  0.21 
2399 -0.80 -0.64  0.21 
2400 -0.65 -0.61  0.21 
2401 -0.89 -0.51  0.21 
2402 -0.69 -0.52  0.21 
2403 -0.70 -0.54  0.21 
2404 -0.48 -0.52  0.21 
2405 -0.77 -0.53  0.21 
2406 -0.83 -0.48  0.21 
2407 -0.78 -0.45  0.21 
2408 -0.51 -0.60  0.21 
2409 -0.72 -0.66  0.21 
2410 -0.66 -0.56  0.21 
2411 -0.72 -0.58  0.21 
2412 -0.58 -0.63  0.21 
2413 -0.64 -0.43  0.21 
2414 -0.57 -0.49  0.21 
2415 -0.56 -0.61  0.21 
2416 -0.53 -0.53  0.21 
2417 -0.76 -0.48  0.21 
2418 -0.71 -0.53  0.21 
2419 -0.90 -0.48  0.21 
2420 -0.58 -0.48  0.21 
2421 -0.72 -0.45  0.21 
2422 -0.71 -0.51  0.21 
2423 -0.78 -0.72  0.21 
2424 -0.74 -0.74  0.21 
2425 -1.00 -0.65  0.21 
2426 -0.67 -0.44  0.21 
2427 -0.65 -0.48  0.21 
2428 -0.71 -0.56  0.21 
2429 -0.76 -0.55  0.21 
2430 -0.62 -0.52  0.21 
2431 -0.81 -0.52  0.21 
2432 -0.69 -0.49  0.21 
2433 -1.00 -0.49  0.21 
2434 -0.64 -0.50  0.21 
2435 -0.62 -0.54  0.21 
2436 -0.73 -0.52  0.21 
2437 -1.05 -0.49  0.21 
2438 -0.67 -0.48  0.21 
2439 -0.63 -0.59  0.21 
2440 -0.80 -0.51  0.21 
2441 -0.67 -0.62  0.21 
2442 -0.58 -0.61  0.21 
2443 -0.85 -0.50  0.21 
2444 -0.57 -0.49  0.21 
2445 -0.63 -0.48  0.21 
2446 -0.58 -0.51  0.21 
2447 -0.59 -0.53  0.21 
2448 -0.71 -0.52  0.21 
2449 -0.74 -0.53  0.21 
2450 -0.76 -0.64  0.21 
2451 -0.69 -0.55  0.21 
2452 -0.83 -0.51  0.21 
2453 -0.68 -0.58  0.21 
2454 -0.78 -0.48  0.21 
2455 -0.73 -0.51  0.21 
2456 -0.61 -0.57  0.21 
2457 -0.59 -0.55  0.21 
2458 -0.80 -0.63  0.21 
2459 -0.87 -0.55  0.21 
2460 -0.64 -0.61  0.21 
2461 -0.72 -0.54  0.21 
2462 -0.85 -0.62  0.21 
2463 -0.60 -0.50  0.21 
2464 -0.59 -0.53  0.21 
2465 -0.59 -0.50  0.21 
2466 -0.62 -0.49  0.21 
2467 -0.64 -0.49  0.21 
2468 -0.91 -0.51  0.21 
2469 -0.60 -0.64  0.21 
2470 -0.69 -0.55  0.21 
2471 -0.75 -0.51  0.21 
2472 -0.62 -0.51  0.21 
2473 -0.68 -0.50  0.21 
2474 -0.86 -0.51  0.21 
2475 -0.65 -0.50  0.21 
2476 -0.65 -0.52  0.21 
2477 -0.57 -0.54  0.21 
2478 -0.88 -0.54  0.21 
2479 -0.59 -0.58  0.21 
2480 -0.93 -0.53  0.21 
2481 -0.77 -0.49  0.21 
2482 -0.66 -0.49  0.21 
2483 -0.57 -0.47  0.21 
2484 -0.57 -0.47  0.21 
2485 -0.62 -0.53  0.21 
2486 -0.55 -0.54  0.21 
2487 -0.73 -0.45  0.21 
2488 -0.70 -0.53  0.21 
2489 -0.84 -0.48  0.21 
2490 -0.94 -0.52  0.21 
2491 -0.65 -0.61  0.21 
2492 -0.62 -0.61  0.21 
2493 -0.76 -0.61  0.21 
2494 -0.76 -0.53  0.21 
2495 -0.61 -0.54  0.21 
2496 -0.88 -0.54  0.21 
2497 -0.63 -0.49  0.21 
2498 -0.63 -0.63  0.21 
2499 -0.67 -0.53  0.21 
2500 -0.56 -0.52  0.21 
2501 -0.69 -0.61  0.21 
2502 -0.59 -0.56  0.21 
2503 -0.56 -0.50  0.21 
2504 -0.69 -0.58  0.21 
2505 -0.62 -0.57  0.21 
2506 -0.57 -0.52  0.21 
2507 -0.57 -0.68  0.21 
2508 -0.61 -0.71  0.21 
2509 -0.62 -0.54  0.21 
2510 -0.72 -0.59  0.21 
2511 -0.58 -0.53  0.21 
2512 -0.61 -0.54  0.21 
2513 -0.71 -0.51  0.21 
2514 -0.67 -0.50  0.21 
2515 -0.73 -0.52  0.21 
2516 -0.63 -0.53  0.21 
2517 -0.53 -0.53  0.21 
2518 -0.70 -0.55  0.21 
2519 -0.67 -0.58  0.21 
2520 -0.58 -0.55  0.21 
2521 -0.62 -0.55  0.21 
2522 -0.71 -0.52  0.21 
2523 -0.66 -0.49  0.21 
2524 -0.65 -0.55  0.21 
2525 -0.72 -0.50  0.21 
2526 -0.54 -0.51  0.21 
2527 -1.00 -0.54  0.21 
2528 -0.63 -0.52  0.21 
2529 -0.62 -0.51  0.21 
2530 -0.78 -0.49  0.21 
2531 -0.59 -0.51  0.21 
2532 -0.69 -0.59  0.21 
2533 -0.82 -0.61  0.21 
2534 -0.69 -0.66  0.21 
2535 -0.64 -0.69  0.21 
2536 -0.60 -0.67  0.21 
2537 -0.65 -0.63  0.21 
2538 -0.58 -0.69  0.21 
2539 -0.69 -0.70  0.21 
2540 -0.79 -0.65  0.21 
2541 -0.57 -0.57  0.21 
2542 -0.84 -0.54  0.21 
2543 -0.59 -0.53  0.21 
2544 -0.56 -0.71  0.21 
2545 -0.66 -0.55  0.21 
2546 -0.72 -0.70  0.21 
2547 -0.76 -0.71  0.21 
2548 -0.68 -0.54  0.21 
2549 -0.73 -0.55  0.21 
2550 -0.61 -0.58  0.21 
2551 -0.68 -0.53  0.21 
2552 -0.66 -0.51  0.21 
2553 -0.63 -0.47  0.21 
2554 -0.73 -0.51  0.21 
2555 -0.62 -0.51  0.21 
2556 -0.60 -0.61  0.21 
2557 -0.58 -0.51  0.21 
2558 -0.74 -0.52  0.21 
2559 -0.73 -0.53  0.21 
2560 -0.60 -0.51  0.21 
2561 -0.56 -0.51  0.21 
2562 -0.81 -0.50  0.21 
2563 -0.72 -0.55  0.21 
2564 -0.79 -0.51  0.21 
2565 -0.53 -0.49  0.21 
2566 -0.63 -0.55  0.21 
2567 -0.73 -0.57  0.21 
2568 -0.80 -0.52  0.21 
2569 -0.71 -0.53  0.21 
2570 -0.58 -0.54  0.21 
2571 -0.68 -0.62  0.21 
2572 -0.73 -0.51  0.21 
2573 -0.54 -0.51  0.21 
2574 -0.69 -0.62  0.21 
2575 -0.62 -0.65  0.21 
2576 -0.64 -0.55  0.21 
2577 -0.67 -0.53  0.21 
2578 -0.54 -0.60  0.21 
2579 -0.67 -0.57  0.21 
2580 -0.57 -0.51  0.21 
2581 -0.67 -0.53  0.21 
2582 -0.61 -0.54  0.21 
2583 -0.50 -0.51  0.21 
2584 -0.72 -0.55  0.21 
2585 -0.70 -0.61  0.21 
2586 -0.63 -0.60  0.21 
2587 -0.55 -0.54  0.21 
2588 -0.71 -0.53  0.21 
2589 -0.78 -0.55  0.21 
2590 -0.59 -0.54  0.21 
2591 -0.54 -0.65  0.21 
2592 -0.60 -0.53  0.21 
2593 -0.82 -0.53  0.21 
2594 -0.61 -0.52  0.21 
2595 -0.60 -0.53  0.21 
2596 -0.61 -0.51  0.21 
2597 -0.57 -0.53  0.21 
2598 -0.61 -0.52  0.21 
2599 -0.70 -0.52  0.21 
2600 -0.74 -0.52  0.21 
2601 -0.84 -0.54  0.21 
2602 -0.58 -0.51  0.21 
2603 -0.54 -0.51  0.21 
2604 -0.54 -0.50  0.21 
2605 -0.63 -0.53  0.21 
2606 -0.64 -0.52  0.21 
2607 -0.65 -0.51  0.21 
2608 -0.68 -0.54  0.21 
2609 -0.65 -0.65  0.21 
2610 -0.69 -0.50  0.21 
2611 -0.67 -0.52  0.21 
2612 -0.54 -0.52  0.21 
2613 -0.58 -0.54  0.21 
2614 -0.63 -0.52  0.21 
2615 -0.61 -0.54  0.21 
2616 -0.64 -0.55  0.21 
2617 -0.55 -0.59  0.21 
2618 -0.61 -0.58  0.21 
2619 -0.72 -0.56  0.21 
2620 -1.05 -0.55  0.21 
2621 -0.66 -0.56  0.21 
2622 -0.97 -0.53  0.21 
2623 -0.78 -0.56  0.21 
2624 -0.63 -0.57  0.21 
2625 -0.42 -0.57  0.21 
2626 -0.65 -0.55  0.21 
2627 -0.68 -0.54  0.21 
2628 -0.75 -0.51  0.21 
2629 -0.63 -0.60  0.21 
2630 -0.83 -0.51  0.21 
2631 -0.60 -0.53  0.21 
2632 -0.58 -0.57  0.21 
2633 -0.81 -0.54  0.21 
2634 -0.71 -0.55  0.21 
2635 -0.58 -0.57  0.21 
2636 -0.72 -0.56  0.21 
2637 -0.60 -0.54  0.21 
2638 -0.62 -0.56  0.21 
2639 -0.66 -0.57  0.21 
2640 -0.68 -0.55  0.21 
2641 -0.73 -0.55  0.21 
2642 -0.82 -0.54  0.21 
2643 -0.62 -0.50  0.21 
2644 -0.66 -0.54  0.21 
2645 -0.65 -0.50  0.21 
2646 -0.70 -0.51  0.21 
2647 -0.70 -0.54  0.21 
2648 -0.91 -0.49  0.21 
2649 -0.58 -0.46  0.21 
2650 -0.64 -0.58  0.21 
2651 -0.75 -0.55  0.21 
2652 -0.67 -0.51  0.21 
2653 -0.77 -0.55  0.21 
2654 -0.73 -0.58  0.21 
2655 -0.66 -0.56  0.21 
2656 -0.82 -0.67  0.21 
2657 -0.76 -0.56  0.21 
2658 -0.67 -0.53  0.21 
2659 -0.70 -0.56  0.21 
2660 -0.59 -0.54  0.21 
2661 -0.68 -0.54  0.21 
2662 -0.58 -0.53  0.21 
2663 -0.61 -0.52  0.21 
2664 -0.59 -0.53  0.21 
2665 -0.68 -0.54  0.21 
2666 -0.72 -0.55  0.21 
2667 -0.67 -0.56  0.21 
2668 -0.67 -0.56  0.21 
2669 -0.56 -0.56  0.21 
2670 -0.60 -0.55  0.21 
2671 -0.80 -0.55  0.21 
2672 -0.68 -0.53  0.21 
2673 -0.59 -0.55  0.21 
2674 -0.63 -0.56  0.21 
2675 -0.74 -0.54  0.21 
2676 -0.70 -0.53  0.21 
2677 -0.65 -0.53  0.21 
2678 -0.86 -0.52  0.21 
2679 -0.60 -0.52  0.21 
2680 -0.71 -0.54  0.21 
2681 -0.66 -0.56  0.21 
2682 -0.66 -0.53  0.21 
2683 -0.81 -0.55  0.21 
2684 -0.76 -0.56  0.21 
2685 -0.64 -0.53  0.21 
2686 -0.55 -0.50  0.21 
2687 -0.83 -0.53  0.21 
2688 -0.77 -0.53  0.21 
2689 -0.71 -0.54  0.21 
2690 -0.59 -0.62  0.21 
2691 -0.89 -0.62  0.21 
2692 -0.65 -0.65  0.21 
2693 -0.74 -0.48  0.21 
2694 -0.58 -0.62  0.21 
2695 -0.60 -0.60  0.21 
2696 -0.65 -0.60  0.21 
2697 -0.61 -0.57  0.21 
2698 -0.58 -0.57  0.21 
2699 -0.89 -0.55  0.21 
2700 -0.69 -0.55  0.21 
2701 -0.84 -0.42  0.21 
2702 -0.73 -0.53  0.21 
2703 -0.83 -0.54  0.21 
2704 -0.58 -0.60  0.21 
2705 -0.72 -0.54  0.21 
2706 -0.63 -0.51  0.21 
2707 -0.64 -0.52  0.21 
2708 -0.62 -0.52  0.21 
2709 -0.72 -0.56  0.21 
2710 -0.79 -0.62  0.21 
2711 -0.63 -0.60  0.21 
2712 -0.64 -0.65  0.21 
2713 -0.81 -0.56  0.21 
2714 -0.79 -0.85  0.21 
2715 -0.65 -0.75  0.21 
2716 -0.65 -0.78  0.21 
2717 -0.69 -0.62  0.21 
2718 -0.72 -0.54  0.21 
2719 -0.69 -0.59  0.21 
2720 -0.88 -0.65  0.21 
2721 -0.86 -0.53  0.21 
2722 -0.66 -0.55  0.21 
2723 -0.97 -0.63  0.21 
2724 -0.80 -0.55  0.21 
2725 -0.76 -0.53  0.21 
2726 -0.83 -0.49  0.21 
2727 -0.86 -0.52  0.21 
2728 -0.62 -0.39  0.21 
2729 -0.81 -0.84  0.21 
2730 -0.58 -0.58  0.21 
2731 -0.69 -0.41  0.21 
2732 -0.59 -0.41  0.21 
2733 -0.91 -0.57  0.21 
2734 -0.66 -0.40  0.21 
2735 -0.93 -0.56  0.21 
2736 -0.69 -0.39  0.21 
2737 -0.63 -0.52  0.21 
2738 -0.82 -0.77  0.21 
2739 -0.66 -0.70  0.21 
2740 -0.76 -0.90  0.21 
2741 -0.57 -0.77  0.21 
2742 -0.63 -0.65  0.21 
2743 -0.68 -0.37  0.21 
2744 -0.74 -0.56  0.21 
2745 -0.75 -0.54  0.21 
2746 -0.76 -0.60  0.21 
2747 -0.80 -0.67  0.21 
2748 -0.85 -0.64  0.21 
2749 -0.70 -0.68  0.21 
2750 -0.90 -0.59  0.21 
2751 -0.71 -0.91  0.21 
2752 -1.18 -1.05  0.21 
2753 -0.90 -0.99  0.21 
2754 -0.75 -1.00  0.21 
2755 -0.60 -0.80  0.21 
2756 -0.67 -0.69  0.21 
2757 -0.67 -0.93  0.21 
2758 -0.93 -0.95  0.21 
2759 -0.74 -0.93  0.21 
2760 -0.69 -0.66  0.21 
2761 -0.67 -0.75  0.21 
2762 -0.92 -0.69  0.21 
2763 -0.82 -0.62  0.21 
2764 -0.67 -0.71  0.21 
2765 -0.65 -0.65  0.21 
2766 -0.61 -0.73  0.21 
2767 -0.57 -0.69  0.21 
2768 -0.76 -0.74  0.21 
2769 -0.63 -0.72  0.21 
2770 -0.75 -0.74  0.21 
2771 -0.67 -0.74  0.21 
2772 -0.69 -0.79  0.21 
2773 -0.78 -0.64  0.21 
2774 -0.79 -0.70  0.21 
2775 -0.75 -0.62  0.21 
2776 -0.70 -0.62  0.21 
2777 -0.72 -0.63  0.21 
2778 -0.84 -0.61  0.21 
2779 -0.72 -0.57  0.21 
2780 -0.58 -0.72  0.21 
2781 -0.68 -0.74  0.21 
2782 -0.97 -0.66  0.21 
2783 -0.03 -0.60  0.21 
2784 -0.65 -0.75  0.21 
2785 -0.54 -0.76  0.21 
2786 -0.73 -0.70  0.21 
2787 -0.74 -0.97  0.21 
2788 -0.63 -0.73  0.21 
2789 -0.65 -0.78  0.21 
2790 -0.67 -0.76  0.21 
2791 -0.74 -0.78  0.21 
2792 -0.54 -0.68  0.21 
2793 -0.63 -0.74  0.21 
2794 -0.51 -0.83  0.21 
2795 -0.67 -1.04  0.21 
2796 -0.69 -0.96  0.21 
2797 -0.71 -0.92  0.21 
2798 -0.90 -0.90  0.21 
2799 -1.10 -1.07  0.21 
2800 -0.64 -1.04  0.21 
2801 -0.69 -1.13  0.21 
2802 -0.91 -1.13  0.21 
2803 -0.65 -1.05  0.21 
2804 -0.66 -1.12  0.21 
2805 -0.84 -1.10  0.21 
2806 -0.62 -1.00  0.21 
2807 -0.62 -0.91  0.21 
2808 -0.86 -0.84  0.21 
2809 -0.78 -0.85  0.21 
2810 -0.84 -0.87  0.21 
2811 -0.62 -0.86  0.21 
2812 -0.76 -0.88  0.21 
2813 -0.66 -0.82  0.21 
2814 -0.65 -0.81  0.21 
2815 -0.57 -0.82  0.21 
2816 -0.70 -0.61  0.21 
2817 -0.77 -0.75  0.21 
2818 -0.57 -0.56  0.21 
2819 -0.77 -0.55  0.21 
2820 -0.81 -0.68  0.21 
2821 -0.71 -0.79  0.21 
2822 -0.71 -0.66  0.21 
2823 -0.66 -0.56  0.21 
2824 -0.66 -0.63  0.21 
2825 -0.67 -0.60  0.21 
2826 -0.82 -0.71  0.21 
2827 -0.80 -0.59  0.21 
2828 -0.73 -0.63  0.21 
2829 -0.57 -0.49  0.21 
2830 -0.68 -0.68  0.21 
2831 -0.56 -0.67  0.21 
2832 -0.74 -0.65  0.21 
2833 -0.57 -0.53  0.21 
2834 -0.74 -0.54  0.21 
2835 -0.54 -0.52  0.21 
2836 -0.57 -0.53  0.21 
2837 -0.75 -0.53  0.21 
2838 -0.75 -0.65  0.21 
2839 -0.58 -0.65  0.21 
2840 -0.75 -0.65  0.21 
2841 -0.73 -0.50  0.21 
2842 -0.58 -0.47  0.21 
2843 -0.55 -0.44  0.21 
2844 -0.61 -0.63  0.21 
2845 -0.94 -0.51  0.21 
2846 -0.63 -0.47  0.21 
2847 -0.59 -0.46  0.21 
2848 -0.66 -0.47  0.21 
2849 -0.75 -0.47  0.21 
2850 -0.60 -0.61  0.21 
2851 -0.80 -0.60  0.21 
2852 -0.66 -0.46  0.21 
2853 -0.61 -0.62  0.21 
2854 -0.69 -0.49  0.21 
2855 -0.62 -0.50  0.21 
2856 -0.51 -0.62  0.21 
2857 -0.62 -0.60  0.21 
2858 -0.72 -0.60  0.21 
2859 -0.72 -0.61  0.21 
2860 -0.72 -0.45  0.21 
2861 -0.62 -0.47  0.21 
2862 -0.76 -0.43  0.21 
2863 -0.71 -0.43  0.21 
2864 -0.58 -0.48  0.21 
2865 -0.66 -0.52  0.21 
2866 -0.54 -0.50  0.21 
2867 -0.59 -0.47  0.21 
2868 -0.61 -0.47  0.21 
2869 -0.68 -0.48  0.21 
2870 -0.70 -0.50  0.21 
2871 -0.76 -0.51  0.21 
2872 -0.58 -0.52  0.21 
2873 -0.70 -0.57  0.21 
2874 -0.67 -0.55  0.21 
2875 -0.88 -0.72  0.21 
2876 -0.52 -0.51  0.21 
2877 -0.91 -0.49  0.21 
2878 -0.57 -0.50  0.21 
2879 -0.65 -0.50  0.21 
2880 -0.74 -0.67  0.21 
2881 -0.88 -0.59  0.21 
2882 -0.90 -0.50  0.21 
2883 -0.52 -0.49  0.21 
2884 -0.57 -0.47  0.21 
2885 -0.60 -0.62  0.21 
2886 -0.81 -0.60  0.21 
2887 -0.65 -0.52  0.21 
2888 -0.60 -0.51  0.21 
2889 -0.66 -0.59  0.21 
2890 -0.52 -0.95  0.21 
2891 -0.63 -0.63  0.21 
2892 -0.57 -0.78  0.21 
2893 -0.52 -0.62  0.21 
2894 -0.55 -0.61  0.21 
2895 -0.57 -0.61  0.21 
2896 -0.74 -0.76  0.21 
2897 -0.53 -0.61  0.21 
2898 -0.72 -0.71  0.21 
2899 -0.60 -0.73  0.21 
2900 -0.62 -0.68  0.21 
2901 -0.66 -0.68  0.21 
2902 -0.67 -0.75  0.21 
2903 -0.61 -0.78  0.21 
2904 -0.93 -0.71  0.21 
2905 -0.60 -0.54  0.21 
2906 -0.69 -0.66  0.21 
2907 -0.59 -0.53  0.21 
2908 -0.72 -0.67  0.21 
2909 -0.68 -0.50  0.21 
2910 -0.69 -0.88  0.21 
2911 -0.51 -0.59  0.21 
2912 -0.58 -0.92  0.21 
2913 -0.55 -0.80  0.21 
2914 -0.58 -0.66  0.21 
2915 -0.95 -0.96  0.21 
2916 -0.58 -0.56  0.21 
2917 -0.70 -1.06  0.21 
2918 -0.86 -1.00  0.21 
2919 -0.63 -1.06  0.21 
2920 -0.66 -1.04  0.21 
2921 -0.67 -1.05  0.21 
2922 -0.82 -0.59  0.21 
2923 -0.65 -0.97  0.21 
2924 -0.48 -0.99  0.21 
2925 -0.68 -0.79  0.21 
2926 -0.75 -0.99  0.21 
2927 -0.78 -0.79  0.21 
2928 -0.66 -0.75  0.21 
2929 -0.88 -1.02  0.21 
2930 -0.70 -0.97  0.21 
2931 -0.63 -0.85  0.21 
2932 -0.67 -0.94  0.21 
2933 -0.55 -0.81  0.21 
2934 -0.73 -0.56  0.21 
2935 -0.74 -0.97  0.21 
2936 -0.79 -1.02  0.21 
2937 -0.60 -1.11  0.21 
2938 -0.62 -1.06  0.21 
2939 -0.79 -0.75  0.21 
2940 -0.63 -1.03  0.21 
2941 -0.67 -0.65  0.21 
2942 -0.85 -0.80  0.21 
2943 -0.63 -1.02  0.21 
2944 -0.64 -0.97  0.21 
2945 -0.55 -0.64  0.21 
2946 -0.74 -0.62  0.21 
2947 -0.75 -0.50  0.21 
2948 -0.54 -0.98  0.21 
2949 -0.86 -0.50  0.21 
2950 -0.53 -0.55  0.21 
2951 -0.68 -0.52  0.21 
2952 -0.72 -0.53  0.21 
2953 -0.84 -0.52  0.21 
2954 -0.67 -0.54  0.21 
2955 -0.83 -0.99  0.21 
2956 -0.54 -0.59  0.21 
2957 -0.92 -0.57  0.21 
2958 -0.82 -0.54  0.21 
2959 -0.74 -0.67  0.21 
2960 -0.76 -0.52  0.21 
2961 -0.68 -0.55  0.21 
2962 -0.59 -1.01  0.21 
2963 -0.60 -0.98  0.21 
2964 -0.62 -0.78  0.21 
2965 -0.62 -0.98  0.21 
2966 -0.62 -0.53  0.21 
2967 -0.66 -0.97  0.21 
2968 -1.08 -1.04  0.21 
2969 -0.57 -0.93  0.21 
2970 -0.71 -0.92  0.21 
2971 -0.79 -0.95  0.21 
2972 -0.69 -0.75  0.21 
2973 -0.61 -0.91  0.21 
2974 -0.74 -0.86  0.21 
2975 -0.68 -0.80  0.21 
2976 -0.64 -1.06  0.21 
2977 -0.67 -1.09  0.21 
2978 -0.74 -0.97  0.21 
2979 -0.72 -0.99  0.21 
2980 -0.57 -0.92  0.21 
2981 -0.78 -0.97  0.21 
2982 -0.56 -0.72  0.21 
2983 -0.76 -0.99  0.21 
2984 -1.05 -0.90  0.21 
2985 -0.84 -0.63  0.21 
2986 -0.60 -0.57  0.21 
2987 -0.61 -0.46  0.21 
2988 -0.77 -1.07  0.21 
2989 -0.70 -0.56  0.21 
2990 -1.05 -0.58  0.21 
2991 -0.95 -0.57  0.21 
2992 -0.95 -0.53  0.21 
2993 -0.71 -0.82  0.21 
2994 -0.78 -0.76  0.21 
2995 -0.97 -0.89  0.21 
2996 -0.76 -0.87  0.21 
2997 -0.90 -0.67  0.21 
2998 -0.67 -0.95  0.21 
2999 -0.67 -0.77  0.21 
3000 -0.85 -0.65  0.21 
3001 -0.98 -0.64  0.21 
3002 -0.81 -1.01  0.21 
3003 -0.76 -0.96  0.21 
3004 -0.58 -0.72  0.21 
3005 -0.61 -0.68  0.21 
3006 -0.74 -0.58  0.21 
3007 -0.57 -0.94  0.21 
3008 -0.94 -0.97  0.21 
3009 -0.91 -0.86  0.21 
3010 -0.73 -0.84  0.21 
3011 -0.61 -0.52  0.21 
3012 -0.87 -0.87  0.21 
3013 -0.51 -0.56  0.21 
3014 -0.72 -1.00  0.21 
3015 -0.66 -0.95  0.21 
3016 -0.87 -0.61  0.21 
3017 -0.48 -0.88  0.21 
3018 -0.79 -0.88  0.21 
3019 -0.72 -1.01  0.21 
3020 -0.65 -0.97  0.21 
3021 -0.60 -0.96  0.21 
3022 -0.74 -0.94  0.21 
3023 -0.52 -0.56  0.21 
3024 -0.65 -0.78  0.21 
3025 -1.03 -0.56  0.21 
3026 -0.61 -0.75  0.21 
3027 -0.74 -0.76  0.21 
3028 -0.58 -0.54  0.21 
3029 -0.96 -0.57  0.21 
3030 -0.82 -0.47  0.21 
3031 -0.62 -0.60  0.21 
3032 -0.61 -0.63  0.21 
3033 -0.71 -0.57  0.21 
3034 -0.58 -0.52  0.21 
3035 -0.54 -0.56  0.21 
3036 -0.62 -0.48  0.21 
3037 -0.79 -0.64  0.21 
3038 -0.71 -0.75  0.21 
3039 -0.71 -0.58  0.21 
3040 -0.50 -0.56  0.21 
3041 -0.93 -0.58  0.21 
3042 -0.64 -0.65  0.21 
3043 -0.63 -0.55  0.21 
3044 -0.95 -0.56  0.21 
3045 -0.57 -0.55  0.21 
3046 -0.81 -0.60  0.21 
3047 -0.75 -0.60  0.21 
3048 -0.78 -0.56  0.21 
3049 -0.69 -0.46  0.21 
3050 -0.63 -0.47  0.21 
3051 -0.73 -0.61  0.21 
3052 -0.53 -0.67  0.21 
3053 -0.75 -0.66  0.21 
3054 -0.56 -0.61  0.21 
3055 -0.59 -0.67  0.21 
3056 -0.66 -0.62  0.21 
3057 -0.67 -0.58  0.21 
3058 -0.52 -0.63  0.21 
3059 -0.65 -0.65  0.21 
3060 -0.64 -0.64  0.21 
3061 -0.88 -0.48  0.21 
3062 -0.78 -0.52  0.21 
3063 -0.57 -0.57  0.21 
3064 -0.69 -0.86  0.21 
3065 -0.54 -0.76  0.21 
3066 -0.66 -0.51  0.21 
3067 -0.66 -0.74  0.21 
3068 -0.60 -0.59  0.21 
3069 -0.68 -0.96  0.21 
3070 -0.67 -0.87  0.21 
3071 -0.52 -0.68  0.21 
3072 -0.62 -1.05  0.21 
3073 -0.59 -0.73  0.21 
3074 -0.55 -0.59  0.21 
3075 -0.62 -0.68  0.21 
3076 -0.74 -0.55  0.21 
3077 -0.65 -0.66  0.21 
3078 -0.69 -0.57  0.21 
3079 -0.73 -0.63  0.21 
3080 -0.81 -0.67  0.21 
3081 -0.60 -0.62  0.21 
3082 -0.65 -0.61  0.21 
3083 -0.62 -0.62  0.21 
3084 -0.93 -0.51  0.21 
3085 -0.77 -0.56  0.21 
3086 -0.82 -0.54  0.21 
3087 -0.58 -0.59  0.21 
3088 -0.56 -0.58  0.21 
3089 -0.77 -0.59  0.21 
3090 -0.68 -0.63  0.21 
3091 -0.69 -0.60  0.21 
3092 -0.91 -0.48  0.21 
3093 -0.73 -0.49  0.21 
3094 -0.57 -0.48  0.21 
3095 -0.86 -0.49  0.21 
3096 -0.71 -0.60  0.21 
3097 -0.62 -0.54  0.21 
3098 -0.60 -0.89  0.21 
3099 -0.80 -0.79  0.21 
3100 -0.62 -0.82  0.21 
3101 -0.72 -0.99  0.21 
3102 -0.56 -0.82  0.21 
3103 -0.77 -0.96  0.21 
3104 -0.99 -0.99  0.21 
3105 -0.90 -0.57  0.21 
3106 -0.73 -0.91  0.21 
3107 -0.65 -0.85  0.21 
3108 -0.82 -0.78  0.21 
3109 -0.62 -0.65  0.21 
3110 -0.56 -0.63  0.21 
3111 -0.58 -0.81  0.21 
3112 -0.53 -0.59  0.21 
3113 -0.85 -0.94  0.21 
3114 -0.58 -0.86  0.21 
3115 -0.58 -0.58  0.21 
3116 -0.86 -0.57  0.21 
3117 -0.90 -0.55  0.21 
3118 -0.82 -0.71  0.21 
3119 -0.79 -0.53  0.21 
3120 -0.93 -0.66  0.21 
3121 -0.66 -0.76  0.21 
3122 -0.64 -0.81  0.21 
3123 -0.64 -0.62  0.21 
3124 -0.66 -0.87  0.21 
3125 -0.76 -0.90  0.21 
3126 -0.71 -0.68  0.21 
3127 -0.98 -0.87  0.21 
3128 -0.85 -0.91  0.21 
3129 -0.84 -0.79  0.21 
3130 -0.58 -0.70  0.21 
3131 -0.77 -0.68  0.21 
3132 -0.70 -0.72  0.21 
3133 -0.72 -0.67  0.21 
3134 -0.64 -0.53  0.21 
3135 -0.65 -0.55  0.21 
3136 -0.75 -0.62  0.21 
3137 -0.69 -0.62  0.21 
3138 -0.74 -0.62  0.21 
3139 -0.62 -0.62  0.21 
3140 -0.74 -0.63  0.21 
3141 -0.80 -0.73  0.21 
3142 -0.56 -0.74  0.21 
3143 -0.66 -0.73  0.21 
3144 -0.70 -0.80  0.21 
3145 -0.70 -0.62  0.21 
3146 -0.65 -0.74  0.21 
3147 -0.69 -0.57  0.21 
3148 -0.52 -0.57  0.21 
3149 -0.57 -0.71  0.21 
3150 -0.57 -0.54  0.21 
3151 -0.60 -0.76  0.21 
3152 -0.79 -0.77  0.21 
3153 -0.60 -0.59  0.21 
3154 -0.69 -0.62  0.21 
3155 -0.62 -0.62  0.21 
3156 -0.58 -0.84  0.21 
3157 -0.62 -0.87  0.21 
3158 -0.74 -0.67  0.21 
3159 -0.92 -0.61  0.21 
3160 -0.62 -0.64  0.21 
3161 -0.63 -0.59  0.21 
3162 -0.64 -0.60  0.21 
3163 -0.65 -0.65  0.21 
3164 -0.58 -0.62  0.21 
3165 -0.56 -0.65  0.21 
3166 -0.64 -0.51  0.21 
3167 -0.76 -0.61  0.21 
3168 -0.70 -0.66  0.21 
3169 -0.67 -0.70  0.21 
3170 -0.58 -0.67  0.21 
3171 -0.69 -0.61  0.21 
3172 -0.57 -0.58  0.21 
3173 -0.58 -0.57  0.21 
3174 -0.65 -0.59  0.21 
3175 -0.64 -0.56  0.21 
3176 -0.74 -0.58  0.21 
3177 -0.58 -0.59  0.21 
3178 -0.61 -0.60  0.21 
3179 -0.63 -0.55  0.21 
3180 -0.57 -0.57  0.21 
3181 -0.74 -0.57  0.21 
3182 -0.87 -0.72  0.21 
3183 -0.68 -0.70  0.21 
3184 -0.59 -0.68  0.21 
3185 -0.72 -0.59  0.21 
3186 -0.65 -0.60  0.21 
3187 -0.65 -0.60  0.21 
3188 -0.86 -0.62  0.21 
3189 -0.78 -0.67  0.21 
3190 -0.70 -0.65  0.21 
3191 -0.64 -0.62  0.21 
3192 -0.64 -0.57  0.21 
3193 -0.65 -0.66  0.21 
3194 -0.74 -0.57  0.21 
3195 -0.89 -0.65  0.21 
3196 -0.69 -0.59  0.21 
3197 -0.75 -0.57  0.21 
3198 -0.73 -0.57  0.21 
3199 -0.72 -0.55  0.21 
3200 -0.61 -0.58  0.21 
3201 -0.71 -0.63  0.21 
3202 -0.62 -0.65  0.21 
3203 -0.73 -0.55  0.21 
3204 -0.67 -0.57  0.21 
3205 -0.65 -0.68  0.21 
3206 -0.69 -0.66  0.21 
3207 -0.65 -0.68  0.21 
3208 -0.75 -1.09  0.21 
3209 -0.94 -0.57  0.21 
3210 -0.84 -0.68  0.21 
3211 -0.68 -0.71  0.21 
3212 -0.63 -0.73  0.21 
3213 -0.64 -0.64  0.21 
3214 -0.65 -0.59  0.21 
3215 -0.90 -0.64  0.21 
3216 -0.64 -0.91  0.21 
3217 -0.84 -0.96  0.21 
3218 -0.62 -0.66  0.21 
3219 -0.67 -0.58  0.21 
3220 -0.76 -0.58  0.21 
3221 -0.74 -0.71  0.21 
3222 -0.56 -0.56  0.21 
3223 -0.67 -0.64  0.21 
3224 -0.65 -0.63  0.21 
3225 -0.58 -0.63  0.21 
3226 -0.75 -0.55  0.21 
3227 -0.71 -0.72  0.21 
3228 -0.82 -0.61  0.21 
3229 -0.58 -0.62  0.21 
3230 -0.61 -0.63  0.21 
3231 -0.64 -0.56  0.21 
3232 -0.63 -0.61  0.21 
3233 -0.91 -0.69  0.21 
3234 -0.81 -0.71  0.21 
3235 -0.56 -0.69  0.21 
3236 -0.66 -0.63  0.21 
3237 -0.68 -0.73  0.21 
3238 -0.74 -0.61  0.21 
3239 -0.59 -0.62  0.21 
3240 -0.68 -0.68  0.21 
3241 -0.85 -0.64  0.21 
3242 -0.67 -0.66  0.21 
3243 -0.89 -0.58  0.21 
3244 -0.57 -0.65  0.21 
3245 -0.63 -0.52  0.21 
3246 -0.64 -0.65  0.21 
3247 -0.73 -0.63  0.21 
3248 -0.73 -0.59  0.21 
3249 -0.60 -0.80  0.21 
3250 -0.56 -0.60  0.21 
3251 -0.64 -0.70  0.21 
3252 -0.62 -0.61  0.21 
3253 -0.76 -0.60  0.21 
3254 -0.70 -0.70  0.21 
3255 -0.64 -0.59  0.21 
3256 -0.78 -0.55  0.21 
3257 -0.66 -0.75  0.21 
3258 -0.58 -0.66  0.21 
3259 -0.73 -0.54  0.21 
3260 -0.66 -0.50  0.21 
3261 -0.53 -0.58  0.21 
3262 -0.74 -0.84  0.21 
3263 -0.60 -0.65  0.21 
3264 -0.63 -0.71  0.21 
3265 -0.74 -0.73  0.21 
3266 -0.63 -0.62  0.21 
3267 -0.98 -0.78  0.21 
3268 -0.61 -1.05  0.21 
3269 -0.58 -0.89  0.21 
3270 -0.59 -0.72  0.21 
3271 -0.60 -0.94  0.21 
3272 -0.67 -1.07  0.21 
3273 -0.76 -0.56  0.21 
3274 -0.95 -0.66  0.21 
3275 -0.87 -0.73  0.21 
3276 -0.52 -0.60  0.21 
3277 -0.66 -0.97  0.21 
3278 -0.71 -0.80  0.21 
3279 -0.84 -0.69  0.21 
3280 -0.64 -0.72  0.21 
3281 -0.63 -0.66  0.21 
3282 -0.78 -0.71  0.21 
3283 -0.62 -0.53  0.21 
3284 -0.59 -0.70  0.21 
3285 -0.63 -0.69  0.21 
3286 -0.68 -0.57  0.21 
3287 -0.62 -0.69  0.21 
3288 -0.71 -0.72  0.21 
3289 -0.63 -0.73  0.21 
3290 -0.67 -0.71  0.21 
3291 -0.65 -0.65  0.21 
3292 -0.59 -0.67  0.21 
3293 -0.69 -0.69  0.21 
3294 -0.86 -0.69  0.21 
3295 -0.56 -0.59  0.21 
3296 -0.73 -0.72  0.21 
3297 -0.71 -0.75  0.21 
3298 -0.91 -0.56  0.21 
3299 -0.68 -0.58  0.21 
3300 -0.63 -0.74  0.21 
3301 -0.78 -0.63  0.21 
3302 -0.61 -0.68  0.21 
3303 -0.90 -0.59  0.21 
3304 -0.74 -0.74  0.21 
3305 -0.77 -0.69  0.21 
3306 -0.70 -0.62  0.21 
3307 -0.64 -0.82  0.21 
3308 -0.72 -0.65  0.21 
3309 -0.58 -0.62  0.21 
3310 -0.67 -0.71  0.21 
3311 -0.88 -0.53  0.21 
3312 -0.66 -0.57  0.21 
3313 -0.86 -0.57  0.21 
3314 -0.66 -0.59  0.21 
3315 -0.81 -0.58  0.21 
3316 -0.95 -0.58  0.21 
3317 -0.77 -0.56  0.21 
3318 -0.60 -0.56  0.21 
3319 -0.76 -0.57  0.21 
3320 -0.67 -0.57  0.21 
3321 -0.73 -0.55  0.21 
3322 -0.68 -0.54  0.21 
3323 -0.86 -0.56  0.21 
3324 -0.78 -0.56  0.21 
3325 -0.97 -0.55  0.21 
3326 -0.86 -0.54  0.21 
3327 -0.56 -0.56  0.21 
3328 -0.60 -0.57  0.21 
3329 -0.74 -0.56  0.21 
3330 -0.58 -0.57  0.21 
3331 -0.68 -0.59  0.21 
3332 -0.75 -0.59  0.21 
3333 -0.78 -0.61  0.21 
3334 -0.63 -0.63  0.21 
3335 -0.53 -0.58  0.21 
3336 -0.57 -0.61  0.21 
3337 -0.75 -0.61  0.21 
3338 -1.18 -0.64  0.21 
3339 -0.67 -0.61  0.21 
3340 -0.74 -0.60  0.21 
3341 -0.65 -0.59  0.21 
3342 -0.60 -0.56  0.21 
3343 -0.57 -0.57  0.21 
3344 -0.64 -0.60  0.21 
3345 -0.84 -0.61  0.21 
3346 -0.60 -0.59  0.21 
3347 -0.73 -0.60  0.21 
3348 -1.10 -0.58  0.21 
3349 -0.60 -0.56  0.21 
3350 -0.64 -0.84  0.21 
3351 -0.64 -0.53  0.21 
3352 -0.92 -0.61  0.21 
3353  0.09 -0.59  0.21 
3354 -0.64 -0.58  0.21 
3355 -0.75 -0.61  0.21 
3356 -0.65 -0.60  0.21 
3357 -0.70 -0.59  0.21 
3358 -0.61 -0.58  0.21 
3359 -0.73 -0.56  0.21 
3360 -0.77 -0.61  0.21 
3361 -0.68 -0.53  0.21 
3362 -0.68 -0.54  0.21 
3363 -0.82 -0.41  0.21 
3364 -0.65 -0.52  0.21 
3365 -0.58 -0.56  0.21 
3366 -0.71 -0.64  0.21 
3367 -0.81 -0.55  0.21 
3368 -0.68 -0.50  0.21 
3369 -0.60 -0.63  0.21 
3370 -0.70 -0.53  0.21 
3371 -0.96 -0.49  0.21 
3372 -0.74 -0.53  0.21 
3373 -0.57 -0.55  0.21 
3374 -0.71 -0.56  0.21 
3375 -0.77 -0.55  0.21 
3376 -0.65 -0.53  0.21 
3377 -0.58 -0.54  0.21 
3378 -0.61 -0.52  0.21 
3379 -0.83 -0.60  0.21 
3380 -0.61 -0.55  0.21 
3381 -0.61 -0.56  0.21 
3382 -0.65 -0.62  0.21 
3383 -0.67 -0.62  0.21 
3384 -0.63 -0.59  0.21 
3385 -0.74 -0.58  0.21 
3386 -0.64 -0.56  0.21 
3387 -0.72 -0.56  0.21 
3388 -0.59 -0.56  0.21 
3389 -0.76 -0.57  0.21 
3390 -0.58 -0.55  0.21 
3391 -0.62 -0.54  0.21 
3392 -0.70 -0.61  0.21 
3393 -0.60 -0.60  0.21 
3394 -0.63 -0.59  0.21 
3395 -0.82 -0.62  0.21 
3396 -0.70 -0.58  0.21 
3397 -0.65 -0.61  0.21 
3398 -0.82 -0.59  0.21 
3399 -0.60 -0.61  0.21 
3400 -0.63 -0.57  0.21 
3401 -0.65 -0.53  0.21 
3402 -0.60 -0.49  0.21 
3403 -0.60 -0.54  0.21 
3404 -0.59 -0.54  0.21 
3405 -0.55 -0.97  0.21 
3406 -0.55 -0.54  0.21 
3407 -0.67 -0.55  0.21 
3408 -0.59 -0.49  0.21 
3409 -0.62 -0.54  0.21 
3410 -0.78 -0.51  0.21 
3411 -0.69 -0.56  0.21 
3412 -0.77 -0.56  0.21 
3413 -0.65 -0.43  0.21 
3414 -0.62 -0.54  0.21 
3415 -0.86 -0.53  0.21 
3416 -0.57 -0.93  0.21 
3417 -0.60 -0.56  0.21 
3418 -0.66 -0.52  0.21 
3419 -0.85 -0.66  0.21 
3420 -0.66 -0.44  0.21 
3421 -0.68 -0.61  0.21 
3422 -0.57 -0.53  0.21 
3423 -0.63 -0.50  0.21 
3424 -0.73 -0.51  0.21 
3425 -0.80 -0.53  0.21 
3426 -0.60 -0.53  0.21 
3427 -1.05 -0.42  0.21 
3428 -0.72 -0.51  0.21 
3429 -0.82 -0.62  0.21 
3430 -0.55 -0.47  0.21 
3431 -0.54 -0.50  0.21 
3432 -0.92 -0.43  0.21 
3433 -0.72 -0.55  0.21 
3434 -0.51 -0.62  0.21 
3435 -0.53 -0.42  0.21 
3436 -0.72 -0.60  0.21 
3437 -0.61 -0.53  0.21 
3438 -0.56 -0.44  0.21 
3439 -0.58 -0.39  0.21 
3440 -0.85 -0.53  0.21 
3441 -0.78 -0.47  0.21 
3442 -0.54 -0.50  0.21 
3443 -0.53 -0.69  0.21 
3444 -0.74 -0.41  0.21 
3445 -0.58 -0.52  0.21 
3446 -0.68 -0.59  0.21 
3447 -0.73 -0.58  0.21 
3448 -0.61 -0.67  0.21 
3449 -0.67 -0.64  0.21 
3450 -0.64 -0.50  0.21 
3451 -0.63 -0.55  0.21 
3452 -0.54 -0.94  0.21 
3453 -0.55 -0.89  0.21 
3454 -0.76 -0.45  0.21 
3455 -0.71 -0.51  0.21 
3456 -0.66 -0.63  0.21 
3457 -0.57 -0.61  0.21 
3458 -0.52 -0.46  0.21 
3459 -0.60 -0.51  0.21 
3460 -0.69 -0.72  0.21 
3461 -0.53 -0.54  0.21 
3462 -0.77 -0.62  0.21 
3463 -0.77 -0.92  0.21 
3464 -0.75 -0.57  0.21 
3465 -0.70 -0.64  0.21 
3466 -0.73 -0.93  0.21 
3467 -0.64 -0.91  0.21 
3468 -0.71 -0.62  0.21 
3469 -0.61 -0.62  0.21 
3470 -0.72 -0.94  0.21 
3471 -0.56 -0.54  0.21 
3472 -0.59 -0.63  0.21 
3473 -0.77 -0.80  0.21 
3474 -0.87 -0.60  0.21 
3475 -0.70 -0.55  0.21 
3476 -0.58 -0.60  0.21 
3477 -0.55 -1.06  0.21 
3478 -0.73 -0.58  0.21 
3479 -0.55 -0.58  0.21 
3480 -0.60 -0.54  0.21 
3481 -0.69 -0.55  0.21 
3482 -0.87 -0.65  0.21 
3483 -0.70 -0.65  0.21 
3484 -0.93 -0.61  0.21 
3485 -0.59 -0.65  0.21 
3486 -0.80 -0.64  0.21 
3487 -0.58 -0.68  0.21 
3488 -1.02 -0.45  0.21 
3489 -0.68 -0.53  0.21 
3490 -0.73 -0.46  0.21 
3491 -0.64 -0.53  0.21 
3492 -0.72 -0.46  0.21 
3493 -0.65 -0.36  0.21 
3494 -0.57 -0.47  0.21 
3495 -0.68 -0.37  0.21 
3496 -0.85 -0.34  0.21 
3497 -0.80 -0.55  0.21 
3498 -0.57 -0.41  0.21 
3499 -0.57 -0.56  0.21 
3500 -0.56 -0.49  0.21 
3501 -0.77 -0.52  0.21 
3502 -0.50 -0.52  0.21 
3503 -0.73 -0.50  0.21 
3504 -0.80 -0.48  0.21 
3505 -0.74 -0.50  0.21 
3506 -0.69 -0.52  0.21 
3507 -0.65 -0.47  0.21 
3508 -0.63 -0.61  0.21 
3509 -0.61 -0.47  0.21 
3510 -0.63 -0.50  0.21 
3511 -0.73 -0.56  0.21 
3512 -0.59 -0.46  0.21 
3513 -0.49 -0.38  0.21 
3514 -0.63 -0.43  0.21 
3515 -0.63 -0.46  0.21 
3516 -0.81 -0.43  0.21 
3517 -0.77 -0.42  0.21 
3518 -0.66 -0.39  0.21 
3519 -0.54 -0.58  0.21 
3520 -0.71 -1.00  0.21 
3521 -0.69 -0.54  0.21 
3522 -0.57 -0.59  0.21 
3523 -0.62 -0.59  0.21 
3524 -0.68 -0.54  0.21 
3525 -0.79 -0.53  0.21 
3526 -0.82 -0.52  0.21 
3527 -0.71 -0.64  0.21 
3528 -0.73 -0.53  0.21 
3529 -0.71 -0.56  0.21 
3530 -0.89 -0.54  0.21 
3531 -0.63 -0.54  0.21 
3532 -0.77 -0.54  0.21 
3533 -0.58 -0.46  0.21 
3534 -0.79 -0.50  0.21 
3535 -0.62 -0.53  0.21 
3536 -0.63 -0.53  0.21 
3537 -0.67 -0.54  0.21 
3538 -0.77 -0.61  0.21 
3539 -0.78 -0.55  0.21 
3540 -0.75 -0.50  0.21 
3541 -0.77 -0.93  0.21 
3542 -0.59 -0.55  0.21 
3543 -0.59 -0.58  0.21 
3544 -0.56 -0.56  0.21 
3545 -0.94 -0.56  0.21 
3546 -0.72 -0.55  0.21 
3547 -0.71 -0.65  0.21 
3548 -0.74 -0.56  0.21 
3549 -0.57 -0.57  0.21 
3550 -0.50 -0.59  0.21 
3551 -0.67 -0.55  0.21 
3552 -0.64 -0.54  0.21 
3553 -0.64 -0.60  0.21 
3554 -0.69 -0.65  0.21 
3555 -0.62 -0.66  0.21 
3556 -0.57 -0.61  0.21 
3557 -0.69 -0.49  0.21 
3558 -0.57 -0.89  0.21 
3559 -0.58 -0.98  0.21 
3560 -0.69 -0.46  0.21 
3561 -0.92 -0.81  0.21 
3562 -0.55 -0.97  0.21 
3563 -0.70 -0.69  0.21 
3564 -0.62 -0.48  0.21 
3565 -0.72 -0.48  0.21 
3566 -0.57 -0.48  0.21 
3567 -0.64 -0.53  0.21 
3568 -0.59 -0.59  0.21 
3569 -0.87 -0.62  0.21 
3570 -0.79 -0.59  0.21 
3571 -0.90 -0.59  0.21 
3572 -0.63 -0.52  0.21 
3573 -0.67 -0.52  0.21 
3574 -0.68 -0.82  0.21 
3575 -0.77 -1.08  0.21 
3576 -0.93 -0.63  0.21 
3577 -0.52 -0.55  0.21 
3578 -0.81 -0.81  0.21 
3579 -0.66 -0.73  0.21 
3580 -0.62 -0.50  0.21 
3581 -0.61 -0.60  0.21 
3582 -0.62 -0.64  0.21 
3583 -0.59 -1.04  0.21 
3584 -0.52 -0.53  0.21 
3585 -0.67 -0.61  0.21 
3586 -0.52 -0.62  0.21 
3587 -0.58 -0.59  0.21 
3588 -0.78 -0.60  0.21 
3589 -0.54 -0.57  0.21 
3590 -0.56 -0.60  0.21 
3591 -0.66 -0.56  0.21 
3592 -0.54 -0.53  0.21 
3593 -0.65 -0.52  0.21 
3594 -0.68 -0.55  0.21 
3595 -0.54 -0.57  0.21 
3596 -0.88 -0.55  0.21 
3597 -0.66 -0.55  0.21 
3598 -0.60 -0.56  0.21 
3599 -0.77 -0.48  0.21 
3600 -0.59 -0.52  0.21 
3601 -0.60 -0.57  0.21 
3602 -0.60 -0.60  0.21 
3603 -0.73 -0.59  0.21 
3604 -0.71 -0.56  0.21 
3605 -0.60 -0.53  0.21 
3606 -0.88 -0.68  0.21 
3607 -0.63 -0.56  0.21 
3608 -0.61 -0.68  0.21 
3609 -0.70 -0.71  0.21 
3610 -0.61 -0.48  0.21 
3611 -0.70 -1.16  0.21 
3612 -0.55 -1.03  0.21 
3613 -0.79 -0.88  0.21 
3614 -0.57 -1.15  0.21 
3615 -0.52 -0.54  0.21 
3616 -0.62 -0.53  0.21 
3617 -0.73 -0.80  0.21 
3618 -0.77 -0.78  0.21 
3619 -0.61 -0.73  0.21 
3620 -0.69 -0.95  0.21 
3621 -0.67 -0.81  0.21 
3622 -0.70 -0.51  0.21 
3623 -0.65 -0.75  0.21 
3624 -0.71 -0.63  0.21 
3625 -0.67 -0.71  0.21 
3626 -0.63 -0.74  0.21 
3627 -0.55 -0.74  0.21 
3628 -0.68 -0.66  0.21 
3629 -0.62 -0.72  0.21 
3630 -0.64 -0.69  0.21 
3631 -0.73 -0.63  0.21 
3632 -0.58 -0.70  0.21 
3633 -0.87 -0.57  0.21 
3634 -0.61 -0.74  0.21 
3635 -0.78 -0.52  0.21 
3636 -0.65 -0.99  0.21 
3637 -0.74 -0.64  0.21 
3638 -0.72 -0.90  0.21 
3639 -0.73 -0.63  0.21 
3640 -0.60 -0.58  0.21 
3641 -0.60 -0.82  0.21 
3642 -0.83 -0.53  0.21 
3643 -0.92 -0.53  0.21 
3644 -0.80 -0.62  0.21 
3645 -0.71 -0.85  0.21 
3646 -0.56 -0.63  0.21 
3647 -0.73 -0.51  0.21 
3648 -0.72 -0.54  0.21 
3649 -0.88 -0.68  0.21 
3650 -0.58 -0.86  0.21 
3651 -0.73 -0.79  0.21 
3652 -0.66 -0.77  0.21 
3653 -0.76 -0.78  0.21 
3654 -0.76 -0.80  0.21 
3655 -0.74 -0.52  0.21 
3656 -0.77 -0.67  0.21 
3657 -0.57 -0.50  0.21 
3658 -0.78 -0.51  0.21 
3659 -0.51 -0.78  0.21 
3660 -0.64 -0.61  0.21 
3661 -0.63 -0.60  0.21 
3662 -0.52 -0.88  0.21 
3663 -0.72 -0.48  0.21 
3664 -0.62 -0.89  0.21 
3665 -0.90 -0.79  0.21 
3666 -0.58 -0.54  0.21 
3667 -0.69 -0.50  0.21 
3668 -0.70 -0.85  0.21 
3669 -0.80 -0.81  0.21 
3670 -0.79 -0.61  0.21 
3671 -0.74 -0.46  0.21 
3672 -0.62 -0.63  0.21 
3673 -0.73 -0.74  0.21 
3674 -0.82 -0.64  0.21 
3675 -0.67 -0.55  0.21 
3676 -0.48 -0.53  0.21 
3677 -0.54 -0.48  0.21 
3678 -0.80 -0.52  0.21 
3679 -0.62 -0.54  0.21 
3680 -0.67 -0.54  0.21 
3681 -0.72 -0.75  0.21 
3682 -0.71 -0.52  0.21 
3683 -0.53 -0.67  0.21 
3684 -0.86 -0.61  0.21 
3685 -0.93 -0.61  0.21 
3686 -0.58 -0.51  0.21 
3687 -0.59 -0.52  0.21 
3688 -0.79 -0.54  0.21 
3689 -0.54 -0.54  0.21 
3690 -0.80 -0.71  0.21 
3691 -0.47 -0.67  0.21 
3692 -0.57 -0.53  0.21 
3693 -0.56 -0.79  0.21 
3694 -0.73 -0.53  0.21 
3695 -0.77 -0.63  0.21 
3696 -0.55 -0.76  0.21 
3697 -0.53 -0.75  0.21 
3698 -0.68 -0.68  0.21 
3699 -0.64 -0.76  0.21 
3700 -0.67 -0.52  0.21 
3701 -0.69 -0.49  0.21 
3702 -0.63 -0.55  0.21 
3703 -0.48 -0.52  0.21 
3704 -0.59 -0.71  0.21 
3705 -0.52 -0.73  0.21 
3706 -0.76 -0.65  0.21 
3707 -0.45 -0.75  0.21 
3708 -1.07 -0.77  0.21 
3709 -0.65 -0.62  0.21 
3710 -0.64 -0.65  0.21 
3711 -0.60 -0.63  0.21 
3712 -0.67 -0.69  0.21 
3713 -0.57 -0.74  0.21 
3714 -0.62 -0.54  0.21 
3715 -0.73 -0.66  0.21 
3716 -0.66 -0.53  0.21 
3717 -0.49 -0.49  0.21 
3718 -0.49 -0.52  0.21 
3719 -0.68 -0.52  0.21 
3720 -0.67 -0.64  0.21 
3721 -0.60 -0.51  0.21 
3722 -0.58 -0.49  0.21 
3723 -0.59 -0.51  0.21 
3724 -0.52 -0.51  0.21 
3725 -0.66 -0.66  0.21 
3726 -0.60 -0.68  0.21 
3727 -0.55 -0.62  0.21 
3728 -0.84 -0.60  0.21 
3729 -0.65 -0.65  0.21 
3730 -0.56 -0.55  0.21 
3731 -0.54 -0.67  0.21 
3732 -0.66 -0.63  0.21 
3733 -0.57 -0.65  0.21 
3734 -0.68 -0.65  0.21 
3735 -0.69 -0.54  0.21 
3736 -0.73 -0.52  0.21 
3737 -1.02 -0.48  0.21 
3738 -0.68 -0.52  0.21 
3739 -0.71 -0.48  0.21 
3740 -0.63 -0.54  0.21 
3741 -0.62 -0.52  0.21 
3742 -0.63 -0.57  0.21 
3743 -0.66 -0.49  0.21 
3744 -0.79 -0.49  0.21 
3745 -0.60 -0.62  0.21 
3746 -0.81 -0.63  0.21 
3747 -0.68 -0.52  0.21 
3748 -0.66 -0.66  0.21 
3749 -0.53 -0.66  0.21 
3750 -0.73 -0.66  0.21 
3751 -0.66 -0.67  0.21 
3752 -0.68 -0.59  0.21 
3753 -0.56 -0.66  0.21 
3754 -0.63 -0.52  0.21 
3755 -0.83 -0.70  0.21 
3756 -0.63 -0.64  0.21 
3757 -0.70 -0.58  0.21 
3758 -0.65 -0.67  0.21 
3759 -0.65 -0.66  0.21 
3760 -0.60 -0.57  0.21 
3761 -0.71 -0.58  0.21 
3762 -0.75 -0.59  0.21 
3763 -0.67 -0.63  0.21 
3764 -0.74 -0.60  0.21 
3765 -0.75 -0.60  0.21 
3766 -0.80 -0.64  0.21 
3767 -0.67 -0.72  0.21 
3768 -0.61 -0.65  0.21 
3769 -0.73 -0.65  0.21 
3770 -0.84 -0.68  0.21 
3771 -0.88 -0.56  0.21 
3772 -0.70 -0.49  0.21 
3773 -0.75 -0.56  0.21 
3774 -0.76 -0.52  0.21 
3775 -0.63 -0.68  0.21 
3776 -0.72 -0.66  0.21 
3777 -0.68 -0.53  0.21 
3778 -0.59 -0.60  0.21 
3779 -0.80 -0.65  0.21 
3780 -0.64 -0.68  0.21 
3781 -0.73 -0.85  0.21 
3782 -0.80 -0.65  0.21 
3783 -0.67 -0.59  0.21 
3784 -0.72 -0.62  0.21 
3785 -0.88 -0.68  0.21 
3786 -0.75 -0.55  0.21 
3787 -0.62 -0.57  0.21 
3788 -0.81 -0.59  0.21 
3789 -0.80 -0.54  0.21 
3790 -0.67 -0.53  0.21 
3791 -0.77 -0.62  0.21 
3792 -0.80 -0.69  0.21 
3793 -0.70 -0.64  0.21 
3794 -0.83 -0.64  0.21 
3795 -0.96 -0.58  0.21 
3796 -0.79 -0.70  0.21 
3797 -0.76 -0.57  0.21 
3798 -0.67 -0.68  0.21 
3799 -0.68 -0.58  0.21 
3800 -0.80 -0.71  0.21 
3801 -0.71 -0.56  0.21 
3802 -0.77 -0.56  0.21 
3803 -0.71 -0.91  0.21 
3804 -0.70 -0.63  0.21 
3805 -0.80 -0.75  0.21 
3806 -0.57 -0.71  0.21 
3807 -0.74 -0.94  0.21 
3808 -0.75 -0.76  0.21 
3809 -0.73 -0.57  0.21 
3810 -0.84 -0.82  0.21 
3811 -0.88 -0.60  0.21 
3812 -0.68 -0.58  0.21 
3813 -0.77 -0.57  0.21 
3814 -0.89 -0.53  0.21 
3815 -0.60 -0.50  0.21 
3816 -0.65 -0.61  0.21 
3817 -0.55 -0.49  0.21 
3818 -0.66 -0.54  0.21 
3819 -0.70 -0.58  0.21 
3820 -0.80 -0.52  0.21 
3821 -0.83 -0.74  0.21 
3822 -0.71 -0.51  0.21 
3823 -0.72 -0.43  0.21 
3824 -0.68 -0.76  0.21 
3825 -0.83 -0.81  0.21 
3826 -0.72 -0.53  0.21 
3827 -0.71 -0.56  0.21 
3828 -0.58 -0.59  0.21 
3829 -0.79 -0.81  0.21 
3830 -0.60 -0.72  0.21 
3831 -0.75 -0.54  0.21 
3832 -0.63 -0.60  0.21 
3833 -0.82 -0.56  0.21 
3834 -1.07 -0.74  0.21 
3835 -0.54 -0.53  0.21 
3836 -0.95 -0.64  0.21 
3837 -0.70 -0.53  0.21 
3838 -0.84 -0.55  0.21 
3839 -0.63 -0.78  0.21 
3840 -0.79 -0.66  0.21 
3841 -0.61 -0.57  0.21 
3842 -0.79 -0.53  0.21 
3843 -0.62 -0.58  0.21 
3844 -0.76 -0.65  0.21 
3845 -0.85 -0.48  0.21 
3846 -0.67 -0.49  0.21 
3847 -0.69 -0.53  0.21 
3848 -0.70 -0.52  0.21 
3849 -0.70 -0.39  0.21 
3850 -0.80 -0.54  0.21 
3851 -0.65 -0.66  0.21 
3852 -0.49 -0.59  0.21 
3853 -0.81 -0.65  0.21 
3854 -1.03 -0.38  0.21 
3855 -0.68 -0.66  0.21 
3856 -0.69 -0.63  0.21 
3857 -1.07 -0.71  0.21 
3858 -0.76 -0.76  0.21 
3859 -0.67 -0.64  0.21 
3860 -0.76 -0.56  0.21 
3861 -0.75 -0.58  0.21 
3862 -1.19 -0.46  0.21 
3863 -0.58 -0.65  0.21 
3864 -0.81 -0.79  0.21 
3865 -0.79 -0.68  0.21 
3866 -0.72 -0.41  0.21 
3867 -0.74 -0.39  0.21 
3868 -0.56 -0.40  0.21 
3869 -0.93 -0.40  0.21 
3870 -0.82 -0.70  0.21 
3871 -0.79 -0.70  0.21 
3872 -0.86 -0.70  0.21 
3873 -0.85 -0.65  0.21 
3874 -0.80 -0.69  0.21 
3875 -0.68 -0.84  0.21 
3876 -0.58 -0.71  0.21 
3877 -0.79 -0.69  0.21 
3878 -0.63 -0.68  0.21 
3879 -0.59 -0.65  0.21 
3880 -0.88 -0.68  0.21 
3881 -0.60 -0.72  0.21 
3882 -0.70 -0.72  0.21 
3883 -0.62 -0.69  0.21 
3884 -0.89 -0.62  0.21 
3885 -0.78 -0.58  0.21 
3886 -0.65 -0.63  0.21 
3887 -0.78 -0.60  0.21 
3888 -0.93 -0.65  0.21 
3889 -0.80 -0.59  0.21 
3890 -0.63 -0.68  0.21 
3891 -0.73 -0.57  0.21 
3892 -0.51 -0.69  0.21 
3893 -0.81 -0.73  0.21 
3894 -0.73 -0.78  0.21 
3895 -0.60 -0.78  0.21 
3896 -0.60 -0.97  0.21 
3897 -0.82 -0.63  0.21 
3898 -0.68 -0.89  0.21 
3899 -0.61 -0.59  0.21 
3900 -0.74 -0.98  0.21 
3901 -0.55 -0.66  0.21 
3902 -0.74 -0.61  0.21 
3903 -0.80 -0.66  0.21 
3904 -0.66 -0.76  0.21 
3905 -0.56 -0.59  0.21 
3906 -0.59 -0.59  0.21 
3907 -0.67 -0.55  0.21 
3908 -0.59 -0.80  0.21 
3909 -0.71 -0.76  0.21 
3910 -0.81 -0.84  0.21 
3911 -0.76 -0.53  0.21 
3912 -0.70 -0.85  0.21 
3913 -0.72 -0.68  0.21 
3914 -0.89 -0.71  0.21 
3915 -0.68 -0.71  0.21 
3916 -0.69 -0.72  0.21 
3917 -0.75 -0.66  0.21 
3918 -0.72 -0.77  0.21 
3919 -0.57 -0.71  0.21 
3920 -0.73 -0.43  0.21 
3921 -1.02 -0.50  0.21 
3922 -0.77 -0.67  0.21 
3923 -0.91 -0.72  0.21 
3924 -0.87 -0.78  0.21 
3925 -0.59 -0.54  0.21 
3926 -0.66 -0.73  0.21 
3927 -0.69 -0.61  0.21 
3928 -0.56 -0.48  0.21 
3929 -0.61 -0.70  0.21 
3930 -0.69 -0.60  0.21 
3931 -0.68 -0.83  0.21 
3932 -0.50 -0.80  0.21 
3933 -0.71 -0.85  0.21 
3934 -0.66 -0.77  0.21 
3935 -0.81 -0.80  0.21 
3936 -0.55 -0.87  0.21 
3937 -0.75 -0.89  0.21 
3938 -0.59 -0.90  0.21 
3939 -0.69 -0.94  0.21 
3940 -0.64 -0.80  0.21 
3941 -0.68 -0.78  0.21 
3942 -0.77 -0.78  0.21 
3943 -0.66 -0.57  0.21 
3944 -0.82 -0.44  0.21 
3945 -0.79 -0.57  0.21 
3946 -0.77 -0.44  0.21 
3947 -0.86 -0.45  0.21 
3948 -0.64 -0.44  0.21 
3949 -0.78 -0.56  0.21 
3950 -0.77 -0.57  0.21 
3951 -0.76 -0.55  0.21 
3952 -0.71 -0.56  0.21 
3953 -0.62 -0.53  0.21 
3954 -0.95 -0.51  0.21 
3955 -0.65 -0.54  0.21 
3956 -0.78 -0.55  0.21 
3957 -0.81 -0.59  0.21 
3958 -0.92 -0.84  0.21 
3959 -0.74 -0.39  0.21 
3960 -0.96 -0.52  0.21 
3961 -0.73 -0.52  0.21 
3962 -0.68 -0.55  0.21 
3963 -0.69 -0.54  0.21 
3964 -0.92 -0.52  0.21 
3965 -0.57 -0.57  0.21 
3966 -0.92 -0.55  0.21 
3967 -0.77 -0.53  0.21 
3968 -0.67 -0.65  0.21 
3969 -0.85 -0.57  0.21 
3970 -0.59 -0.50  0.21 
3971 -0.59 -0.65  0.21 
3972 -0.64 -0.73  0.21 
3973 -1.03 -0.66  0.21 
3974 -0.76 -0.82  0.21 
3975 -0.68 -0.73  0.21 
3976 -0.62 -0.83  0.21 
3977 -0.99 -1.03  0.21 
3978 -0.70 -1.08  0.21 
3979 -0.71 -1.00  0.21 
3980 -0.74 -1.08  0.21 
3981 -0.82 -1.01  0.21 
3982 -0.64 -1.12  0.21 
3983 -0.74 -1.10  0.21 
3984 -0.54 -1.09  0.21 
3985 -0.74 -0.98  0.21 
3986 -0.64 -0.83  0.21 
3987 -0.66 -1.21  0.21 
3988 -0.82 -0.72  0.21 
3989 -0.59 -0.80  0.21 
3990 -0.65 -0.65  0.21 
3991 -0.58 -0.81  0.21 
3992 -0.72 -0.97  0.21 
3993 -0.72 -0.64  0.21 
3994 -0.60 -0.94  0.21 
3995 -0.62 -0.49  0.21 
3996 -0.62 -0.85  0.21 
3997 -0.87 -0.94  0.21 
3998 -0.58 -0.78  0.21 
3999 -0.68 -1.10  0.21 
4000 -0.94 -0.93  0.21 
4001 -0.82 -0.67  0.21 
4002 -0.85 -0.53  0.21 
4003 -0.65 -0.69  0.21 
4004 -0.60 -0.67  0.21 
4005 -0.55 -0.58  0.21 
4006 -0.66 -0.63  0.21 
4007 -1.01 -0.97  0.21 
4008 -0.77 -0.78  0.21 
4009 -0.76 -1.07  0.21 
4010 -0.76 -1.01  0.21 
4011 -0.62 -0.68  0.21 
4012 -0.66 -0.68  0.21 
4013 -0.82 -0.59  0.21 
4014 -0.67 -0.66  0.21 
4015 -0.93 -0.85  0.21 
4016 -0.72 -0.52  0.21 
4017 -0.73 -0.60  0.21 
4018 -0.74 -0.79  0.21 
4019 -0.72 -0.77  0.21 
4020 -0.99 -0.86  0.21 
4021 -0.73 -0.83  0.21 
4022 -0.64 -0.52  0.21 
4023 -0.96 -0.75  0.21 
4024 -0.68 -0.83  0.21 
4025 -0.59 -0.95  0.21 
4026 -0.65 -0.66  0.21 
4027 -0.78 -1.01  0.21 
4028 -0.61 -1.06  0.21 
4029 -0.79 -0.88  0.21 
4030 -0.59 -0.96  0.21 
4031 -0.67 -0.88  0.21 
4032 -0.68 -0.81  0.21 
4033 -0.66 -0.84  0.21 
4034 -0.82 -1.07  0.21 
4035 -0.63 -0.83  0.21 
4036 -0.82 -0.82  0.21 
4037 -0.67 -0.86  0.21 
4038 -0.85 -0.84  0.21 
4039 -0.69 -1.01  0.21 
4040 -0.60 -1.00  0.21 
4041 -0.73 -0.82  0.21 
4042 -0.66 -0.97  0.21 
4043 -0.63 -0.83  0.21 
4044 -0.74 -0.79  0.21 
4045 -0.65 -0.83  0.21 
4046 -0.79 -0.94  0.21 
4047 -0.66 -0.90  0.21 
4048 -0.56 -1.10  0.21 
4049 -0.72 -0.92  0.21 
4050 -0.74 -0.85  0.21 
4051 -0.65 -0.60  0.21 
4052 -0.65 -0.66  0.21 
4053 -0.63 -0.70  0.21 
4054 -0.65 -1.16  0.21 
4055 -0.86 -0.61  0.21 
4056 -0.82 -0.48  0.21 
4057 -0.63 -0.59  0.21 
4058 -0.79 -0.81  0.21 
4059 -0.61 -0.71  0.21 
4060 -0.65 -0.66  0.21 
4061 -0.69 -0.56  0.21 
4062 -0.65 -0.79  0.21 
4063 -0.68 -0.97  0.21 
4064 -0.75 -0.52  0.21 
4065 -0.65 -0.72  0.21 
4066 -0.66 -0.69  0.21 
4067 -0.59 -0.78  0.21 
4068 -0.58 -0.75  0.21 
4069 -0.60 -0.67  0.21 
4070 -0.88 -0.53  0.21 
4071 -0.71 -0.48  0.21 
4072 -0.51 -0.48  0.21 
4073 -0.60 -0.74  0.21 
4074 -0.67 -0.65  0.21 
4075 -0.87 -0.71  0.21 
4076 -0.61 -0.70  0.21 
4077 -0.60 -0.83  0.21 
4078 -0.71 -0.68  0.21 
4079 -0.60 -0.69  0.21 
4080 -0.60 -0.69  0.21 
4081 -0.97 -0.61  0.21 
4082 -0.71 -0.61  0.21 
4083 -0.56 -0.64  0.21 
4084 -0.69 -0.65  0.21 
4085 -0.67 -0.67  0.21 
4086 -0.68 -0.58  0.21 
4087 -0.59 -0.58  0.21 
4088 -0.66 -0.59  0.21 
4089 -0.71 -0.66  0.21 
4090 -0.90 -0.62  0.21 
4091 -0.74 -0.66  0.21 
4092 -0.62 -0.75  0.21 
4093 -0.64 -0.65  0.21 
4094 -0.79 -0.64  0.21 
4095 -0.59 -0.61  0.21 
4096 -0.78 -0.59  0.21 
4097 -0.74 -0.58  0.21 
4098 -0.77 -0.60  0.21 
4099 -0.91 -0.49  0.21 
4100 -0.60 -0.48  0.21 
4101 -0.70 -0.72  0.21 
4102 -0.55 -0.70  0.21 
4103 -0.64 -0.74  0.21 
4104 -0.86 -0.75  0.21 
4105 -0.76 -0.74  0.21 
4106 -0.70 -0.67  0.21 
4107 -0.62 -0.66  0.21 
4108 -0.86 -0.70  0.21 
4109 -0.61 -0.84  0.21 
4110 -0.68 -0.80  0.21 
4111 -0.75 -0.64  0.21 
4112 -0.63 -0.67  0.21 
4113 -0.62 -0.83  0.21 
4114 -0.66 -0.73  0.21 
4115 -0.60 -0.93  0.21 
4116 -0.55 -0.74  0.21 
4117 -0.66 -0.69  0.21 
4118 -0.68 -0.65  0.21 
4119 -0.64 -0.75  0.21 
4120 -0.70 -0.68  0.21 
4121 -0.64 -0.68  0.21 
4122 -0.68 -0.72  0.21 
4123 -0.64 -0.67  0.21 
4124 -0.59 -0.47  0.21 
4125 -0.86 -0.56  0.21 
4126 -0.57 -0.53  0.21 
4127 -0.58 -0.47  0.21 
4128 -0.59 -0.48  0.21 
4129 -0.77 -0.70  0.21 
4130 -0.85 -0.67  0.21 
4131 -0.55 -0.56  0.21 
4132 -0.75 -0.53  0.21 
4133 -0.71 -0.72  0.21 
4134 -0.96 -0.58  0.21 
4135 -0.60 -0.50  0.21 
4136 -0.69 -0.63  0.21 
4137 -0.70 -0.68  0.21 
4138 -0.53 -0.62  0.21 
4139 -0.68 -0.48  0.21 
4140 -0.66 -0.47  0.21 
4141 -0.61 -0.71  0.21 
4142 -0.61 -0.63  0.21 
4143 -0.51 -0.60  0.21 
4144 -0.61 -0.68  0.21 
4145 -0.66 -0.48  0.21 
4146 -0.63 -0.45  0.21 
4147 -0.64 -0.63  0.21 
4148 -0.59 -0.51  0.21 
4149 -0.67 -0.49  0.21 
4150 -0.62 -0.72  0.21 
4151 -0.71 -0.59  0.21 
4152 -0.72 -0.83  0.21 
4153 -0.79 -0.69  0.21 
4154 -0.66 -0.71  0.21 
4155 -0.64 -0.61  0.21 
4156 -0.68 -0.61  0.21 
4157 -0.63 -0.67  0.21 
4158 -0.91 -0.69  0.21 
4159 -0.69 -0.71  0.21 
4160 -0.68 -0.69  0.21 
4161 -0.66 -0.69  0.21 
4162 -0.67 -0.67  0.21 
4163 -0.79 -0.61  0.21 
4164 -0.59 -0.59  0.21 
4165 -0.90 -0.59  0.21 
4166 -0.87 -0.71  0.21 
4167 -0.65 -0.72  0.21 
4168 -0.54 -0.68  0.21 
4169 -0.83 -0.75  0.21 
4170 -0.72 -0.68  0.21 
4171 -0.61 -0.63  0.21 
4172 -0.70 -0.69  0.21 
4173 -0.82 -0.76  0.21 
4174 -0.57 -0.69  0.21 
4175 -0.65 -0.64  0.21 
4176 -0.85 -0.62  0.21 
4177 -0.76 -0.67  0.21 
4178 -0.56 -0.68  0.21 
4179 -0.62 -0.67  0.21 
4180 -0.73 -0.59  0.21 
4181 -0.68 -0.94  0.21 
4182 -0.55 -0.73  0.21 
4183 -0.74 -0.83  0.21 
4184 -0.76 -0.68  0.21 
4185 -0.63 -0.47  0.21 
4186 -0.64 -0.77  0.21 
4187 -0.91 -0.45  0.21 
4188 -0.96 -0.45  0.21 
4189 -0.59 -0.45  0.21 
4190 -0.75 -0.59  0.21 
4191 -0.67 -0.45  0.21 
4192 -0.73 -0.46  0.21 
4193 -0.81 -0.47  0.21 
4194 -1.01 -0.46  0.21 
4195 -0.73 -0.64  0.21 
4196 -0.58 -0.74  0.21 
4197 -0.60 -1.10  0.21 
4198 -0.55 -0.87  0.21 
4199 -0.87 -1.20  0.21 
4200 -0.64 -0.97  0.21 
4201 -0.58 -0.98  0.21 
4202 -0.66 -1.13  0.21 
4203 -0.64 -0.70  0.21 
4204 -0.65 -0.87  0.21 
4205 -0.71 -0.40  0.21 
4206 -0.76 -0.45  0.21 
4207 -0.97 -0.44  0.21 
4208 -0.54 -0.55  0.21 
4209 -0.58 -0.68  0.21 
4210 -0.85 -0.53  0.21 
4211 -0.65 -0.63  0.21 
4212 -0.62 -0.97  0.21 
4213 -0.53 -1.01  0.21 
4214 -0.76 -0.70  0.21 
4215 -0.68 -1.13  0.21 
4216 -0.75 -1.11  0.21 
4217 -0.61 -1.07  0.21 
4218 -0.69 -1.04  0.21 
4219 -0.68 -1.03  0.21 
4220 -0.69 -0.55  0.21 
4221 -0.62 -0.60  0.21 
4222 -0.66 -0.81  0.21 
4223 -0.76 -0.69  0.21 
4224 -0.62 -0.64  0.21 
4225 -0.97 -0.60  0.21 
4226 -0.60 -0.58  0.21 
4227 -0.73 -0.64  0.21 
4228 -0.61 -0.45  0.21 
4229 -0.70 -0.57  0.21 
4230 -0.90 -0.71  0.21 
4231 -0.67 -1.07  0.21 
4232 -0.67 -0.67  0.21 
4233 -0.66 -0.62  0.21 
4234 -0.56 -0.66  0.21 
4235 -0.61 -0.47  0.21 
4236 -0.70 -0.73  0.21 
4237 -0.66 -0.75  0.21 
4238 -0.70 -0.55  0.21 
4239 -0.84 -0.79  0.21 
4240 -0.67 -0.58  0.21 
4241 -0.68 -0.61  0.21 
4242 -0.57 -0.67  0.21 
4243 -0.66 -0.59  0.21 
4244 -0.67 -0.55  0.21 
4245 -0.75 -0.62  0.21 
4246 -0.55 -0.65  0.21 
4247 -0.98 -0.65  0.21 
4248 -0.61 -0.59  0.21 
4249 -0.91 -0.58  0.21 
4250 -0.74 -0.62  0.21 
4251 -0.59 -0.69  0.21 
4252 -0.68 -0.91  0.21 
4253 -0.77 -0.84  0.21 
4254 -0.57 -0.80  0.21 
4255 -0.63 -0.44  0.21 
4256 -0.73 -0.55  0.21 
4257 -0.74 -0.79  0.21 
4258 -0.58 -0.74  0.21 
4259 -0.71 -0.78  0.21 
4260 -0.67 -0.78  0.21 
4261 -0.75 -0.76  0.21 
4262 -0.73 -0.68  0.21 
4263 -0.85 -0.64  0.21 
4264 -0.82 -0.49  0.21 
4265 -0.57 -0.54  0.21 
4266 -0.87 -0.70  0.21 
4267 -0.76 -0.72  0.21 
4268 -0.72 -0.68  0.21 
4269 -0.73 -0.70  0.21 
4270 -0.59 -0.62  0.21 
4271 -0.75 -0.71  0.21 
4272 -0.75 -0.59  0.21 
4273 -0.53 -0.56  0.21 
4274 -0.90 -0.42  0.21 
4275 -0.70 -0.41  0.21 
4276 -0.70 -0.42  0.21 
4277 -0.65 -0.48  0.21 
4278 -0.57 -0.42  0.21 
4279 -0.59 -0.43  0.21 
4280 -0.87 -0.54  0.21 
4281 -1.01 -0.72  0.21 
4282 -0.74 -0.65  0.21 
4283 -0.66 -0.74  0.21 
4284 -0.63 -0.52  0.21 
4285 -0.57 -0.63  0.21 
4286 -0.54 -0.67  0.21 
4287 -0.69 -0.58  0.21 
4288 -0.90 -0.70  0.21 
4289 -0.87 -0.72  0.21 
4290 -0.60 -0.60  0.21 
4291 -0.71 -0.56  0.21 
4292 -0.71 -0.51  0.21 
4293 -0.82 -0.62  0.21 
4294 -0.86 -0.54  0.21 
4295 -0.65 -0.52  0.21 
4296 -0.64 -0.55  0.21 
4297 -0.65 -0.78  0.21 
4298 -0.75 -0.57  0.21 
4299 -0.49 -0.53  0.21 
4300 -0.66 -0.67  0.21 
4301 -0.64 -0.51  0.21 
4302 -0.66 -0.56  0.21 
4303 -0.73 -0.63  0.21 
4304 -0.71 -0.67  0.21 
4305 -0.57 -0.46  0.21 
4306 -0.75 -0.48  0.21 
4307 -0.58 -0.51  0.21 
4308 -0.72 -0.51  0.21 
4309 -0.75 -0.61  0.21 
4310 -0.67 -0.57  0.21 
4311 -0.62 -0.60  0.21 
4312 -0.56 -0.55  0.21 
4313 -0.58 -0.57  0.21 
4314 -0.62 -0.56  0.21 
4315 -0.67 -0.54  0.21 
4316 -0.92 -0.55  0.21 
4317 -0.70 -0.65  0.21 
4318 -0.62 -0.57  0.21 
4319 -0.57 -0.54  0.21 
4320 -0.57 -0.56  0.21 
4321 -0.83 -0.55  0.21 
4322 -0.50 -0.55  0.21 
4323 -0.59 -0.61  0.21 
4324 -0.73 -0.55  0.21 
4325 -0.63 -0.60  0.21 
4326 -0.75 -0.59  0.21 
4327 -0.68 -0.63  0.21 
4328 -0.87 -0.54  0.21 
4329 -0.78 -0.53  0.21 
4330 -0.66 -0.60  0.21 
4331 -0.79 -0.63  0.21 
4332 -0.65 -0.57  0.21 
4333 -0.60 -0.55  0.21 
4334 -0.57 -0.59  0.21 
4335 -0.64 -0.69  0.21 
4336 -0.76 -0.55  0.21 
4337 -0.64 -0.60  0.21 
4338 -0.76 -0.60  0.21 
4339 -1.04 -0.60  0.21 
4340 -0.65 -0.61  0.21 
4341 -0.66 -0.53  0.21 
4342 -0.64 -0.63  0.21 
4343 -0.72 -0.61  0.21 
4344 -0.56 -0.58  0.21 
4345 -0.60 -0.58  0.21 
4346 -0.69 -0.58  0.21 
4347 -0.69 -0.57  0.21 
4348 -0.86 -0.57  0.21 
4349 -0.61 -0.57  0.21 
4350 -0.62 -0.56  0.21 
4351 -0.61 -0.62  0.21 
4352 -0.75 -0.56  0.21 
4353 -0.49 -0.56  0.21 
4354 -0.74 -0.63  0.21 
4355 -0.65 -0.56  0.21 
4356 -0.70 -0.57  0.21 
4357 -0.74 -0.58  0.21 
4358 -0.75 -0.59  0.21 
4359 -0.62 -0.61  0.21 
4360 -0.58 -0.68  0.21 
4361 -0.80 -0.65  0.21 
4362 -0.61 -0.60  0.21 
4363 -0.67 -0.61  0.21 
4364 -0.71 -0.63  0.21 
4365 -0.53 -0.65  0.21 
4366 -0.95 -0.68  0.21 
4367 -0.68 -0.69  0.21 
4368 -0.68 -0.66  0.21 
4369 -0.59 -0.58  0.21 
4370 -0.89 -0.58  0.21 
4371 -0.77 -0.59  0.21 
4372 -0.99 -0.62  0.21 
4373 -0.66 -0.65  0.21 
4374 -0.66 -0.78  0.21 
4375 -0.73 -0.76  0.21 
4376 -0.58 -0.78  0.21 
4377 -0.87 -0.78  0.21 
4378 -0.59 -0.73  0.21 
4379 -0.77 -0.72  0.21 
4380 -0.49 -0.52  0.21 
4381 -0.62 -0.75  0.21 
4382 -0.66 -0.56  0.21 
4383 -0.55 -0.52  0.21 
4384 -0.52 -0.41  0.21 
4385 -0.90 -0.43  0.21 
4386 -0.82 -0.61  0.21 
4387 -0.64 -0.69  0.21 
4388 -0.68 -0.67  0.21 
4389 -0.90 -0.55  0.21 
4390 -0.60 -0.71  0.21 
4391 -0.68 -0.58  0.21 
4392 -0.65 -0.53  0.21 
4393 -0.80 -0.64  0.21 
4394 -0.77 -0.63  0.21 
4395 -0.99 -0.65  0.21 
4396 -0.63 -0.58  0.21 
4397 -0.62 -0.71  0.21 
4398 -0.63 -0.64  0.21 
4399 -0.77 -0.61  0.21 
4400 -0.56 -0.65  0.21 
4401 -0.87 -0.72  0.21 
4402 -0.67 -0.73  0.21 
4403 -0.79 -0.75  0.21 
4404 -0.90 -0.65  0.21 
4405 -0.63 -0.63  0.21 
4406 -0.66 -0.64  0.21 
4407 -0.86 -0.65  0.21 
4408 -0.67 -0.61  0.21 
4409 -0.59 -0.48  0.21 
4410 -0.79 -0.70  0.21 
4411 -0.56 -0.45  0.21 
4412 -0.94 -0.70  0.21 
4413 -0.54 -0.69  0.21 
4414 -0.56 -0.68  0.21 
4415 -0.65 -0.66  0.21 
4416 -0.53 -0.70  0.21 
4417 -0.61 -0.69  0.21 
4418 -0.64 -0.68  0.21 
4419 -1.03 -0.65  0.21 
4420 -0.55 -0.63  0.21 
4421 -0.50 -0.52  0.21 
4422 -0.65 -0.52  0.21 
4423 -0.72 -0.52  0.21 
4424 -0.92 -0.54  0.21 
4425 -0.61 -0.61  0.21 
4426 -0.87 -0.64  0.21 
4427 -0.62 -0.58  0.21 
4428 -0.80 -0.64  0.21 
4429 -0.75 -0.72  0.21 
4430 -0.74 -0.58  0.21 
4431 -0.63 -0.69  0.21 
4432 -0.88 -0.73  0.21 
4433 -1.19 -0.71  0.21 
4434 -0.71 -0.71  0.21 
4435 -0.74 -0.67  0.21 
4436 -0.81 -0.65  0.21 
4437 -0.63 -0.66  0.21 
4438 -0.59 -0.67  0.21 
4439 -0.64 -0.71  0.21 
4440 -0.58 -0.78  0.21 
4441 -0.78 -0.66  0.21 
4442 -0.54 -0.61  0.21 
4443 -0.73 -0.57  0.21 
4444 -0.65 -0.56  0.21 
4445 -0.78 -0.50  0.21 
4446 -0.57 -0.63  0.21 
4447 -0.75 -0.71  0.21 
4448 -0.58 -0.73  0.21 
4449 -0.98 -0.69  0.21 
4450 -0.64 -0.67  0.21 
4451 -0.76 -0.53  0.21 
4452 -0.70 -0.53  0.21 
4453 -0.68 -0.53  0.21 
4454 -0.70 -0.54  0.21 
4455 -0.59 -0.63  0.21 
4456 -0.91 -0.65  0.21 
4457 -0.78 -0.50  0.21 
4458 -0.67 -0.60  0.21 
4459 -0.67 -0.68  0.21 
4460 -0.71 -0.47  0.21 
4461 -0.58 -0.58  0.21 
4462 -0.67 -0.64  0.21 
4463 -0.77 -0.71  0.21 
4464 -0.68 -0.74  0.21 
4465 -0.52 -0.58  0.21 
4466 -0.88 -0.55  0.21 
4467 -0.60 -0.65  0.21 
4468 -0.69 -0.64  0.21 
4469 -0.58 -0.50  0.21 
4470 -0.51 -0.51  0.21 
4471 -0.69 -0.53  0.21 
4472 -0.59 -0.51  0.21 
4473 -0.51 -0.65  0.21 
4474 -0.59 -0.69  0.21 
4475 -0.70 -0.63  0.21 
4476 -0.52 -0.70  0.21 
4477 -0.68 -0.49  0.21 
4478 -0.58 -0.61  0.21 
4479 -0.66 -0.66  0.21 
4480 -0.68 -0.60  0.21 
4481 -0.65 -0.53  0.21 
4482 -0.61 -0.61  0.21 
4483 -0.49 -0.69  0.21 
4484 -0.63 -0.70  0.21 
4485 -0.64 -0.70  0.21 
4486 -0.74 -0.69  0.21 
4487 -0.89 -0.76  0.21 
4488 -0.67 -0.53  0.21 
4489 -0.67 -0.52  0.21 
4490 -0.61 -0.76  0.21 
4491 -0.64 -0.73  0.21 
4492 -0.60 -0.67  0.21 
4493 -0.59 -0.77  0.21 
4494 -0.74 -0.51  0.21 
4495 -0.62 -0.59  0.21 
4496 -0.60 -0.51  0.21 
4497 -0.81 -0.72  0.21 
4498 -0.93 -0.68  0.21 
4499 -0.60 -0.69  0.21 
4500 -0.60 -0.59  0.21 
4501 -0.70 -0.59  0.21 
4502 -0.62 -0.60  0.21 
4503 -0.75 -0.84  0.21 
4504 -0.66 -0.79  0.21 
4505 -0.65 -0.73  0.21 
4506 -0.64 -0.71  0.21 
4507 -0.67 -0.84  0.21 
4508 -0.55 -0.71  0.21 
4509 -0.59 -0.57  0.21 
4510 -0.77 -0.67  0.21 
4511 -0.71 -0.60  0.21 
4512 -0.63 -0.60  0.21 
4513 -0.91 -0.60  0.21 
4514 -0.59 -0.60  0.21 
4515 -0.90 -0.56  0.21 
4516 -0.82 -0.63  0.21 
4517 -0.75 -0.66  0.21 
4518 -0.54 -0.55  0.21 
4519 -0.75 -0.57  0.21 
4520 -0.57 -0.51  0.21 
4521 -0.64 -0.53  0.21 
4522 -0.71 -0.65  0.21 
4523 -0.74 -0.66  0.21 
4524 -0.70 -0.84  0.21 
4525 -0.53 -0.80  0.21 
4526 -0.68 -0.53  0.21 
4527 -0.67 -0.64  0.21 
4528 -0.60 -0.50  0.21 
4529 -0.68 -0.52  0.21 
4530 -0.70 -0.54  0.21 
4531 -0.53 -0.67  0.21 
4532 -0.87 -0.51  0.21 
4533 -0.66 -0.71  0.21 
4534 -0.80 -0.67  0.21 
4535 -0.88 -0.71  0.21 
4536 -0.58 -0.69  0.21 
4537 -0.52 -0.69  0.21 
4538 -0.59 -0.68  0.21 
4539 -0.51 -0.65  0.21 
4540 -0.64 -0.61  0.21 
4541 -0.68 -0.62  0.21 
4542 -0.60 -0.58  0.21 
4543 -0.64 -0.61  0.21 
4544 -0.81 -0.57  0.21 
4545 -0.55 -0.59  0.21 
4546 -0.75 -0.69  0.21 
4547 -0.70 -0.65  0.21 
4548 -0.57 -0.68  0.21 
4549 -0.59 -0.67  0.21 
4550 -0.63 -0.68  0.21 
4551 -0.60 -0.51  0.21 
4552 -0.55 -0.59  0.21 
4553 -0.64 -0.49  0.21 
4554 -0.59 -0.51  0.21 
4555 -0.66 -0.50  0.21 
4556 -0.86 -0.51  0.21 
4557 -0.76 -0.51  0.21 
4558 -0.54 -0.52  0.21 
4559 -0.59 -0.52  0.21 
4560 -0.57 -0.52  0.21 
4561 -0.96 -0.40  0.21 
4562 -0.57 -0.38  0.21 
4563 -0.76 -0.40  0.21 
4564 -0.67 -0.52  0.21 
4565 -0.57 -0.51  0.21 
4566 -0.69 -0.52  0.21 
4567 -0.61 -0.53  0.21 
4568 -0.65 -0.56  0.21 
4569 -0.68 -0.54  0.21 
4570 -0.56 -0.39  0.21 
4571 -0.60 -0.41  0.21 
4572 -0.76 -0.53  0.21 
4573 -0.67 -0.55  0.21 
4574 -0.54 -0.51  0.21 
4575 -0.70 -0.51  0.21 
4576 -0.48 -0.39  0.21 
4577 -0.61 -0.52  0.21 
4578 -0.53 -0.39  0.21 
4579 -0.86 -0.53  0.21 
4580 -0.71 -0.50  0.21 
4581 -0.50 -0.52  0.21 
4582 -0.65 -0.52  0.21 
4583 -0.56 -0.51  0.21 
4584 -0.67 -0.51  0.21 
4585 -0.85 -0.51  0.21 
4586 -0.63 -0.52  0.21 
4587 -0.73 -0.63  0.21 
4588 -0.64 -0.40  0.21 
4589 -0.58 -0.38  0.21 
4590 -0.56 -0.49  0.21 
4591 -0.65 -0.48  0.21 
4592 -0.53 -0.48  0.21 
4593 -0.59 -0.49  0.21 
4594 -0.70 -0.48  0.21 
4595 -0.54 -0.51  0.21 
4596 -0.61 -0.47  0.21 
4597 -0.75 -0.62  0.21 
4598 -0.55 -0.60  0.21 
4599 -0.75 -0.62  0.21 
4600 -0.64 -0.54  0.21 
4601 -0.94 -0.56  0.21 
4602 -0.50 -0.59  0.21 
4603 -0.51 -0.56  0.21 
4604 -0.65 -0.57  0.21 
4605 -0.57 -0.58  0.21 
4606 -0.58 -0.56  0.21 
4607 -0.62 -0.56  0.21 
4608 -0.56 -0.54  0.21 
4609 -0.56 -0.52  0.21 
4610 -0.65 -0.51  0.21 
4611 -0.50 -0.50  0.21 
4612 -0.81 -0.47  0.21 
4613 -0.60 -0.35  0.21 
4614 -0.64 -0.35  0.21 
4615 -0.63 -0.38  0.21 
4616 -0.70 -0.37  0.21 
4617 -0.55 -0.43  0.21 
4618 -0.70 -0.39  0.21 
4619 -0.84 -0.49  0.21 
4620 -0.61 -0.38  0.21 
4621 -0.64 -0.48  0.21 
4622 -0.50 -0.50  0.21 
4623 -0.76 -0.43  0.21 
4624 -0.51 -0.54  0.21 
4625 -0.68 -0.51  0.21 
4626 -0.54 -0.56  0.21 
4627 -0.65 -0.58  0.21 
4628 -0.65 -0.54  0.21 
4629 -0.62 -0.52  0.21 
4630 -0.53 -0.51  0.21 
4631 -0.60 -0.44  0.21 
4632 -0.66 -0.53  0.21 
4633 -0.61 -0.53  0.21 
4634 -0.59 -0.52  0.21 
4635 -0.76 -0.53  0.21 
4636 -0.63 -0.55  0.21 
4637 -0.82 -0.56  0.21 
4638 -0.76 -0.51  0.21 
4639 -0.79 -0.55  0.21 
4640 -0.57 -0.52  0.21 
4641 -0.54 -0.56  0.21 
4642 -0.62 -0.70  0.21 
4643 -0.76 -0.46  0.21 
4644 -0.55 -0.53  0.21 
4645 -0.56 -0.55  0.21 
4646 -0.57 -0.53  0.21 
4647 -0.66 -0.51  0.21 
4648 -0.71 -0.55  0.21 
4649 -0.67 -0.54  0.21 
4650 -0.56 -0.60  0.21 
4651 -0.57 -0.55  0.21 
4652 -0.75 -0.42  0.21 
4653 -0.62 -0.39  0.21 
4654 -0.94 -0.46  0.21 
4655 -0.77 -0.47  0.21 
4656 -0.67 -0.47  0.21 
4657 -0.65 -0.47  0.21 
4658 -0.54 -0.46  0.21 
4659 -0.62 -0.53  0.21 
4660 -0.74 -0.56  0.21 
4661 -0.53 -0.45  0.21 
4662 -0.64 -0.49  0.21 
4663 -0.62 -0.46  0.21 
4664 -0.61 -0.44  0.21 
4665 -0.63 -0.42  0.21 
4666 -0.76 -0.43  0.21 
4667 -1.02 -0.42  0.21 
4668 -0.51 -0.42  0.21 
4669 -0.65 -0.42  0.21 
4670 -0.71 -0.42  0.21 
4671 -0.69 -0.40  0.21 
4672 -0.62 -0.48  0.21 
4673 -0.66 -0.43  0.21 
4674 -0.71 -0.41  0.21 
4675 -0.70 -0.42  0.21 
4676 -0.61 -0.54  0.21 
4677 -0.55 -0.45  0.21 
4678 -0.63 -0.54  0.21 
4679 -0.51 -0.52  0.21 
4680 -0.70 -0.51  0.21 
4681 -0.65 -0.38  0.21 
4682 -0.58 -0.41  0.21 
4683 -0.60 -0.42  0.21 
4684 -0.58 -0.40  0.21 
4685 -0.54 -0.39  0.21 
4686 -0.63 -0.41  0.21 
4687 -0.71 -0.40  0.21 
4688 -0.59 -0.45  0.21 
4689 -0.79 -0.45  0.21 
4690 -0.77 -0.46  0.21 
4691 -0.81 -0.60  0.21 
4692 -0.81 -0.46  0.21 
4693 -0.50 -0.48  0.21 
4694 -0.66 -0.44  0.21 
4695 -0.58 -0.57  0.21 
4696 -0.69 -0.43  0.21 
4697 -0.68 -0.46  0.21 
4698 -0.71 -0.47  0.21 
4699 -0.53 -0.45  0.21 
4700 -0.67 -0.46  0.21 
4701 -0.76 -0.47  0.21 
4702 -0.72 -0.47  0.21 
4703 -0.75 -0.50  0.21 
4704 -0.52 -0.60  0.21 
4705 -0.59 -0.53  0.21 
4706 -0.78 -0.60  0.21 
4707 -0.59 -0.49  0.21 
4708 -0.70 -0.63  0.21 
4709 -0.61 -0.47  0.21 
4710 -0.62 -0.44  0.21 
4711 -0.57 -0.49  0.21 
4712 -0.70 -0.46  0.21 
4713 -0.51 -0.39  0.21 
4714 -0.77 -0.43  0.21 
4715 -0.52 -0.43  0.21 
4716 -0.68 -0.49  0.21 
4717 -0.58 -0.57  0.21 
4718 -0.61 -0.45  0.21 
4719 -0.62 -0.61  0.21 
4720 -0.73 -0.67  0.21 
4721 -0.57 -0.68  0.21 
4722 -0.73 -0.66  0.21 
4723 -0.53 -0.47  0.21 
4724 -0.64 -0.67  0.21 
4725 -0.64 -0.58  0.21 
4726 -0.61 -0.61  0.21 
4727 -0.53 -0.52  0.21 
4728 -0.61 -0.46  0.21 
4729 -0.68 -0.57  0.21 
4730 -0.60 -0.37  0.21 
4731 -0.63 -0.48  0.21 
4732 -0.55 -0.64  0.21 
4733 -0.55 -0.44  0.21 
4734 -0.58 -0.45  0.21 
4735 -0.74 -0.43  0.21 
4736 -0.70 -0.45  0.21 
4737 -0.90 -0.37  0.21 
4738 -0.68 -0.48  0.21 
4739 -0.65 -0.42  0.21 
4740 -0.97 -0.36  0.21 
4741 -0.71 -0.44  0.21 
4742 -0.67 -0.50  0.21 
4743 -0.74 -0.51  0.21 
4744 -0.62 -0.41  0.21 
4745 -0.73 -0.48  0.21 
4746 -0.61 -0.46  0.21 
4747 -0.60 -0.68  0.21 
4748 -0.55 -0.45  0.21 
4749 -0.64 -0.43  0.21 
4750 -0.70 -0.42  0.21 
4751 -0.62 -0.45  0.21 
4752 -0.61 -0.44  0.21 
4753 -0.67 -0.45  0.21 
4754 -0.71 -0.51  0.21 
4755 -0.58 -0.39  0.21 
4756 -0.69 -0.63  0.21 
4757 -0.59 -0.64  0.21 
4758 -0.61 -0.43  0.21 
4759 -0.57 -0.42  0.21 
4760 -0.64 -0.38  0.21 
4761 -0.84 -0.47  0.21 
4762 -0.71 -0.49  0.21 
4763 -0.71 -0.42  0.21 
4764 -0.61 -0.41  0.21 
4765 -0.62 -0.40  0.21 
4766 -0.64 -0.40  0.21 
4767 -0.70 -0.40  0.21 
4768 -0.73 -0.42  0.21 
4769 -0.68 -0.44  0.21 
4770 -0.55 -0.43  0.21 
4771 -0.57 -0.41  0.21 
4772 -0.67 -0.38  0.21 
4773 -0.66 -0.39  0.21 
4774 -0.65 -0.41  0.21 
4775 -0.66 -0.39  0.21 
4776 -0.73 -0.41  0.21 
4777 -0.64 -0.39  0.21 
4778 -0.82 -0.37  0.21 
4779 -0.59 -0.38  0.21 
4780 -0.61 -0.39  0.21 
4781 -0.58 -0.38  0.21 
4782 -0.53 -0.40  0.21 
4783 -0.53 -0.40  0.21 
4784 -0.66 -0.39  0.21 
4785 -0.60 -0.40  0.21 
4786 -0.58 -0.41  0.21 
4787 -0.54 -0.38  0.21 
4788 -0.58 -0.38  0.21 
4789 -0.58 -0.37  0.21 
4790 -0.48 -0.37  0.21 
4791 -0.52 -0.41  0.21 
4792 -0.63 -0.41  0.21 
4793 -0.52 -0.48  0.21 
4794 -0.52 -0.41  0.21 
4795 -0.69 -0.39  0.21 
4796 -0.59 -0.38  0.21 
4797 -0.69 -0.36  0.21 
4798 -0.51 -0.40  0.21 
4799 -0.51 -0.35  0.21 
4800 -0.58 -0.36  0.21 
4801 -0.50 -0.36  0.21 
4802 -0.71 -0.35  0.21 
4803 -0.60 -0.34  0.21 
4804 -0.55 -0.32  0.21 
4805 -0.66 -0.33  0.21 
4806 -0.60 -0.48  0.21 
4807 -0.50 -0.44  0.21 
4808 -0.58 -0.44  0.21 
4809 -0.81 -0.64  0.21 
4810 -0.64 -0.47  0.21 
4811 -0.66 -0.45  0.21 
4812 -0.62 -0.43  0.21 
4813 -0.54 -0.41  0.21 
4814 -0.57 -0.43  0.21 
4815 -0.65 -0.41  0.21 
4816 -0.57 -0.55  0.21 
4817 -0.54 -0.39  0.21 
4818 -0.72 -0.36  0.21 
4819 -0.69 -0.42  0.21 
4820 -0.53 -0.42  0.21 
4821 -0.68 -0.45  0.21 
4822 -0.59 -0.43  0.21 
4823 -0.52 -0.44  0.21 
4824 -0.57 -0.43  0.21 
4825 -0.74 -0.43  0.21 
4826 -0.54 -0.58  0.21 
4827 -0.64 -0.45  0.21 
4828 -0.63 -0.46  0.21 
4829 -0.71 -0.42  0.21 
4830 -0.60 -0.41  0.21 
4831 -0.61 -0.40  0.21 
4832 -0.60 -0.45  0.21 
4833 -0.69 -0.62  0.21 
4834 -0.65 -0.45  0.21 
4835 -0.75 -0.52  0.21 
4836 -0.51 -0.71  0.21 
4837 -0.50 -0.46  0.21 
4838 -0.54 -0.43  0.21 
4839 -0.57 -0.43  0.21 
4840 -0.70 -0.39  0.21 
4841 -0.58 -0.42  0.21 
4842 -0.55 -0.68  0.21 
4843 -0.59 -0.75  0.21 
4844 -0.56 -0.65  0.21 
4845 -0.56 -0.68  0.21 
4846 -0.60 -0.66  0.21 
4847 -0.51 -0.56  0.21 
4848 -0.52 -0.68  0.21 
4849 -0.83 -0.75  0.21 
4850 -0.57 -0.67  0.21 
4851 -0.58 -0.69  0.21 
4852 -0.53 -0.64  0.21 
4853 -0.57 -0.55  0.21 
4854 -0.72 -0.56  0.21 
4855 -0.61 -0.63  0.21 
4856 -0.87 -0.59  0.21 
4857 -0.60 -0.66  0.21 
4858 -0.60 -0.62  0.21 
4859 -0.81 -0.61  0.21 
4860 -0.59 -0.54  0.21 
4861 -0.63 -0.49  0.21 
4862 -0.69 -0.58  0.21 
4863 -0.60 -0.50  0.21 
4864 -0.56 -0.84  0.21 
4865 -0.59 -0.76  0.21 
4866 -0.59 -0.79  0.21 
4867 -0.53 -0.57  0.21 
4868 -0.53 -0.62  0.21 
4869 -0.66 -0.78  0.21 
4870 -0.57 -0.87  0.21 
4871 -0.55 -0.64  0.21 
4872 -0.58 -0.66  0.21 
4873 -0.55 -0.57  0.21 
4874 -0.56 -0.55  0.21 
4875 -0.53 -0.51  0.21 
4876 -0.58 -0.65  0.21 
4877 -0.99 -0.51  0.21 
4878 -0.51 -0.59  0.21 
4879 -0.71 -0.59  0.21 
4880 -0.64 -0.74  0.21 
4881 -0.55 -0.68  0.21 
4882 -0.58 -0.74  0.21 
4883 -0.44 -0.49  0.21 
4884 -0.58 -0.57  0.21 
4885 -0.69 -0.60  0.21 
4886 -0.65 -0.76  0.21 
4887 -0.77 -0.52  0.21 
4888 -0.71 -0.51  0.21 
4889 -0.64 -0.54  0.21 
4890 -0.83 -0.81  0.21 
4891 -0.55 -0.60  0.21 
4892 -0.68 -0.63  0.21 
4893 -0.70 -0.63  0.21 
4894 -0.54 -0.54  0.21 
4895 -0.54 -0.67  0.21 
4896 -0.63 -0.56  0.21 
4897 -0.60 -0.63  0.21 
4898 -0.56 -0.76  0.21 
4899 -0.68 -0.63  0.21 
4900 -0.66 -0.68  0.21 
4901 -0.64 -0.76  0.21 
4902 -0.48 -0.63  0.21 
4903 -0.76 -0.73  0.21 
4904 -0.60 -0.72  0.21 
4905 -0.50 -0.73  0.21 
4906 -0.57 -0.67  0.21 
4907 -0.63 -0.64  0.21 
4908 -0.57 -0.56  0.21 
4909 -0.51 -0.69  0.21 
4910 -0.60 -0.72  0.21 
4911 -0.46 -0.66  0.21 
4912 -0.59 -0.64  0.21 
4913 -0.53 -0.49  0.21 
4914 -0.52 -0.64  0.21 
4915 -0.47 -0.68  0.21 
4916 -0.59 -0.64  0.21 
4917 -0.75 -0.66  0.21 
4918 -0.46 -0.45  0.21 
4919 -0.44 -0.45  0.21 
4920 -0.61 -0.62  0.21 
4921 -0.55 -0.69  0.21 
4922 -0.62 -0.72  0.21 
4923 -0.62 -0.66  0.21 
4924 -0.55 -0.47  0.21 
4925 -0.55 -0.65  0.21 
4926 -0.59 -0.68  0.21 
4927 -0.61 -0.66  0.21 
4928 -0.63 -0.69  0.21 
4929 -0.51 -0.74  0.21 
4930 -0.61 -0.70  0.21 
4931 -0.55 -0.68  0.21 
4932 -0.61 -0.66  0.21 
4933 -0.68 -0.64  0.21 
4934 -0.64 -0.60  0.21 
4935 -0.56 -0.60  0.21 
4936 -0.58 -0.59  0.21 
4937 -0.65 -0.53  0.21 
4938 -0.60 -0.61  0.21 
4939 -0.54 -0.55  0.21 
4940 -0.71 -0.66  0.21 
4941 -0.50 -0.67  0.21 
4942 -0.69 -0.68  0.21 
4943 -0.74 -0.69  0.21 
4944 -0.77 -0.67  0.21 
4945 -0.51 -0.67  0.21 
4946 -0.61 -0.69  0.21 
4947 -0.50 -0.68  0.21 
4948 -0.67 -0.62  0.21 
4949 -0.55 -0.69  0.21 
4950 -0.53 -0.61  0.21 
4951 -0.54 -0.50  0.21 
4952 -0.80 -0.71  0.21 
4953 -0.72 -0.74  0.21 
4954 -0.62 -0.68  0.21 
4955 -0.50 -0.67  0.21 
4956 -0.78 -0.43  0.21 
4957 -0.53 -0.68  0.21 
4958 -0.77 -0.73  0.21 
4959 -0.60 -0.73  0.21 
4960 -0.48 -0.72  0.21 
4961 -0.65 -0.62  0.21 
4962 -0.70 -0.77  0.21 
4963 -0.67 -0.48  0.21 
4964 -0.54 -0.44  0.21 
4965 -0.50 -0.59  0.21 
4966 -0.49 -0.77  0.21 
4967 -0.52 -0.65  0.21 
4968 -0.70 -0.71  0.21 
4969 -0.74 -0.58  0.21 
4970 -0.53 -0.40  0.21 
4971 -0.53 -0.37  0.21 
4972 -0.53 -0.48  0.21 
4973 -0.80 -0.38  0.21 
4974 -0.59 -0.41  0.21 
4975 -0.59 -0.61  0.21 
4976 -0.52 -0.59  0.21 
4977 -0.54 -0.72  0.21 
4978 -0.46 -0.63  0.21 
4979 -0.53 -0.70  0.21 
4980 -0.70 -0.41  0.21 
4981 -0.74 -0.42  0.21 
4982 -0.66 -0.48  0.21 
4983 -0.51 -0.77  0.21 
4984 -0.49 -0.79  0.21 
4985 -0.58 -0.71  0.21 
4986 -0.55 -0.71  0.21 
4987 -0.53 -0.41  0.21 
4988 -0.52 -0.43  0.21 
4989 -0.55 -0.51  0.21 
4990 -0.62 -0.56  0.21 
4991 -0.54 -0.51  0.21 
4992 -0.72 -0.50  0.21 
4993 -0.58 -0.47  0.21 
4994 -0.65 -0.45  0.21 
4995 -0.48 -0.41  0.21 
4996 -0.61 -0.44  0.21 
