iteration,time_sampling,stoc_pol_mean,stoc_pol_std,stoc_pol_max,stoc_pol_min,rollout_success,alpha,delta,time_vpg,time_npg,kl_dist,surr_improvement,running_score,rwd_sparse,rwd_dense,success_percentage,num_samples,time_VF,VF_error_before,VF_error_after,env_samples,eval_score,eval_success
0,1.081083059310913,0.00470571118419878,0.0034550718951604576,0.009850586746316463,0.0006366887867782988,0.0,0.14661075007778232,0.1,0.03326582908630371,0.05333113670349121,0.05560012,0.89313704,0.00470571118419878,0.0,9.305948102951305e-05,0.0,200,0.014856338500976562,116.00855215067287,34.34056413327896,200,0.004351854874765074,0.0
1,0.88942551612854,0.006356431194307115,0.002139396950786643,0.009989384250971626,0.0045435894752102485,0.0,0.14601077263813547,0.1,0.002771615982055664,0.05331254005432129,0.048569337,0.822052,0.004870783185209614,0.0,0.00012139401253215921,0.0,200,0.014206409454345703,23.277200392844197,2.434209505616522,400,0.004799499516848964,0.0
2,0.9557027816772461,0.005255552157421975,0.0014803771770161862,0.007362729350203495,0.003414505365168686,0.0,0.1406524539574262,0.1,0.002802133560180664,0.05344891548156738,0.05085703,1.0549811,0.00490926008243085,0.0,0.00010474188340362375,0.0,200,0.014293432235717773,3.9498944563070233,8.155587223617474,600,0.005214574793932752,0.0
3,0.96315598487854,0.0035885889147492605,0.0024952267695554898,0.0064652093197326704,0.0006131693565055962,0.0,0.13872847873603766,0.1,0.002745389938354492,0.05251145362854004,0.05035194,0.9666964,0.004777192965662691,0.0,7.147932182906353e-05,0.0,200,0.022551298141479492,11.738050122662523,3.1917984437581444,800,0.005531522444575901,0.0
4,0.9975378513336182,0.013659916797339522,0.006137820107397898,0.023966462894322926,0.007803642248329401,0.0,0.15347930241392002,0.1,0.0027387142181396484,0.056092023849487305,0.048726197,0.9603879,0.005665465348830374,0.0,0.00027279294284902276,0.0,200,0.017190217971801758,1.0026253344668874,0.5830870576645205,1000,0.004815738062162478,0.0
5,1.0077836513519287,0.02008730211775033,0.011077397632462727,0.03896563893616361,0.011984130109853011,0.0,0.14808106530038948,0.1,0.0026710033416748047,0.05278468132019043,0.048596688,1.2335222,0.007107649025722369,0.0,0.0003920629027605683,0.0,200,0.013499736785888672,0.7755185298868386,0.5017669532436775,1200,0.004639521333466024,0.0
6,1.0131261348724365,0.00482037248074993,0.003445336884537832,0.010763853400115231,0.0023363798543233035,0.0,0.14603559664057578,0.1,0.002689838409423828,0.05255007743835449,0.05040351,0.77478707,0.006878921371225126,0.0,9.61043388284682e-05,0.0,200,0.01386117935180664,10.378112522681544,4.644756022591906,1400,0.005902334065697296,0.0
7,0.9462347030639648,0.007179698860534701,0.007459335338977293,0.01978692146254438,0.0015049194302892816,0.0,0.14769798593281622,0.1,0.0027277469635009766,0.05388665199279785,0.050198916,1.4723647,0.006908999120156083,0.0,0.00014310671391871036,0.0,200,0.01381683349609375,1.7628801176450233,1.1433665989414676,1600,0.005221778223766605,0.0
8,1.0673274993896484,0.01774325797187101,0.021635550148544524,0.05456176623671862,0.001355089275905478,0.0,0.1498648832215455,0.1,0.002789735794067383,0.0536806583404541,0.049669605,1.235661,0.007992425005327576,0.0,0.0003538358468209497,0.0,200,0.013614177703857422,1.045045863010648,0.7615395805578804,1800,0.006240135137806221,0.0
9,1.0318021774291992,0.0133905367684511,0.012609966167498822,0.03407535218056945,0.0007664676502222432,0.0,0.1432675303067262,0.1,0.0027179718017578125,0.056427717208862305,0.04945583,1.246325,0.008532236181639929,0.0,0.0002666477288704301,0.0,200,0.012995004653930664,0.5964198628877403,0.7760282810974,2000,0.009175574869130414,0.0
10,1.0066578388214111,0.0045718153449120285,0.003274146048431859,0.009487418342120024,0.0006251323090770998,0.0,0.13811610339438576,0.1,0.002869129180908203,0.05460000038146973,0.05028725,1.4012387,0.008136194097967139,0.0,9.14310987998226e-05,0.0,200,0.014787435531616211,12.901812972700945,3.932847211425824,2200,0.00861300842321104,0.0
11,1.0154531002044678,0.01750250544857309,0.013653637622639053,0.031226858433766415,0.0019557870553256816,0.0,0.13698252014011494,0.1,0.002835512161254883,0.05701184272766113,0.05032198,1.1049439,0.009072825233027734,0.0,0.0003495176430851867,0.0,200,0.014544248580932617,0.5044556887181939,0.6309097410074118,2400,0.008935832074959075,0.0
12,0.9963254928588867,0.01709333832804963,0.015364697419219952,0.04324428666514218,0.003779884627386366,0.0,0.14060725772333021,0.1,0.0027534961700439453,0.05353593826293945,0.04950546,1.5166004,0.009874876542529923,0.0,0.0003417905755649807,0.0,200,0.013937711715698242,0.6534477551970175,0.5182727572311248,2600,0.00986567455512015,0.0
13,1.0068433284759521,0.014187918132836154,0.01640611427994903,0.04137941298469621,0.001099309533442359,0.0,0.14001165379107533,0.1,0.0028100013732910156,0.05323171615600586,0.049145393,1.5320729,0.010306180701560546,0.0,0.0002818869741125799,0.0,200,0.013911247253417969,0.6117581217790383,0.6907458623689361,2800,0.010353704257107039,0.0
14,1.0510928630828857,0.054056581196542046,0.06995069959642922,0.1751668357407829,0.010758451537911204,0.0,0.13713980831960065,0.1,0.0028591156005859375,0.05370330810546875,0.050006457,1.8086113,0.014681220751058696,0.0,0.0010804005478875223,0.0,200,0.01384425163269043,0.807144319454664,0.6984365010169343,3000,0.012032973879145035,0.0
15,1.0337436199188232,0.007613346377992769,0.0027334373971602444,0.010242654728964842,0.0036839605937865403,0.0,0.13283918310331402,0.1,0.006958961486816406,0.057472944259643555,0.049424935,1.5110072,0.013974433313752104,0.0,0.0001521539083112562,0.0,200,0.014612913131713867,28.678248009969373,24.354789149264228,3200,0.01263465179776879,0.0
16,1.028817892074585,0.013908543253068614,0.008409258692695761,0.02710035996416192,0.005987965444089455,0.0,0.13569716837230994,0.1,0.002783060073852539,0.053192138671875,0.050578997,1.3280858,0.013967844307683755,0.0,0.00027096877740127325,0.0,200,0.01355433464050293,3.2457341316649364,0.29583610135506155,3400,0.014422566558625692,0.0
17,1.053861141204834,0.018407548678363247,0.013061237700668993,0.03696097670475585,0.005012903333102785,0.0,0.1384201938618109,0.1,0.0026645660400390625,0.052651166915893555,0.04998754,3.1917558,0.014411814744751705,0.0,0.00036782877735377077,0.0,200,0.013862848281860352,0.45049569769351666,1.098065808377605,3600,0.017766042081508143,0.0
18,1.0490586757659912,0.03964697466579774,0.01357752066519655,0.05406089522754266,0.017503890574347255,0.0,0.1391768822732001,0.1,0.002685546875,0.05247187614440918,0.049476303,1.0664593,0.016935330736856307,0.0,0.0007921336258353434,0.0,200,0.015034914016723633,1.063675580899582,0.5150002994309453,3800,0.016626564741801377,0.0
19,1.0335838794708252,0.008546566231840863,0.006450754060352663,0.019651398679773092,0.004019063300965397,0.0,0.1359317977285651,0.1,0.0026564598083496094,0.052376747131347656,0.049822006,1.7163794,0.016096454286354762,0.0,0.00017015656608631712,0.0,200,0.014348030090332031,0.9815991819021347,4.376086435035152,4000,0.017740352575749695,0.0
20,1.062880277633667,0.04033584619994279,0.037840177097863886,0.10531065926216299,0.013727191565051632,0.0,0.1431527152045921,0.1,0.002674579620361328,0.05323076248168945,0.048704408,1.7454873,0.018520393477713566,0.0,0.0008031122379426351,0.0,200,0.013826370239257812,0.6256201930866455,0.5924786170932431,4200,0.01728170532568688,0.0
21,1.0624229907989502,0.01252071704326895,0.00803787302161859,0.021159011832330377,0.0021783425937656705,0.0,0.13932016630969574,0.1,0.002653837203979492,0.05282235145568848,0.049575157,1.0599642,0.017920425834269105,0.0,0.0002500635355022628,0.0,200,0.013991594314575195,3.784545390997717,2.745391421673674,4400,0.01599862966716337,0.0
22,1.1151399612426758,0.17303755413502406,0.16691579925360195,0.38422184174412893,0.003664196104445621,0.0,0.13207976099126367,0.1,0.0027158260345458984,0.053391456604003906,0.05000338,2.03831,0.0334321386643446,0.0,0.0034571741132473654,0.0,200,0.014992237091064453,0.8584961488978174,0.7696739656296852,4600,0.022877764376592637,0.0
23,1.0288734436035156,0.022190299692758365,0.012785752047509768,0.03736804098033279,0.008683683293751694,0.0,0.1394793791787309,0.1,0.0026137828826904297,0.05314779281616211,0.049625017,0.84339356,0.032307954767185974,0.0,0.0004419204111185809,0.0,200,0.014213323593139648,2.7217797909173846,4.829144424732752,4800,0.021817935748781606,0.0
24,1.0338795185089111,0.041122484796411216,0.024139095771266494,0.06781802713911643,0.003811893485650889,0.0,0.1335526504004551,0.1,0.0027039051055908203,0.053125858306884766,0.04941785,1.0129671,0.0331894077701085,0.0,0.0008196314016993934,0.0,200,0.01384878158569336,1.0877090570044292,0.7247010020037441,5000,0.020078895270200018,0.0
25,1.0458409786224365,0.009626592313472574,0.004290847702173863,0.013337385271834814,0.002603505573331545,0.0,0.13876461106397137,0.1,0.002678394317626953,0.05272054672241211,0.050732337,0.7576606,0.03083312622444491,0.0,0.00019179620626898553,0.0,200,0.013988494873046875,25.953728434560073,5.838198046946479,5200,0.018264628295372586,0.0
26,1.0292942523956299,0.01936435676760767,0.009707893128293782,0.03187303500581881,0.005390630206012631,0.0,0.140002486772036,0.1,0.002847433090209961,0.05316495895385742,0.049863566,1.0106418,0.029686249278761186,0.0,0.00038726200145315767,0.0,200,0.013991117477416992,0.9084461280357152,0.62718797461827,5400,0.024316280032823417,0.0
27,1.017897129058838,0.008969673600525828,0.006556829317354735,0.019874041146837627,0.00324992492237693,0.0,0.1273401870861581,0.1,0.002785205841064453,0.053517818450927734,0.04792549,1.0033911,0.02761459171093765,0.0,0.00017939072237619296,0.0,200,0.015621185302734375,0.7262517140640569,2.7390015472205156,5600,0.04004902000973742,0.0
28,1.0453097820281982,0.0193702985989741,0.022175015248597624,0.057727600479749765,0.005027972611556243,0.0,0.12976773177781595,0.1,0.0028579235076904297,0.05382370948791504,0.049985528,2.1919012,0.026790162399741295,0.0,0.0003870761597950658,0.0,200,0.014544486999511719,1.3815759745313252,1.0193598669240302,5800,0.0501254032242607,0.0
29,0.9842047691345215,0.042262782252238076,0.038476994792259876,0.10580448885730116,0.002134904974008477,0.0,0.13787307524917433,0.1,0.002893686294555664,0.05393695831298828,0.05022214,1.6090667,0.028337424384990973,0.0,0.0008445852279318606,0.0,200,0.014455080032348633,0.9963666099257785,0.703484212427282,6000,0.058350479607354934,0.0
30,1.046250820159912,0.031126593884940778,0.02405483969656162,0.06280076947629304,0.005557566893906769,0.0,0.1397079245445366,0.1,0.002867460250854492,0.05362963676452637,0.04970489,1.0427166,0.028616341334985952,0.0,0.0006225446298709032,0.0,200,0.017167091369628906,0.5578454696643026,0.5698942821436337,6200,0.07060971334317934,0.0
31,1.0511209964752197,0.05667280286019596,0.038926516704056106,0.11523781415956931,0.018539445673917212,0.0,0.1404243260967309,0.1,0.00324249267578125,0.053963422775268555,0.050068017,1.5003929,0.03142198748750695,0.0,0.0011334390978199856,0.0,200,0.015258550643920898,0.5676329712072583,0.5232811080544906,6400,0.10718657692456389,0.0
32,1.0348865985870361,0.01907453500676881,0.0077032696970707314,0.031498088666122644,0.010345826885196223,0.0,0.13581302004094611,0.1,0.0027899742126464844,0.05263781547546387,0.050361536,0.90123266,0.030187242239433136,0.0,0.0003808203330355119,0.0,200,0.01555323600769043,3.004501948552089,2.9022209255775224,6600,0.09181030871815295,0.0
33,1.0921339988708496,0.04409969955368841,0.012581013422178822,0.06262391189353284,0.03239471150522954,0.0,0.13780986478570764,0.1,0.0028536319732666016,0.05274367332458496,0.050108504,0.69220245,0.03157848797085867,0.0,0.0008635014810342214,0.0,200,0.013938665390014648,0.23801633362089808,0.23020524705839546,6800,0.10780379498472799,0.0
34,1.053163766860962,0.018116244491639698,0.010439883479520377,0.031280745192439806,0.0065528114837219995,0.0,0.13955774542365332,0.1,0.004758119583129883,0.052640438079833984,0.049202222,0.93576163,0.03023226362293677,0.0,0.0003619820659518055,0.0,200,0.01393437385559082,2.141057509541822,1.164497625425226,7000,0.1077121055277856,0.0
35,1.0754880905151367,0.07130988183635678,0.07386169632655355,0.18993140842700806,0.009018768072623017,0.0,0.13419369709521714,0.1,0.0026373863220214844,0.05287432670593262,0.05057727,1.7973485,0.03434002544427877,0.0,0.0014247860083775868,0.0,200,0.013504505157470703,0.7401314576995397,0.7336176554982821,7200,0.10769614238337906,0.0
36,1.1781260967254639,0.04378333223715036,0.03536496734432473,0.09598011488559233,0.0084933725595637,0.0,0.1408747711881957,0.1,0.0029227733612060547,0.05350899696350098,0.04999864,1.2563069,0.03528435612356593,0.0,0.0008753208276918354,0.0,200,0.013459205627441406,0.5761110604091053,0.568852509277115,7400,0.12863433880137817,0.0
37,1.0490312576293945,0.01708469069754047,0.00819201048979572,0.029594156461369956,0.009673724860554045,0.0,0.12817025910354973,0.1,0.0026929378509521484,0.05314517021179199,0.050355673,1.450684,0.033464389580963386,0.0,0.0003412674967369738,0.0,200,0.013976097106933594,3.0405646745969426,2.683081845988272,7600,0.16170932785984046,0.0
38,1.133439540863037,0.09677708302506224,0.10276009016885772,0.26913521907589605,0.012606533298018899,0.0,0.14117743588037454,0.1,0.002819061279296875,0.05357217788696289,0.0496067,1.5792538,0.039795658925373276,0.0,0.001935273293454606,0.0,200,0.013171911239624023,0.7672647095548669,0.742538601197232,7800,0.14197159720642286,0.0
39,1.1187646389007568,0.04873117195038979,0.04670593808996658,0.11999713128898215,0.0033643641278909443,0.0,0.138005754296698,0.1,0.0027599334716796875,0.05304884910583496,0.050175644,1.2685245,0.04068921022787493,0.0,0.0009738815468416951,0.0,200,0.013476133346557617,0.5966876165263922,0.5996760551244539,8000,0.174009502647521,0.0
40,1.0215001106262207,0.05585995280274543,0.03134780633228407,0.08969947363034461,0.004962042618859009,0.0,0.13725272709784833,0.1,0.002954721450805664,0.054651498794555664,0.04995576,0.95741785,0.04220628448536198,0.0,0.0011150195385528242,0.0,200,0.01506805419921875,0.45502931489329174,0.4567759872753149,8200,0.19329693271933088,0.0
41,1.0532920360565186,0.07376927321979426,0.03840197921660146,0.13684189060262933,0.03976897194823338,0.0,0.14696916535579074,0.1,0.002834320068359375,0.054660797119140625,0.049027234,0.9068506,0.04536258335880521,0.0,0.0014747339351596875,0.0,200,0.014015674591064453,0.43103450656979597,0.4100195576130922,8400,0.2932736472780323,0.0
42,1.0416007041931152,0.03756299955619706,0.012641706591340429,0.05089410679266932,0.01692896967151242,0.0,0.14262461629268514,0.1,0.002801656723022461,0.053884267807006836,0.050719522,0.7143993,0.0445826249785444,0.0,0.0007503242430874847,0.0,200,0.014109134674072266,0.6589499020208052,0.5173509243975234,8600,0.23155927300849524,0.0
43,1.0933477878570557,0.10178802896358173,0.10744298728665493,0.28776117965672654,0.033507845419953296,0.0,0.14087399131854128,0.1,0.0029451847076416016,0.05310344696044922,0.04998473,1.6401094,0.05030316537704814,0.0,0.002034796670722096,0.0,200,0.01591205596923828,0.6938796027013232,0.6775070269162119,8800,0.3435670680203123,0.0
44,1.0890083312988281,0.1293207002605549,0.08489211816007641,0.2484426225732889,0.025108349360148708,0.0,0.14785244030096592,0.1,0.0028040409088134766,0.053910255432128906,0.05001368,1.1157608,0.058204918865398816,0.0,0.002580372042751189,0.0,200,0.014023303985595703,0.5991529743153983,0.5172965019337855,9000,0.26719384336792673,0.0
45,1.0563726425170898,0.049484549062578514,0.04463496033335638,0.12665792967253667,0.020088089633112486,0.0,0.12836117797423288,0.1,0.0028221607208251953,0.05434894561767578,0.051179364,3.2595978,0.05733288188511679,0.0,0.0009862164893090944,0.0,200,0.013962030410766602,0.8411882225542342,0.9351092440976894,9200,0.200009494931892,0.0
46,1.0677359104156494,0.03987792199818261,0.026629118365547124,0.07346638282163345,0.011222000015804322,0.0,0.1350829326534358,0.1,0.003101348876953125,0.05419182777404785,0.049332812,1.2810391,0.055587385896423376,0.0,0.0007974330702145785,0.0,200,0.014596939086914062,1.594699683209776,0.7569598843041986,9400,0.2943917435744218,0.0
47,1.0555915832519531,0.03427685673609346,0.015614738850377442,0.05544095297263481,0.012666062653487863,0.0,0.14106479820293458,0.1,0.0028192996978759766,0.05937051773071289,0.050344583,0.8914705,0.05345633298039039,0.0,0.0006798684049588912,0.0,200,0.014741659164428711,1.060593119689884,0.2945503044141424,9600,0.40374272979104364,0.0
48,1.0278561115264893,0.12192700339117155,0.04228718879652395,0.17434640717595856,0.06798030297604751,0.0,0.13870505938791278,0.1,0.002963542938232422,0.054381608963012695,0.049507998,1.2328361,0.0603034000214685,0.0,0.0024383347024463766,0.0,200,0.014594078063964844,0.551450715855106,0.48070072730161123,9800,0.5210752501413564,0.0
49,1.111246109008789,0.07803034880680254,0.0553909225899991,0.1682402621395384,0.031075056891355642,0.0,0.14473402092367993,0.1,0.002804994583129883,0.05658078193664551,0.05020274,1.3157011,0.062076094900001905,0.0,0.0015596784483354132,0.0,200,0.014252901077270508,0.5309656792900825,0.44779116539285324,10000,0.6104621663523783,0.0
50,1.088444471359253,0.07282598008794804,0.04937034295265298,0.14003601565915566,0.01711700431928924,0.0,0.12789100437751974,0.1,0.0028057098388671875,0.052970170974731445,0.049702264,1.523726,0.06315108341879652,0.0,0.0014349709697901868,0.0,200,0.013829708099365234,0.4154644208558902,0.4137467820597371,10200,0.5653479359148418,0.0
51,1.0910017490386963,0.11693939371123804,0.07083202762371965,0.2123133977394837,0.020343365682890538,0.0,0.12784958056457846,0.1,0.0026640892028808594,0.05338692665100098,0.050325356,1.4995286,0.06852991444804069,0.0,0.002338700021470854,0.0,200,0.014260530471801758,0.43775428143090406,0.413244580938936,10400,1.1616374564785235,0.0
52,1.0638043880462646,0.09233315595032324,0.08010283420752938,0.2203147044374084,0.008978188176358471,0.0,0.1279425886488536,0.1,0.002818584442138672,0.053578853607177734,0.048825644,1.8049066,0.07091023859826895,0.0,0.001846639270832274,0.0,200,0.015037059783935547,0.5237841663670525,0.5103347321682777,10600,1.1831228033660253,0.0
53,1.1004643440246582,0.06214545881623345,0.037789714591846144,0.1111310428500635,0.021261010114410315,0.0,0.13902713240408848,0.1,0.002835512161254883,0.05261564254760742,0.050160974,1.0194851,0.0700337606200654,0.0,0.0012348660476136264,0.0,200,0.014758586883544922,0.6348518782703255,0.4638122605598914,10800,1.2653037763653592,0.0
54,1.0887141227722168,0.13741104659853007,0.06205445052834728,0.2320650272504412,0.07419791765447295,0.0,0.14050202195221873,0.1,0.0026772022247314453,0.054421186447143555,0.05053585,1.2857016,0.07677148921791187,0.0,0.0027452138019021747,0.0,200,0.014426946640014648,0.3711477206295954,0.36383567299009795,11000,1.3825141878331133,0.0
55,1.073042869567871,0.0402572488736433,0.024643654387926216,0.08039408110707011,0.01845761854003976,0.0,0.13331332621815156,0.1,0.002666473388671875,0.054270267486572266,0.049439378,1.4860985,0.07312006518348502,0.0,0.0008029068531253521,0.0,200,0.014146804809570312,1.3164113615323907,1.0401181304935658,11200,0.8986311663367968,0.0
56,1.0600779056549072,0.05362566193308862,0.055774879244270166,0.14901874957987812,0.01172102479487971,0.0,0.1289662929475515,0.1,0.0028655529022216797,0.05323052406311035,0.04976712,1.6938258,0.07117062485844539,0.0,0.001061021594698443,0.0,200,0.013384819030761719,0.7059963455196119,0.5407722348995574,11400,1.0470796915299034,0.0
57,1.1231861114501953,0.038701979306462436,0.0372166612755133,0.10161610295952116,0.009785481746660897,0.0,0.13146202723729553,0.1,0.0026726722717285156,0.0535886287689209,0.049988303,1.0419319,0.0679237603032471,0.0,0.000769735255683163,0.0,200,0.013718843460083008,0.7829606657024446,0.6052958297080909,11600,1.224911944060771,0.0
58,1.0421545505523682,0.11057302528660876,0.04370242693892161,0.17944927726513604,0.07248282033288626,0.0,0.13706652355401283,0.1,0.0029449462890625,0.053182125091552734,0.049132552,1.5957742,0.07218868680158326,0.0,0.0022111854805200613,0.0,200,0.014548301696777344,0.5607555899839567,0.49035977733018354,11800,1.0802415907705052,0.0
59,1.0433552265167236,0.08494255717190467,0.028558862158113603,0.13054297554237368,0.05532149046096243,0.0,0.13350326190015221,0.1,0.0029196739196777344,0.05393075942993164,0.04919486,1.7309052,0.0734640738386154,0.0,0.0016986235753629249,0.0,200,0.013611793518066406,0.28897201179195575,0.2384230673174139,12000,0.9944470654038665,0.0
60,1.049942970275879,0.036431065467902445,0.031883596511599034,0.08721406375167876,0.0057070864241805415,0.0,0.13362807905406748,0.1,0.002777099609375,0.05299019813537598,0.05069191,1.476521,0.06976077300154411,0.0,0.0007282626662685152,0.0,200,0.014112472534179688,0.8921454805275811,1.0625749764949146,12200,1.1436125940293087,0.0
61,1.066873550415039,0.08645650589601507,0.07455431346316332,0.20224416258373257,0.007687364423323069,0.0,0.12730834181072861,0.1,0.0028259754180908203,0.05336356163024902,0.048915625,1.7519416,0.07143034629099121,0.0,0.0017260314748285105,0.0,200,0.015493631362915039,0.5182629202733335,0.5157962561859376,12400,1.4471225314101217,0.0
62,1.0783360004425049,0.24685557879587203,0.20595122725026804,0.5477427731167389,0.029185442565555962,0.0,0.12837917824634404,0.1,0.002870321273803711,0.05300545692443848,0.049539775,1.923997,0.0889728695414793,0.0,0.004933100766880848,0.0,200,0.01482844352722168,0.7549218200857581,0.684634938434991,12600,1.023112658224049,0.0
63,1.0437498092651367,0.1631786090285883,0.1851549297965167,0.48193426185998006,0.027054311538180494,0.0,0.13046524399442053,0.1,0.0028166770935058594,0.05354619026184082,0.049160052,2.0232675,0.0963934434901902,0.0,0.0032633225328003532,0.0,200,0.013752460479736328,0.6970412964625019,0.6538636002939414,12800,0.5878834315939611,0.0
64,1.0826401710510254,0.1930787318149746,0.12271647384584558,0.38592507046365915,0.06582500935046998,0.0,0.13905129220411058,0.1,0.002866506576538086,0.05296945571899414,0.050429616,1.6778356,0.10606197232266865,0.0,0.003855790791833403,0.0,200,0.014890193939208984,0.4470121347247632,0.40135315217012996,13000,0.746013886748743,0.0
65,1.094090461730957,0.20048243073066713,0.11620469242007041,0.33723920495489407,0.04474145372712844,0.0,0.1329973487788245,0.1,0.0026993751525878906,0.05323672294616699,0.049351968,1.1531492,0.1155040181634685,0.0,0.0040090580564827,0.0,200,0.014057397842407227,0.3690350120941364,0.3387148430371986,13200,0.8842147723874235,0.0
66,1.0951111316680908,0.3041163616378743,0.17258818392625536,0.44587335412522033,0.020954474168947405,0.0,0.1264067200521386,0.1,0.0027794837951660156,0.052829742431640625,0.050185557,1.2065706,0.13436525251090908,0.0,0.0060814259537357385,0.0,200,0.013946294784545898,0.39227274665618295,0.321131544356002,13400,0.8774395130248395,0.0
67,1.08638334274292,0.17381766328968112,0.17552563064341123,0.4765542581110444,0.05388950798437423,0.0,0.13242411699716286,0.1,0.0027923583984375,0.05257749557495117,0.04944001,1.9384432,0.1383104935887863,0.0,0.003457943132988583,0.0,200,0.015024185180664062,0.59712458488756,0.5882092168346708,13600,0.27163296303420503,0.0
68,1.0944507122039795,0.17902316494183582,0.07931261528835233,0.30844456912799156,0.09727327049536398,0.0,0.13647081369447744,0.1,0.0027425289154052734,0.052368879318237305,0.050397202,0.9948217,0.14238176072409126,0.0,0.0035746293365320134,0.0,200,0.013682842254638672,0.3232710009118765,0.2758743971976743,13800,0.2181390568519386,0.0
69,1.0761144161224365,0.12037932379978386,0.08611459198840514,0.23968653443734125,0.02475501744885,0.0,0.136984456704066,0.1,0.002786397933959961,0.0524141788482666,0.0509562,0.75659865,0.1401815170316605,0.0,0.0023950698739027727,0.0,200,0.014084339141845703,0.6960465699751813,0.5216315788459921,14000,0.3524796377973627,0.0
70,1.0804975032806396,0.09550425436818707,0.0884899407263373,0.24799018294373576,0.030505782818640564,0.0,0.13184291023003258,0.1,0.002659320831298828,0.05195784568786621,0.050974347,1.064482,0.13571379076531315,0.0,0.0019087366910769462,0.0,200,0.013952255249023438,0.7341940031943657,0.5302738772052176,14200,0.23900304407274212,0.0
71,1.1081953048706055,0.6390183556017142,0.6116588572470343,1.4192282971353885,0.015289884367794942,0.0,0.13285251440142667,0.1,0.0026884078979492188,0.0521397590637207,0.049026113,1.2865174,0.18604424724895324,0.0,0.012767726314728937,0.0,200,0.01351308822631836,0.865080119155261,0.7434822095714092,14400,0.24436930206749566,0.0
72,1.1257433891296387,0.6729248353160098,0.4001617375450343,1.1914358700363141,0.06973252137567301,0.0,0.1378235010971959,0.1,0.0026922225952148438,0.055931806564331055,0.04976811,1.1116133,0.23473230605565892,0.0,0.013438292222370633,0.0,200,0.013118267059326172,0.6696851212671421,0.52297322225547,14600,0.26554117667645366,0.0
73,1.1070525646209717,0.1999106615072975,0.1801249818263476,0.5118307183531208,0.09018655266505538,0.0,0.1356207526271241,0.1,0.002701282501220703,0.05240631103515625,0.04998783,1.5141968,0.2312501416008228,0.0,0.003940368157393428,0.0,200,0.015159368515014648,0.7173384408595423,1.0177464301585015,14800,0.43760541631280847,0.0
74,1.095872163772583,0.17263783346019856,0.1561650179864646,0.4361056896936913,0.029489870434384436,0.0,0.13382731896824065,0.1,0.0026466846466064453,0.052353858947753906,0.04953641,1.5699639,0.22538891078676038,0.0,0.0034517124956713616,0.0,200,0.013889551162719727,1.5547868963235185,1.2528049418643297,15000,1.0110994594940734,0.0
75,1.10713529586792,0.16269618168352176,0.11433897568380359,0.35974554694808425,0.08370745732439525,0.0,0.13334071467901965,0.1,0.0029044151306152344,0.05877208709716797,0.049473595,2.1556144,0.2191196378764365,0.0,0.003253609268923829,0.0,200,0.015411853790283203,1.7951898249064293,1.1008486552950603,15200,0.20401778435868043,0.0
76,1.05792236328125,0.2777824453199835,0.20952060542012013,0.5167264460388858,0.03746471220236441,0.0,0.13472638698756842,0.1,0.002827882766723633,0.053652048110961914,0.04997664,1.1219748,0.2249859186207912,0.0,0.00555027117060152,0.0,200,0.014421463012695312,0.4480720674257239,0.44217753862464054,15400,0.793766830665369,0.0
77,1.0717060565948486,0.21747617049167173,0.21613681729765927,0.5646289761805227,0.004143171531635484,0.0,0.13414552224238954,0.1,0.0028760433197021484,0.05370736122131348,0.04925652,1.4351258,0.22423494380787926,0.0,0.004323675557727233,0.0,200,0.014435291290283203,0.5685750209130862,0.543383877686694,15600,2.023865472835588,0.0
78,1.052966594696045,0.3656916707031694,0.33780711854740525,0.8605579722849088,0.050649401750765294,0.0,0.13991713874675774,0.1,0.002827882766723633,0.05382513999938965,0.049495183,1.3363973,0.23838061649740827,0.0,0.007312230054359187,0.0,200,0.01463007926940918,0.6214050082745664,0.616839286643119,15800,2.0829134808218366,0.0
79,1.087028980255127,0.2363937395516594,0.07325753688108619,0.35222845913645306,0.15771973759175842,0.0,0.1353444440926912,0.1,0.002791166305541992,0.05279731750488281,0.04955621,1.1903944,0.2381819288028334,0.0,0.00471884577443603,0.0,200,0.014609813690185547,0.20130547225208467,0.18441459589162518,16000,3.1169704490569745,0.0
80,1.0887794494628906,0.1731314279159594,0.08996556062355568,0.3045462464538743,0.07238702895133614,0.0,0.1358795620039945,0.1,0.002817392349243164,0.053263187408447266,0.04969636,1.2210592,0.231676878714146,0.0,0.0034472106670197316,0.0,200,0.014086008071899414,0.3874854012826369,0.34323782044733814,16200,2.3570576010899518,0.0
