Iter | Sampling Pol | Evaluation Pol | Best (Sampled) 
   0 -1.70 -1.73 -100000000.00 
   1 -1.59 -1.71 -1.70 
   2 -1.69 -1.71 -1.59 
   3 -1.74 -1.71 -1.59 
   4 -1.66 -1.69 -1.59 
   5 -1.70 -1.69 -1.59 
   6 -1.71 -1.68 -1.59 
   7 -1.68 -1.65 -1.59 
   8 -1.74 -1.66 -1.59 
   9 -1.74 -1.61 -1.59 
  10 -1.65 -1.61 -1.59 
  11 -1.65 -1.56 -1.59 
  12 -1.67 -1.56 -1.59 
  13 -1.69 -1.56 -1.59 
  14 -1.72 -1.54 -1.59 
  15 -1.60 -1.53 -1.59 
  16 -1.70 -1.53 -1.59 
  17 -1.68 -1.52 -1.59 
  18 -1.69 -1.52 -1.59 
  19 -1.67 -1.53 -1.59 
  20 -1.67 -1.53 -1.59 
  21 -1.62 -1.52 -1.59 
  22 -1.64 -1.53 -1.59 
  23 -1.61 -1.53 -1.59 
  24 -1.63 -1.52 -1.59 
  25 -1.65 -1.53 -1.59 
  26 -1.58 -1.52 -1.59 
  27 -1.61 -1.52 -1.58 
  28 -1.67 -1.52 -1.58 
  29 -1.63 -1.51 -1.58 
  30 -1.62 -1.51 -1.58 
  31 -1.52 -1.50 -1.58 
  32 -1.58 -1.51 -1.52 
  33 -1.55 -1.51 -1.52 
  34 -1.59 -1.50 -1.52 
  35 -1.58 -1.51 -1.52 
  36 -1.57 -1.50 -1.52 
  37 -1.56 -1.48 -1.52 
  38 -1.58 -1.49 -1.52 
  39 -1.57 -1.49 -1.52 
  40 -1.53 -1.48 -1.52 
  41 -1.62 -1.48 -1.52 
  42 -1.60 -1.49 -1.52 
  43 -1.54 -1.49 -1.52 
  44 -1.52 -1.49 -1.52 
  45 -1.56 -1.51 -1.52 
  46 -1.62 -1.50 -1.52 
  47 -1.63 -1.51 -1.52 
  48 -1.56 -1.51 -1.52 
  49 -1.57 -1.51 -1.52 
  50 -1.55 -1.51 -1.52 
  51 -1.52 -1.51 -1.52 
  52 -1.52 -1.51 -1.52 
  53 -1.62 -1.51 -1.52 
  54 -1.64 -1.52 -1.52 
  55 -1.53 -1.52 -1.52 
  56 -1.55 -1.51 -1.52 
  57 -1.53 -1.52 -1.52 
  58 -1.62 -1.52 -1.52 
  59 -1.59 -1.52 -1.52 
  60 -1.54 -1.52 -1.52 
  61 -1.57 -1.52 -1.52 
  62 -1.52 -1.52 -1.52 
  63 -1.59 -1.51 -1.52 
  64 -1.52 -1.51 -1.52 
  65 -1.54 -1.51 -1.52 
  66 -1.57 -1.51 -1.52 
  67 -1.53 -1.52 -1.52 
  68 -1.58 -1.52 -1.52 
  69 -1.53 -1.52 -1.52 
  70 -1.59 -1.51 -1.52 
  71 -1.52 -1.51 -1.52 
  72 -1.63 -1.52 -1.52 
  73 -1.52 -1.51 -1.52 
  74 -1.52 -1.50 -1.52 
  75 -1.56 -1.51 -1.52 
  76 -1.51 -1.51 -1.52 
  77 -1.59 -1.51 -1.51 
  78 -1.50 -1.51 -1.51 
  79 -1.55 -1.50 -1.50 
  80 -1.52 -1.50 -1.50 
  81 -1.53 -1.50 -1.50 
  82 -1.52 -1.50 -1.50 
  83 -1.52 -1.51 -1.50 
  84 -1.51 -1.50 -1.50 
  85 -1.53 -1.50 -1.50 
  86 -1.51 -1.50 -1.50 
  87 -1.57 -1.51 -1.50 
  88 -1.52 -1.51 -1.50 
  89 -1.51 -1.50 -1.50 
  90 -1.56 -1.51 -1.50 
  91 -1.53 -1.50 -1.50 
  92 -1.51 -1.49 -1.50 
  93 -1.55 -1.50 -1.50 
  94 -1.51 -1.50 -1.50 
  95 -1.52 -1.49 -1.50 
  96 -1.57 -1.50 -1.50 
  97 -1.52 -1.50 -1.50 
  98 -1.57 -1.51 -1.50 
  99 -1.52 -1.50 -1.50 
 100 -1.58 -1.50 -1.50 
 101 -1.52 -1.51 -1.50 
 102 -1.56 -1.50 -1.50 
 103 -1.55 -1.51 -1.50 
 104 -1.59 -1.50 -1.50 
 105 -1.53 -1.49 -1.50 
 106 -1.50 -1.51 -1.50 
 107 -1.52 -1.46 -1.50 
 108 -1.53 -1.50 -1.50 
 109 -1.56 -1.51 -1.50 
 110 -1.52 -1.51 -1.50 
 111 -1.60 -1.51 -1.50 
 112 -1.52 -1.50 -1.50 
 113 -1.52 -1.51 -1.50 
 114 -1.52 -1.50 -1.50 
 115 -1.52 -1.48 -1.50 
 116 -1.51 -1.46 -1.50 
 117 -1.51 -1.51 -1.50 
 118 -1.52 -1.52 -1.50 
 119 -1.54 -1.50 -1.50 
 120 -1.49 -1.47 -1.50 
 121 -1.59 -1.51 -1.49 
 122 -1.50 -1.50 -1.49 
 123 -1.47 -1.50 -1.49 
 124 -1.52 -1.49 -1.47 
 125 -1.55 -1.50 -1.47 
 126 -1.50 -1.49 -1.47 
 127 -1.52 -1.48 -1.47 
 128 -1.49 -1.50 -1.47 
 129 -1.50 -1.51 -1.47 
 130 -1.50 -1.50 -1.47 
 131 -1.52 -1.51 -1.47 
 132 -1.52 -1.51 -1.47 
 133 -1.52 -1.51 -1.47 
 134 -1.51 -1.50 -1.47 
 135 -1.51 -1.50 -1.47 
 136 -1.52 -1.51 -1.47 
 137 -1.52 -1.50 -1.47 
 138 -1.51 -1.50 -1.47 
 139 -1.51 -1.50 -1.47 
 140 -1.56 -1.49 -1.47 
 141 -1.51 -1.48 -1.47 
 142 -1.52 -1.51 -1.47 
 143 -1.50 -1.49 -1.47 
 144 -1.52 -1.51 -1.47 
 145 -1.56 -1.50 -1.47 
 146 -1.56 -1.50 -1.47 
 147 -1.53 -1.51 -1.47 
 148 -1.50 -1.51 -1.47 
 149 -1.51 -1.51 -1.47 
 150 -1.48 -1.49 -1.47 
 151 -1.52 -1.50 -1.47 
 152 -1.51 -1.49 -1.47 
 153 -1.51 -1.49 -1.47 
 154 -1.51 -1.49 -1.47 
 155 -1.53 -1.50 -1.47 
 156 -1.53 -1.50 -1.47 
 157 -1.57 -1.49 -1.47 
 158 -1.52 -1.50 -1.47 
 159 -1.52 -1.50 -1.47 
 160 -1.53 -1.49 -1.47 
 161 -1.50 -1.50 -1.47 
 162 -1.55 -1.47 -1.47 
 163 -1.51 -1.49 -1.47 
 164 -1.50 -1.48 -1.47 
 165 -1.51 -1.49 -1.47 
 166 -1.52 -1.49 -1.47 
 167 -1.55 -1.49 -1.47 
 168 -1.52 -1.49 -1.47 
 169 -1.50 -1.48 -1.47 
 170 -1.55 -1.49 -1.47 
 171 -1.52 -1.48 -1.47 
 172 -1.51 -1.49 -1.47 
 173 -1.56 -1.49 -1.47 
 174 -1.55 -1.48 -1.47 
 175 -1.56 -1.48 -1.47 
 176 -1.51 -1.49 -1.47 
 177 -1.52 -1.50 -1.47 
 178 -1.55 -1.48 -1.47 
 179 -1.56 -1.46 -1.47 
 180 -1.53 -1.50 -1.47 
 181 -1.51 -1.49 -1.47 
 182 -1.52 -1.50 -1.47 
 183 -1.51 -1.47 -1.47 
 184 -1.53 -1.48 -1.47 
 185 -1.54 -1.47 -1.47 
 186 -1.51 -1.47 -1.47 
 187 -1.50 -1.48 -1.47 
 188 -1.52 -1.47 -1.47 
 189 -1.56 -1.49 -1.47 
 190 -1.57 -1.48 -1.47 
 191 -1.51 -1.47 -1.47 
 192 -1.57 -1.47 -1.47 
 193 -1.52 -1.47 -1.47 
 194 -1.53 -1.49 -1.47 
 195 -1.50 -1.51 -1.47 
 196 -1.49 -1.51 -1.47 
 197 -1.53 -1.51 -1.47 
 198 -1.50 -1.51 -1.47 
 199 -1.53 -1.50 -1.47 
 200 -1.55 -1.49 -1.47 
 201 -1.58 -1.49 -1.47 
 202 -1.52 -1.49 -1.47 
 203 -1.54 -1.50 -1.47 
 204 -1.56 -1.50 -1.47 
 205 -1.54 -1.50 -1.47 
 206 -1.52 -1.52 -1.47 
 207 -1.51 -1.51 -1.47 
 208 -1.54 -1.50 -1.47 
 209 -1.51 -1.50 -1.47 
 210 -1.56 -1.48 -1.47 
 211 -1.53 -1.49 -1.47 
 212 -1.52 -1.51 -1.47 
 213 -1.51 -1.49 -1.47 
 214 -1.51 -1.50 -1.47 
 215 -1.50 -1.50 -1.47 
 216 -1.57 -1.49 -1.47 
 217 -1.51 -1.50 -1.47 
 218 -1.54 -1.51 -1.47 
 219 -1.52 -1.51 -1.47 
 220 -1.51 -1.51 -1.47 
 221 -1.52 -1.51 -1.47 
 222 -1.50 -1.51 -1.47 
 223 -1.50 -1.49 -1.47 
 224 -1.49 -1.50 -1.47 
 225 -1.50 -1.51 -1.47 
 226 -1.52 -1.51 -1.47 
 227 -1.52 -1.50 -1.47 
 228 -1.52 -1.50 -1.47 
 229 -1.51 -1.51 -1.47 
 230 -1.52 -1.49 -1.47 
 231 -1.52 -1.50 -1.47 
 232 -1.58 -1.51 -1.47 
 233 -1.55 -1.52 -1.47 
 234 -1.52 -1.53 -1.47 
 235 -1.50 -1.51 -1.47 
 236 -1.54 -1.52 -1.47 
 237 -1.52 -1.51 -1.47 
 238 -1.51 -1.52 -1.47 
 239 -1.52 -1.50 -1.47 
 240 -1.49 -1.52 -1.47 
 241 -1.53 -1.50 -1.47 
 242 -1.49 -1.49 -1.47 
 243 -1.53 -1.51 -1.47 
 244 -1.53 -1.50 -1.47 
 245 -1.51 -1.51 -1.47 
 246 -1.53 -1.50 -1.47 
 247 -1.52 -1.50 -1.47 
 248 -1.62 -1.48 -1.47 
 249 -1.54 -1.49 -1.47 
 250 -1.50 -1.52 -1.47 
 251 -1.58 -1.53 -1.47 
 252 -1.50 -1.50 -1.47 
 253 -1.53 -1.47 -1.47 
 254 -1.52 -1.49 -1.47 
 255 -1.52 -1.40 -1.47 
 256 -1.58 -1.52 -1.47 
 257 -1.53 -1.45 -1.47 
 258 -1.52 -1.49 -1.47 
 259 -1.51 -1.48 -1.47 
 260 -1.53 -1.48 -1.47 
 261 -1.50 -1.52 -1.47 
 262 -1.51 -1.49 -1.47 
 263 -1.52 -1.52 -1.47 
 264 -1.53 -1.49 -1.47 
 265 -1.51 -1.51 -1.47 
 266 -1.51 -1.48 -1.47 
 267 -1.51 -1.45 -1.47 
 268 -1.58 -1.48 -1.47 
 269 -1.58 -1.47 -1.47 
 270 -1.56 -1.47 -1.47 
 271 -1.52 -1.44 -1.47 
 272 -1.51 -1.44 -1.47 
 273 -1.52 -1.49 -1.47 
 274 -1.52 -1.48 -1.47 
 275 -1.53 -1.46 -1.47 
 276 -1.52 -1.41 -1.47 
 277 -1.58 -1.49 -1.47 
 278 -1.55 -1.50 -1.47 
 279 -1.60 -1.47 -1.47 
 280 -1.60 -1.49 -1.47 
 281 -1.51 -1.41 -1.47 
 282 -1.52 -1.48 -1.47 
 283 -1.59 -1.49 -1.47 
 284 -1.56 -1.50 -1.47 
 285 -1.53 -1.49 -1.47 
 286 -1.57 -1.51 -1.47 
 287 -1.56 -1.48 -1.47 
 288 -1.52 -1.42 -1.47 
 289 -1.52 -1.51 -1.47 
 290 -1.53 -1.47 -1.47 
 291 -1.52 -1.51 -1.47 
 292 -1.59 -1.52 -1.47 
 293 -1.52 -1.48 -1.47 
 294 -1.59 -1.53 -1.47 
 295 -1.53 -1.51 -1.47 
 296 -1.48 -1.45 -1.47 
 297 -1.53 -1.51 -1.47 
 298 -1.52 -1.50 -1.47 
 299 -1.52 -1.48 -1.47 
 300 -1.53 -1.50 -1.47 
 301 -1.51 -1.47 -1.47 
 302 -1.60 -1.48 -1.47 
 303 -1.52 -1.53 -1.47 
 304 -1.52 -1.49 -1.47 
 305 -1.53 -1.49 -1.47 
 306 -1.58 -1.49 -1.47 
 307 -1.53 -1.50 -1.47 
 308 -1.53 -1.51 -1.47 
 309 -1.52 -1.50 -1.47 
 310 -1.52 -1.52 -1.47 
 311 -1.52 -1.52 -1.47 
 312 -1.52 -1.51 -1.47 
 313 -1.57 -1.48 -1.47 
 314 -1.57 -1.52 -1.47 
 315 -1.52 -1.51 -1.47 
 316 -1.52 -1.46 -1.47 
 317 -1.53 -1.50 -1.47 
 318 -1.53 -1.51 -1.47 
 319 -1.52 -1.52 -1.47 
 320 -1.53 -1.52 -1.47 
 321 -1.51 -1.48 -1.47 
 322 -1.52 -1.51 -1.47 
 323 -1.51 -1.52 -1.47 
 324 -1.52 -1.52 -1.47 
 325 -1.55 -1.48 -1.47 
 326 -1.56 -1.47 -1.47 
 327 -1.52 -1.52 -1.47 
 328 -1.50 -1.48 -1.47 
 329 -1.45 -1.51 -1.47 
 330 -1.52 -1.51 -1.45 
 331 -1.51 -1.52 -1.45 
 332 -1.50 -1.49 -1.45 
 333 -1.53 -1.52 -1.45 
 334 -1.54 -1.47 -1.45 
 335 -1.52 -1.47 -1.45 
 336 -1.51 -1.52 -1.45 
 337 -1.52 -1.51 -1.45 
 338 -1.56 -1.52 -1.45 
 339 -1.52 -1.51 -1.45 
 340 -1.50 -1.52 -1.45 
 341 -1.52 -1.52 -1.45 
 342 -1.55 -1.52 -1.45 
 343 -1.51 -1.51 -1.45 
 344 -1.56 -1.49 -1.45 
 345 -1.53 -1.52 -1.45 
 346 -1.52 -1.47 -1.45 
 347 -1.42 -1.41 -1.45 
 348 -1.52 -1.51 -1.42 
 349 -1.50 -1.49 -1.42 
 350 -1.51 -1.52 -1.42 
 351 -1.51 -1.46 -1.42 
 352 -1.54 -1.46 -1.42 
 353 -1.50 -1.45 -1.42 
 354 -1.52 -1.47 -1.42 
 355 -1.52 -1.50 -1.42 
 356 -1.51 -1.44 -1.42 
 357 -1.51 -1.47 -1.42 
 358 -1.52 -1.46 -1.42 
 359 -1.51 -1.51 -1.42 
 360 -1.52 -1.44 -1.42 
 361 -1.52 -1.47 -1.42 
 362 -1.49 -1.48 -1.42 
 363 -1.51 -1.49 -1.42 
 364 -1.53 -1.49 -1.42 
 365 -1.53 -1.47 -1.42 
 366 -1.50 -1.49 -1.42 
 367 -1.53 -1.47 -1.42 
 368 -1.52 -1.47 -1.42 
 369 -1.52 -1.45 -1.42 
 370 -1.53 -1.47 -1.42 
 371 -1.52 -1.42 -1.42 
 372 -1.51 -1.42 -1.42 
 373 -1.53 -1.51 -1.42 
 374 -1.53 -1.44 -1.42 
 375 -1.56 -1.48 -1.42 
 376 -1.51 -1.46 -1.42 
 377 -1.50 -1.41 -1.42 
 378 -1.50 -1.50 -1.42 
 379 -1.52 -1.49 -1.42 
 380 -1.52 -1.42 -1.42 
 381 -1.50 -1.42 -1.42 
 382 -1.50 -1.44 -1.42 
 383 -1.51 -1.40 -1.42 
 384 -1.52 -1.44 -1.42 
 385 -1.53 -1.41 -1.42 
 386 -1.52 -1.48 -1.42 
 387 -1.52 -1.43 -1.42 
 388 -1.49 -1.40 -1.42 
 389 -1.51 -1.44 -1.42 
 390 -1.52 -1.47 -1.42 
 391 -1.50 -1.47 -1.42 
 392 -1.51 -1.48 -1.42 
 393 -1.56 -1.47 -1.42 
 394 -1.52 -1.48 -1.42 
 395 -1.52 -1.45 -1.42 
 396 -1.53 -1.50 -1.42 
 397 -1.51 -1.48 -1.42 
 398 -1.52 -1.49 -1.42 
 399 -1.52 -1.45 -1.42 
 400 -1.51 -1.50 -1.42 
 401 -1.51 -1.46 -1.42 
 402 -1.52 -1.41 -1.42 
 403 -1.50 -1.50 -1.42 
 404 -1.52 -1.49 -1.42 
 405 -1.52 -1.51 -1.42 
 406 -1.51 -1.51 -1.42 
 407 -1.52 -1.50 -1.42 
 408 -1.52 -1.47 -1.42 
 409 -1.52 -1.50 -1.42 
 410 -1.51 -1.45 -1.42 
 411 -1.53 -1.47 -1.42 
 412 -1.50 -1.43 -1.42 
 413 -1.53 -1.47 -1.42 
 414 -1.52 -1.49 -1.42 
 415 -1.51 -1.49 -1.42 
 416 -1.53 -1.47 -1.42 
 417 -1.50 -1.49 -1.42 
 418 -1.51 -1.48 -1.42 
 419 -1.48 -1.47 -1.42 
 420 -1.52 -1.46 -1.42 
 421 -1.52 -1.50 -1.42 
 422 -1.50 -1.46 -1.42 
 423 -1.53 -1.49 -1.42 
 424 -1.53 -1.49 -1.42 
 425 -1.52 -1.48 -1.42 
 426 -1.52 -1.49 -1.42 
 427 -1.53 -1.52 -1.42 
 428 -1.52 -1.50 -1.42 
 429 -1.52 -1.50 -1.42 
 430 -1.52 -1.48 -1.42 
 431 -1.52 -1.46 -1.42 
 432 -1.51 -1.49 -1.42 
 433 -1.52 -1.50 -1.42 
 434 -1.53 -1.49 -1.42 
 435 -1.52 -1.48 -1.42 
 436 -1.52 -1.49 -1.42 
 437 -1.54 -1.47 -1.42 
 438 -1.53 -1.48 -1.42 
 439 -1.52 -1.51 -1.42 
 440 -1.53 -1.52 -1.42 
 441 -1.52 -1.50 -1.42 
 442 -1.53 -1.51 -1.42 
 443 -1.52 -1.51 -1.42 
 444 -1.54 -1.53 -1.42 
 445 -1.52 -1.52 -1.42 
 446 -1.52 -1.52 -1.42 
 447 -1.53 -1.52 -1.42 
 448 -1.53 -1.52 -1.42 
 449 -1.52 -1.56 -1.42 
 450 -1.52 -1.53 -1.42 
 451 -1.55 -1.52 -1.42 
 452 -1.52 -1.53 -1.42 
 453 -1.53 -1.50 -1.42 
 454 -1.53 -1.53 -1.42 
 455 -1.52 -1.52 -1.42 
 456 -1.52 -1.52 -1.42 
 457 -1.53 -1.52 -1.42 
 458 -1.53 -1.52 -1.42 
 459 -1.52 -1.53 -1.42 
 460 -1.52 -1.53 -1.42 
 461 -1.52 -1.52 -1.42 
 462 -1.53 -1.53 -1.42 
 463 -1.52 -1.52 -1.42 
 464 -1.52 -1.53 -1.42 
 465 -1.53 -1.53 -1.42 
 466 -1.55 -1.53 -1.42 
 467 -1.53 -1.53 -1.42 
 468 -1.52 -1.52 -1.42 
 469 -1.54 -1.53 -1.42 
 470 -1.53 -1.52 -1.42 
 471 -1.53 -1.53 -1.42 
 472 -1.52 -1.52 -1.42 
 473 -1.53 -1.51 -1.42 
 474 -1.52 -1.53 -1.42 
 475 -1.58 -1.52 -1.42 
 476 -1.53 -1.53 -1.42 
 477 -1.51 -1.52 -1.42 
 478 -1.52 -1.51 -1.42 
 479 -1.53 -1.52 -1.42 
 480 -1.52 -1.52 -1.42 
 481 -1.53 -1.52 -1.42 
 482 -1.53 -1.53 -1.42 
 483 -1.53 -1.53 -1.42 
 484 -1.52 -1.52 -1.42 
 485 -1.56 -1.53 -1.42 
 486 -1.51 -1.53 -1.42 
 487 -1.52 -1.53 -1.42 
 488 -1.53 -1.53 -1.42 
 489 -1.55 -1.53 -1.42 
 490 -1.53 -1.53 -1.42 
 491 -1.53 -1.53 -1.42 
 492 -1.51 -1.52 -1.42 
 493 -1.51 -1.53 -1.42 
 494 -1.53 -1.54 -1.42 
 495 -1.51 -1.53 -1.42 
 496 -1.53 -1.52 -1.42 
 497 -1.53 -1.54 -1.42 
 498 -1.53 -1.53 -1.42 
 499 -1.53 -1.52 -1.42 
 500 -1.53 -1.50 -1.42 
 501 -1.52 -1.56 -1.42 
 502 -1.52 -1.53 -1.42 
 503 -1.52 -1.53 -1.42 
 504 -1.52 -1.53 -1.42 
 505 -1.52 -1.52 -1.42 
 506 -1.53 -1.53 -1.42 
 507 -1.52 -1.53 -1.42 
 508 -1.53 -1.53 -1.42 
 509 -1.53 -1.54 -1.42 
 510 -1.53 -1.54 -1.42 
 511 -1.52 -1.54 -1.42 
 512 -1.53 -1.53 -1.42 
 513 -1.51 -1.53 -1.42 
 514 -1.52 -1.53 -1.42 
 515 -1.53 -1.54 -1.42 
 516 -1.53 -1.53 -1.42 
 517 -1.53 -1.53 -1.42 
 518 -1.53 -1.54 -1.42 
 519 -1.51 -1.53 -1.42 
 520 -1.52 -1.53 -1.42 
 521 -1.52 -1.54 -1.42 
 522 -1.51 -1.54 -1.42 
 523 -1.52 -1.52 -1.42 
 524 -1.54 -1.52 -1.42 
 525 -1.52 -1.52 -1.42 
 526 -1.53 -1.52 -1.42 
 527 -1.53 -1.53 -1.42 
 528 -1.51 -1.53 -1.42 
 529 -1.51 -1.53 -1.42 
 530 -1.52 -1.53 -1.42 
 531 -1.51 -1.53 -1.42 
 532 -1.57 -1.54 -1.42 
 533 -1.51 -1.53 -1.42 
 534 -1.52 -1.53 -1.42 
 535 -1.52 -1.53 -1.42 
 536 -1.52 -1.54 -1.42 
 537 -1.52 -1.54 -1.42 
 538 -1.53 -1.53 -1.42 
 539 -1.53 -1.54 -1.42 
 540 -1.52 -1.53 -1.42 
 541 -1.52 -1.54 -1.42 
 542 -1.53 -1.54 -1.42 
 543 -1.51 -1.53 -1.42 
 544 -1.56 -1.53 -1.42 
 545 -1.51 -1.53 -1.42 
 546 -1.53 -1.54 -1.42 
 547 -1.53 -1.53 -1.42 
 548 -1.53 -1.53 -1.42 
 549 -1.53 -1.53 -1.42 
 550 -1.50 -1.53 -1.42 
 551 -1.52 -1.54 -1.42 
 552 -1.52 -1.53 -1.42 
 553 -1.52 -1.53 -1.42 
 554 -1.52 -1.53 -1.42 
 555 -1.53 -1.52 -1.42 
 556 -1.56 -1.53 -1.42 
 557 -1.51 -1.52 -1.42 
 558 -1.52 -1.53 -1.42 
 559 -1.52 -1.52 -1.42 
 560 -1.52 -1.53 -1.42 
 561 -1.52 -1.52 -1.42 
 562 -1.48 -1.53 -1.42 
 563 -1.51 -1.52 -1.42 
 564 -1.52 -1.53 -1.42 
 565 -1.51 -1.53 -1.42 
 566 -1.52 -1.53 -1.42 
 567 -1.51 -1.53 -1.42 
 568 -1.52 -1.53 -1.42 
 569 -1.52 -1.52 -1.42 
 570 -1.50 -1.52 -1.42 
 571 -1.52 -1.52 -1.42 
 572 -1.57 -1.53 -1.42 
 573 -1.52 -1.53 -1.42 
 574 -1.52 -1.52 -1.42 
 575 -1.51 -1.53 -1.42 
 576 -1.50 -1.53 -1.42 
 577 -1.52 -1.52 -1.42 
 578 -1.51 -1.52 -1.42 
 579 -1.52 -1.52 -1.42 
 580 -1.52 -1.49 -1.42 
 581 -1.52 -1.52 -1.42 
 582 -1.52 -1.42 -1.42 
 583 -1.52 -1.52 -1.42 
 584 -1.50 -1.53 -1.42 
 585 -1.53 -1.51 -1.42 
 586 -1.53 -1.53 -1.42 
 587 -1.52 -1.53 -1.42 
 588 -1.52 -1.52 -1.42 
 589 -1.52 -1.53 -1.42 
 590 -1.51 -1.53 -1.42 
 591 -1.52 -1.53 -1.42 
 592 -1.50 -1.52 -1.42 
 593 -1.48 -1.52 -1.42 
 594 -1.52 -1.53 -1.42 
 595 -1.52 -1.52 -1.42 
 596 -1.38 -1.52 -1.42 
 597 -1.52 -1.50 -1.38 
 598 -1.52 -1.52 -1.38 
 599 -1.50 -1.50 -1.38 
 600 -1.50 -1.52 -1.38 
 601 -1.51 -1.53 -1.38 
 602 -1.56 -1.53 -1.38 
 603 -1.51 -1.52 -1.38 
 604 -1.50 -1.53 -1.38 
 605 -1.53 -1.52 -1.38 
 606 -1.51 -1.51 -1.38 
 607 -1.52 -1.53 -1.38 
 608 -1.57 -1.54 -1.38 
 609 -1.53 -1.53 -1.38 
 610 -1.43 -1.53 -1.38 
 611 -1.51 -1.53 -1.38 
 612 -1.52 -1.52 -1.38 
 613 -1.50 -1.29 -1.38 
 614 -1.47 -1.44 -1.38 
 615 -1.52 -1.48 -1.38 
 616 -1.52 -1.48 -1.38 
 617 -1.46 -1.44 -1.38 
 618 -1.51 -1.52 -1.38 
 619 -1.51 -1.45 -1.38 
 620 -1.50 -1.53 -1.38 
 621 -1.47 -1.44 -1.38 
 622 -1.51 -1.11 -1.38 
 623 -1.58 -1.37 -1.38 
 624 -1.52 -1.50 -1.38 
 625 -1.50 -1.52 -1.38 
 626 -1.50 -1.52 -1.38 
 627 -1.52 -1.52 -1.38 
 628 -1.49 -1.52 -1.38 
 629 -1.51 -1.52 -1.38 
 630 -1.52 -1.53 -1.38 
 631 -1.51 -1.52 -1.38 
 632 -1.50 -1.53 -1.38 
 633 -1.52 -1.53 -1.38 
 634 -1.50 -1.52 -1.38 
 635 -1.50 -1.51 -1.38 
 636 -1.53 -1.54 -1.38 
 637 -1.52 -1.53 -1.38 
 638 -1.49 -1.53 -1.38 
 639 -1.53 -1.53 -1.38 
 640 -1.51 -1.53 -1.38 
 641 -1.51 -1.52 -1.38 
 642 -1.51 -1.52 -1.38 
 643 -1.51 -1.53 -1.38 
 644 -1.51 -1.53 -1.38 
 645 -1.51 -1.52 -1.38 
 646 -1.51 -1.52 -1.38 
 647 -1.49 -1.53 -1.38 
 648 -1.52 -1.51 -1.38 
 649 -1.57 -1.50 -1.38 
 650 -1.52 -1.52 -1.38 
 651 -1.53 -1.51 -1.38 
 652 -1.52 -1.52 -1.38 
 653 -1.50 -1.52 -1.38 
 654 -1.49 -1.53 -1.38 
 655 -1.52 -1.52 -1.38 
 656 -1.53 -1.53 -1.38 
