Iter | Sampling Pol | Evaluation Pol | Best (Sampled) 
   0 -288.67 -246.92 -100000000.00 
   1 -301.54 -259.25 -288.67 
   2 -300.91 -231.19 -288.67 
   3 -288.29 -237.73 -288.67 
   4 -301.18 -235.51 -288.29 
   5 -295.25 -233.66 -288.29 
   6 -290.65 -251.78 -288.29 
   7 -301.48 -256.17 -288.29 
   8 -311.24 -262.51 -288.29 
   9 -293.94 -262.99 -288.29 
  10 -302.11 -266.03 -288.29 
  11 -305.67 -274.96 -288.29 
  12 -291.68 -280.96 -288.29 
  13 -304.37 -281.24 -288.29 
  14 -300.16 -287.98 -288.29 
  15 -299.55 -287.76 -288.29 
  16 -299.83 -292.83 -288.29 
  17 -292.65 -288.65 -288.29 
  18 -295.40 -279.24 -288.29 
  19 -287.03 -278.93 -288.29 
  20 -300.70 -275.43 -287.03 
  21 -291.93 -273.55 -287.03 
  22 -299.26 -262.93 -287.03 
  23 -295.42 -271.83 -287.03 
  24 -289.95 -270.98 -287.03 
  25 -293.26 -269.40 -287.03 
  26 -288.70 -276.33 -287.03 
  27 -290.79 -287.17 -287.03 
  28 -285.65 -278.87 -287.03 
  29 -291.81 -285.12 -285.65 
  30 -282.38 -275.51 -285.65 
  31 -294.84 -288.56 -282.38 
  32 -296.48 -300.94 -282.38 
  33 -289.10 -307.70 -282.38 
  34 -291.99 -323.85 -282.38 
  35 -300.34 -307.32 -282.38 
  36 -285.71 -304.79 -282.38 
  37 -301.33 -304.79 -282.38 
  38 -299.83 -312.70 -282.38 
  39 -303.75 -282.23 -282.38 
  40 -299.60 -310.00 -282.38 
  41 -314.46 -313.50 -282.38 
  42 -307.19 -309.71 -282.38 
  43 -315.11 -303.37 -282.38 
  44 -297.85 -285.84 -282.38 
  45 -287.23 -289.71 -282.38 
  46 -303.56 -285.13 -282.38 
  47 -302.31 -272.09 -282.38 
  48 -294.72 -269.30 -282.38 
  49 -302.77 -282.76 -282.38 
  50 -297.08 -294.29 -282.38 
  51 -293.44 -291.76 -282.38 
  52 -298.50 -284.89 -282.38 
  53 -309.18 -278.71 -282.38 
  54 -303.91 -293.51 -282.38 
  55 -310.57 -288.04 -282.38 
  56 -303.35 -285.77 -282.38 
  57 -305.80 -287.91 -282.38 
  58 -294.93 -296.61 -282.38 
  59 -307.58 -303.29 -282.38 
  60 -285.30 -298.50 -282.38 
  61 -308.39 -294.18 -282.38 
  62 -312.31 -300.59 -282.38 
  63 -300.83 -305.05 -282.38 
  64 -317.36 -303.35 -282.38 
  65 -313.66 -307.75 -282.38 
  66 -282.33 -296.73 -282.38 
  67 -300.03 -298.85 -282.33 
  68 -311.25 -290.46 -282.33 
  69 -286.30 -291.50 -282.33 
  70 -298.18 -299.05 -282.33 
  71 -294.47 -311.25 -282.33 
  72 -305.42 -289.25 -282.33 
  73 -293.13 -305.61 -282.33 
  74 -306.74 -300.77 -282.33 
  75 -304.75 -271.16 -282.33 
  76 -299.91 -307.66 -282.33 
  77 -305.67 -329.04 -282.33 
  78 -293.14 -305.18 -282.33 
  79 -311.47 -305.71 -282.33 
  80 -323.02 -318.09 -282.33 
  81 -316.62 -317.81 -282.33 
  82 -305.55 -331.36 -282.33 
  83 -306.41 -307.13 -282.33 
  84 -322.88 -266.83 -282.33 
  85 -318.57 -334.00 -282.33 
  86 -321.47 -328.20 -282.33 
  87 -312.17 -305.88 -282.33 
  88 -300.15 -283.96 -282.33 
  89 -322.63 -286.86 -282.33 
  90 -323.71 -290.31 -282.33 
  91 -317.46 -299.70 -282.33 
  92 -318.06 -293.59 -282.33 
  93 -315.13 -292.42 -282.33 
  94 -318.17 -296.84 -282.33 
  95 -312.90 -310.83 -282.33 
  96 -311.30 -316.88 -282.33 
  97 -312.72 -312.18 -282.33 
  98 -336.12 -318.89 -282.33 
  99 -311.31 -285.62 -282.33 
 100 -319.77 -280.67 -282.33 
 101 -315.02 -301.98 -282.33 
 102 -314.11 -284.29 -282.33 
 103 -329.64 -280.42 -282.33 
 104 -320.21 -275.03 -282.33 
 105 -324.70 -292.48 -282.33 
 106 -321.07 -293.18 -282.33 
 107 -315.45 -288.73 -282.33 
 108 -313.28 -292.07 -282.33 
 109 -326.06 -311.65 -282.33 
 110 -320.71 -345.25 -282.33 
 111 -317.24 -373.65 -282.33 
 112 -325.09 -310.90 -282.33 
 113 -324.87 -309.79 -282.33 
 114 -339.66 -299.30 -282.33 
 115 -324.27 -347.24 -282.33 
 116 -328.10 -368.69 -282.33 
 117 -321.55 -375.67 -282.33 
 118 -315.04 -365.68 -282.33 
 119 -342.83 -326.03 -282.33 
 120 -345.86 -334.48 -282.33 
 121 -333.03 -316.73 -282.33 
 122 -329.08 -288.38 -282.33 
 123 -353.08 -286.53 -282.33 
 124 -332.32 -290.04 -282.33 
 125 -325.99 -285.73 -282.33 
 126 -332.72 -282.69 -282.33 
 127 -346.44 -285.15 -282.33 
 128 -337.71 -284.42 -282.33 
 129 -308.75 -286.58 -282.33 
 130 -330.36 -281.63 -282.33 
 131 -328.02 -276.44 -282.33 
 132 -329.87 -271.16 -282.33 
 133 -347.56 -273.99 -282.33 
 134 -317.91 -276.43 -282.33 
 135 -334.52 -271.95 -282.33 
 136 -328.15 -269.57 -282.33 
 137 -330.39 -267.58 -282.33 
 138 -319.55 -271.16 -282.33 
 139 -337.58 -268.69 -282.33 
 140 -338.55 -277.42 -282.33 
 141 -317.26 -281.91 -282.33 
 142 -330.81 -285.36 -282.33 
 143 -336.54 -289.20 -282.33 
 144 -312.61 -288.54 -282.33 
 145 -302.32 -287.57 -282.33 
 146 -319.71 -284.82 -282.33 
 147 -336.96 -285.25 -282.33 
 148 -330.81 -282.73 -282.33 
 149 -312.73 -285.75 -282.33 
 150 -300.69 -283.03 -282.33 
 151 -326.37 -282.99 -282.33 
 152 -338.49 -280.45 -282.33 
 153 -348.48 -283.81 -282.33 
 154 -333.08 -285.24 -282.33 
 155 -334.97 -280.68 -282.33 
 156 -347.24 -274.45 -282.33 
 157 -331.92 -269.37 -282.33 
 158 -323.31 -269.75 -282.33 
 159 -328.82 -271.95 -282.33 
 160 -308.51 -269.67 -282.33 
 161 -317.73 -272.21 -282.33 
 162 -313.89 -270.38 -282.33 
 163 -315.71 -266.24 -282.33 
 164 -301.94 -266.55 -282.33 
 165 -302.11 -268.63 -282.33 
 166 -307.41 -269.51 -282.33 
 167 -311.46 -268.43 -282.33 
 168 -311.49 -267.30 -282.33 
 169 -294.97 -268.80 -282.33 
 170 -280.36 -266.83 -282.33 
 171 -303.63 -242.27 -280.36 
 172 -305.19 -242.63 -280.36 
 173 -295.09 -265.27 -280.36 
 174 -289.45 -265.24 -280.36 
 175 -305.73 -262.22 -280.36 
 176 -312.86 -259.79 -280.36 
 177 -283.24 -262.18 -280.36 
 178 -289.43 -261.03 -280.36 
 179 -297.72 -263.87 -280.36 
 180 -296.09 -264.68 -280.36 
 181 -292.18 -266.03 -280.36 
 182 -291.64 -262.34 -280.36 
 183 -305.11 -263.79 -280.36 
 184 -279.19 -263.85 -280.36 
 185 -291.73 -268.71 -279.19 
 186 -288.16 -269.46 -279.19 
 187 -289.64 -273.06 -279.19 
 188 -285.93 -275.04 -279.19 
 189 -312.02 -274.34 -279.19 
 190 -288.61 -272.82 -279.19 
 191 -288.56 -277.21 -279.19 
 192 -276.31 -279.82 -279.19 
 193 -302.46 -281.99 -276.31 
 194 -280.78 -284.46 -276.31 
 195 -294.57 -289.05 -276.31 
 196 -305.94 -290.29 -276.31 
 197 -303.02 -289.42 -276.31 
 198 -288.27 -286.43 -276.31 
 199 -283.76 -287.57 -276.31 
 200 -286.69 -286.72 -276.31 
 201 -288.14 -280.33 -276.31 
 202 -293.96 -278.56 -276.31 
 203 -285.01 -276.19 -276.31 
 204 -289.77 -274.06 -276.31 
 205 -287.50 -277.63 -276.31 
 206 -282.20 -283.22 -276.31 
 207 -282.08 -283.42 -276.31 
 208 -282.41 -281.35 -276.31 
 209 -293.16 -288.98 -276.31 
 210 -288.21 -298.13 -276.31 
 211 -288.62 -286.80 -276.31 
 212 -273.65 -282.61 -276.31 
 213 -286.19 -280.23 -273.65 
 214 -289.47 -264.29 -273.65 
 215 -278.74 -267.89 -273.65 
 216 -279.98 -287.99 -273.65 
 217 -285.52 -275.12 -273.65 
 218 -288.54 -285.52 -273.65 
 219 -282.94 -302.87 -273.65 
 220 -294.43 -299.92 -273.65 
 221 -278.49 -271.00 -273.65 
 222 -278.06 -271.42 -273.65 
 223 -281.37 -266.21 -273.65 
 224 -286.76 -266.56 -273.65 
 225 -281.50 -278.75 -273.65 
 226 -290.72 -263.44 -273.65 
 227 -282.92 -258.51 -273.65 
 228 -280.43 -269.81 -273.65 
 229 -289.58 -280.50 -273.65 
 230 -295.50 -276.94 -273.65 
 231 -281.48 -299.89 -273.65 
 232 -295.55 -304.64 -273.65 
 233 -293.03 -277.59 -273.65 
 234 -314.32 -280.75 -273.65 
 235 -288.90 -325.48 -273.65 
 236 -294.75 -368.07 -273.65 
 237 -268.62 -367.69 -273.65 
 238 -280.91 -313.04 -268.62 
 239 -293.97 -369.56 -268.62 
 240 -288.50 -359.36 -268.62 
 241 -291.86 -356.84 -268.62 
 242 -297.43 -335.46 -268.62 
 243 -286.59 -342.93 -268.62 
 244 -285.94 -339.68 -268.62 
 245 -301.29 -337.93 -268.62 
 246 -305.28 -336.08 -268.62 
 247 -308.55 -333.66 -268.62 
 248 -319.36 -393.60 -268.62 
 249 -301.17 -335.26 -268.62 
 250 -309.98 -333.79 -268.62 
 251 -296.26 -343.85 -268.62 
 252 -304.84 -348.73 -268.62 
 253 -310.36 -331.17 -268.62 
 254 -303.23 -399.41 -268.62 
 255 -321.34 -368.30 -268.62 
 256 -297.36 -332.35 -268.62 
 257 -291.54 -330.37 -268.62 
 258 -295.75 -323.45 -268.62 
 259 -297.70 -331.77 -268.62 
 260 -297.05 -321.95 -268.62 
 261 -292.76 -318.00 -268.62 
 262 -298.61 -319.48 -268.62 
 263 -295.44 -330.62 -268.62 
 264 -298.98 -344.61 -268.62 
 265 -288.34 -325.36 -268.62 
 266 -289.67 -351.97 -268.62 
 267 -291.33 -329.23 -268.62 
 268 -282.99 -339.04 -268.62 
 269 -291.28 -327.07 -268.62 
 270 -294.32 -323.30 -268.62 
 271 -293.54 -376.01 -268.62 
 272 -286.13 -329.13 -268.62 
 273 -292.34 -337.61 -268.62 
 274 -304.65 -335.77 -268.62 
 275 -293.39 -374.89 -268.62 
 276 -305.21 -381.33 -268.62 
 277 -292.71 -383.34 -268.62 
 278 -307.45 -383.85 -268.62 
 279 -287.41 -388.26 -268.62 
 280 -282.90 -391.98 -268.62 
 281 -290.69 -386.19 -268.62 
 282 -293.53 -384.16 -268.62 
 283 -289.58 -379.70 -268.62 
 284 -289.94 -376.99 -268.62 
 285 -288.03 -375.33 -268.62 
 286 -290.57 -381.27 -268.62 
 287 -285.30 -382.02 -268.62 
 288 -291.54 -384.04 -268.62 
 289 -305.18 -381.78 -268.62 
 290 -285.50 -379.49 -268.62 
 291 -284.40 -370.01 -268.62 
 292 -287.18 -372.11 -268.62 
 293 -281.98 -372.45 -268.62 
 294 -281.53 -372.74 -268.62 
 295 -282.69 -369.49 -268.62 
 296 -286.81 -375.59 -268.62 
 297 -280.16 -375.30 -268.62 
 298 -281.60 -369.40 -268.62 
 299 -293.19 -353.90 -268.62 
 300 -269.66 -351.05 -268.62 
 301 -275.52 -354.59 -268.62 
 302 -284.21 -341.31 -268.62 
 303 -281.23 -341.37 -268.62 
 304 -281.98 -332.57 -268.62 
 305 -283.11 -323.99 -268.62 
 306 -283.98 -325.98 -268.62 
 307 -280.23 -343.31 -268.62 
 308 -272.23 -341.38 -268.62 
 309 -280.66 -348.48 -268.62 
 310 -280.78 -347.32 -268.62 
 311 -286.46 -349.36 -268.62 
 312 -275.83 -343.18 -268.62 
 313 -275.86 -347.13 -268.62 
 314 -280.30 -348.20 -268.62 
 315 -280.86 -349.47 -268.62 
 316 -277.02 -345.97 -268.62 
 317 -282.60 -342.88 -268.62 
 318 -283.65 -341.63 -268.62 
 319 -276.98 -338.28 -268.62 
 320 -280.74 -337.31 -268.62 
 321 -281.30 -334.32 -268.62 
 322 -280.50 -326.60 -268.62 
 323 -285.08 -330.40 -268.62 
 324 -290.87 -330.66 -268.62 
 325 -283.76 -330.17 -268.62 
 326 -278.33 -329.76 -268.62 
 327 -284.20 -332.26 -268.62 
 328 -276.22 -336.42 -268.62 
 329 -278.61 -339.86 -268.62 
 330 -283.54 -312.54 -268.62 
 331 -284.59 -297.66 -268.62 
 332 -279.03 -290.37 -268.62 
 333 -284.69 -271.33 -268.62 
 334 -277.58 -298.36 -268.62 
 335 -285.04 -296.85 -268.62 
 336 -279.44 -295.42 -268.62 
 337 -282.34 -296.75 -268.62 
 338 -281.59 -295.47 -268.62 
 339 -277.76 -294.23 -268.62 
 340 -284.07 -296.01 -268.62 
 341 -277.76 -287.92 -268.62 
 342 -278.85 -287.23 -268.62 
 343 -278.88 -286.98 -268.62 
 344 -271.16 -287.75 -268.62 
 345 -278.95 -290.56 -268.62 
 346 -277.15 -293.94 -268.62 
 347 -278.43 -291.39 -268.62 
 348 -283.44 -298.46 -268.62 
 349 -273.50 -303.25 -268.62 
 350 -280.68 -298.64 -268.62 
 351 -277.74 -296.55 -268.62 
 352 -277.81 -298.33 -268.62 
 353 -280.92 -292.70 -268.62 
 354 -280.79 -293.65 -268.62 
 355 -275.06 -300.63 -268.62 
 356 -284.09 -301.96 -268.62 
 357 -291.40 -310.17 -268.62 
 358 -282.66 -307.01 -268.62 
 359 -277.68 -296.01 -268.62 
 360 -285.15 -307.42 -268.62 
 361 -285.31 -300.22 -268.62 
 362 -276.09 -284.37 -268.62 
 363 -282.61 -301.70 -268.62 
 364 -281.97 -293.72 -268.62 
 365 -284.65 -282.20 -268.62 
 366 -273.74 -273.48 -268.62 
 367 -287.09 -254.47 -268.62 
 368 -276.60 -250.56 -268.62 
 369 -275.59 -250.92 -268.62 
 370 -278.92 -257.14 -268.62 
 371 -269.82 -247.86 -268.62 
 372 -272.19 -250.95 -268.62 
 373 -276.76 -247.53 -268.62 
 374 -282.67 -248.49 -268.62 
 375 -276.72 -313.67 -268.62 
 376 -281.73 -317.90 -268.62 
 377 -280.30 -317.58 -268.62 
 378 -277.55 -318.54 -268.62 
 379 -280.31 -315.33 -268.62 
 380 -271.88 -311.59 -268.62 
 381 -273.60 -301.04 -268.62 
 382 -266.76 -302.30 -268.62 
 383 -270.11 -238.57 -266.76 
 384 -262.48 -239.50 -266.76 
 385 -270.26 -236.29 -262.48 
 386 -264.01 -233.39 -262.48 
 387 -268.76 -230.37 -262.48 
 388 -263.12 -236.23 -262.48 
 389 -261.14 -231.57 -262.48 
 390 -262.04 -222.33 -261.14 
 391 -264.52 -229.27 -261.14 
 392 -261.20 -235.21 -261.14 
 393 -270.59 -227.09 -261.14 
 394 -267.23 -232.37 -261.14 
 395 -266.69 -226.04 -261.14 
 396 -266.04 -221.79 -261.14 
 397 -262.59 -214.55 -261.14 
 398 -256.37 -221.02 -261.14 
 399 -255.25 -224.05 -256.37 
 400 -261.53 -226.59 -255.25 
 401 -257.17 -289.17 -255.25 
 402 -259.47 -288.34 -255.25 
 403 -256.22 -277.04 -255.25 
 404 -255.02 -274.52 -255.25 
 405 -262.42 -238.60 -255.02 
 406 -244.06 -235.15 -255.02 
 407 -247.95 -234.30 -244.06 
 408 -256.61 -237.87 -244.06 
 409 -248.69 -233.19 -244.06 
 410 -253.22 -238.64 -244.06 
 411 -261.69 -239.10 -244.06 
 412 -247.20 -235.83 -244.06 
 413 -242.63 -228.46 -244.06 
 414 -255.86 -226.67 -242.63 
 415 -248.32 -235.63 -242.63 
 416 -252.17 -227.42 -242.63 
 417 -241.89 -225.73 -242.63 
 418 -263.22 -221.42 -241.89 
 419 -252.32 -221.52 -241.89 
 420 -250.06 -220.11 -241.89 
 421 -248.09 -217.58 -241.89 
 422 -249.57 -222.61 -241.89 
 423 -252.04 -219.07 -241.89 
 424 -253.05 -210.39 -241.89 
 425 -243.13 -210.09 -241.89 
 426 -232.49 -217.51 -241.89 
 427 -239.33 -211.33 -232.49 
 428 -233.20 -207.18 -232.49 
 429 -245.04 -203.57 -232.49 
 430 -239.47 -205.92 -232.49 
 431 -234.40 -200.39 -232.49 
 432 -241.34 -204.65 -232.49 
 433 -236.15 -206.40 -232.49 
 434 -227.11 -209.61 -232.49 
 435 -239.27 -211.83 -227.11 
 436 -232.76 -207.67 -227.11 
 437 -236.15 -205.23 -227.11 
 438 -228.66 -203.68 -227.11 
 439 -224.66 -200.29 -227.11 
 440 -229.81 -190.90 -224.66 
 441 -232.97 -188.66 -224.66 
 442 -229.79 -190.42 -224.66 
 443 -227.52 -197.27 -224.66 
 444 -231.97 -195.63 -224.66 
 445 -231.93 -198.02 -224.66 
 446 -230.21 -196.51 -224.66 
 447 -232.76 -192.83 -224.66 
 448 -225.01 -193.66 -224.66 
 449 -221.02 -192.89 -224.66 
 450 -237.61 -194.62 -221.02 
 451 -226.45 -193.46 -221.02 
 452 -237.56 -189.71 -221.02 
 453 -224.98 -191.94 -221.02 
 454 -223.12 -196.45 -221.02 
 455 -232.60 -197.97 -221.02 
 456 -216.54 -197.88 -221.02 
 457 -225.27 -191.63 -216.54 
 458 -227.74 -194.55 -216.54 
 459 -220.03 -195.14 -216.54 
 460 -226.63 -194.51 -216.54 
 461 -219.79 -190.72 -216.54 
 462 -206.11 -187.46 -216.54 
 463 -211.90 -192.16 -206.11 
 464 -207.52 -197.60 -206.11 
 465 -208.56 -196.57 -206.11 
 466 -208.71 -193.36 -206.11 
 467 -209.19 -197.71 -206.11 
 468 -205.12 -196.92 -206.11 
 469 -205.93 -196.13 -205.12 
 470 -204.35 -196.66 -205.12 
 471 -202.71 -196.56 -204.35 
 472 -207.13 -195.02 -202.71 
 473 -205.99 -197.61 -202.71 
 474 -206.52 -198.54 -202.71 
 475 -206.00 -196.59 -202.71 
 476 -203.68 -198.02 -202.71 
 477 -202.36 -197.80 -202.71 
 478 -205.03 -197.02 -202.36 
 479 -203.42 -195.91 -202.36 
 480 -203.01 -196.70 -202.36 
 481 -205.17 -195.53 -202.36 
 482 -202.05 -195.39 -202.36 
 483 -204.34 -194.82 -202.05 
 484 -203.49 -194.36 -202.05 
 485 -203.22 -194.38 -202.05 
 486 -202.28 -193.03 -202.05 
 487 -203.10 -192.79 -202.05 
 488 -201.60 -193.01 -202.05 
 489 -201.13 -192.71 -201.60 
 490 -200.29 -193.67 -201.13 
 491 -201.53 -193.57 -200.29 
 492 -200.65 -193.63 -200.29 
 493 -200.95 -194.19 -200.29 
 494 -200.28 -193.72 -200.29 
 495 -199.62 -194.92 -200.28 
 496 -201.92 -194.10 -199.62 
 497 -200.66 -193.26 -199.62 
 498 -202.39 -192.99 -199.62 
 499 -198.91 -194.73 -199.62 
