iteration,time_sampling,stoc_pol_mean,stoc_pol_std,stoc_pol_max,stoc_pol_min,rollout_success,alpha,delta,time_vpg,time_npg,kl_dist,surr_improvement,running_score,rwd_sparse,rwd_dense,success_percentage,effort,num_samples,time_VF,VF_error_before,VF_error_after,env_samples,eval_score,eval_success
0,1.1375792026519775,-540.5419594857246,11.675848329738969,-521.2916065551024,-550.804707574861,0.125,0.09655774431793643,0.1,0.03004002571105957,0.04161572456359863,0.050911102,1.3708484,-540.5419594857246,-0.10987380113489886,-0.1925063157373336,0.125,0.06075657184583702,66,0.00430607795715332,1.0002726924669678,1.0002726924669678,66,-571.4888042197051,0.49999999999999994
1,0.9490060806274414,-536.607550189424,7.591460077032819,-525.9263057005853,-547.3024363125024,0.375,0.1379488699972355,0.1,0.0020873546600341797,0.04561781883239746,0.049571116,0.8123064,-540.1485185560946,-0.11246702259569363,-0.17329851392562629,0.375,0.060273622290718185,74,0.0026781558990478516,1.00027551558673,1.00027551558673,140,-578.2842441380966,0.49999999999999994
2,0.9917161464691162,-537.5835627358205,5.969129328487894,-528.5058829497239,-544.4607850702615,0.375,0.1286189658997843,0.1,0.0020923614501953125,0.04282116889953613,0.05242879,0.77553415,-539.8920229740672,-0.12498246665694135,-0.17673882930054224,0.375,0.05983615006474341,69,0.002368450164794922,1.000273277803283,1.000273277803283,209,-584.5916240428891,0.49999999999999994
3,0.9809892177581787,-538.2664420935929,6.29038908656866,-527.7966813721865,-543.2550918293218,0.375,0.1317962397059671,0.1,0.0021386146545410156,0.04326176643371582,0.047307912,0.8292341,-539.7294648860197,-0.10360418124570454,-0.1817264850585013,0.375,0.05733359667393145,74,0.0023550987243652344,1.0002764340760355,1.0002764340760355,283,-593.2407326373835,0.49999999999999994
4,0.9950013160705566,-537.4587570013836,7.790010777284412,-525.3961386277073,-546.6410634029347,0.375,0.1288125063656442,0.1,0.001840353012084961,0.04307961463928223,0.05285994,0.91671413,-539.5023940975561,-0.12435781571497567,-0.17566441128911411,0.375,0.060284661345297925,70,0.0022988319396972656,1.0002712436452863,1.0002712436452863,353,-583.7051722389652,0.49999999999999994
5,1.003760576248169,-533.2064436961443,9.034807719438456,-524.092169880028,-545.3994159263277,0.5,0.12985456063911213,0.1,0.003253936767578125,0.04291081428527832,0.052110843,0.9444682,-538.8727990574149,-0.1049774291843538,-0.15771219482240934,0.5,0.05973257531237075,72,0.002474069595336914,1.000275563609154,1.000275563609154,425,-571.4073396401341,0.49999999999999994
6,1.021021842956543,-529.7469449380256,3.810502050879478,-525.7612748709715,-534.3560856616434,0.5,0.13234448984751812,0.1,0.0021147727966308594,0.042672157287597656,0.047885567,0.81061584,-537.960213645476,-0.10416158891417562,-0.1396735389527586,0.5,0.05993888089345407,68,0.002381563186645508,1.0002720921438086,1.0002720921438086,493,-569.8474167173771,0.49999999999999994
7,1.0396642684936523,-533.9072879397355,4.993586866410349,-526.5604942252475,-540.2324819755117,0.5,0.1387353540574693,0.1,0.002238035202026367,0.04262208938598633,0.04969623,1.1208036,-537.5549210749019,-0.10587538418531604,-0.1598532153848502,0.5,0.061125353149595926,79,0.0023152828216552734,1.0002730528030837,1.0002730528030837,572,-562.1314409810998,0.49999999999999994
8,1.0427567958831787,-530.0205127046506,2.8278278730649564,-527.155814311751,-534.6614074628092,0.5,0.13753312275465937,0.1,0.0021495819091796875,0.05012822151184082,0.05003839,0.8508797,-536.8014802378768,-0.10373095752673464,-0.14201649646770526,0.5,0.058768987457680874,74,0.0026857852935791016,1.0002760724631576,1.0002760724631576,646,-596.7640745334625,0.49999999999999994
9,1.0503666400909424,-537.406140613595,3.0559217104243475,-534.3564334714974,-541.2472248987183,0.375,0.1327831796263261,0.1,0.0022270679473876953,0.04297471046447754,0.05096515,0.7796797,-536.8619462754486,-0.09491235625815331,-0.17861911043447526,0.375,0.06121846416010009,72,0.0025005340576171875,1.000274747310222,1.000274747310222,718,-580.3751524370123,0.49999999999999994
10,1.03218674659729,-531.2232753466122,1.8518218583912611,-528.2266178674003,-533.1424892027289,0.5,0.13182998977708554,0.1,0.0021605491638183594,0.0429539680480957,0.049990322,0.8451712,-536.2980791825651,-0.10792419980381353,-0.1467876227216648,0.5,0.06049448476555163,72,0.0023593902587890625,1.0002760525893075,1.0002760525893075,790,-561.3729198178941,0.49999999999999994
11,1.0559539794921875,-527.3834980369919,6.696277931077052,-519.7112028609874,-537.8475034648716,0.5,0.1409282865049544,0.1,0.0020911693572998047,0.042589426040649414,0.054288395,0.73384064,-535.4066210680078,-0.10766147373651719,-0.12701747869968125,0.5,0.0604921874055209,69,0.0022215843200683594,1.000275464044028,1.000275464044028,859,-564.1895050992771,0.49999999999999994
12,1.0772132873535156,-532.2849781481751,12.787246501097371,-515.1966826378922,-547.5872303407517,0.375,0.1362879210546084,0.1,0.002091646194458008,0.06250238418579102,0.049972344,0.7049558,-535.0944567760246,-0.09785530021825349,-0.15352853152748927,0.375,0.05925295125187472,68,0.0025627613067626953,1.000275578176947,1.000275578176947,927,-557.1753770549733,0.49999999999999994
13,1.0726516246795654,-539.088221838053,3.696011648346363,-534.1308863548991,-544.5484972413501,0.5,0.15027119334132757,0.1,0.002126932144165039,0.044431209564208984,0.050891567,0.7529775,-535.4938332822275,-0.10895051470323047,-0.18744556580656418,0.5,0.059956200053526,86,0.002263307571411133,1.0002745133935675,1.0002745133935675,1013,-569.428303712317,0.49999999999999994
14,1.0603690147399902,-536.5253992140221,6.446290172131355,-529.4521681496041,-546.7663367499563,0.375,0.1413885066315562,0.1,0.0021104812622070312,0.04358673095703125,0.050559867,0.89632434,-535.596989875407,-0.0920429829359774,-0.17484953450752902,0.375,0.06141300523751285,80,0.0021483898162841797,1.0002738155695943,1.0002738155695943,1093,-566.8677959058242,0.49999999999999994
15,1.0851638317108154,-541.1507158629697,7.333600221272116,-533.5331026157437,-549.2237677019018,0.25,0.13509805622105858,0.1,0.002068758010864258,0.04308366775512695,0.049253333,0.8827841,-536.1523624741633,-0.09544531904380327,-0.19759411679677663,0.25,0.06021367179822352,72,0.002376556396484375,1.0002723455813374,1.0002723455813374,1165,-561.89858541573,0.49999999999999994
16,1.038137674331665,-544.4224229801441,5.413019851278416,-535.4896355431822,-549.981128951773,0.25,0.13857040588597008,0.1,0.002349853515625,0.04400205612182617,0.05238092,0.7233609,-536.9793685247614,-0.13264564002074042,-0.21034538495613958,0.25,0.061131685553623166,71,0.002794504165649414,1.000272895151343,1.000272895151343,1236,-571.1696587343525,0.49999999999999994
17,1.0083951950073242,-533.3696153812086,9.760196241268167,-520.221536308508,-546.9059200667825,0.375,0.1366973287652523,0.1,0.002028226852416992,0.04155874252319336,0.04991495,0.9149169,-536.6183932104061,-0.10728897688291127,-0.15868510335384792,0.375,0.06106329628833506,71,0.002203226089477539,1.0002753671977966,1.0002753671977966,1307,-565.6844306826223,0.49999999999999994
18,1.011427640914917,-536.3482441795902,4.466663260633317,-528.7988629096169,-540.4585352856966,0.375,0.12824024468836936,0.1,0.002019166946411133,0.044736385345458984,0.050376147,1.3943855,-536.5913783073246,-0.10901059769509416,-0.17210375081260565,0.375,0.059067072679666974,68,0.002440214157104492,1.0002719204508432,1.0002719204508432,1375,-563.8993747915198,0.49999999999999994
19,1.0167913436889648,-533.6784254967729,5.272102045330557,-527.0176475007972,-539.3750982424632,0.5,0.137233436050308,0.1,0.1012580394744873,0.10992860794067383,0.05116594,0.6574861,-536.3000830262695,-0.1046728323378138,-0.15879357223928653,0.5,0.060530487596741726,70,0.002615690231323242,1.000273318397414,1.000273318397414,1445,-562.1519704224296,0.49999999999999994
20,1.0348544120788574,-534.3675199568825,4.926065691576664,-526.4298505020572,-539.9608641726844,0.5,0.14506756865730136,0.1,0.002198457717895508,0.0678553581237793,0.05003944,0.94281465,-536.1068267193308,-0.09843787514744201,-0.16303467384280007,0.5,0.062072322386420124,78,0.021503448486328125,1.0002752217005733,1.0002752217005733,1523,-559.7440051840643,0.49999999999999994
21,1.0945336818695068,-536.5206543904787,9.220337256332678,-526.9921549494176,-549.78394575187,0.375,0.13645173533527621,0.1,0.0026640892028808594,0.046452999114990234,0.050107785,0.80695933,-536.1482094864456,-0.09113146336156294,-0.175058817430113,0.375,0.06253251001084192,80,0.002714395523071289,1.0002762890391532,1.0002762890391532,1603,-562.8544764383664,0.49999999999999994
22,1.0508694648742676,-535.1759103570369,7.989200521039769,-522.692997876801,-542.9705267063616,0.5,0.13924404671061694,0.1,0.0021033287048339844,0.04442596435546875,0.051210266,0.8308986,-536.0509795735047,-0.10427769330282705,-0.16717636444425418,0.5,0.06145218860810123,77,0.002560853958129883,1.0002744031678745,1.0002744031678745,1680,-571.9847429591392,0.49999999999999994
23,1.0733206272125244,-535.3220000600952,7.387602776018561,-526.925476764395,-544.9924764729279,0.375,0.1487394448322099,0.1,0.002315521240234375,0.04346466064453125,0.05063689,0.7603927,-535.9780816221638,-0.09827993766181939,-0.16889553273494556,0.375,0.059690709293757915,77,0.0027256011962890625,1.0002742329382208,1.0002742329382208,1757,-581.6484200145952,0.49999999999999994
24,1.0524919033050537,-535.9166650312523,7.192984290268014,-529.6257939504294,-548.1021354205683,0.375,0.1388930153044698,0.1,0.002212047576904297,0.043215036392211914,0.05162754,0.7493842,-535.9719399630726,-0.0988531461450014,-0.17287366722295536,0.375,0.062224555452244666,76,0.0031883716583251953,1.000273677096662,1.000273677096662,1833,-573.3464790437371,0.49999999999999994
25,1.0583102703094482,-528.6246200125349,12.824779246617627,-509.7408297731763,-545.9461134290619,0.375,0.1406841690467071,0.1,0.002178668975830078,0.043050289154052734,0.049496204,0.9206311,-535.2372079680189,-0.09849189500837574,-0.13587744643433014,0.375,0.061116091611497565,70,0.002505779266357422,1.000271858748987,1.000271858748987,1903,-585.5305130005902,0.49999999999999994
26,1.0874700546264648,-530.5875339513163,3.429523058105851,-525.9666132550656,-535.1309856444608,0.5,0.13792705682134246,0.1,0.002101898193359375,0.04178500175476074,0.051310882,0.8597699,-534.7722405663486,-0.10337370894839724,-0.1433864497673234,0.5,0.06071197648863966,72,0.002217531204223633,1.0002730969326354,1.0002730969326354,1975,-563.7044132525009,0.49999999999999994
27,1.1123225688934326,-531.6729922751326,13.399527613436016,-509.75917313412,-544.1158189426103,0.5,0.15186725009080504,0.1,0.002311229705810547,0.04320406913757324,0.05161286,0.7273563,-534.4623157372271,-0.10076130984975722,-0.14926467565716556,0.5,0.0625325560671045,81,0.0027513504028320312,1.0002720993623886,1.0002720993623886,2056,-560.7016629301428,0.49999999999999994
28,1.069836139678955,-534.461264107357,8.347784360872268,-526.955096805361,-547.2569267564327,0.375,0.1393710896906439,0.1,0.002115011215209961,0.043012380599975586,0.050838504,0.7739336,-534.4622105742401,-0.09617341874746074,-0.16422424553542023,0.375,0.06182964247107434,71,0.002336740493774414,1.0002730129739026,1.0002730129739026,2127,-565.8071617389376,0.49999999999999994
29,1.0700616836547852,-537.800435529602,9.922407240231587,-524.2682454175911,-551.272495785438,0.375,0.141956132712018,0.1,0.0021483898162841797,0.04379701614379883,0.050194316,0.7259624,-534.7960330697763,-0.12051212793628849,-0.17812216461751823,0.375,0.06223858812271037,73,0.0023484230041503906,1.0002705955401556,1.0002705955401556,2200,-565.4362829080447,0.49999999999999994
30,0.9976873397827148,-539.5155525225186,5.23198589085455,-531.433314509647,-544.6167514859325,0.25,0.1373339742879457,0.1,0.0021638870239257812,0.0708622932434082,0.051246822,0.8217341,-535.2679850150505,-0.09527295779781424,-0.19015159950985777,0.25,0.0595652635427272,77,0.0037543773651123047,1.0002734485851297,1.0002734485851297,2277,-570.8174495457032,0.49999999999999994
31,1.0509631633758545,-533.1951057201081,4.609039201856475,-527.0291849810603,-539.5685013732704,0.5,0.14951350069021208,0.1,0.12101173400878906,0.16713905334472656,0.05081697,0.7147648,-535.0606970855563,-0.09246930534347861,-0.1577788944848832,0.5,0.06188596703860295,83,0.0030219554901123047,1.0002735809501808,1.0002735809501808,2360,-571.2016165611857,0.49999999999999994
32,1.0897741317749023,-528.4013159410657,7.252697619077699,-520.3670274424919,-539.8270325253137,0.5,0.1552179941177121,0.1,0.10907602310180664,0.3908553123474121,0.050743636,0.7655544,-534.3947589711072,-0.0823752947546593,-0.13515834939590896,0.5,0.05982003645764271,76,0.002868175506591797,1.0002748921215117,1.0002748921215117,2436,-571.5958838458935,0.49999999999999994
33,1.0905189514160156,-531.549071596188,6.206365795288535,-521.7130649121982,-536.8787254087265,0.5,0.1531192720444592,0.1,0.0024068355560302734,0.04428696632385254,0.05048238,0.79764366,-534.1101902336153,-0.09267985427588532,-0.1508381094479775,0.5,0.05938663606166067,79,0.0026216506958007812,1.0002720110449081,1.0002720110449081,2515,-554.7760464642383,0.49999999999999994
34,1.0677587985992432,-528.6612812111913,3.3270371907480514,-523.2377950114749,-531.9018183905569,0.5,0.14228439602726675,0.1,0.0019445419311523438,0.03823399543762207,0.05064192,1.5099187,-533.5652993313729,-0.0898277195374392,-0.1353924068538756,0.5,0.062100117468790295,76,0.002792835235595703,1.0002739227289565,1.0002739227289565,2591,-551.7937835991271,0.49999999999999994
35,1.0846290588378906,-528.7871791906839,6.046944949381781,-520.8603902535982,-536.6691500626196,0.375,0.13965322835907143,0.1,0.0017647743225097656,0.04147005081176758,0.050113477,0.9683755,-533.0874873173041,-0.10670193815717746,-0.1355973222721717,0.375,0.06266011045263896,72,0.0026144981384277344,1.0002711249247291,1.0002711249247291,2663,-549.3370041885138,0.49999999999999994
36,1.0727183818817139,-537.2002781755568,4.998562814070504,-531.2877832896668,-544.4435903403296,0.375,0.14381257960247074,0.1,0.0021224021911621094,0.056426286697387695,0.049559306,1.1505607,-533.4987664031294,-0.10411114095029823,-0.17742367568403694,0.375,0.06217412131788304,78,0.002457141876220703,1.000274239778193,1.000274239778193,2741,-553.3909487439582,0.49999999999999994
37,1.0784711837768555,-529.7815546944795,8.79718013148337,-518.3819907103256,-540.8556715341106,0.375,0.14268281080154122,0.1,0.0021648406982421875,0.060832977294921875,0.049847007,0.7901243,-533.1270452322644,-0.10223749471650206,-0.14066941957463983,0.375,0.061153488678514306,71,0.0025014877319335938,1.0002713304292183,1.0002713304292183,2812,-551.2596264849876,0.49999999999999994
38,1.0815234184265137,-538.8990113919439,5.970369242239711,-528.5921287432413,-542.956083343306,0.375,0.15614197858632195,0.1,0.0021872520446777344,0.04485821723937988,0.050083324,0.8532017,-533.7042418482324,-0.09543423432926497,-0.1862622400749338,0.375,0.06038691252685756,87,0.0026807785034179688,1.0002741807700817,1.0002741807700817,2899,-559.8102749768522,0.49999999999999994
39,1.0681819915771484,-533.0283342034645,6.183043862709788,-525.4487773065329,-542.6616408636415,0.375,0.13734632700937535,0.1,0.002276897430419922,0.04630136489868164,0.05103973,1.2270166,-533.6366510837556,-0.11233883788473643,-0.15688106076547473,0.375,0.06276032144573912,72,0.002758502960205078,1.000272382551144,1.000272382551144,2971,-575.1600361977626,0.49999999999999994
40,1.1494286060333252,-543.6219135702735,10.164635704549308,-530.5678069299566,-558.1370558268554,0.375,0.16400453315723001,0.1,0.0022094249725341797,0.04589033126831055,0.050679613,0.84362817,-534.6351773324075,-0.08821178021465363,-0.2089866867940775,0.375,0.06306879652413529,99,0.0024261474609375,1.0002745590194986,1.0002745590194986,3070,-573.8587959838212,0.49999999999999994
41,1.0599312782287598,-539.1420872036381,4.723382486147074,-533.7982263441588,-545.8014536771321,0.375,0.13933423658454558,0.1,0.001786947250366211,0.04228782653808594,0.050460227,0.8259627,-535.0858683195305,-0.11203028041788013,-0.186651295883982,0.375,0.061478644252307924,74,0.0026009082794189453,1.0002732551124276,1.0002732551124276,3144,-566.7447940108805,0.49999999999999994
42,1.1081674098968506,-535.9983368025161,1.9796631696094351,-533.2967475885864,-538.8856867429176,0.375,0.1484071218926344,0.1,0.002179861068725586,0.04381370544433594,0.050813153,0.7590455,-535.177115167829,-0.10177060265211163,-0.1716241118644128,0.375,0.06291456257295469,83,0.0023043155670166016,1.000273452246014,1.000273452246014,3227,-580.4162053088809,0.49999999999999994
43,1.0972774028778076,-533.6941454119785,10.176439159174238,-516.2308418241544,-540.8428964865366,0.25,0.157865178876588,0.1,0.002194643020629883,0.04326629638671875,0.050080534,0.88724303,-535.028818192244,-0.08534379503128336,-0.16137341976652844,0.25,0.06082965167111837,79,0.0022585391998291016,1.000274486339169,1.000274486339169,3306,-575.0120785849732,0.49999999999999994
44,1.1209537982940674,-524.5144539758406,8.538110282932568,-511.40300215152513,-532.3088445537359,0.5,0.13583704826226947,0.1,0.0022084712982177734,0.04418659210205078,0.050133385,1.051193,-533.9773817706036,-0.09276907242213075,-0.11449015978191093,0.5,0.06184212118323576,74,0.0026574134826660156,1.0002755080352617,1.0002755080352617,3380,-583.3041732293675,0.49999999999999994
45,0.9954988956451416,-538.4227056859462,3.3668917543376216,-532.9702403509681,-541.8771955394374,0.25,0.1448196903425085,0.1,0.002221345901489258,0.044638872146606445,0.04936923,0.79807,-534.4219141621379,-0.11097708356787328,-0.18353648496972486,0.25,0.061920243977252265,71,0.002442598342895508,1.0002713201049098,1.0002713201049098,3451,-557.7644874163107,0.49999999999999994
46,1.013566493988037,-531.2055227615039,10.930017219203169,-512.6338158310559,-540.0746348927017,0.5,0.13317621425749485,0.1,0.002161741256713867,0.044423580169677734,0.049946748,0.84689033,-534.1002750220745,-0.10553610086285248,-0.14687100990471355,0.5,0.06138796165017245,71,0.0023505687713623047,1.00027147714299,1.00027147714299,3522,-562.1659325036883,0.49999999999999994
47,1.0143580436706543,-531.1121173012517,3.3676867035144884,-526.790111454902,-536.2402957065538,0.375,0.139500610425348,0.1,0.0022802352905273438,0.0433499813079834,0.051623695,0.85381186,-533.8014592499923,-0.09732800021002545,-0.14772136623495677,0.375,0.061289867791352204,71,0.002864360809326172,1.0002737958052745,1.0002737958052745,3593,-557.7256381298625,0.49999999999999994
48,1.0396194458007812,-529.1716994753265,7.229022798691874,-518.1498855920876,-536.0884194354563,0.5,0.1489325912637822,0.1,0.0024099349975585938,0.04361724853515625,0.05053615,0.8702044,-533.3384832725257,-0.09331127804154445,-0.13905986864542086,0.5,0.06237379040736669,77,0.002751588821411133,1.0002735651492,1.0002735651492,3670,-557.8155023038518,0.49999999999999994
49,1.0388433933258057,-526.4874468471094,5.823582908726499,-517.7026545959088,-534.0789029598934,0.5,0.133449933271236,0.1,0.0021789073944091797,0.042548418045043945,0.049873978,0.9401807,-532.653379629984,-0.08937413309070465,-0.12577073250463383,0.5,0.061672175792805574,67,0.022737503051757812,1.0002745344215276,1.0002745344215276,3737,-557.8837592998145,0.49999999999999994
50,1.0770916938781738,-538.6440748059914,5.181499526926765,-532.9714884155474,-544.6654201200738,0.5,0.16089611011852017,0.1,0.0070765018463134766,0.049851179122924805,0.04984781,0.6417365,-533.2524491475847,-0.088168562951882,-0.18413048885686262,0.5,0.06258532190892427,94,0.002605915069580078,1.0002748582827543,1.0002748582827543,3831,-560.6938433610162,0.49999999999999994
51,1.060044527053833,-537.1618539553195,8.207191944259105,-527.2974549962578,-547.8424351421056,0.375,0.1582402070566351,0.1,0.002110719680786133,0.053529977798461914,0.049741145,0.6914524,-533.6433896283581,-0.09743760211482834,-0.17726239219122458,0.375,0.061710795635573634,81,0.0029625892639160156,1.0002743164913972,1.0002743164913972,3912,-560.824788051361,0.49999999999999994
52,1.0308308601379395,-532.5019792082101,12.53403879517452,-517.081216429055,-546.9134685385139,0.25,0.13323485381425118,0.1,0.0021209716796875,0.04241490364074707,0.04967116,0.8243128,-533.5292485863433,-0.1117806108125396,-0.15446970809707525,0.25,0.06287669147721851,67,0.002447366714477539,1.0002719604942352,1.0002719604942352,3979,-567.5145465101958,0.49999999999999994
53,1.1340508460998535,-543.995696442803,7.576090936139489,-535.598991406969,-555.1272985325968,0.5,0.18126596174170947,0.1,0.0022242069244384766,0.04586482048034668,0.05063518,0.6138198,-534.5758933719893,-0.08901752415734321,-0.21103441950944468,0.5,0.05963494760651025,106,0.08289980888366699,1.000273988374553,1.000273988374553,4085,-584.0971376664248,0.49999999999999994
54,1.0745322704315186,-540.1542125768876,3.8036984806112133,-534.924839500236,-545.6753150869342,0.125,0.13772914714266615,0.1,0.002672433853149414,0.0399777889251709,0.051005825,0.9619703,-535.1337252924792,-0.10249104988951119,-0.1920361321010278,0.125,0.062086011930073993,77,0.0033380985260009766,1.0002723364768928,1.0002723364768928,4162,-573.6588914052668,0.49999999999999994
55,1.082141399383545,-537.2167484082044,5.476083555647205,-532.5330505982772,-546.352210487553,0.375,0.14523861336503904,0.1,0.0022153854370117188,0.043028831481933594,0.050682746,0.765001,-535.3420276040517,-0.10258824364357641,-0.1788095282566864,0.375,0.06162126488818806,77,0.0025827884674072266,1.000275574277109,1.000275574277109,4239,-577.9896186202427,0.49999999999999994
56,1.1001458168029785,-544.8641391462569,4.986544339383378,-539.019185018025,-552.8066923209652,0.125,0.16072899506550492,0.1,0.002680540084838867,0.05780601501464844,0.04943363,0.87494814,-536.2942387582723,-0.10359552593406558,-0.21516515193314123,0.125,0.06265668091428006,78,0.0030820369720458984,1.0002738749818039,1.0002738749818039,4317,-577.192736950256,0.49999999999999994
57,1.1650524139404297,-531.0172418600279,1.856322600807029,-528.4073911868717,-532.9477995773738,0.5,0.14620707453651088,0.1,0.002145051956176758,0.04342818260192871,0.049779378,0.8862887,-535.7665390684479,-0.1017912072642273,-0.14712384784207994,0.5,0.06194155268717503,79,0.0024764537811279297,1.0002734254887669,1.0002734254887669,4396,-573.5127017904524,0.49999999999999994
58,1.096916675567627,-530.0515970903709,5.973887389272297,-523.9961077569566,-539.9586983748437,0.5,0.1354296488810371,0.1,0.002096891403198242,0.040114641189575195,0.04859919,1.245439,-535.1950448706401,-0.10800288524384988,-0.14153701564636917,0.5,0.06112172899204794,70,0.002325296401977539,1.000271326035829,1.000271326035829,4466,-568.9874038942486,0.49999999999999994
59,1.1062984466552734,-544.2164741289596,7.194836799072335,-533.8001005122261,-553.7087297204326,0.125,0.14448191996243456,0.1,0.004549264907836914,0.09227871894836426,0.049800895,0.78011864,-536.0971877964721,-0.11518490173730195,-0.21029469225025868,0.125,0.060864597111402005,84,0.0026137828826904297,1.0002729475322103,1.0002729475322103,4550,-568.284197764758,0.49999999999999994
60,1.0416944026947021,-527.9608435599373,11.284141554459609,-509.2590879400024,-537.216434059311,0.5,0.1485974024769712,0.1,0.0023560523986816406,0.04375815391540527,0.0504528,0.97740185,-535.2835533728186,-0.10372827966611364,-0.13114345068903266,0.5,0.06192760111423339,80,0.0027379989624023438,1.0002739033504837,1.0002739033504837,4630,-564.5311522820606,0.49999999999999994
61,1.1304023265838623,-546.9349733429034,14.523453735834634,-533.404019015628,-569.5109221287187,0.375,0.16065598987327617,0.1,0.08310723304748535,0.046050310134887695,0.048612177,0.82575935,-536.4486953698271,-0.09602242397784815,-0.2242832985684241,0.375,0.06330722206735376,98,0.002938985824584961,1.0002716565662306,1.0002716565662306,4728,-561.7956076667075,0.49999999999999994
62,1.0596888065338135,-533.7595781115288,8.96262345976534,-524.1192663414212,-548.3431288279014,0.375,0.1524951256935461,0.1,0.002321004867553711,0.04340195655822754,0.049981352,0.7887867,-536.1797836439972,-0.09887681224198422,-0.16050937748396607,0.375,0.06302940545638545,77,0.002721548080444336,1.000274061721445,1.000274061721445,4805,-555.2300472432016,0.49999999999999994
63,1.042057752609253,-533.5192923505708,2.971118785541748,-529.8225457813078,-537.098555766862,0.5,0.12373711649775838,0.1,0.12897658348083496,0.13018107414245605,0.050358035,0.9856214,-535.9137345146546,-0.12382435684361184,-0.1584270394766712,0.5,0.06245520443286027,68,0.00938105583190918,1.0002713812150528,1.0002713812150528,4873,-550.4090997889159,0.49999999999999994
64,1.0773286819458008,-537.8820006907588,2.553390104504604,-534.7411296467144,-541.6930714073967,0.5,0.15034039742797822,0.1,0.0025887489318847656,0.042906999588012695,0.04976028,0.6955855,-536.110561132265,-0.09344748833824824,-0.18194017892914605,0.5,0.06168899442653668,81,0.0030510425567626953,1.0002734517003864,1.0002734517003864,4954,-547.6185399856012,0.49999999999999994
65,1.058168649673462,-529.6386362662904,5.506357238820174,-520.3076522133932,-534.2803629474702,0.5,0.13052899406039045,0.1,0.0020279884338378906,0.04280710220336914,0.050201546,1.1773374,-535.4633686456676,-0.12972279750421475,-0.13914901180069078,0.5,0.06112246738422476,70,0.004435539245605469,1.0002735047157612,1.0002735047157612,5024,-551.6597372495847,0.49999999999999994
66,1.1261823177337646,-541.0316798370361,5.058341134555387,-533.6794927758372,-547.8950721261981,0.25,0.1548891263712897,0.1,0.002202749252319336,0.04384756088256836,0.050046694,0.9176911,-536.0201997648045,-0.10132004003561003,-0.19676954896610943,0.25,0.06357070590706285,82,0.002722024917602539,1.0002737906232364,1.0002737906232364,5106,-552.0676770612113,0.49999999999999994
67,1.0599145889282227,-531.2171773318348,6.542975901658302,-524.1666207128029,-539.2156425584051,0.375,0.1456434679579677,0.1,0.0022356510162353516,0.04293370246887207,0.049882088,0.83321047,-535.5398975215076,-0.10807827650045126,-0.14748614859515627,0.375,0.06122273410208454,71,0.0028235912322998047,1.0002732691906644,1.0002732691906644,5177,-560.1543368708661,0.49999999999999994
68,1.0960862636566162,-535.1041824100384,2.0945813340252477,-533.1434360789478,-538.1587937134054,0.5,0.15497702408019987,0.1,0.0022432804107666016,0.043488502502441406,0.04951389,0.94312,-535.4963260103607,-0.11092553809766334,-0.1673856087239262,0.5,0.062017074236194694,78,0.00266265869140625,1.0002738011747303,1.0002738011747303,5255,-554.5274855877125,0.49999999999999994
69,1.1430885791778564,-536.0217285617779,3.644583261956209,-531.1526598268536,-540.3814936483215,0.375,0.1395451103563792,0.1,0.0018167495727539062,0.036535024642944336,0.049766146,0.930471,-535.5488662655024,-0.101020522466992,-0.17124802643007375,0.375,0.06344836115553878,76,0.0025377273559570312,1.0002730145279528,1.0002730145279528,5331,-553.7213050230097,0.49999999999999994
70,1.1768310070037842,-537.270679374929,4.30432215817483,-534.292187221006,-544.6973952998816,0.375,0.1515373409199916,0.1,0.01361227035522461,0.04260373115539551,0.049957547,0.6766426,-535.721047576445,-0.10529670904906294,-0.17816530728441776,0.375,0.06072002191050149,70,0.002597808837890625,1.0002720813579626,1.0002720813579626,5401,-550.9565999954683,0.49999999999999994
71,1.1467723846435547,-546.0159061003919,12.095377365612297,-533.3991009683081,-565.9740652962222,0.375,0.15715622770870688,0.1,0.002093791961669922,0.04455208778381348,0.050718173,1.0600961,-536.7505334288397,-0.11901098120674536,-0.21817576902823532,0.375,0.06125342737157624,86,0.002477407455444336,1.0002693791882373,1.0002693791882373,5487,-548.9726358572872,0.49999999999999994
72,1.0843708515167236,-540.0756670961754,6.273277668091422,-530.0946551611684,-546.4735592934427,0.125,0.14598969257206795,0.1,0.0020678043365478516,0.043512582778930664,0.05010688,0.8103146,-537.0830467955733,-0.11001373894874883,-0.19298153243583138,0.125,0.06095227077845348,72,0.0024466514587402344,1.0002720154321554,1.0002720154321554,5559,-548.9245115361432,0.49999999999999994
73,1.0686867237091064,-537.1751831765939,6.0046613578710435,-527.0408105545623,-542.425216872839,0.25,0.14896386909518317,0.1,0.0020797252655029297,0.04311680793762207,0.05024782,1.0388873,-537.0922604336754,-0.10924324541972341,-0.17756738562321348,0.25,0.05844828229217702,71,0.002170562744140625,1.0002730101652402,1.0002730101652402,5630,-550.8036083105167,0.49999999999999994
74,1.0914902687072754,-538.6153503890164,7.3472803552568,-530.0176958502007,-550.1411108678803,0.375,0.15316694297854022,0.1,0.0020461082458496094,0.04240107536315918,0.049938705,0.9037045,-537.2445694292095,-0.10710069982506104,-0.18395392824549248,0.375,0.06130352084928921,78,0.00241851806640625,1.0002723361574712,1.0002723361574712,5708,-551.1466473693032,0.49999999999999994
75,1.5579724311828613,-540.6130361801736,1.589928865161144,-538.7134830285125,-543.1172496284355,0.5,0.1692460145309087,0.1,0.0021970272064208984,0.05269169807434082,0.050201237,0.6338208,-537.581416104306,-0.08443429903947275,-0.194486267992042,0.5,0.06155796793973958,96,0.002934694290161133,1.000275258997978,1.000275258997978,5804,-555.7630364621647,0.49999999999999994
76,1.0302982330322266,-536.0740790501037,9.711464204008914,-526.6254459169442,-551.80067644916,0.25,0.15004629399838249,0.1,0.03347516059875488,0.04433941841125488,0.04961105,1.0850353,-537.4306823988858,-0.10191811540347824,-0.1728168697778859,0.25,0.06106798404112068,72,0.003159761428833008,1.000273907430477,1.000273907430477,5876,-557.8314919265181,0.49999999999999994
77,1.0374233722686768,-535.6784243492341,6.312297523070886,-527.4452986811522,-543.091174606298,0.125,0.1470537726811837,0.1,0.0021827220916748047,0.04609513282775879,0.05044134,0.7548331,-537.2554565939206,-0.09688520980788731,-0.17154877217939327,0.125,0.06034707583528586,72,0.0027222633361816406,1.000272874804679,1.000272874804679,5948,-559.5504898673205,0.49999999999999994
78,1.0492889881134033,-531.3349607973095,3.0245915910690777,-528.4855729683148,-536.3116830365284,0.375,0.14147020444388755,0.1,0.0022568702697753906,0.042769670486450195,0.05091151,0.8729194,-536.6634070142595,-0.08480075099505681,-0.150337804494398,0.375,0.059985959205424884,76,0.003186464309692383,1.0002729163061332,1.0002729163061332,6024,-556.6884266357989,0.49999999999999994
79,1.0783441066741943,-537.9845306084576,5.476165988949137,-529.8954445134899,-544.1674503515599,0.375,0.15943769016905968,0.1,0.0022008419036865234,0.04230928421020508,0.050246697,0.7262679,-536.7955193736793,-0.10060194822968002,-0.18190751940347966,0.375,0.061530616828342814,84,0.0025742053985595703,1.0002742370713997,1.0002742370713997,6108,-552.6105035332389,0.49999999999999994
80,1.0653421878814697,-526.6100343272939,19.77684192473099,-493.65462692518196,-542.8525983549652,0.375,0.1503117909820998,0.1,0.0021538734436035156,0.25122690200805664,0.050261427,0.69576234,-535.7769708690407,-0.08767844068805225,-0.12569998067667798,0.375,0.06208858229024729,79,0.0026044845581054688,1.0002761327102565,1.0002761327102565,6187,-558.6224123116128,0.49999999999999994
81,1.046224594116211,-540.8788110461253,6.483406287168704,-530.6283994068701,-547.3489919331736,0.375,0.1487071320584367,0.1,0.0021898746490478516,0.044045209884643555,0.050731014,0.72337407,-536.2871548867492,-0.11711781217925098,-0.19396338888688905,0.375,0.0627500426908054,82,0.002608776092529297,1.000273838155125,1.000273838155125,6269,-564.8729975091227,0.49999999999999994
82,1.042590618133545,-536.0089282204985,7.40073048113557,-527.4566579097733,-546.8156750869467,0.25,0.14695443896448987,0.1,0.002103567123413086,0.059311866760253906,0.050847888,0.86764336,-536.2593322201242,-0.08367255606008533,-0.1739432961808002,0.25,0.060146845221929174,75,0.002409219741821289,1.000274345528787,1.000274345528787,6344,-562.4742191461379,0.49999999999999994
83,1.0684280395507812,-531.5000941807962,9.02243068820258,-516.194636062054,-539.5732720147269,0.5,0.14273064200144991,0.1,0.002115488052368164,0.04377412796020508,0.050431885,0.9264002,-535.7834084161914,-0.10081911550855822,-0.15107653954663242,0.5,0.06094025090114235,72,0.0024695396423339844,1.0002697670148957,1.0002697670148957,6416,-563.5325397906646,0.49999999999999994
84,1.0664551258087158,-535.2267006619628,7.389278767436488,-524.1140021114059,-543.4804447099816,0.375,0.15348063847684965,0.1,0.0021567344665527344,0.04431653022766113,0.049472515,1.9496344,-535.7277376407685,-0.0856247371290485,-0.16949453481103152,0.375,0.060277162878848434,87,0.002602815628051758,1.0002764690286203,1.0002764690286203,6503,-566.6602818295906,0.49999999999999994
85,1.0785038471221924,-535.5943863780034,4.092747846236692,-532.8635790346477,-542.6651087587794,0.5,0.14988127275950527,0.1,0.00229644775390625,0.0443267822265625,0.04976251,0.8233823,-535.714402514492,-0.11798370754813875,-0.16830731834516216,0.5,0.05997937545285013,75,0.0025815963745117188,1.0002740720169683,1.0002740720169683,6578,-579.1006588969747,0.49999999999999994
86,1.0733668804168701,-541.9183817275957,5.42322381690596,-534.852184408101,-547.6179456851571,0.25,0.15213703277206772,0.1,0.0021092891693115234,0.04095792770385742,0.0500993,0.9767383,-536.3348004358024,-0.11081174105946641,-0.2023873507525765,0.25,0.05974070828725148,70,0.0027666091918945312,1.0002711292481896,1.0002711292481896,6648,-571.5992681864047,0.49999999999999994
87,1.1025850772857666,-531.8416055076482,11.565709083507894,-515.8016121527778,-548.303295054968,0.5,0.17567487873888596,0.1,0.002199411392211914,0.04309558868408203,0.05049975,0.6510673,-535.885480942987,-0.0961984605801429,-0.15127695695350693,0.5,0.062006982204715635,85,0.0023789405822753906,1.000276059585195,1.000276059585195,6733,-568.1551774031174,0.49999999999999994
88,1.111833095550537,-540.8791208062202,2.3769268530701284,-537.9650316335114,-544.0126708294769,0.5,0.14480429032726355,0.1,0.002217531204223633,0.044588327407836914,0.049579706,0.8109678,-536.3848449293104,-0.08314246220524556,-0.19671408535468085,0.5,0.06334145266355883,95,0.0026900768280029297,1.0002744899756413,1.0002744899756413,6828,-570.1892198768375,0.49999999999999994
89,1.0904245376586914,-537.1935050959667,5.145050382379135,-530.2456853540646,-544.5642604272856,0.5,0.1543393051687995,0.1,0.0022301673889160156,0.042939186096191406,0.050212525,0.8109443,-536.4657109459761,-0.10699702832882593,-0.17815372973469779,0.5,0.061033027219817355,84,0.002251863479614258,1.000272947108657,1.000272947108657,6912,-565.9070301912793,0.49999999999999994
90,1.2407667636871338,-541.9628004442616,0.7221243676588527,-540.838840193937,-542.8428678232926,0.125,0.14087147182817208,0.1,0.0021724700927734375,0.0631103515625,0.04802558,0.88140345,-537.0154198958046,-0.1155912911397933,-0.19998344908536292,0.125,0.06089380673661329,73,0.002236604690551758,1.0002746708873833,1.0002746708873833,6985,-562.548093476637,0.49999999999999994
91,1.0067787170410156,-535.3181010804217,5.435262457891957,-528.2343329262756,-543.3425091789122,0.375,0.13823567875974474,0.1,0.0023059844970703125,0.044882774353027344,0.049837217,0.8963726,-536.8456880142663,-0.10901938185817342,-0.16767362177153708,0.375,0.060192742499941956,69,0.002491474151611328,1.0002706238879244,1.0002706238879244,7054,-560.6425986251645,0.49999999999999994
92,1.0604097843170166,-534.5038830189551,9.18154149256099,-521.2387759714578,-544.9681360389193,0.5,0.1658807682637362,0.1,0.002425670623779297,0.04417920112609863,0.049787417,0.6583471,-536.6115075147352,-0.0817599912635324,-0.16565186735364046,0.5,0.05966813787939333,88,0.0026543140411376953,1.0002732186039525,1.0002732186039525,7142,-560.7759675529114,0.49999999999999994
93,1.0320096015930176,-537.8164442187281,5.415371800170035,-533.984261386291,-547.1075855718803,0.375,0.15114936140200805,0.1,0.0022013187408447266,0.04392242431640625,0.050688326,0.7711133,-536.7320011851345,-0.0744581278189984,-0.1831465331181903,0.375,0.05968218151927921,79,0.0027010440826416016,1.0002733167905649,1.0002733167905649,7221,-558.394141644444,0.49999999999999994
94,1.0245423316955566,-544.7863065907148,3.231982412504865,-540.1836702368521,-549.3245631095375,0.125,0.1551086489872555,0.1,0.0022330284118652344,0.04886293411254883,0.04968049,0.89823693,-537.5374317256926,-0.10034005706750836,-0.21441541528669505,0.125,0.059992335080312945,82,0.0027933120727539062,1.000273880440752,1.000273880440752,7303,-560.0688261492427,0.0
95,1.0413274765014648,-538.6442076802313,2.864723093417466,-534.4169631163364,-541.4295943289007,0.375,0.15606632987269142,0.1,0.0021941661834716797,0.04333949089050293,0.050372582,1.0043962,-537.6481093211464,-0.11403950886909547,-0.18196907931558823,0.375,0.06130517276176661,81,0.0029802322387695312,1.0002734735546173,1.0002734735546173,7384,-556.8751363831079,0.49999999999999994
96,1.0510506629943848,-532.7323522577838,2.921039212988555,-530.3512184962912,-537.5636710168363,0.5,0.1538737531483803,0.1,0.0022869110107421875,0.04446744918823242,0.050003145,0.7735619,-537.1565336148102,-0.09340949312292662,-0.15561845873332658,0.5,0.058647839213637795,79,0.0026476383209228516,1.000274276443102,1.000274276443102,7463,-560.2499893081216,0.49999999999999994
97,1.088932752609253,-545.3531533241489,8.986200292378284,-533.7661934549892,-556.4912613235962,0.125,0.15467755590681492,0.1,0.12979912757873535,0.3037862777709961,0.050265778,0.73613393,-537.9761955857441,-0.10524393291175807,-0.218440092778438,0.125,0.06026819883248915,81,0.002778768539428711,1.0002724849256799,1.0002724849256799,7544,-558.0038330410853,0.49999999999999994
98,1.0505597591400146,-542.8482138383661,5.7179413080691415,-535.3057574264961,-549.0306407118402,0.25,0.13459617336254934,0.1,0.0020444393157958984,0.042176246643066406,0.048950728,1.1282382,-538.4633974110063,-0.1329472384821186,-0.20414492688963987,0.25,0.060136323808112624,72,0.0026578903198242188,1.0002729962615746,1.0002729962615746,7616,-568.2732331893831,0.0
99,1.0783946514129639,-539.5168873069368,7.492245559879955,-529.0378482970398,-550.1945335421701,0.25,0.15149925738788375,0.1,0.0018839836120605469,0.0438532829284668,0.04994763,0.8581313,-538.5687464005994,-0.09056467268348115,-0.18950087535997326,0.25,0.061802118866360715,77,0.0037012100219726562,1.000274855940392,1.000274855940392,7693,-567.3256769859998,0.0
100,1.074216604232788,-532.7477753092551,7.74823571458246,-522.562682882272,-543.9942862082419,0.375,0.1419615483288327,0.1,0.002162456512451172,0.059355735778808594,0.0486735,1.1730652,-537.9866492914649,-0.10234407667278858,-0.15451775518268915,0.375,0.060374546741415916,76,0.002366781234741211,1.0002743320292509,1.0002743320292509,7769,-558.0546128375084,0.49999999999999994
101,1.07658052444458,-534.3507577841035,4.8355224121470055,-529.1998910734633,-540.9336983435345,0.5,0.16894514030759003,0.1,0.002192974090576172,0.04295706748962402,0.050401546,0.6432471,-537.6230601407287,-0.11499294724500174,-0.16421061772520198,0.5,0.06064454026746598,74,0.002680063247680664,1.0002719897839363,1.0002719897839363,7843,-563.799281603909,0.0
102,1.0935885906219482,-539.3846707999529,8.72776142020215,-528.1391126547813,-551.7692281749095,0.5,0.16093797411980504,0.1,0.002143383026123047,0.04344654083251953,0.049927562,0.7814677,-537.7992212066512,-0.11117164564989261,-0.1871405140718098,0.5,0.05916668399949143,83,0.0024399757385253906,1.000272129985248,1.000272129985248,7926,-565.7340441208578,0.0
103,1.087256669998169,-546.957634894032,4.5505162387893705,-541.0024339343623,-553.6874854649379,0.125,0.15492709387213233,0.1,0.11449098587036133,0.061850786209106445,0.051091343,0.84603965,-538.7150625753893,-0.09931594171081538,-0.22715386146803204,0.125,0.06154110712610654,84,0.003191232681274414,1.0002728972475228,1.0002728972475228,8010,-563.1935162430424,0.0
104,1.091590166091919,-535.7481338829397,13.034449030044547,-515.5391880311064,-551.3574095233378,0.375,0.1549409974552077,0.1,0.0021147727966308594,0.04354095458984375,0.049649563,0.8021948,-538.4183697061444,-0.10105814375738878,-0.17093587748419056,0.375,0.06092011124480278,79,0.002444744110107422,1.0002728447463722,1.0002728447463722,8089,-558.3468490430015,0.0
105,1.0990831851959229,-531.679259817892,6.350352844284154,-523.3739373035444,-539.8522931266236,0.5,0.14710443726134861,0.1,0.002079010009765625,0.04771065711975098,0.05062639,1.0461531,-537.7444587173192,-0.08753431289614731,-0.15190899166898914,0.5,0.06085971834611094,76,0.0024878978729248047,1.0002735473870306,1.0002735473870306,8165,-561.055382786957,0.0
106,1.104372262954712,-541.1129937739277,4.744746899373702,-534.7931201150901,-546.9274132728603,0.25,0.1600106993152982,0.1,0.010619878768920898,0.052377939224243164,0.049732454,1.6084453,-538.08131222298,-0.10248687832561365,-0.1951568783376543,0.25,0.06169540724878535,82,0.002631664276123047,1.0002730062722147,1.0002730062722147,8247,-566.8006579217521,0.0
107,1.1598176956176758,-541.6021298422851,9.56704181230552,-531.4027874655269,-551.1714813639308,0.25,0.15795449517765556,0.1,0.0021924972534179688,0.042934417724609375,0.050389104,0.6362879,-538.4333939849105,-0.10159019662688844,-0.19775717595617304,0.25,0.0632580515285734,85,0.002501964569091797,1.0002737145502367,1.0002737145502367,8332,-563.1789026990791,0.0
108,1.0386667251586914,-545.252282769828,7.851905614548007,-533.6134388701079,-555.042551004263,0.25,0.16019065272623567,0.1,0.0023202896118164062,0.04487752914428711,0.050711952,0.6603157,-539.1152828634023,-0.1134669309176273,-0.2154439161661939,0.25,0.06155206984195047,86,0.002424001693725586,1.0002716903291515,1.0002716903291515,8418,-567.0635407512068,0.0
109,1.051476001739502,-544.9288426220774,10.879336328101349,-530.4093061065482,-559.2591584874169,0.375,0.1516815336034511,0.1,0.002347707748413086,0.04475092887878418,0.049957056,1.052944,-539.6966388392698,-0.11282048320789234,-0.2147875902571833,0.375,0.06121681400948435,84,0.002651691436767578,1.0002725903226781,1.0002725903226781,8502,-558.6136709339321,0.0
110,1.0373263359069824,-529.6379066964081,6.604726222264009,-519.7261964931444,-537.8919067771828,0.5,0.1480919746200945,0.1,0.002230405807495117,0.044010162353515625,0.050724063,0.8265543,-538.6907656249837,-0.09226009673048856,-0.1399192427378384,0.5,0.06082074258546216,78,0.0027701854705810547,1.0002719873270538,1.0002719873270538,8580,-563.7433101395269,0.0
111,1.0023136138916016,-536.1924690032472,6.039036926597728,-528.0316382454439,-545.0786551217703,0.375,0.1497020108884232,0.1,0.0021975040435791016,0.04571986198425293,0.04989558,0.79927784,-538.44093596281,-0.0950624221289993,-0.1717679311611096,0.375,0.05993567101288402,80,0.002640247344970703,1.0002741606349286,1.0002741606349286,8660,-555.2223833381245,0.49999999999999994
112,1.061502456665039,-536.2041784332114,8.43781253972124,-526.0136934611841,-547.1721288497429,0.5,0.13724782652430761,0.1,0.0021605491638183594,0.0489954948425293,0.05009184,1.179823,-538.2172602098502,-0.10194016246031418,-0.17362329109514094,0.5,0.06041726423712858,79,0.002962350845336914,1.0002748249444324,1.0002748249444324,8739,-558.7169544779246,0.49999999999999994
113,1.0803062915802002,-541.3049012328624,17.019420952554057,-518.4257866873775,-565.8704579239585,0.375,0.17378139589938238,0.1,0.002279996871948242,0.044937849044799805,0.04954587,0.6304676,-538.5260243121514,-0.08050020249639941,-0.1983311252028867,0.375,0.06137508915245035,96,0.0030601024627685547,1.0002725066179867,1.0002725066179867,8835,-557.407766530819,0.49999999999999994
114,1.0511679649353027,-537.145261598178,5.905930493631224,-527.4631254633216,-542.3918145175014,0.375,0.15036953090342264,0.1,0.0021474361419677734,0.04229259490966797,0.04916163,0.81097835,-538.387948040754,-0.09940940391113766,-0.17710537146748553,0.375,0.06147490974749739,78,0.0025262832641601562,1.0002748922793763,1.0002748922793763,8913,-554.5680894425142,0.49999999999999994
115,1.0281574726104736,-538.9631328896049,4.402041816354297,-533.5640873858439,-543.5881177647801,0.375,0.13717008554845506,0.1,0.0021381378173828125,0.04354214668273926,0.049975675,0.9028881,-538.4454665256392,-0.09938588883074659,-0.1872511041085797,0.375,0.06256681104131996,80,0.002593517303466797,1.000275789123055,1.000275789123055,8993,-551.6255449936607,0.49999999999999994
116,1.0617966651916504,-541.6270047096823,13.549163838359526,-522.4193688886344,-559.5332465048458,0.25,0.14660108877749484,0.1,0.002141237258911133,0.0442960262298584,0.050450172,0.77865285,-538.7636203440435,-0.0884389549913894,-0.20005148114729787,0.25,0.06090773534716994,85,0.0025773048400878906,1.0002747577075395,1.0002747577075395,9078,-556.2318222328275,0.49999999999999994
117,1.076855182647705,-535.3802937378109,3.7640401587610812,-529.4233972074717,-538.685921410457,0.5,0.151960941787165,0.1,0.0021469593048095703,0.04552102088928223,0.0509116,0.7610233,-538.4252876834203,-0.09207754930487172,-0.16832047842759817,0.5,0.06003699173223266,85,0.003265857696533203,1.0002736363229041,1.0002736363229041,9163,-555.8629362599391,0.49999999999999994
118,1.0585298538208008,-543.5936746899729,4.239692256404192,-537.4128651218329,-549.1694711254954,0.375,0.1613810012951044,0.1,0.002175569534301758,0.048861026763916016,0.049282152,0.705093,-538.9421263840756,-0.10070792469066932,-0.20810993583653772,0.375,0.06154401581491903,91,0.003329753875732422,1.0002710337788523,1.0002710337788523,9254,-558.1676856772424,0.49999999999999994
119,1.0618700981140137,-539.2717113360222,7.2587905932361325,-527.0237851990386,-544.7199995583421,0.25,0.1529059373101629,0.1,0.002248048782348633,0.05767011642456055,0.049032956,0.73277956,-538.9750848792702,-0.0941968556330362,-0.1876568456209491,0.25,0.06117841226930083,82,0.0027108192443847656,1.0002739686894055,1.0002739686894055,9336,-554.9545149944802,0.49999999999999994
120,1.0620431900024414,-537.2671780163748,13.2746052751526,-519.2680785877302,-556.7530578300547,0.375,0.13944535563984517,0.1,0.0022356510162353516,0.09574317932128906,0.04930904,0.9332503,-538.8042941929807,-0.11961721699437905,-0.17696293142744118,0.375,0.060047560463852984,79,0.0027284622192382812,1.0002743393514304,1.0002743393514304,9415,-565.7977539111952,0.0
121,1.090454339981079,-536.9850767186634,3.645298902502798,-531.0435789920784,-540.4261187414008,0.125,0.15313016042012428,0.1,0.002102375030517578,0.043950557708740234,0.049891427,0.9521534,-538.622372445549,-0.08386587353398335,-0.1789699416501282,0.125,0.0605039409740594,74,0.0026628971099853516,1.000275201333818,1.000275201333818,9489,-562.1834198554358,0.0
122,1.103384256362915,-539.9218260306582,7.06104651587971,-527.7280599492818,-544.4685451742887,0.375,0.15753439738986455,0.1,0.002195119857788086,0.0440068244934082,0.050359294,0.74337673,-538.7523178040599,-0.08196162350342187,-0.19192296677684817,0.375,0.06016215143931439,89,0.0025751590728759766,1.000274246644743,1.000274246644743,9578,-563.8810282362006,0.0
123,1.1143593788146973,-541.9618104925397,4.322203549812955,-537.0910335012827,-548.939958022646,0.25,0.1477787111179414,0.1,0.0021114349365234375,0.04353904724121094,0.049931277,0.80078423,-539.0732670729079,-0.11633220426946614,-0.2015378014235747,0.25,0.0607656489427133,77,0.0025556087493896484,1.0002736217351043,1.0002736217351043,9655,-562.6496628481055,0.0
124,1.1060521602630615,-537.7498703583858,6.080458797038843,-529.7983629000747,-546.2842609392047,0.5,0.15256778819381098,0.1,0.0021271705627441406,0.04299211502075195,0.051685438,0.7139319,-538.9409274014557,-0.10910999891431677,-0.18041654558327444,0.5,0.061077196025580927,82,0.0023474693298339844,1.0002740064441076,1.0002740064441076,9737,-577.2186119990909,0.49999999999999994
125,1.0801281929016113,-539.2391667774766,3.803037466775047,-534.9212799359061,-545.3454287499032,0.125,0.13396136967087582,0.1,0.0019974708557128906,0.04042315483093262,0.04934467,0.9590668,-538.9707513390579,-0.11268704019368968,-0.18801852568191343,0.125,0.060516612970791646,65,0.0020961761474609375,1.0002718315770052,1.0002718315770052,9802,-569.4333916891047,0.49999999999999994
126,1.1202690601348877,-539.5876859027778,11.69064986940231,-520.7618251200495,-552.3667238256173,0.5,0.1505822759491286,0.1,0.002269268035888672,0.04328632354736328,0.049259905,0.73333377,-539.0324447954299,-0.10868913125199381,-0.18901818969837944,0.5,0.061684216295081015,90,0.02062702178955078,1.0002749988043524,1.0002749988043524,9892,-561.3404665852873,0.49999999999999994
127,1.0804007053375244,-537.1126294683835,14.513852958510046,-512.494833719968,-550.0449977100926,0.125,0.14380413451348206,0.1,0.0021162033081054688,0.04274892807006836,0.05038415,0.7190259,-538.8404632627253,-0.1069819402672296,-0.17630091785530969,0.125,0.05926075474565169,76,0.002086162567138672,1.0002754963716864,1.0002754963716864,9968,-566.1830489585617,0.49999999999999994
128,1.0952887535095215,-532.094383902833,15.33509090000765,-512.2153646853618,-548.1382054907829,0.375,0.1456858833612653,0.1,0.0020952224731445312,0.04947710037231445,0.04959737,0.83812326,-538.165855326736,-0.11006421792746154,-0.15032968140292907,0.375,0.060752681192476274,79,0.0022597312927246094,1.0002743707749786,1.0002743707749786,10047,-569.0529385572082,0.49999999999999994
129,1.0107755661010742,-540.3974573682182,6.046082306849945,-534.4040162223582,-550.4778940158429,0.5,0.15177220611075642,0.1,0.002508401870727539,0.044568538665771484,0.04895548,0.90934646,-538.3890155308843,-0.12433881434441758,-0.1915519731957234,0.5,0.06170457404702569,78,0.002739429473876953,1.000271794194677,1.000271794194677,10125,-567.9417763820271,0.49999999999999994
130,1.0222492218017578,-533.4780969925084,10.519045643159771,-516.349776334511,-542.2143629592496,0.375,0.15466798371437757,0.1,0.0022907257080078125,0.04394102096557617,0.050036956,0.8374495,-537.8979236770467,-0.09513151073275156,-0.15979017847887458,0.375,0.059810046624227634,79,0.0025899410247802734,1.0002724913941918,1.0002724913941918,10204,-577.5384387376038,0.49999999999999994
131,1.066704273223877,-539.4698599098599,0.6900712199526831,-538.758956775385,-540.3221644352737,0.5,0.1601519397875318,0.1,0.08468747138977051,1.1749036312103271,0.050398275,0.8383672,-538.0551173003281,-0.11185726816761263,-0.18917733503416972,0.5,0.06151175531140547,77,0.003491640090942383,1.0002735970097045,1.0002735970097045,10281,-570.4351747760076,0.49999999999999994
132,1.0616786479949951,-539.7498309653677,5.081720199497221,-532.4632574166184,-545.2462417464608,0.375,0.15993999958765964,0.1,0.0020246505737304688,0.04407072067260742,0.0498625,0.69016474,-538.2245886668321,-0.0889630174361417,-0.19057028306120122,0.375,0.062127317200717985,91,0.0029022693634033203,1.0002727180814617,1.0002727180814617,10372,-570.5879813865855,0.49999999999999994
133,1.0349838733673096,-534.323062948338,4.1546096727176804,-529.8304967726496,-539.5273317464165,0.5,0.1535038398160306,0.1,0.0022306442260742188,0.060622215270996094,0.049817767,0.67393273,-537.8344360949827,-0.11981401989727461,-0.16269084021229513,0.5,0.05842303654990406,72,0.0025756359100341797,1.0002697282415691,1.0002697282415691,10444,-572.3579307505574,0.49999999999999994
134,1.046954870223999,-539.0231234682133,4.761179690674494,-535.4600166773802,-547.123216197097,0.5,0.15588905369213812,0.1,0.0023107528686523438,0.044249773025512695,0.049589284,0.7938033,-537.9533048323058,-0.08579542788341177,-0.18641852652750163,0.5,0.06290379214096126,87,0.002682209014892578,1.0002748297334363,1.0002748297334363,10531,-574.5421909573358,0.49999999999999994
135,1.073960542678833,-536.8273992396234,5.0487787412946314,-530.0560047220446,-543.520287430557,0.5,0.1566409864498521,0.1,0.0021805763244628906,0.0430295467376709,0.05035328,0.8113346,-537.8407142730375,-0.09308230285357962,-0.17635369785292898,0.5,0.06050871879654774,84,0.02013230323791504,1.0002729273858275,1.0002729273858275,10615,-567.279401042025,0.49999999999999994
136,1.0809390544891357,-542.7714143444165,5.079450400995203,-535.5864469328866,-549.811413771836,0.0,0.15708623934891364,0.1,0.002201080322265625,0.05008530616760254,0.050663102,0.8017234,-538.3337842801755,-0.09150113735712123,-0.2067809470048026,0.0,0.06209144989249819,77,0.0029256343841552734,1.0002748014646374,1.0002748014646374,10692,-570.9806068758679,0.49999999999999994
137,1.1047849655151367,-536.519555827686,3.0014157169466182,-532.2482926701828,-540.7357795563424,0.375,0.15127694517264687,0.1,0.002355813980102539,0.043292999267578125,0.050993606,0.7475995,-538.1523614349265,-0.08944172210722237,-0.17452339339920764,0.375,0.06173249553722407,82,0.0026755332946777344,1.0002753695812583,1.0002753695812583,10774,-567.7536120044387,0.49999999999999994
138,1.1007826328277588,-536.9922141826512,7.224263245019509,-528.5297967318272,-548.3745372777989,0.5,0.15847882246271627,0.1,0.0021097660064697266,0.042212724685668945,0.049719024,0.7700645,-538.036346709699,-0.0839410372038916,-0.17639245409162596,0.5,0.06117702958345331,91,0.002377748489379883,1.0002729204331129,1.0002729204331129,10865,-569.1496831558014,0.49999999999999994
139,1.0921108722686768,-535.6931172323584,7.137358824007115,-527.8130414685903,-544.4750356461026,0.375,0.14855098686069196,0.1,0.12101459503173828,0.2451317310333252,0.05077079,0.9061908,-537.8020237619651,-0.09736266895955772,-0.16905610321839518,0.375,0.0601397092888074,78,0.003351449966430664,1.0002739024817355,1.0002739024817355,10943,-563.5867787459118,0.49999999999999994
140,1.1211919784545898,-541.0915234292795,0.3590918264045378,-540.5488829716219,-541.5581683508032,0.125,0.14409122048272063,0.1,0.0021615028381347656,0.04396200180053711,0.049569514,1.1312122,-538.1309737286965,-0.08870188428317866,-0.198406253735044,0.125,0.06041470509308304,82,0.002726316452026367,1.0002726011695322,1.0002726011695322,11025,-569.301059951078,0.49999999999999994
141,1.112736701965332,-538.2738945653518,5.617456835947603,-529.3830396278032,-544.9574969372297,0.5,0.15905058813464998,0.1,0.0022859573364257812,0.04345369338989258,0.050084397,0.82716334,-538.145265812362,-0.0867365553440439,-0.1841544981906219,0.5,0.0602639022512912,88,0.0027418136596679688,1.0002758573128043,1.0002758573128043,11113,-567.9201265379567,0.49999999999999994
142,1.0826818943023682,-537.3173560571472,2.9568785185311883,-534.1824319474902,-541.1795708011019,0.25,0.15288583456201496,0.1,0.0019981861114501953,0.046764373779296875,0.049882744,0.9191717,-538.0624748368406,-0.1002681881712062,-0.17796047198262238,0.25,0.05978464184692214,73,0.0024073123931884766,1.0002724491133301,1.0002724491133301,11186,-561.683932614817,0.49999999999999994
143,1.101572036743164,-536.1972345078185,4.234562964446771,-529.6870137437254,-541.2099796511554,0.5,0.15233055593488956,0.1,0.0020287036895751953,0.04202127456665039,0.048906505,0.8921043,-537.8759508039384,-0.10932191439529519,-0.17251780001700895,0.5,0.06266990156302826,79,0.002206087112426758,1.000274867443455,1.000274867443455,11265,-565.5742764179455,0.49999999999999994
144,1.1024017333984375,-538.3964693919784,4.758188284084554,-532.7244895879168,-545.8359155148282,0.375,0.15095033504310323,0.1,0.002124786376953125,0.043099164962768555,0.049766194,0.81716126,-537.9280026627424,-0.10268990767674904,-0.18343988731821,0.375,0.06242118352778257,81,0.002399921417236328,1.0002730847728407,1.0002730847728407,11346,-569.6165532766436,0.49999999999999994
145,1.1136505603790283,-536.4330489138683,6.075140366025772,-527.5226797583842,-542.8228651608496,0.375,0.1452809683661444,0.1,0.002239704132080078,0.04653573036193848,0.049279045,0.9458032,-537.7785072878551,-0.10761231815561978,-0.17430885990662176,0.375,0.059257891236148004,71,0.002469301223754883,1.0002700605639177,1.0002700605639177,11417,-571.6070889844503,0.49999999999999994
146,1.095517635345459,-546.2812855531928,8.388012566281946,-538.3824846642881,-559.9917774564436,0.25,0.15394721345782417,0.1,0.0021715164184570312,0.043100833892822266,0.050322566,1.368083,-538.6287851143888,-0.11227857667002632,-0.22065335154255022,0.25,0.06192305358123698,86,0.002603769302368164,1.0002726821873127,1.0002726821873127,11503,-582.345415031403,0.49999999999999994
147,1.059265375137329,-533.6511478626142,4.802478860449453,-528.7851508966706,-541.6121744083079,0.5,0.1457267273424784,0.1,0.002329587936401367,0.04843711853027344,0.050294068,0.8057007,-538.1310213892114,-0.10098889661159999,-0.1601103375831708,0.5,0.06218631140808286,75,0.0025801658630371094,1.000271676565748,1.000271676565748,11578,-579.4442339515364,0.49999999999999994
148,1.0636165142059326,-548.5760480280952,7.428973631292252,-536.3878777148101,-556.3716543282693,0.375,0.16367577809185052,0.1,0.0022687911987304688,0.04942512512207031,0.04975691,0.7335084,-539.1755240530997,-0.12700956710012623,-0.23095409287092467,0.375,0.062132458369015514,91,0.002605915069580078,1.0002731414345107,1.0002731414345107,11669,-565.5860788730298,0.49999999999999994
149,1.0726087093353271,-539.9673662569992,6.2050413505597355,-533.3164399520009,-548.5044507830004,0.375,0.1695395491534829,0.1,0.0022351741790771484,0.04386305809020996,0.05088537,0.6989368,-539.2547082734897,-0.08782125240230812,-0.19171616307522898,0.375,0.06178900025054864,92,0.002499103546142578,1.0002753216412505,1.0002753216412505,11761,-585.3991405156113,0.49999999999999994
150,1.0533387660980225,-528.008572760714,6.461402744018135,-519.8329267422048,-537.0103838280274,0.375,0.15142005573276845,0.1,0.002145051956176758,0.04314827919006348,0.0506955,0.8059536,-538.1300947222121,-0.07915981128305735,-0.1352057054241948,0.375,0.0611898168936098,73,0.002466917037963867,1.00027224301016,1.00027224301016,11834,-558.6967713762102,0.49999999999999994
151,1.0771958827972412,-544.6971370046522,5.550969697278017,-538.5134826278348,-552.76469814229,0.25,0.1504694100764682,0.1,0.0021936893463134766,0.05761122703552246,0.049751066,0.9776108,-538.7867989504562,-0.1153417146115293,-0.21311864295013386,0.25,0.061364676716944,82,0.003426790237426758,1.0002728282673634,1.0002728282673634,11916,-554.0592985150611,0.49999999999999994
152,1.0998549461364746,-538.6916443244243,5.77919468502573,-530.3797012846667,-546.3487502685584,0.25,0.1556942546160395,0.1,0.0021469593048095703,0.053383588790893555,0.04943621,0.8322785,-538.777283487853,-0.10021943389337057,-0.1840714968116461,0.25,0.06255047478529784,81,0.002779722213745117,1.00027432166656,1.00027432166656,11997,-564.7175604140747,0.49999999999999994
153,1.1171674728393555,-541.6211816849693,7.721395158507619,-530.0109795420653,-551.1712990447327,0.125,0.16499755975846897,0.1,0.0022134780883789062,0.04467010498046875,0.05081812,0.8414099,-539.0616733075647,-0.0977882702373645,-0.2018907965101702,0.125,0.062422846521021785,79,0.0024826526641845703,1.0002721212032766,1.0002721212032766,12076,-588.7391023591116,0.49999999999999994
154,1.109933614730835,-535.2267467527254,3.7575521489678123,-532.3003594320238,-541.677537420977,0.5,0.14549039289637264,0.1,0.0028791427612304688,0.04437398910522461,0.05008559,0.7575161,-538.6781806520808,-0.10363138995374303,-0.16850170969496364,0.5,0.06120684273094616,71,0.0026149749755859375,1.0002728083938244,1.0002728083938244,12147,-554.5710480830372,0.49999999999999994
155,1.1036407947540283,-538.6680167299834,3.8337595653673846,-532.6622538959112,-542.6004951887521,0.375,0.15295042332234926,0.1,0.09161543846130371,0.038077354431152344,0.050194707,0.80428874,-538.677164259871,-0.08883624081409802,-0.18424636856852245,0.375,0.06210277193861421,79,0.0023767948150634766,1.0002734533394595,1.0002734533394595,12226,-557.32149053724,0.49999999999999994
156,1.0893232822418213,-542.8739411072228,6.933120598844545,-533.9397478080456,-553.0863769746248,0.375,0.1514830192503418,0.1,0.12222957611083984,0.0441126823425293,0.050018147,0.84053963,-539.0968419446061,-0.10825256842707415,-0.20660085665803432,0.375,0.0625384540116178,85,0.0034868717193603516,1.0002754063297086,1.0002754063297086,12311,-581.7643082840216,0.49999999999999994
157,1.115314245223999,-537.1055435744822,5.518953532145201,-528.2872567377068,-543.3805719818091,0.5,0.15434881646266402,0.1,0.0021774768829345703,0.0482637882232666,0.049728274,0.8208934,-538.8977121075937,-0.09392667746833896,-0.17498671013309747,0.5,0.061886390282543044,91,0.0033104419708251953,1.0002746590027163,1.0002746590027163,12402,-577.8729017499803,0.49999999999999994
158,1.1322910785675049,-536.2373061512403,2.3361706001168527,-532.36587843904,-538.4987027542677,0.5,0.16359904031814673,0.1,0.0024840831756591797,0.046025991439819336,0.049429823,0.9435084,-538.6316715119584,-0.09041295553374791,-0.17156111772334623,0.5,0.06239316144527462,96,0.0027065277099609375,1.0002756518160105,1.0002756518160105,12498,-571.9585638976924,0.49999999999999994
159,1.1086552143096924,-540.4562995331246,5.7135854856356945,-533.5879698808787,-548.5391212203779,0.375,0.16875467339065803,0.1,0.10053801536560059,0.06233096122741699,0.05142669,0.7378899,-538.814134314075,-0.10204865713653563,-0.19243380742717625,0.375,0.06284777254382863,87,0.002787351608276367,1.0002746341854853,1.0002746341854853,12585,-576.3237440642716,0.49999999999999994
160,1.0990517139434814,-535.8519861103358,8.054125218320094,-528.589909544028,-548.4936974359031,0.375,0.1528059536374832,0.1,0.0021708011627197266,0.04195570945739746,0.050200865,0.90899897,-538.517919493701,-0.11646254130270087,-0.17211464064240484,0.375,0.062225351279446034,71,0.002294301986694336,1.0002713376914207,1.0002713376914207,12656,-571.1415088044215,0.49999999999999994
161,1.1169164180755615,-532.2481110206861,10.788313557105626,-520.5467883449998,-547.2963567388693,0.5,0.15956498369570501,0.1,0.002285480499267578,0.04459118843078613,0.05072653,0.72940093,-537.8909386463996,-0.10140168428241124,-0.15190723266461792,0.5,0.06236029770020954,83,0.0025620460510253906,1.000272005863523,1.000272005863523,12739,-564.0131792196569,0.49999999999999994
162,1.0447797775268555,-535.4855982164335,5.9332749704764804,-525.5701591488416,-540.3817429554103,0.25,0.1513107231197534,0.1,0.0021986961364746094,0.044180870056152344,0.050004195,0.7987502,-537.650404603403,-0.10323368160451998,-0.16879427642755737,0.25,0.06303187942996702,76,0.0025424957275390625,1.0002730336422123,1.0002730336422123,12815,-571.4998450553155,0.49999999999999994
163,1.048412561416626,-541.8891530837149,1.0356034934833367,-540.2986281640298,-543.1109983406831,0.375,0.17596516821893,0.1,0.002263307571411133,0.04502534866333008,0.049992926,0.6604865,-538.0742794514342,-0.0902706018151164,-0.20125531187332063,0.375,0.06139350722233379,91,0.002591371536254883,1.0002746717861704,1.0002746717861704,12906,-571.3700545305616,0.49999999999999994
164,1.056018352508545,-533.1837589059318,4.9089975479109595,-524.7022253998555,-536.4107988542319,0.5,0.17161912618743022,0.1,0.0022389888763427734,0.04823613166809082,0.050412998,0.65932053,-537.585227396884,-0.09222386488785765,-0.1579108119300705,0.5,0.061300752735761105,85,0.002708911895751953,1.0002744795715206,1.0002744795715206,12991,-569.9369908950592,0.49999999999999994
165,1.096984624862671,-537.5293661888514,6.30638941134222,-532.4145029702562,-548.3297815243783,0.375,0.14811095747271036,0.1,0.12102246284484863,0.5802567005157471,0.049613655,1.1555066,-537.5796412760808,-0.10734932193039644,-0.17914677385031713,0.375,0.06263652473107366,79,0.002777576446533203,1.0002744417978247,1.0002744417978247,13070,-570.328151829851,0.49999999999999994
166,1.0526862144470215,-530.6748492115694,3.0825334339398047,-525.6047053133211,-533.836527414088,0.5,0.15043463386689543,0.1,0.0021533966064453125,0.0618743896484375,0.049833037,1.1552078,-536.8891620696296,-0.11543278298149966,-0.14409522308645226,0.5,0.06297683352695121,76,0.00260162353515625,1.0002726562946067,1.0002726562946067,13146,-573.9323930291754,0.49999999999999994
167,1.0538835525512695,-534.4308838546274,4.427404415148816,-528.989556167374,-540.8723761984862,0.375,0.15526366379017634,0.1,0.002165555953979492,0.04376673698425293,0.04946117,0.9225243,-536.6433342481293,-0.10329630281748872,-0.1637353247879464,0.375,0.062446973051388036,77,0.002908468246459961,1.0002748976584865,1.0002748976584865,13223,-564.2846666080646,0.49999999999999994
168,1.0945839881896973,-529.6975522307571,3.376347788534968,-524.1711966403848,-533.1129315503409,0.5,0.1443056285237718,0.1,0.0022454261779785156,0.042916059494018555,0.050030258,1.1267484,-535.9487560463922,-0.10655604771935215,-0.14174989412273958,0.5,0.062159253924987945,70,0.002378225326538086,1.0002689679444137,1.0002689679444137,13293,-560.3505089640256,0.49999999999999994
169,1.0795505046844482,-523.7114995540568,5.7750198121838885,-516.8873897776775,-531.6166727377589,0.5,0.1438813230536214,0.1,0.0020775794982910156,0.039313554763793945,0.04892834,1.3215137,-534.7250303971587,-0.09915439195875761,-0.11187107027579316,0.5,0.06292141475928846,72,0.002324819564819336,1.000271300121903,1.000271300121903,13365,-559.7693668120958,0.49999999999999994
170,1.112093448638916,-533.1084998870347,6.140167217362812,-524.1421680305033,-541.1470537953696,0.5,0.16055260560383836,0.1,0.1288435459136963,0.06516885757446289,0.04951408,0.9000909,-534.5633773461464,-0.10560332955078025,-0.15704706271984492,0.5,0.06218290397724573,77,0.003082752227783203,1.0002731594401602,1.0002731594401602,13442,-557.6285921516172,0.49999999999999994
171,1.0818722248077393,-531.24314421385,1.9913991603410215,-528.3007152202979,-533.8459027942449,0.5,0.13809114064434883,0.1,0.11700725555419922,0.14944720268249512,0.050040673,0.91613865,-534.2313540329167,-0.11455030688373391,-0.14669815703407874,0.5,0.061653299441868814,71,0.002543210983276367,1.0002679478825003,1.0002679478825003,13513,-558.849811529563,0.49999999999999994
172,1.115206241607666,-537.3175643985766,7.912567216700009,-528.4571388223317,-549.9763770293322,0.375,0.14591786932282813,0.1,0.12891507148742676,0.28887462615966797,0.04967732,1.3693289,-534.5399750694827,-0.11894098739185212,-0.17626147939205708,0.375,0.06294898576494812,82,0.0023047924041748047,1.0002720781283796,1.0002720781283796,13595,-555.3470303361362,0.49999999999999994
173,1.0476078987121582,-528.2690717025082,5.120109479705676,-519.7517438322061,-533.2295080409575,0.5,0.15265230805606325,0.1,0.0019664764404296875,0.041081905364990234,0.049630344,1.0429075,-533.9128847327852,-0.09949454629929042,-0.13355110227078731,0.5,0.06294693869667256,72,0.002021312713623047,1.0002735318362734,1.0002735318362734,13667,-554.3840695627829,0.49999999999999994
174,1.0504584312438965,-536.8518845068362,4.825598877092481,-531.9255030730496,-542.7532274253621,0.375,0.1627886392957236,0.1,0.0019826889038085938,0.04143953323364258,0.050106265,0.73210216,-534.2067847101903,-0.10439360449520553,-0.1747306027497528,0.375,0.06341042777842262,80,0.002076864242553711,1.0002744218659336,1.0002744218659336,13747,-555.9704325199615,0.49999999999999994
175,0.9498450756072998,-535.1066963884003,8.168029201244142,-524.0906158060013,-546.9458838786754,0.5,0.15841530321268021,0.1,0.001935720443725586,0.04418540000915527,0.0496686,0.6485492,-534.2967758780113,-0.1003255791968291,-0.1662253122207591,0.5,0.062315096176463664,80,0.0025420188903808594,1.0002739258714757,1.0002739258714757,13827,-554.8801820280783,0.49999999999999994
176,0.9451069831848145,-533.1361838982182,4.911972387777821,-527.1793308745429,-540.0281924855643,0.375,0.14811037649379447,0.1,0.0020618438720703125,0.05023908615112305,0.04946391,1.16945,-534.180716680032,-0.10507118557681144,-0.15950154851566167,0.375,0.06423640344930039,77,0.002697467803955078,1.0002751373993837,1.0002751373993837,13904,-569.5635088294069,0.49999999999999994
177,0.9974193572998047,-535.3136543931239,8.7046898947021,-527.7427321373101,-550.1024863995053,0.375,0.14744438787881903,0.1,0.0027627944946289062,0.04553484916687012,0.050085925,0.74812996,-534.2940104513413,-0.1035101416142728,-0.1689996837267973,0.375,0.0637054695167106,79,0.0027141571044921875,1.0002753170111094,1.0002753170111094,13983,-569.4280684432412,0.49999999999999994
178,1.0069761276245117,-536.0047962375697,4.870320776623127,-529.6644372501108,-542.1289378210861,0.5,0.14874830315092252,0.1,0.002203702926635742,0.043565988540649414,0.05018534,0.82385767,-534.4650890299641,-0.09836726700742843,-0.17180155626770632,0.5,0.06439528448632706,80,0.0025501251220703125,1.0002735215307772,1.0002735215307772,14063,-562.4796967058386,0.49999999999999994
179,1.292048692703247,-533.2006083154195,5.913317279761439,-523.8845244292303,-539.6084396946977,0.375,0.1525552501389327,0.1,0.002293825149536133,0.04992938041687012,0.050523844,0.68367594,-534.3386409585097,-0.10543535526814654,-0.15770937232906468,0.375,0.06313612080169925,78,0.0033419132232666016,1.0002729235716967,1.0002729235716967,14141,-564.2201828653713,0.49999999999999994
180,0.9632401466369629,-535.0733512555678,5.820438835200937,-526.6430275411035,-540.6652159184331,0.375,0.15511827653840957,0.1,0.001821756362915039,0.036865949630737305,0.05118701,0.9370843,-534.4121119882155,-0.10488404661121146,-0.16717299107984296,0.375,0.0650982342548615,76,0.0023190975189208984,1.0002753869389922,1.0002753869389922,14217,-559.9455026194663,0.49999999999999994
181,0.9990057945251465,-525.1089537068897,6.13142100344856,-518.8492244454421,-532.6869929074707,0.5,0.15680310913864465,0.1,0.002154827117919922,0.042374372482299805,0.049272966,0.7876506,-533.481796160083,-0.09925557038148676,-0.11765106478183597,0.5,0.06364642526025449,80,0.00235748291015625,1.0002719894586762,1.0002719894586762,14297,-560.4195569927714,0.49999999999999994
182,1.2107524871826172,-533.9811576389387,6.594702972889931,-523.9734707974462,-541.958104761194,0.5,0.14207544700274766,0.1,0.002326488494873047,0.03861832618713379,0.04967189,0.8974129,-533.5317323079686,-0.1341245600646424,-0.15997109545230295,0.5,0.06280250294659145,74,0.002424001693725586,1.0002709468048006,1.0002709468048006,14371,-562.3789313070787,0.49999999999999994
183,1.1160809993743896,-534.945828108785,8.03845241370303,-527.8245036547107,-548.3108909504446,0.375,0.1450920019925652,0.1,0.0022068023681640625,0.043436288833618164,0.0500957,1.6075714,-533.6731418880502,-0.10117116398730862,-0.16727830266684998,0.375,0.06422327558205917,75,0.0029757022857666016,1.0002713504523995,1.0002713504523995,14446,-564.2813921719218,0.49999999999999994
184,1.1221632957458496,-533.9414073149856,8.644410658620275,-521.8373577885837,-543.426753683373,0.25,0.15099123954543642,0.1,0.002152681350708008,0.04364490509033203,0.049099572,0.95201653,-533.6999684307438,-0.08528267583187887,-0.16120186203210723,0.25,0.06490487069451216,80,0.0026242733001708984,1.0002750323646077,1.0002750323646077,14526,-559.3812049575864,0.49999999999999994
185,1.1493260860443115,-541.0583884722497,5.831876270665366,-531.4634804473252,-546.6157333764396,0.25,0.16942515808459216,0.1,0.0021424293518066406,0.04511594772338867,0.05019526,0.610291,-534.4358104348944,-0.09085435049239556,-0.19608807866743455,0.25,0.0643910124038495,84,0.003312349319458008,1.0002739842185473,1.0002739842185473,14610,-558.5181325210273,0.49999999999999994
186,1.0832643508911133,-529.781798034626,5.48893287936449,-520.6487581328176,-534.3406881025356,0.25,0.14128977220471506,0.1,0.0021071434020996094,0.04351997375488281,0.049735334,0.8474259,-533.9704091948676,-0.09565181834443537,-0.14316577957729915,0.25,0.06490970639310165,67,0.002224445343017578,1.0002737483865247,1.0002737483865247,14677,-558.4060084596044,0.49999999999999994
187,1.1462881565093994,-532.6004257042091,2.3446582867116352,-529.3346730780103,-535.2615906705892,0.5,0.15059719192460047,0.1,0.0024378299713134766,0.04263591766357422,0.050915956,0.7004315,-533.8334108458017,-0.09667023908886195,-0.1553485116895643,0.5,0.0647220577551571,82,0.0022606849670410156,1.000273246874707,1.000273246874707,14759,-558.8918208137976,0.49999999999999994
188,1.0509979724884033,-534.8599684400465,8.060010988326255,-525.395891063358,-543.0023160836002,0.5,0.1739656058406243,0.1,0.0023491382598876953,0.04471015930175781,0.049666613,0.6226301,-533.9360666052262,-0.11387283503173437,-0.1647635239952981,0.5,0.06301389652965586,85,0.0025513172149658203,1.0002720939782257,1.0002720939782257,14844,-560.3184970980751,0.49999999999999994
189,1.0492699146270752,-538.1173516337897,3.736674956956614,-533.0628564358308,-542.0427116514813,0.25,0.14627466201068687,0.1,0.0023076534271240234,0.044022321701049805,0.050209697,1.5723237,-534.3541951080825,-0.11467605296532678,-0.17977690330648505,0.25,0.06483995802531844,78,0.0024535655975341797,1.0002752633112242,1.0002752633112242,14922,-559.9558554626554,0.49999999999999994
190,1.054596185684204,-535.0439848748013,1.3136572419887398,-533.8320190171239,-537.1490074685672,0.375,0.14064391001474388,0.1,0.002224445343017578,0.06035113334655762,0.05034585,1.0520085,-534.4231740847545,-0.10056692334560768,-0.16764892259350808,0.375,0.06432677002967221,76,0.0024476051330566406,1.0002742313675044,1.0002742313675044,14998,-560.8513018787086,0.49999999999999994
191,1.0990626811981201,-536.5420295100965,2.7008272819685075,-533.6579906007331,-540.6907575272594,0.5,0.14759327135815212,0.1,0.009877681732177734,0.04725527763366699,0.049721707,0.8957432,-534.6350596272887,-0.12335343144863747,-0.1729938803943077,0.5,0.06417578637033575,82,0.0029251575469970703,1.0002706305870719,1.0002706305870719,15080,-564.3186271511157,0.49999999999999994
192,1.079435110092163,-540.7302208556937,7.689879390351871,-529.8375593966714,-551.5560380236761,0.375,0.1580326796801279,0.1,0.0022809505462646484,0.047363996505737305,0.050316606,0.7727654,-535.2445757501292,-0.10216155727146387,-0.19320004144030656,0.375,0.06398009579240599,93,0.0027670860290527344,1.000274357372813,1.000274357372813,15173,-561.6495114661717,0.49999999999999994
193,1.0741236209869385,-537.1337546787718,2.8775028802282274,-532.4529850343159,-540.2178681559388,0.5,0.16071015426735538,0.1,0.12423110008239746,0.29285287857055664,0.049450543,0.65306246,-535.4334936429935,-0.0953066645261008,-0.17757356914846603,0.5,0.06393512881105726,88,0.08746480941772461,1.000274187735166,1.000274187735166,15261,-559.5469270647068,0.49999999999999994
194,1.0914306640625,-534.6472758415299,5.510106805706246,-526.0849500895057,-540.2129914777463,0.5,0.14380827532839008,0.1,0.002125978469848633,0.04311180114746094,0.05029482,0.7860443,-535.3548718628472,-0.11245604604249872,-0.16433473745357152,0.5,0.06410973398546516,74,0.00243377685546875,1.0002706796997645,1.0002706796997645,15335,-562.6943901891453,0.49999999999999994
195,1.086512804031372,-536.5165157023127,5.320804829046403,-531.0599905658465,-544.7314360916153,0.5,0.16182863193693262,0.1,0.0021991729736328125,0.04342937469482422,0.05032285,1.3531975,-535.4710362467938,-0.10861309836240138,-0.17312816915769091,0.5,0.06415631479086731,83,0.002473115921020508,1.000271922391029,1.000271922391029,15418,-558.8027074954002,0.49999999999999994
196,1.0935261249542236,-534.6922507870204,5.08351231292108,-528.4688573738828,-540.095310823272,0.5,0.15445817791792488,0.1,0.002142667770385742,0.04267597198486328,0.04968975,0.85035497,-535.3931577008165,-0.10287633976665635,-0.1652667595746649,0.5,0.06472751885303246,77,0.0024526119232177734,1.0002735191933723,1.0002735191933723,15495,-559.3570053800776,0.49999999999999994
197,1.1098816394805908,-537.0210109819811,6.197336229381136,-530.8287055742675,-544.5795894686624,0.5,0.16448472781922774,0.1,0.0021598339080810547,0.04355478286743164,0.04940077,0.7386442,-535.5559430289329,-0.07985173023234851,-0.17638011448451527,0.5,0.06573517472111451,91,0.0026214122772216797,1.000275899237288,1.000275899237288,15586,-560.1651864780459,0.49999999999999994
198,1.0976276397705078,-530.3212925539524,6.552640467686101,-522.5986767332037,-537.703389863931,0.375,0.15932867271775222,0.1,0.002166271209716797,0.043523311614990234,0.05024269,0.7389984,-535.0324779814349,-0.09023913415658488,-0.14302397059600974,0.375,0.0645711597904787,85,0.0025653839111328125,1.0002741247570706,1.0002741247570706,15671,-561.3319688441285,0.49999999999999994
199,1.122884750366211,-540.1427830467234,4.5191965681161355,-536.4206262653622,-547.7073890057086,0.375,0.15882307527800177,0.1,0.0023217201232910156,0.042519569396972656,0.04985084,0.77747023,-535.5435084879638,-0.09788153173453179,-0.1916790019253148,0.375,0.06418866194189042,85,0.002701997756958008,1.0002735510310834,1.0002735510310834,15756,-558.353178608728,0.49999999999999994
200,1.1008777618408203,-532.001773541441,6.5119580806283315,-520.7798112121274,-536.6207888162921,0.5,0.15395370311687426,0.1,0.0021283626556396484,0.047467708587646484,0.050395865,0.9133934,-535.1893349933115,-0.09161252808159982,-0.15249214530081595,0.5,0.06551141612256504,85,0.0030753612518310547,1.0002730758847536,1.0002730758847536,15841,-558.5832390621946,0.49999999999999994
201,1.1186745166778564,-533.2131371210388,3.6994242993272537,-527.5798848936648,-537.6459102828942,0.375,0.1622567311610824,0.1,0.002219676971435547,0.04522538185119629,0.049990766,0.767267,-534.9917152060842,-0.08004832344736627,-0.15949276367800078,0.375,0.06476977350540256,86,0.0026361942291259766,1.000274532282697,1.000274532282697,15927,-558.7683354012328,0.49999999999999994
202,1.1167898178100586,-532.0627297879494,7.218501766778477,-524.0679004898102,-539.5502806993595,0.5,0.15103725375470115,0.1,0.002165079116821289,0.04463911056518555,0.050484568,0.7950856,-534.6988166642708,-0.09019554752287694,-0.15236582196611922,0.5,0.0644131596899256,80,0.002666473388671875,1.0002749506718198,1.0002749506718198,16007,-558.7403629666195,0.49999999999999994
203,1.0985088348388672,-533.5504604422231,7.721463905530462,-526.2869285010577,-546.4058714818049,0.5,0.1701566949228961,0.1,0.0021245479583740234,0.044509172439575195,0.05075498,0.78084975,-534.5839810420661,-0.09709946522065523,-0.15987545213989707,0.5,0.0659515156823405,85,0.002620220184326172,1.000274684689898,1.000274684689898,16092,-561.3424771294614,0.49999999999999994
204,1.1024284362792969,-525.9357529794468,6.6477364366462615,-514.4632712186284,-530.2310470870215,0.5,0.1314846427049134,0.1,0.0021555423736572266,0.04298973083496094,0.049188744,1.6434312,-533.7191582358041,-0.10722825964831725,-0.12206671341893169,0.5,0.06307142738316604,65,0.002534627914428711,1.000269292004075,1.000269292004075,16157,-560.8893397501653,0.49999999999999994
205,1.0955274105072021,-533.0885600999356,2.4050384636570454,-529.8736926275036,-536.6484327094996,0.5,0.14639696596705293,0.1,0.0021538734436035156,0.04327893257141113,0.049154308,1.0127246,-533.6560984222173,-0.09785687144582444,-0.157967556640107,0.5,0.06449998310302192,78,0.0023207664489746094,1.0002733743443724,1.0002733743443724,16235,-558.3884076141437,0.49999999999999994
206,1.1615540981292725,-533.783368198152,7.824699990939882,-520.3943079913564,-539.8764468354314,0.375,0.15390488552896267,0.1,0.002157926559448242,0.0623316764831543,0.05039241,0.865074,-533.6688253998108,-0.10401868963665603,-0.16081369888019706,0.375,0.06548178284201607,78,0.002891063690185547,1.0002695758119462,1.0002695758119462,16313,-559.694708596809,0.49999999999999994
207,1.1260697841644287,-535.6347317524397,2.8130087404166364,-532.2656494254294,-539.9792070520325,0.375,0.13930037712579713,0.1,0.0022513866424560547,0.043389320373535156,0.04971893,0.8433799,-533.8654160350736,-0.11199172228683091,-0.16854051516217303,0.375,0.06416780670895764,77,0.0029053688049316406,1.0002718602568592,1.0002718602568592,16390,-558.9028703978602,0.49999999999999994
208,1.1096253395080566,-532.7579178466634,7.234735954902958,-524.1275625887891,-540.8054994101136,0.5,0.15354429272033548,0.1,0.002207040786743164,0.04380631446838379,0.050848406,0.8434609,-533.7546662162326,-0.08874536631370113,-0.15474639372821875,0.5,0.06472158516953677,84,0.0025680065155029297,1.000275233269507,1.000275233269507,16474,-556.7558812295734,0.49999999999999994
209,1.1244709491729736,-542.2707981407948,7.113240507479832,-535.2227516635498,-550.8042272636616,0.375,0.1690453493308556,0.1,0.0018742084503173828,0.04404735565185547,0.05049325,0.9252347,-534.6062794086888,-0.09454962626504929,-0.20161601841290144,0.375,0.06588865063218732,94,0.0029637813568115234,1.0002738072810722,1.0002738072810722,16568,-555.8335529077193,0.49999999999999994
210,1.0945358276367188,-536.2350533603801,6.702463411822453,-524.6344554410357,-540.4094706601329,0.25,0.13536396645730026,0.1,0.0021164417266845703,0.04302334785461426,0.049962204,0.8344521,-534.769156803858,-0.10437635868582987,-0.17302529059949034,0.25,0.06555838157642224,75,0.0024497509002685547,1.0002747041661981,1.0002747041661981,16643,-556.0245348940729,0.49999999999999994
211,1.1079230308532715,-536.5928919621498,6.811584562542513,-524.931034493499,-541.7165060100804,0.25,0.15827088542884737,0.1,0.002114534378051758,0.0433957576751709,0.05031149,0.9372166,-534.9515303196872,-0.10718802460242866,-0.17456958594996494,0.25,0.06468390118646486,79,0.0022759437561035156,1.000273304294279,1.000273304294279,16722,-554.7171102074375,0.49999999999999994
212,1.1129546165466309,-531.72669768986,6.415653552691408,-522.3701585871041,-539.580583803608,0.5,0.14041847720303488,0.1,0.0021545886993408203,0.04540252685546875,0.05015035,1.0040505,-534.6290470567045,-0.09769798561634872,-0.14959619140644048,0.5,0.06444364880595238,76,0.0029578208923339844,1.000271622097803,1.000271622097803,16798,-555.9556140728271,0.49999999999999994
213,1.1180882453918457,-528.84935796182,5.259814891117547,-522.6556431864111,-536.8296665295826,0.5,0.1462282936512301,0.1,0.002137422561645508,0.03923296928405762,0.048947565,1.0923947,-534.0510781472161,-0.09204193917787604,-0.13665148545505423,0.5,0.06509236176045169,74,0.002749204635620117,1.0002745755009754,1.0002745755009754,16872,-555.7781654104914,0.49999999999999994
214,1.0831453800201416,-533.3006457998646,6.942243348675557,-526.5765012622363,-543.4346467903183,0.25,0.13230947066227508,0.1,0.12893176078796387,0.2689061164855957,0.05013367,0.9723038,-533.9760349124809,-0.11429746044561451,-0.1572351418986638,0.25,0.0648364334517842,66,0.0025186538696289062,1.0002736564290542,1.0002736564290542,16938,-557.4373736902677,0.49999999999999994
215,1.1148757934570312,-531.0754445750782,16.546939920651674,-505.9636900515914,-551.4315189234034,0.375,0.15767219441836985,0.1,0.0021767616271972656,0.04502224922180176,0.049847253,0.86777955,-533.6859758787407,-0.07966452555368783,-0.14806773002887744,0.375,0.06412621025243598,87,0.0030722618103027344,1.0002742186384646,1.0002742186384646,17025,-557.894720916501,0.49999999999999994
216,1.1564044952392578,-540.333231529467,3.0231106821349845,-537.285562417835,-544.7734270095175,0.25,0.1414927902270443,0.1,0.0021514892578125,0.04398465156555176,0.04961615,0.7241035,-534.3507014438134,-0.10506939037728986,-0.1939204101137289,0.25,0.06460112031802483,79,0.0024726390838623047,1.0002735547745205,1.0002735547745205,17104,-557.4671379596492,0.49999999999999994
217,1.1123881340026855,-536.5219153111063,7.590577583007751,-527.3722575253728,-545.2411560996254,0.25,0.14788668968638233,0.1,0.0021800994873046875,0.04291844367980957,0.048823632,0.9798833,-534.5678228305427,-0.10482719496082812,-0.17436905862648616,0.25,0.06491828541522149,76,0.0024678707122802734,1.0002736823782672,1.0002736823782672,17180,-556.4541424371886,0.49999999999999994
218,1.1175563335418701,-535.35627251798,3.4582712582163317,-531.5147681170596,-540.5235144983073,0.5,0.15144439695280515,0.1,0.002115964889526367,0.04538774490356445,0.050262347,0.8275646,-534.6466677992864,-0.09312634940817632,-0.16918238010915534,0.5,0.06479232313345498,82,0.004136323928833008,1.0002727290164486,1.0002727290164486,17262,-558.9070977290922,0.49999999999999994
219,1.0554678440093994,-537.7652728231114,8.842332607900214,-522.7166004568302,-545.4326352168817,0.25,0.14694784152431628,0.1,0.002472400665283203,0.04488706588745117,0.049966678,0.7271984,-534.9585283016689,-0.09900857522080062,-0.17985127200995815,0.25,0.06588619337226174,82,0.0027081966400146484,1.0002737936565675,1.0002737936565675,17344,-559.8287193089146,0.49999999999999994
220,1.0511105060577393,-534.2697701315099,8.394824277776415,-522.14785288334,-545.8794548033726,0.375,0.1426985136439939,0.1,0.002290487289428711,0.04394936561584473,0.05005366,0.8140145,-534.8896524846531,-0.08625059800338644,-0.16318065644005283,0.375,0.0646275759575895,85,0.0024857521057128906,1.000273935687688,1.000273935687688,17429,-561.7157102586842,0.49999999999999994
221,1.062476634979248,-530.2064966546875,4.066806308269498,-526.2784291903107,-536.8519860840246,0.5,0.14870126782301185,0.1,0.0023598670959472656,0.04486870765686035,0.049622223,0.8541695,-534.4213369016566,-0.08683278314253476,-0.14243798591080975,0.5,0.06698255533510317,81,0.0028848648071289062,1.0002734711951273,1.0002734711951273,17510,-561.5568087309429,0.49999999999999994
222,1.098381519317627,-533.3813499664013,8.909030231054793,-523.4656470840102,-544.4004711265319,0.5,0.14894170470828477,0.1,0.0021893978118896484,0.042739152908325195,0.049710218,0.7799014,-534.3173382081311,-0.10003640094080418,-0.1595004702420218,0.5,0.06411703504703153,78,0.002422332763671875,1.0002740035373263,1.0002740035373263,17588,-557.067427270151,0.49999999999999994
223,1.0933990478515625,-536.6296925996426,2.4609132255267014,-534.635079963198,-540.8175439612684,0.5,0.1546804411465371,0.1,0.0021851062774658203,0.04068398475646973,0.050243072,0.7768095,-534.5485736472822,-0.09797731477475752,-0.17436315520349527,0.5,0.06547082443352639,90,0.0024230480194091797,1.0002750993758878,1.0002750993758878,17678,-562.5072994253607,0.49999999999999994
224,1.0641963481903076,-540.9226557886179,9.300063560206528,-527.3928159157563,-550.5007014907201,0.25,0.1458952894161577,0.1,0.0022029876708984375,0.06227564811706543,0.05006929,0.82783824,-535.1859818614158,-0.12434660805892395,-0.1943594444431798,0.25,0.06415199035072679,77,0.002483844757080078,1.0002713998354118,1.0002713998354118,17755,-561.8984728529277,0.49999999999999994
225,1.0767242908477783,-539.6865003556577,9.361725380626032,-531.7404147476212,-555.5535037816346,0.375,0.16631509053478588,0.1,0.0022573471069335938,0.06443476676940918,0.049158927,0.8219369,-535.63603371084,-0.0876613921463898,-0.18958889290102218,0.375,0.06602823867912078,90,0.002875089645385742,1.000275877607109,1.000275877607109,17845,-562.8129700680637,0.49999999999999994
226,1.0852961540222168,-535.5305305377112,6.663655145194565,-528.4256603142267,-545.3816109138168,0.375,0.1565620851453015,0.1,0.0021669864654541016,0.0451815128326416,0.049822975,0.9844709,-535.6254833935271,-0.09727236523915839,-0.1696604004177255,0.375,0.06448889458978838,82,0.0031023025512695312,1.0002750144192278,1.0002750144192278,17927,-559.4707581625713,0.49999999999999994
227,1.088677167892456,-532.0837978041618,6.044572259537536,-523.7235422926433,-538.2744405453159,0.5,0.15045882769655686,0.1,0.0021719932556152344,0.044327735900878906,0.05004211,0.81690776,-535.2713148345906,-0.09493326642629699,-0.15235567644859951,0.5,0.06731064786183519,79,0.0026955604553222656,1.0002748495307388,1.0002748495307388,18006,-561.6482898195212,0.49999999999999994
228,1.1162750720977783,-545.1659682016842,2.8807234389992065,-541.1267639928266,-548.914860065939,0.25,0.15826640517014587,0.1,0.0022406578063964844,0.04391598701477051,0.050316863,0.8366078,-536.2607801713,-0.08993871317405719,-0.21720251759038045,0.25,0.06524301544860776,93,0.0026361942291259766,1.0002742922562355,1.0002742922562355,18099,-564.243735185678,0.49999999999999994
229,1.087749719619751,-537.6658251876232,6.845393074567821,-530.8133263614023,-548.6412195453524,0.25,0.13345259648506128,0.1,0.0020859241485595703,0.04126143455505371,0.05111513,0.7647183,-536.4012846729323,-0.11193025241334237,-0.1789772486486111,0.25,0.06546687612323607,72,0.0021207332611083984,1.0002714951843117,1.0002714951843117,18171,-558.0308808843831,0.49999999999999994
230,1.089310884475708,-541.2652142123214,5.5738496135798545,-534.7111795366832,-548.2166324688611,0.25,0.1576156748263917,0.1,0.0021626949310302734,0.04652976989746094,0.050139826,0.69501543,-536.8876776268712,-0.08892725117706163,-0.19818512295140472,0.25,0.06459096535589584,80,0.018137216567993164,1.0002726545026073,1.0002726545026073,18251,-551.3016954458222,0.49999999999999994
231,1.1130475997924805,-537.3934172459069,7.293650596131642,-529.9470832018112,-545.3604135861498,0.375,0.15167323895924748,0.1,0.002126455307006836,0.04358649253845215,0.05032381,0.70580405,-536.9382515887747,-0.11667098431164867,-0.17787934361988145,0.375,0.06407452327422618,77,0.0027780532836914062,1.0002708344770301,1.0002708344770301,18328,-553.2374819258814,0.49999999999999994
232,1.0881538391113281,-536.3644449612751,5.435189637455979,-529.9463093543513,-544.0484642856427,0.375,0.14765629901745964,0.1,0.0020949840545654297,0.045296669006347656,0.04989287,0.86197793,-536.8808709260247,-0.09803403009861145,-0.17437517711337436,0.375,0.06352642715181583,81,0.0025093555450439453,1.000273421677131,1.000273421677131,18409,-556.7802713206434,0.49999999999999994
233,1.130263328552246,-537.1718296453396,4.393436815024764,-530.3046107142276,-542.2624566736793,0.5,0.15268867087501614,0.1,0.0021605491638183594,0.04681801795959473,0.04986109,0.9992114,-536.9099667979563,-0.09363565280029298,-0.17757085689036128,0.5,0.06497148305424068,88,0.002615690231323242,1.0002730554418338,1.0002730554418338,18497,-551.3006565414549,0.49999999999999994
234,1.0958597660064697,-537.2591308330411,5.048367736160725,-528.8892247814808,-541.9184121616637,0.375,0.1596105137274988,0.1,0.002153635025024414,0.043225765228271484,0.050554093,0.87465197,-536.9448832014648,-0.10215535197751908,-0.17809190574723557,0.375,0.0638758420323352,83,0.0023224353790283203,1.0002730387744476,1.0002730387744476,18580,-551.1148573022509,0.49999999999999994
235,1.1280062198638916,-528.7632766190748,5.279794333764043,-522.578032886821,-536.1742065978619,0.5,0.14220019030575232,0.1,0.11591243743896484,0.17824864387512207,0.04995873,0.9545574,-536.1267225432258,-0.09128858171796024,-0.13568898528008808,0.5,0.06492517903669341,80,0.002770662307739258,1.0002735186360667,1.0002735186360667,18660,-553.9785561489404,0.49999999999999994
236,1.0917234420776367,-525.7583632477566,9.548134913434302,-510.5627308881589,-535.0251303040002,0.5,0.15204293977325425,0.1,0.002225637435913086,0.04396200180053711,0.05045608,0.75017214,-535.0898866136789,-0.09267245205246877,-0.12121028789824903,0.5,0.06487057795490532,77,0.002512216567993164,1.000273526008208,1.000273526008208,18737,-553.148490172632,0.49999999999999994
237,1.0720326900482178,-530.9264269039942,2.9826481429008034,-526.5855806549764,-534.0980744924495,0.5,0.14276378410181412,0.1,0.0021309852600097656,0.04294466972351074,0.050082028,1.0330768,-534.6735406427105,-0.10472743393885037,-0.1464087351220018,0.5,0.06563107869805007,76,0.0025589466094970703,1.0002700114183607,1.0002700114183607,18813,-552.7769882078397,0.49999999999999994
238,1.095686912536621,-531.7361395810099,11.41638033269718,-512.3556599426971,-541.4364241098133,0.5,0.15404236125983203,0.1,0.12890839576721191,0.043329477310180664,0.050455857,0.82363796,-534.3798005365404,-0.10783269227297544,-0.15069066075837928,0.5,0.06551163780407118,80,0.0026874542236328125,1.0002725605650709,1.0002725605650709,18893,-558.173851934092,0.49999999999999994
239,1.1090993881225586,-538.5134628176262,4.185279107021923,-533.3791635312987,-543.3534773656602,0.25,0.1660647649096351,0.1,0.002165555953979492,0.043532371520996094,0.04921762,0.65901893,-534.793166764649,-0.08032450625007312,-0.1840870668781557,0.25,0.06502506508182947,86,0.003006458282470703,1.000274934237027,1.000274934237027,18979,-556.141717496173,0.49999999999999994
240,1.1270625591278076,-532.6111363243332,2.549217155058828,-530.0786279386965,-536.8014018967478,0.5,0.15748196453463054,0.1,0.0021326541900634766,0.046585798263549805,0.049884267,0.73285335,-534.5749637206175,-0.07841970576735832,-0.1552542759251358,0.5,0.06578807161406185,85,0.002390146255493164,1.000273741300186,1.000273741300186,19064,-555.5773508608055,0.49999999999999994
241,1.1459500789642334,-527.7304403292217,13.932431564610432,-504.4348452766617,-541.3328889657435,0.5,0.15403593009322375,0.1,0.002252340316772461,0.048215627670288086,0.049660087,0.7799076,-533.890511381478,-0.10462741123953274,-0.1288679786306343,0.5,0.06576416132892887,79,0.0026962757110595703,1.0002735220683987,1.0002735220683987,19143,-555.4531109577484,0.49999999999999994
242,1.0875537395477295,-533.1420166120696,7.0969038815724375,-524.4220059267933,-544.2168386231251,0.5,0.15660060982941898,0.1,0.002196073532104492,0.04302692413330078,0.049201187,0.7610111,-533.8156619045371,-0.11687349702379604,-0.15646940826054456,0.5,0.06601956864502188,79,0.002448558807373047,1.0002698629404672,1.0002698629404672,19222,-558.9719089848564,0.49999999999999994
243,1.124751329421997,-532.9223167938975,7.172268051646742,-523.0232255853131,-542.2744285458922,0.5,0.15065548976658913,0.1,0.0042400360107421875,0.04295039176940918,0.049079243,1.0531226,-533.7263273934732,-0.11639896807503275,-0.15458961081109585,0.5,0.06598431309645737,81,0.0025768280029296875,1.000272798035613,1.000272798035613,19303,-566.1151237827725,0.49999999999999994
244,1.1471247673034668,-534.8751978656217,1.7562406154936592,-532.0956661522443,-536.9170521461444,0.5,0.15023520421750128,0.1,0.0023813247680664062,0.04246163368225098,0.049352318,0.835361,-533.8412144406881,-0.10310126049582087,-0.1644728653815963,0.5,0.064081566554664,84,0.0033593177795410156,1.0002721929049867,1.0002721929049867,19387,-563.8948706638442,0.49999999999999994
245,1.120671272277832,-535.3562144874186,4.733489987726161,-530.0090305863994,-542.6715580398102,0.25,0.14366825356817417,0.1,0.0021848678588867188,0.049067020416259766,0.049223173,0.7680531,-533.9927144453611,-0.11161727208208642,-0.16866546226712967,0.25,0.06530248866294504,73,0.0031096935272216797,1.0002710008454065,1.0002710008454065,19460,-571.0694115784249,0.49999999999999994
246,1.0948233604431152,-534.8711116300065,8.589866576520409,-526.745635872608,-549.3253687243391,0.375,0.15113265937801107,0.1,0.0021419525146484375,0.043175458908081055,0.05044446,0.74260986,-534.0805541638257,-0.10629523253190293,-0.1654737872730151,0.375,0.06582007712005432,80,0.022756338119506836,1.0002724104950387,1.0002724104950387,19540,-570.4722265016168,0.49999999999999994
247,1.0958454608917236,-537.6274165932167,3.2896795167392865,-533.4710669598413,-540.9455605681785,0.375,0.1601700167010553,0.1,0.0021028518676757812,0.06299924850463867,0.050079085,0.7991974,-534.4352404067648,-0.09712645955018484,-0.18064387627595546,0.375,0.06521936710734846,81,0.0028409957885742188,1.0002744392702145,1.0002744392702145,19621,-572.4233878465196,0.49999999999999994
248,1.093287467956543,-527.3022431016914,8.23187365944733,-518.5946161929105,-539.1916658931651,0.5,0.13985356755916561,0.1,0.0021719932556152344,0.043483734130859375,0.049887594,1.1686946,-533.7219406762574,-0.09882653284931109,-0.12814243333198366,0.5,0.06413656642824456,78,0.002351045608520508,1.000271942499116,1.000271942499116,19699,-569.4547416971586,0.49999999999999994
249,1.1183414459228516,-533.4499061261984,7.116363118081759,-525.5465517786993,-543.1615019617625,0.5,0.14334080293505225,0.1,0.0021071434020996094,0.04183530807495117,0.04952234,1.256769,-533.6947372212516,-0.09287154391055445,-0.15916875653543391,0.5,0.06399434352676088,80,0.0022809505462646484,1.0002724669082568,1.0002724669082568,19779,-572.0315948416032,0.49999999999999994
250,1.0938506126403809,-537.5091965354053,8.09877975897269,-528.7629898269714,-549.2516689195456,0.375,0.16644456203672744,0.1,0.0021698474884033203,0.04386258125305176,0.049539875,0.7604426,-534.076183152667,-0.09118591749367436,-0.178993162431049,0.375,0.06553209291105296,91,0.0026292800903320312,1.000272503551891,1.000272503551891,19870,-564.4278974911981,0.49999999999999994
251,1.1293525695800781,-537.1008303655886,4.646252361166094,-534.1829802519474,-545.1428281619897,0.5,0.15878492996348542,0.1,0.0022776126861572266,0.06305170059204102,0.05030806,0.66871846,-534.3786478739592,-0.09890827909998402,-0.17702856302333322,0.5,0.06438264834990998,83,0.0028793811798095703,1.0002739869340456,1.0002739869340456,19953,-572.0447905781501,0.49999999999999994
252,1.0942490100860596,-529.6125508602718,4.087509117765555,-525.3801634629096,-534.4548821682686,0.5,0.15237050135871746,0.1,0.0021822452545166016,0.0494236946105957,0.050007243,0.83597213,-533.9020381725904,-0.10617888636901746,-0.13867174073155997,0.5,0.06525648405874838,84,0.003216981887817383,1.0002721724975703,1.0002721724975703,20037,-574.1166570267042,0.49999999999999994
253,1.1469573974609375,-533.6245050145432,5.891104586139163,-524.7161011337597,-540.6873366182009,0.5,0.15802312018164402,0.1,0.002208709716796875,0.045267343521118164,0.04951238,0.90882546,-533.8742848567857,-0.10091590832154884,-0.1610451821202155,0.5,0.0653709327038456,77,0.002774477005004883,1.0002730708370282,1.0002730708370282,20114,-576.5789393422979,0.49999999999999994
254,1.0914089679718018,-533.7029842732753,10.393541610410477,-516.2389657728784,-543.0239084855456,0.375,0.14757312291842328,0.1,0.0021016597747802734,0.04461312294006348,0.04982691,0.74249613,-533.8571547984346,-0.08475817149056207,-0.16011167830236145,0.375,0.06617770617789316,80,0.0024595260620117188,1.0002755065073277,1.0002755065073277,20194,-576.6021966350039,0.49999999999999994
255,1.1481127738952637,-520.0395100718762,5.703204699616139,-510.175355593155,-523.8226847985146,0.5,0.14455454480525917,0.1,0.019289493560791016,0.04366946220397949,0.05069326,0.9754391,-532.4753903257788,-0.09880078420503877,-0.09172179681026858,0.5,0.06521386315420172,73,0.0024688243865966797,1.000274481799036,1.000274481799036,20267,-570.3768521665648,0.49999999999999994
256,1.1323814392089844,-536.463119358787,5.975567425247212,-528.3946717214137,-544.2910964799712,0.375,0.1565328239300417,0.1,0.002165555953979492,0.043744802474975586,0.049035523,0.8428924,-532.8741632290796,-0.08987409837171921,-0.1739211947549208,0.375,0.06720165578708225,88,0.003374814987182617,1.0002737287060088,1.0002737287060088,20355,-566.5794524334979,0.49999999999999994
257,1.1196541786193848,-529.8928199658154,19.90087265414507,-497.0715395532959,-546.7326047849382,0.375,0.16582587160850315,0.1,0.0021283626556396484,0.0434417724609375,0.049142893,0.8643254,-532.5760289027531,-0.08422436239164324,-0.14064559679921526,0.375,0.0649232507782006,85,0.0023674964904785156,1.0002754624705552,1.0002754624705552,20440,-565.0493590282838,0.49999999999999994
258,1.1131341457366943,-526.3455136972495,4.178688528818105,-519.7011678015559,-530.5337725939232,0.5,0.13197174316293936,0.1,0.002084493637084961,0.04250454902648926,0.049332034,0.9063416,-531.9529773822028,-0.0789210840690931,-0.12607457395745028,0.5,0.0673047731530747,70,0.002467632293701172,1.0002750130575633,1.0002750130575633,20510,-563.885892766927,0.49999999999999994
259,1.0987184047698975,-532.9156624163534,7.290503735511921,-523.8256881884688,-543.6945954844507,0.5,0.15257041302602503,0.1,0.0022542476654052734,0.04470038414001465,0.049442954,0.7834907,-532.0492458856179,-0.10256971767683161,-0.15495318933514368,0.5,0.06452278156001619,77,0.002869844436645508,1.0002728300063721,1.0002728300063721,20587,-568.1031447559902,0.49999999999999994
260,1.0401389598846436,-535.1360813333088,4.796014638625102,-529.8702766589854,-542.845903696505,0.375,0.16314619058803298,0.1,0.0022423267364501953,0.0451047420501709,0.04950858,0.6610499,-532.357929430387,-0.10063805327550748,-0.1669847257135516,0.375,0.06397489308245274,80,0.0027244091033935547,1.0002745299425435,1.0002745299425435,20667,-566.5476968810485,0.49999999999999994
261,1.0611162185668945,-537.9535862479772,3.864950174903319,-531.9241964606338,-542.6615735057294,0.375,0.15034402704596675,0.1,0.0022144317626953125,0.04378175735473633,0.049648043,0.9407581,-532.9174951121461,-0.1143546237038741,-0.17930219426911206,0.375,0.0656179536592187,83,0.0023391246795654297,1.0002751796202671,1.0002751796202671,20750,-568.7752516511686,0.49999999999999994
262,1.043856143951416,-528.7937473057299,8.679711239787846,-516.648638379295,-541.1703751363509,0.5,0.14743847308428262,0.1,0.002259969711303711,0.06898713111877441,0.049879994,1.1187812,-532.5051203315045,-0.08258468588624535,-0.1360999165458782,0.5,0.06614491708026164,82,0.002848386764526367,1.0002735200625252,1.0002735200625252,20832,-563.3550026073798,0.49999999999999994
263,1.0748445987701416,-525.6566497162128,9.69707489393941,-511.0585064066041,-538.3438373221846,0.5,0.1401983295833072,0.1,0.0023331642150878906,0.04307126998901367,0.05014721,1.0818348,-531.8202732699754,-0.1161587207855286,-0.119640812864898,0.5,0.06690256728148333,70,0.0028367042541503906,1.0002718748214767,1.0002718748214767,20902,-551.8585393992272,0.49999999999999994
264,1.0933685302734375,-532.9635413029085,6.226870636392901,-523.5572414978479,-541.0726469482247,0.5,0.14464380613147948,0.1,0.0022172927856445312,0.046888113021850586,0.049629055,0.8548117,-531.9346000732687,-0.10530945509659959,-0.15656488064772903,0.5,0.06495450190664416,79,0.0027544498443603516,1.0002746428145728,1.0002746428145728,20981,-559.3024798227333,0.49999999999999994
265,1.0767652988433838,-539.4192744638763,4.718997633118014,-533.3954920918503,-546.6280583543216,0.375,0.15743591007235586,0.1,0.002241849899291992,0.060118913650512695,0.050061736,0.6764382,-532.6830675123294,-0.09712093174764072,-0.18827290284646414,0.375,0.06535967774635974,89,0.0024001598358154297,1.000274570800429,1.000274570800429,21070,-558.5741799775624,0.49999999999999994
266,1.0986757278442383,-536.37861423589,2.402446322750195,-534.4228549506821,-540.4887136177709,0.5,0.16085745418703293,0.1,0.002203702926635742,0.04453754425048828,0.0500728,0.9053769,-533.0526221846854,-0.09884976209186362,-0.172667917562053,0.5,0.06499769953887528,91,0.003002643585205078,1.0002739592454977,1.0002739592454977,21161,-563.8104474741634,0.49999999999999994
267,1.075472354888916,-534.2541314179134,5.890521444968112,-526.3939043090693,-539.9689077318889,0.5,0.15483282919901353,0.1,0.0021538734436035156,0.04408383369445801,0.050021023,0.82475215,-533.1727731080082,-0.10781336704444594,-0.16053969815510505,0.5,0.06400868871000367,84,0.0029807090759277344,1.000273441545149,1.000273441545149,21245,-563.3167347428923,0.49999999999999994
268,1.0757195949554443,-536.7126124102956,10.676834097206799,-521.4373331182683,-550.2952054993872,0.375,0.13607221299091596,0.1,0.0021560192108154297,0.05156350135803223,0.04986308,0.8663807,-533.526757038237,-0.0985552644462912,-0.17690481779077,0.375,0.06487668121929858,83,0.0025491714477539062,1.000274014141884,1.000274014141884,21328,-564.3831705903596,0.49999999999999994
269,1.0679476261138916,-535.1734651963136,10.582413174265064,-517.625213473788,-544.1142994059835,0.375,0.13667966498213205,0.1,0.002151966094970703,0.044298648834228516,0.049964834,0.9004392,-533.6914278540446,-0.11805893896166139,-0.16617211611757723,0.375,0.06541591552606989,73,0.0031087398529052734,1.0002705698107592,1.0002705698107592,21401,-563.0489616687793,0.49999999999999994
270,1.0920655727386475,-532.2922913165465,7.317940812602091,-523.0878137282716,-543.4873643876892,0.5,0.15729906513328087,0.1,0.0031731128692626953,0.04376077651977539,0.05050236,0.7418138,-533.5515142002948,-0.10500991840784141,-0.1522930157307773,0.5,0.06545975350831915,81,0.0035545825958251953,1.000273835027911,1.000273835027911,21482,-565.7745192451156,0.49999999999999994
271,1.1326990127563477,-544.5120248916386,5.9094201918644185,-540.6336316709724,-554.7238017908772,0.125,0.14275469702755506,0.1,0.0021448135375976562,0.04231524467468262,0.05006922,1.1207453,-534.6475652694293,-0.1097859292458994,-0.21424903899799985,0.125,0.06480782521682718,76,0.0024366378784179688,1.0002714024725403,1.0002714024725403,21558,-564.5689851846051,0.49999999999999994
272,1.126781702041626,-523.9974472602613,13.778177564690758,-506.9038434409334,-545.1533531931645,0.5,0.14418534987394352,0.1,0.002086639404296875,0.04295539855957031,0.049247775,0.8126531,-533.5825534685125,-0.07634704299258832,-0.11351747489037894,0.5,0.06472950924440811,82,0.0028319358825683594,1.0002751443389302,1.0002751443389302,21640,-561.303643543949,0.49999999999999994
273,1.133432388305664,-537.4747816481973,6.185456164810547,-530.9524482870346,-546.470332843288,0.5,0.15116401006961175,0.1,0.0020155906677246094,0.04403328895568848,0.050227817,1.072155,-533.971776286481,-0.11705716505203201,-0.17677923842700471,0.5,0.06570356735479817,88,0.002529144287109375,1.0002733257247942,1.0002733257247942,21728,-566.0192767224127,0.49999999999999994
274,1.16929292678833,-535.9479413249678,8.803226824187957,-521.9922388130437,-544.3712628647068,0.375,0.15438687045649704,0.1,0.0021386146545410156,0.04327249526977539,0.049875464,0.77402043,-534.1693927903298,-0.09018696026418332,-0.1714485647531444,0.375,0.0659178563648637,86,0.002560138702392578,1.0002751552343683,1.0002751552343683,21814,-565.7342954231381,0.49999999999999994
275,1.1351203918457031,-536.3709429008128,4.679957136995224,-530.6768812736849,-543.1212001285307,0.5,0.1657833307633708,0.1,0.002155303955078125,0.0470738410949707,0.05027534,0.7727726,-534.3895478013781,-0.08114204911820036,-0.1734909536491326,0.5,0.06501004965041882,94,0.0033211708068847656,1.0002762779260967,1.0002762779260967,21908,-567.2747213754502,0.49999999999999994
276,1.1045811176300049,-534.5789841213062,2.6116425524694957,-530.4257369030827,-537.2272809478038,0.5,0.1391550789244247,0.1,0.002156972885131836,0.04742264747619629,0.05049442,0.94709796,-534.4084914333708,-0.10786259325430253,-0.163950182706513,0.5,0.06523798192944107,76,0.0033473968505859375,1.0002719710328012,1.0002719710328012,21984,-567.9990488254505,0.49999999999999994
277,1.1289198398590088,-526.9543815141849,20.32373276716972,-492.7516598541427,-544.1444599265626,0.25,0.1379873341936983,0.1,0.0021088123321533203,0.04281878471374512,0.049546424,1.0461689,-533.6630804414523,-0.0867745254589973,-0.12717028830698243,0.25,0.0619295653340569,75,0.002374410629272461,1.0002759776222894,1.0002759776222894,22059,-567.8706111003966,0.49999999999999994
278,1.1211912631988525,-532.1100276365918,4.593760475172511,-526.0687033392954,-538.8692756316661,0.5,0.14091173986569877,0.1,0.0020864009857177734,0.04354405403137207,0.04959595,1.251596,-533.5077751609663,-0.09686823653642049,-0.15266880008568467,0.5,0.061968686184342946,75,0.0024056434631347656,1.0002699746871642,1.0002699746871642,22134,-557.4581727569048,0.49999999999999994
279,1.054677963256836,-537.8181390739494,4.206474582752845,-535.1395015543056,-545.0895488639928,0.375,0.14917882355565373,0.1,0.002237558364868164,0.04428982734680176,0.04902014,0.86431545,-533.9388115522646,-0.11770516226511268,-0.17862986637821968,0.375,0.06740731554082136,78,0.002540111541748047,1.00027312844516,1.00027312844516,22212,-559.2175915230279,0.49999999999999994
280,1.08186674118042,-534.9848852246271,6.401287704364562,-527.8771394937974,-545.3694395125658,0.375,0.1410785535450496,0.1,0.0023267269134521484,0.044173240661621094,0.05107456,0.7146529,-534.0434189195009,-0.10857848538083847,-0.16468718521331563,0.375,0.06404771324162495,79,0.0026204586029052734,1.0002748854481922,1.0002748854481922,22291,-554.0706755870998,0.49999999999999994
281,1.0486094951629639,-539.1423707382625,6.14548319707544,-530.6271015270528,-547.2873521821455,0.5,0.16104574476693334,0.1,0.002343893051147461,0.04433321952819824,0.050403807,0.9033207,-534.553314101377,-0.10111915719631466,-0.1864170892320608,0.5,0.0632105429696963,86,0.0024797916412353516,1.0002754028856307,1.0002754028856307,22377,-554.6168373367517,0.49999999999999994
282,1.0346875190734863,-536.5711615185168,9.584109230126296,-522.2897436668219,-548.7040019900821,0.375,0.1430184615371824,0.1,0.0022208690643310547,0.04910635948181152,0.04938317,0.82496977,-534.755098843091,-0.10408607190702018,-0.17401996671639208,0.375,0.0648129165016974,76,0.0026731491088867188,1.0002717428949883,1.0002717428949883,22453,-553.605675793658,0.49999999999999994
283,1.0447893142700195,-524.1464729531167,8.440072390783202,-514.7403255984965,-533.6470455221609,0.5,0.13811083340001892,0.1,0.0022211074829101562,0.043981313705444336,0.050156977,0.8129717,-533.6942362540935,-0.09650453754920159,-0.11268319039861603,0.5,0.06391799003086548,72,0.002485990524291992,1.0002741813682998,1.0002741813682998,22525,-557.3340726418166,0.49999999999999994
284,1.0814270973205566,-538.6992196599894,5.402697111693199,-533.3061068689682,-547.192873176916,0.25,0.14449321812272475,0.1,0.0029189586639404297,0.047773122787475586,0.050533388,0.7859737,-534.1947345946832,-0.09306257086474437,-0.18476290478591828,0.25,0.06420858932980096,86,0.002726316452026367,1.0002758643218541,1.0002758643218541,22611,-570.7552348904957,0.49999999999999994
285,1.0908658504486084,-539.0653737223979,3.879035510949069,-534.6882997386143,-544.174631734707,0.5,0.16114714686259896,0.1,0.002183198928833008,0.04378151893615723,0.050237346,0.71858776,-534.6817985074547,-0.09852151895558155,-0.18472379541619183,0.5,0.06525943791361391,85,0.0023093223571777344,1.0002750132978986,1.0002750132978986,22696,-567.8462396439958,0.49999999999999994
286,1.055119276046753,-547.0844955449554,3.6463151426679055,-541.3869531358823,-551.5200352104432,0.125,0.1405183518932692,0.1,0.002198457717895508,0.04342389106750488,0.04908834,1.2884248,-535.9220682112048,-0.12230255847943762,-0.22517578396906696,0.125,0.06531329049068348,82,0.002351045608520508,1.000273877397163,1.000273877397163,22778,-567.8925453311891,0.49999999999999994
287,1.0679714679718018,-536.7814088473648,8.488676720286659,-525.909230146135,-548.7201250395153,0.375,0.14075632623869236,0.1,0.002157449722290039,0.04365825653076172,0.05041497,1.0359674,-536.0080022748208,-0.10119957714754212,-0.17445469959430743,0.375,0.06515215462051352,89,0.0023193359375,1.0002751822159983,1.0002751822159983,22867,-568.4697820063351,0.49999999999999994
288,1.0576467514038086,-531.9731711161508,8.009769884605806,-518.8361876626014,-540.4432166650176,0.375,0.1475989518122076,0.1,0.002195596694946289,0.04324984550476074,0.04942879,0.73908216,-535.6045191589538,-0.10106983941642159,-0.15012668542071395,0.375,0.0636042991582853,81,0.002480030059814453,1.0002742723177862,1.0002742723177862,22948,-565.2571300359568,0.49999999999999994
289,1.071009874343872,-539.7268029125781,2.778997661475072,-535.282579997272,-542.1905581189792,0.375,0.15514331478324464,0.1,0.002063274383544922,0.04359269142150879,0.049933244,1.0189426,-536.0167475343163,-0.1006571572143555,-0.1888107756988266,0.375,0.06559339574137123,88,0.002586841583251953,1.000273579479903,1.000273579479903,23036,-562.7580204732808,0.49999999999999994
290,1.0758211612701416,-532.6547050243355,1.8304646333110999,-530.5935505797468,-535.4337137251936,0.5,0.14061110857937148,0.1,0.002076387405395508,0.05254197120666504,0.05082814,0.8356591,-535.6805432833182,-0.10154322541655733,-0.15512136799601772,0.5,0.06628552565000631,76,0.002557516098022461,1.0002741081827848,1.0002741081827848,23112,-564.4130823561101,0.49999999999999994
291,1.0723018646240234,-532.6047249075946,8.815613691944991,-520.5858055477611,-545.4612619074375,0.25,0.1422117638423207,0.1,0.0021162033081054688,0.043180227279663086,0.050261218,1.0656637,-535.3729614457459,-0.10507988820412739,-0.15480118861614048,0.25,0.06473904092475885,73,0.002410411834716797,1.0002731507825746,1.0002731507825746,23185,-562.5469054817275,0.49999999999999994
292,1.0948512554168701,-536.9640521401009,3.652260186460676,-531.2285712767607,-541.1946734348613,0.5,0.14294611363309995,0.1,0.002117633819580078,0.04500889778137207,0.050442178,0.7728562,-535.5320705151814,-0.10144897657639577,-0.17669087312609183,0.5,0.06544998721981514,78,0.00255584716796875,1.0002717738225826,1.0002717738225826,23263,-567.5453207558852,0.49999999999999994
293,1.0898957252502441,-533.2508340568246,8.169302737706754,-519.8200230925407,-540.9869969603108,0.5,0.13337314834256506,0.1,0.002109050750732422,0.04326367378234863,0.0499131,0.9638929,-535.3039468693457,-0.09196803871346133,-0.15831158613152035,0.5,0.06447178294054576,79,0.0023660659790039062,1.0002756083323894,1.0002756083323894,23342,-564.6225825903892,0.49999999999999994
294,1.1459333896636963,-544.5451098950011,8.276343555947735,-533.7167220471132,-555.9111617225991,0.125,0.14583154612367355,0.1,0.0021169185638427734,0.04347825050354004,0.05020805,0.9696433,-536.2280631719112,-0.1144562922586972,-0.21143220841518212,0.125,0.0648204201345508,83,0.0031156539916992188,1.000272565015188,1.000272565015188,23425,-563.6757016117209,0.49999999999999994
295,1.1297032833099365,-538.0441830579541,9.873546550374442,-522.6817230500847,-550.2353761516855,0.25,0.13746666228183227,0.1,0.0020749568939208984,0.04410433769226074,0.050172232,1.1273851,-536.4096751605155,-0.09306487981968364,-0.18275221889297105,0.25,0.06501854282371708,80,0.0024526119232177734,1.0002753489282803,1.0002753489282803,23505,-562.5435196141299,0.49999999999999994
296,1.1072983741760254,-535.3456630864407,10.141186631234325,-518.5579891752609,-545.1761362975269,0.375,0.1494137223890908,0.1,0.002092599868774414,0.0687565803527832,0.049525775,0.7725801,-536.303273953108,-0.10059880952442538,-0.16817648534296348,0.375,0.06411824377339215,80,0.0026671886444091797,1.0002705650204855,1.0002705650204855,23585,-560.7348211569268,0.49999999999999994
297,1.1214540004730225,-537.8201217989597,6.035864971055891,-531.2066843091641,-546.5309281348012,0.25,0.1490858752929629,0.1,0.002117156982421875,0.04771566390991211,0.049658507,3.0379424,-536.4549587376932,-0.09929827068804004,-0.18209764979352147,0.25,0.06558489986206567,82,0.002420186996459961,1.0002757443953054,1.0002757443953054,23667,-563.0861033142044,0.49999999999999994
298,1.0441722869873047,-538.370787269054,4.913210356237756,-533.4892352596083,-545.0514775906887,0.375,0.15027289234360583,0.1,0.0024192333221435547,0.04446601867675781,0.0501069,1.2147138,-536.6465415908293,-0.09950256086654122,-0.1831897856179931,0.375,0.06495141785674705,81,0.002701997756958008,1.0002730434700642,1.0002730434700642,23748,-563.3027444664084,0.49999999999999994
299,1.0435943603515625,-537.4342409491628,3.892994031973288,-534.0778120470532,-543.781814563081,0.375,0.15233860488004944,0.1,0.0022466182708740234,0.04688596725463867,0.050008584,0.9738986,-536.7253115266626,-0.11262601178569129,-0.17911855376527275,0.375,0.06459051012916095,81,0.0024726390838623047,1.000271255981304,1.000271255981304,23829,-565.1232956042581,0.49999999999999994
300,1.0697858333587646,-533.2451136972841,5.496022797316778,-529.5396469285499,-542.7390687421162,0.375,0.14186806935218899,0.1,0.0022678375244140625,0.04442882537841797,0.049696185,1.402644,-536.3772917437248,-0.0916376913332001,-0.1588230915121647,0.375,0.06479237874142829,75,0.0026350021362304688,1.000274758304169,1.000274758304169,23904,-563.9475554639083,0.49999999999999994
301,1.0497305393218994,-534.4800704083946,5.890122616360519,-524.7152951713429,-540.4692439372365,0.5,0.141749391766019,0.1,0.0021729469299316406,0.04361867904663086,0.051367547,1.1513014,-536.1875696101918,-0.09190690412216505,-0.16564554679733023,0.5,0.06629705959541111,79,0.0025415420532226562,1.0002747246498005,1.0002747246498005,23983,-565.2917674046627,0.49999999999999994
302,1.0463528633117676,-539.0847274337008,7.881864745473342,-532.2365026587046,-551.5040210230856,0.375,0.15443253905457735,0.1,0.0022284984588623047,0.0438995361328125,0.050430186,0.7409712,-536.4772853925426,-0.0995211228802051,-0.1861697526165644,0.375,0.06536775790473273,85,0.0024847984313964844,1.0002743910619871,1.0002743910619871,24068,-563.672559564518,0.49999999999999994
303,1.1122264862060547,-535.8841141715446,0.9222664366642441,-534.5808654850684,-537.1349486923922,0.5,0.149331226410331,0.1,0.002198934555053711,0.04387187957763672,0.049916204,0.78249955,-536.4179682704428,-0.09249604086717639,-0.17079296639363806,0.5,0.06578305766694362,88,0.0023908615112304688,1.000274465026983,1.000274465026983,24156,-566.9166124517834,0.49999999999999994
304,1.0756776332855225,-542.6585137579343,4.768930497757848,-536.6539190872787,-549.9673167135226,0.25,0.14995844482311654,0.1,0.002125263214111328,0.05693650245666504,0.049913492,0.85317576,-537.042022819192,-0.13676896231873908,-0.20425533593443235,0.25,0.06521737666936303,77,0.002398967742919922,1.0002711704566654,1.0002711704566654,24233,-564.0276560743465,0.49999999999999994
305,1.0375723838806152,-533.8291240662344,4.581437274494679,-528.738448904069,-541.0357524085914,0.5,0.1436969595054627,0.1,0.0022840499877929688,0.04357004165649414,0.05033494,0.8904719,-536.7207329438962,-0.09192942197697866,-0.1589822009372122,0.5,0.06612292127223426,84,0.002658843994140625,1.0002748350109674,1.0002748350109674,24317,-565.7885642213915,0.49999999999999994
306,1.069000244140625,-539.4931293521007,7.544635547358164,-530.8967201987074,-550.9373242650908,0.375,0.14871825876475844,0.1,0.002236604690551758,0.04359841346740723,0.049602818,0.9389641,-536.9979725847166,-0.09824381070686802,-0.18851760715215302,0.375,0.06625560199401133,83,0.002373933792114258,1.0002741032490896,1.0002741032490896,24400,-566.3584129344696,0.49999999999999994
307,1.0898072719573975,-541.6177734281919,6.747001148388227,-532.071653578227,-551.1223494230202,0.25,0.16169226006748116,0.1,0.0021958351135253906,0.04403567314147949,0.050090954,0.68733793,-537.4599526690641,-0.10039890717019212,-0.20026025206073603,0.25,0.06643465312264007,87,0.0025937557220458984,1.0002727884286582,1.0002727884286582,24487,-571.5400909464491,0.49999999999999994
308,1.0946159362792969,-539.5168342860152,6.387255681268088,-531.0301692776807,-548.8495521478511,0.375,0.14472584611142228,0.1,0.002153158187866211,0.04505729675292969,0.050151117,1.0226183,-537.6656408307592,-0.12544277153794592,-0.18659848979095517,0.375,0.06657272823813362,78,0.0029621124267578125,1.0002717579503926,1.0002717579503926,24565,-569.1072415762047,0.0
309,1.098376750946045,-530.8221047321148,9.107396359897619,-522.0228109348408,-545.9049412236304,0.375,0.14536041440238479,0.1,0.0021142959594726562,0.037960052490234375,0.04924578,0.86677384,-536.9812872208947,-0.10067912293408075,-0.1454327106052305,0.375,0.06436372501740263,79,0.002607107162475586,1.0002720899342288,1.0002720899342288,24644,-564.2758813830927,0.49999999999999994
310,1.0851376056671143,-528.1043448426556,15.201133561052382,-512.0235837887153,-548.7136372922282,0.375,0.14614691080905928,0.1,0.0021622180938720703,0.04366564750671387,0.05003544,0.7630994,-536.0935929830708,-0.09648259812709531,-0.13324438602677724,0.375,0.06422738757077084,75,0.002509593963623047,1.0002716560501226,1.0002716560501226,24719,-563.3476312277328,0.49999999999999994
311,1.086949110031128,-538.131451351172,4.707915501656125,-531.4889050845,-542.8721797468546,0.5,0.14932797926943497,0.1,0.0022721290588378906,0.043071746826171875,0.050331946,0.856011,-536.2973788198809,-0.10465268898185165,-0.18179446105600097,0.5,0.06510497936135845,82,0.0029935836791992188,1.0002746281383865,1.0002746281383865,24801,-563.161416184914,0.49999999999999994
312,1.109485149383545,-539.8458234292857,6.018284676789361,-533.2083102359874,-549.6308699692886,0.25,0.14866412287969558,0.1,0.0021097660064697266,0.06260204315185547,0.049750596,0.7365346,-536.6522232808214,-0.10409447233379444,-0.18990923275039673,0.25,0.06533063396323438,84,0.0024700164794921875,1.000274365441606,1.000274365441606,24885,-563.3883163107545,0.49999999999999994
313,1.123147964477539,-536.8756392805772,7.451898108321177,-525.2902640668925,-546.0947650629606,0.375,0.14994186117552105,0.1,0.0020983219146728516,0.04266214370727539,0.050577644,0.7014193,-536.674564880797,-0.08756907910114185,-0.17644840585880445,0.375,0.06520231681209332,88,0.0025670528411865234,1.000274119524345,1.000274119524345,24973,-565.6874619864188,0.49999999999999994
