iteration,time_sampling,stoc_pol_mean,stoc_pol_std,stoc_pol_max,stoc_pol_min,rollout_success,alpha,delta,time_vpg,time_npg,kl_dist,surr_improvement,running_score,rwd_sparse,rwd_dense,success_percentage,num_samples,time_VF,VF_error_before,VF_error_after,env_samples,eval_score,eval_success
0,1.176811695098877,0.014620245472010867,0.010734337741452422,0.03010796719832469,0.0017744721549953696,0.0,0.14452306203591442,0.1,0.16493964195251465,0.05153393745422363,0.055217016,1.0907844,0.014620245472010867,0.0,0.0002890933172635503,0.0,200,0.08524346351623535,10.187686404333958,3.1141737844446262,200,0.014091927147577614,0.0
1,1.1066439151763916,0.01837069907314705,0.0071933140361267285,0.02995291355948895,0.011163140572453387,0.0,0.14456750241516417,0.1,0.009642601013183594,0.11319184303283691,0.048207544,0.8565567,0.014995290832124485,0.0,0.00035009744591347276,0.0,200,0.04922294616699219,2.4481821096058556,0.5526411368925722,400,0.01438369988950238,0.0
2,1.1063013076782227,0.013733897693997903,0.00305715435445266,0.0169644211094178,0.009435314530453653,0.0,0.1396105582596061,0.1,0.003128528594970703,0.0513148307800293,0.051296733,1.2598218,0.014869151518311828,0.0,0.00027338670892541775,0.0,200,0.034574270248413086,1.6054085883157327,0.7974337144951713,600,0.016148621002208687,0.0
3,1.073957920074463,0.01316701053771022,0.009454863757216742,0.024521568949173296,0.002382801988524481,0.0,0.1421130613344716,0.1,0.16341471672058105,0.33426690101623535,0.05340868,0.92572325,0.014698937420251667,0.0,0.00026220057567358603,0.0,200,0.16645383834838867,0.6986802365561734,0.802233049069275,800,0.018814926463529665,0.0
4,1.175569772720337,0.05422239199885786,0.02870374993711332,0.0890824782855044,0.015279930051289553,0.0,0.14399741046047787,0.1,0.0027494430541992188,0.05929136276245117,0.051954933,1.2808983,0.018651282878112286,0.0,0.0010730439491857767,0.0,200,0.037045955657958984,0.9079284385311507,0.39688589571530747,1000,0.02319583999098317,0.0
5,1.1886415481567383,0.04820689323189142,0.007748708132889106,0.057950539796323676,0.0402272148291793,0.0,0.13885350811806682,0.1,0.006083011627197266,0.049689531326293945,0.0486635,0.6968409,0.0216068439134902,0.0,0.0009554872565709352,0.0,200,0.026378870010375977,0.24860245528564107,0.47159256288576107,1200,0.02961269174771917,0.0
6,1.198740005493164,0.02191530653523262,0.015343130853883502,0.047175666649908826,0.008791152800469685,0.0,0.1511320832610976,0.1,0.002284526824951172,0.0444331169128418,0.049875975,0.9158151,0.021637690175664442,0.0,0.00043756150597001366,0.0,200,0.038840532302856445,3.0422281435368785,0.8739698785149546,1400,0.04659714940261308,0.0
7,1.110973834991455,0.026745690363424713,0.030167488939256935,0.07848516028149675,0.006056151771695716,0.0,0.14644599598543567,0.1,0.0026655197143554688,0.04962611198425293,0.050857116,1.6205701,0.02214849019444047,0.0,0.0005329088051340447,0.0,200,0.09290909767150879,0.7696898561854995,0.7519400209696842,1600,0.037968650711570316,0.0
8,1.1494512557983398,0.11804360084393067,0.14854338073901718,0.37047553273074374,0.007581097329935144,0.0,0.13903581438377752,0.1,0.0031054019927978516,0.05178666114807129,0.050486162,1.4459666,0.0317380012593895,0.0,0.002353239020209258,0.0,200,0.08499479293823242,0.9484346124422184,0.8031288760000683,1800,0.04406034854776458,0.0
9,1.178396224975586,0.05010656114099289,0.04103115034698838,0.10837761670803563,0.0038430581134523507,0.0,0.14423666888326175,0.1,0.0027017593383789062,0.07439255714416504,0.05143077,1.1159953,0.03357485724754984,0.0,0.0009943051798737786,0.0,200,0.027112245559692383,0.46323725751457623,0.6436812154977474,2000,0.04800247631974993,0.0
10,1.1512112617492676,0.02296318825575029,0.017222327175857123,0.04761070647750365,0.0025648925034291482,0.0,0.14228502786075375,0.1,0.002907276153564453,0.05103731155395508,0.048838228,1.1047933,0.032513690348369886,0.0,0.0004592071427662909,0.0,200,0.018509387969970703,5.0277005293439165,3.9881415981165738,2200,0.03953333004093168,0.0
11,1.1829471588134766,0.08826011606471863,0.09801067766062901,0.2535751531607887,0.009367125190170553,0.0,0.13517007005896506,0.1,0.002693653106689453,0.056090593338012695,0.049550105,1.5473001,0.03808833292000476,0.0,0.0017588250600517699,0.0,200,0.03368830680847168,0.658634540382645,0.668329014860691,2400,0.03934994142330093,0.0
12,1.0770840644836426,0.07707284907193276,0.0650956622013321,0.18014754086841336,0.017547125863872023,0.0,0.13961159631304818,0.1,0.002817392349243164,0.04871678352355957,0.049267564,1.3171794,0.041986784535197566,0.0,0.0015407198668351053,0.0,200,0.07267141342163086,0.5097972914385939,0.49345925552090814,2600,0.04570176378131403,0.0
13,1.1462855339050293,0.11062225223079925,0.15864379875521706,0.3844909116826781,0.006967877300695578,0.0,0.1361967078840123,0.1,0.0029144287109375,0.04940462112426758,0.048745416,1.7465941,0.04885033130475774,0.0,0.002200609776940656,0.0,200,0.028898239135742188,0.7696607099721202,0.7313707631566261,2800,0.06391257948410235,0.0
14,1.1739935874938965,0.24853493049677042,0.2956732069622774,0.7602819884595645,0.0665386309727878,0.0,0.14165158721481672,0.1,0.0026586055755615234,0.050223350524902344,0.049494907,1.367276,0.06881879122395901,0.0,0.00496606059236631,0.0,200,0.031341552734375,0.8039974957130441,0.7011715912365124,3000,0.07215572709704797,0.0
15,1.1428983211517334,0.042541225322061754,0.012328777596921732,0.05386832291896192,0.022551938710916562,0.0,0.13259068863171655,0.1,0.014184236526489258,0.07884359359741211,0.05030353,3.039892,0.06619103463376928,0.0,0.000849817965829218,0.0,200,0.06804394721984863,8.232480465207225,11.135938511145387,3200,0.07616229872304936,0.0
16,1.185349702835083,0.05003958022457391,0.029478424676867704,0.09815417524658486,0.02233262480439569,0.0,0.13281488966018612,0.1,0.00615692138671875,0.052301883697509766,0.050725613,1.6710056,0.06457588919284975,0.0,0.000977732506730232,0.0,200,0.043672800064086914,4.568399479623129,2.133999801765455,3400,0.11742263971115637,0.0
17,1.1847319602966309,0.078739748032152,0.05585913973325924,0.15666806199271363,0.02321962454276117,0.0,0.1409939767455213,0.1,0.0023577213287353516,0.052639007568359375,0.05094926,1.1185064,0.06599227507677997,0.0,0.001568242709611882,0.0,200,0.038402557373046875,0.6503805960160307,0.3739727386214409,3600,0.17105153095803607,0.0
18,1.165130615234375,0.3543687907744344,0.1775135217704811,0.6041450498249229,0.1023385325301719,0.0,0.13261398067686186,0.1,0.0027778148651123047,0.050972938537597656,0.049424924,1.42598,0.09482992664654541,0.0,0.007079126001331834,0.0,200,0.06396937370300293,0.7078421991831173,0.6476704652147303,3800,0.13329277340381065,0.0
19,1.169581413269043,0.07375658527300694,0.07371588480804049,0.2007674942260732,0.019322539835522505,0.0,0.1392609399471483,0.1,0.002852201461791992,0.052307844161987305,0.050137985,1.5387377,0.09272259250919157,0.0,0.0014531600689585112,0.0,200,0.03519868850708008,0.6374109165774239,0.8482138504782822,4000,0.13393926282679544,0.0
20,1.236168384552002,0.09859777357209623,0.026836279410925118,0.13278553934216594,0.057513447189574886,0.0,0.14252892479039975,0.1,0.0027484893798828125,0.06707525253295898,0.05005456,0.9133773,0.09331011061548204,0.0,0.0019557978966464203,0.0,200,0.03214669227600098,0.2609750837543654,0.29011909942794606,4200,0.19817149680239718,0.0
21,1.1848042011260986,0.07705561471370072,0.06690274448043729,0.17856937770268705,0.01128334742348989,0.0,0.13029554822356934,0.1,0.0022842884063720703,0.04577445983886719,0.048876725,1.7806633,0.09168466102530391,0.0,0.0015393406964058635,0.0,200,0.0402677059173584,0.8792508584988088,0.7842982165401672,4400,0.22301205674707578,0.0
22,1.2190048694610596,0.30521436172778793,0.24364555172017247,0.6030666360861284,0.024835900999328413,0.0,0.14034495311105952,0.1,0.0024518966674804688,0.045209646224975586,0.05005746,1.1029608,0.11303763109555232,0.0,0.006082814605320767,0.0,200,0.043207406997680664,0.6461791588939376,0.6300640366181068,4600,0.3963592493918949,0.0
23,1.2010633945465088,0.07273472685680094,0.02257529302628058,0.09552179472943426,0.03751350039508705,0.0,0.14946275866459982,0.1,0.002669811248779297,0.06135058403015137,0.049244903,0.7918908,0.10900734067167718,0.0,0.001436649828962585,0.0,200,0.09154009819030762,0.6969272787115524,0.7387620404627534,4800,0.5216290411823844,0.0
24,1.233903169631958,0.27508983763979944,0.20459535723803438,0.5153157970925398,0.015819750028126734,0.0,0.13512041290064886,0.1,0.007753610610961914,0.05042886734008789,0.05073555,1.1560311,0.1256155903684894,0.0,0.005403523989578565,0.0,200,0.07281279563903809,0.5950154931954779,0.557629981323765,5000,0.5605007123023674,0.0
25,1.2233946323394775,0.10422448482539085,0.05263315965324675,0.17086979968283147,0.031105271579537346,0.0,0.1440445882791057,0.1,0.0025162696838378906,0.05686306953430176,0.049671173,0.95042944,0.12347647981417956,0.0,0.002046638885857395,0.0,200,0.0737464427947998,0.3853302913973763,0.4853543845541661,5200,0.6494187692227981,0.0
26,1.254638910293579,0.19606792394866807,0.16257807829910226,0.46229565084158014,0.021100857079757892,0.0,0.13432258318911797,0.1,0.002439260482788086,0.05983281135559082,0.050432518,1.7201205,0.1307356242276284,0.0,0.003881837435031333,0.0,200,0.07535171508789062,0.5006205054433929,0.48645893244757177,5400,0.4022906725403261,0.0
27,1.2128639221191406,0.11180871212741994,0.14443968039817398,0.3602356192558893,0.00770112989938304,0.0,0.129354263294539,0.1,0.0025606155395507812,0.043520450592041016,0.050215777,1.764757,0.12884293301760757,0.0,0.002234331249118814,0.0,200,0.052399396896362305,0.7581553074184658,0.7289757605470277,5600,0.4692210706750457,0.0
28,1.1752283573150635,0.06553137460236147,0.0651354175617059,0.1782095216894791,0.02268403315013432,0.0,0.13459465024944944,0.1,0.002547740936279297,0.0489041805267334,0.049253162,1.7115128,0.12251177717608296,0.0,0.0013043214684535843,0.0,200,0.04267716407775879,1.8182384066140351,1.1623599839220122,5800,0.6326175558526433,0.0
29,1.2929222583770752,0.1653561830514347,0.13461962662168522,0.303313503365049,0.008633484303431554,0.0,0.13601095424570092,0.1,0.002743244171142578,0.05213141441345215,0.048912745,1.1495237,0.12679621776361813,0.0,0.0032955966192560683,0.0,200,0.035248517990112305,0.4658013450202704,0.49719600989027796,6000,0.5902819862494575,0.0
30,1.1315131187438965,0.15413502104435586,0.13330543637702985,0.34942376249833645,0.020012308026394296,0.0,0.13693551625383515,0.1,0.0027878284454345703,0.05665135383605957,0.050498128,1.1698375,0.12953009809169191,0.0,0.0030816923904820027,0.0,200,0.03066253662109375,0.5015491913112607,0.4894281212201629,6200,0.48101517416482137,0.0
31,1.1964712142944336,0.23915673089363487,0.2628087930260099,0.6938571988140869,0.06787763225697867,0.0,0.14103767415384097,0.1,0.0030536651611328125,0.05302095413208008,0.049628142,1.5179325,0.1404927613718862,0.0,0.004775239434700395,0.0,200,0.04173636436462402,0.679075608297359,0.643655965611789,6400,0.4732043220206134,0.0
32,1.1806824207305908,0.0891807523025216,0.03716913829241589,0.1379323562186379,0.03503532112329905,0.0,0.13633191689507795,0.1,0.002851247787475586,0.051732778549194336,0.049631547,1.0943251,0.13536156046494974,0.0,0.0017809865416547844,0.0,200,0.032462358474731445,0.6930920675568807,0.8418133465322414,6600,0.577640947738098,0.0
33,1.2177979946136475,0.32193761489369244,0.13754086035432075,0.49047368067375635,0.1652068509313261,0.0,0.1425778451808237,0.1,0.002759695053100586,0.05240750312805176,0.05035181,0.9051143,0.15401916590782402,0.0,0.006363326756235211,0.0,200,0.02794361114501953,0.45503966982008526,0.4036308237392292,6800,0.568175579545284,0.0
34,1.2210283279418945,0.08382610008490135,0.06782601625646512,0.19885852298460122,0.023036040070565707,0.0,0.1358453135241717,0.1,0.0026679039001464844,0.05095648765563965,0.050013095,1.3886403,0.14699985932553175,0.0,0.0016719096359281062,0.0,200,0.033246517181396484,1.3253983198369759,1.445004908778428,7000,0.49335892498962625,0.0
35,1.2445180416107178,0.2458812119364129,0.1901137379133401,0.4941118436241605,0.04406114147712885,0.0,0.13316154112892,0.1,0.002810239791870117,0.05028057098388672,0.049848214,1.3150356,0.15688799458661987,0.0,0.00491196951281985,0.0,200,0.028326749801635742,0.47569651702653126,0.468192551281927,7200,0.45335953061179063,0.0
36,1.2108428478240967,0.2672949408453411,0.21200198608319712,0.59996550415716,0.0329322114617346,0.0,0.12238617769857471,0.1,0.0028252601623535156,0.09844970703125,0.050419975,2.4399772,0.16792868921249202,0.0,0.005244858838532878,0.0,200,0.029558658599853516,0.5125113179027454,0.48319026341645893,7400,0.5537176931872224,0.0
37,1.2708995342254639,0.1362006606415821,0.12209957272125418,0.34421083986699,0.044884096373951195,0.0,0.13570624827107078,0.1,0.002865314483642578,0.052260398864746094,0.049872503,1.3377575,0.16475588635540103,0.0,0.002559417770925005,0.0,200,0.03226971626281738,0.6319701784138465,0.6522284029155575,7600,0.5573900220203206,0.0
38,1.2330691814422607,0.1398894876222181,0.06451220752858533,0.22499779413130608,0.04996350756607779,0.0,0.1419109426252456,0.1,0.002655506134033203,0.051087379455566406,0.049638778,1.2191777,0.16226924648208274,0.0,0.0027670701194527207,0.0,200,0.039942264556884766,0.5819387614180174,0.3742628141497244,7800,0.5618644019701522,0.0
39,1.2435243129730225,0.1346535552212361,0.1335346350715008,0.3546871351743302,0.014081946842769899,0.0,0.14490274100858286,0.1,0.0027933120727539062,0.053664207458496094,0.05025235,0.9786651,0.15950767735599808,0.0,0.002672400155879836,0.0,200,0.044016361236572266,0.5665429223375383,0.51037321925446,8000,0.5651133960316954,0.0
40,1.3258473873138428,0.29735438122073443,0.1314493208173421,0.4201717618135421,0.07567425803514632,0.0,0.13981666935110765,0.1,0.0024690628051757812,0.048247337341308594,0.050013833,0.86445856,0.1732923477424717,0.0,0.005852259436324215,0.0,200,0.045105934143066406,0.40954498496414926,0.37732113987015375,8200,0.5465015677574137,0.0
41,1.221254587173462,0.5027099892722678,0.25161772536194815,0.662883298048102,0.06785088749362699,0.0,0.1398665344997439,0.1,0.002215147018432617,0.04972076416015625,0.049769763,0.81858927,0.20623411189545132,0.0,0.009858721940893902,0.0,200,0.028744220733642578,0.6076121307083787,0.47591170798653915,8400,0.5090442140457173,0.0
42,1.2560088634490967,0.17755307720014565,0.11455870915671053,0.3746463064899786,0.09513153058916136,0.0,0.1276364447818877,0.1,0.0025911331176757812,0.05040860176086426,0.049900774,1.7083133,0.20336600842592076,0.0,0.003528576471395838,0.0,200,0.0718221664428711,0.42460182060109514,0.6613305059117138,8600,0.5199671398809967,0.0
43,1.317958116531372,0.5692296818986433,0.26022913511657203,1.0032268155736688,0.31819857852869216,0.0,0.12524536409550233,0.1,0.0044994354248046875,0.0507504940032959,0.049874593,1.8788838,0.23995237577319303,0.0,0.011367358024552795,0.0,200,0.0915217399597168,0.41675488986134346,0.34269823928740484,8800,0.5457715580549144,0.0
44,1.2526047229766846,0.47794047746789264,0.2296298203291553,0.788666244627947,0.16858275362852224,0.0,0.12966448812204856,0.1,0.0027778148651123047,0.05055594444274902,0.049743734,1.2059466,0.263751185942663,0.0,0.009358398571717507,0.0,200,0.02923750877380371,0.3016008291230948,0.26654443971345126,9000,0.5899296769654806,0.0
45,1.280393123626709,0.27902893606291546,0.21890485470118093,0.5033807583118132,0.05805450088926097,0.0,0.1315544698914829,0.1,0.002370119094848633,0.05387425422668457,0.049937658,1.0326482,0.2652789609546882,0.0,0.005487515768188799,0.0,200,0.039818763732910156,0.7598832512265735,0.712196948094383,9200,0.6633204572765355,0.0
46,1.1821508407592773,0.21236243176187214,0.12611197511525207,0.3707269991117529,0.02114599000921999,0.0,0.12846936410712437,0.1,0.002683401107788086,0.04996943473815918,0.04963279,1.1885023,0.2599873080354066,0.0,0.004243427642457553,0.0,200,0.06287503242492676,1.5170346086299886,0.6864697840954587,9400,0.7897063688974594,0.0
47,1.188190221786499,0.25609166584323895,0.15397090200979183,0.47194948516569873,0.07650809948839801,0.0,0.13901562087738623,0.1,0.002622365951538086,0.04504823684692383,0.049181696,1.3802968,0.25959774381618983,0.0,0.004981972494578272,0.0,200,0.03336143493652344,0.44888814008473293,0.3301359724200859,9600,0.7453057060311342,0.0
48,1.246614933013916,0.5452258409208193,0.12291996545174441,0.6871663938290431,0.3811867148505121,0.0,0.13287175543704577,0.1,0.002858400344848633,0.05189085006713867,0.049545597,1.2081289,0.28816055352665276,0.0,0.010827991410765705,0.0,200,0.0393679141998291,0.3531284542393184,0.37953224608602004,9800,0.9549746443952958,0.0
49,1.236771821975708,0.36123128259589204,0.20956559584937115,0.6020954653588326,0.10645974745079738,0.0,0.1332000867521842,0.1,0.0028502941131591797,0.05070185661315918,0.048722148,1.2293711,0.29546762643357666,0.0,0.007183338724994116,0.0,200,0.08597397804260254,0.3835688803242089,0.3583726570990601,10000,0.8944846970290211,0.0
50,1.259566068649292,0.3512665348432679,0.06649750429695732,0.44542818034527554,0.28584231453775805,0.0,0.12380158681637282,0.1,0.0030214786529541016,0.05011582374572754,0.050432757,1.7551968,0.3010475172745458,0.0,0.00683941108869344,0.0,200,0.06485223770141602,0.15851717097988363,0.11544946473316216,10200,0.9539712246772579,0.0
51,1.2997677326202393,0.3205436886079243,0.24167571790555822,0.7312898791163667,0.10807418561773822,0.0,0.13028065738809105,0.1,0.002771139144897461,0.051560163497924805,0.04878726,1.7912135,0.3029971344078837,0.0,0.006407836367914652,0.0,200,0.03248453140258789,0.4619243944434565,0.45953536872721545,10400,1.009014919557813,0.0
52,1.2394354343414307,0.28437459622863914,0.23445482146778254,0.6494237299216811,0.03784217087051127,0.0,0.12878988178544326,0.1,0.002777099609375,0.05086469650268555,0.049270328,1.9409323,0.30113488058995924,0.0,0.005665992994720893,0.0,200,0.02998828887939453,0.4923258551133483,0.4808462814983295,10600,1.0417614178204266,0.0
53,1.2824599742889404,0.3524790186750628,0.16475526858113818,0.5556318166855673,0.10874521225559419,0.0,0.1335319937663979,0.1,0.002562284469604492,0.05226731300354004,0.049672756,1.3095677,0.30626929439846956,0.0,0.006931281622212736,0.0,200,0.03369259834289551,0.24066726575213204,0.23983760975593937,10800,1.0165250813653495,0.0
54,1.2182667255401611,0.30755739956173944,0.16228512101610282,0.5281254213796192,0.07291626303651533,0.0,0.1292959078591932,0.1,0.0028111934661865234,0.05081820487976074,0.04987819,0.9326892,0.3063981049147965,0.0,0.006118663061320024,0.0,200,0.023320674896240234,0.25184242511425364,0.24783726240612977,11000,0.9372616976100581,0.0
55,1.2400662899017334,0.3909167762034844,0.27828772376043037,0.8535135866698442,0.1574819862283003,0.0,0.13685347047238486,0.1,0.0026857852935791016,0.044938087463378906,0.050281048,1.6528221,0.3148499720436653,0.0,0.00771674468134431,0.0,200,0.020666837692260742,0.41007198634277386,0.3980365349241177,11200,0.9770542094146523,0.0
56,1.1919574737548828,0.2464659243524642,0.24136526754247098,0.658575555954708,0.06953815848440775,0.0,0.129219694568884,0.1,0.0026216506958007812,0.04450488090515137,0.049935013,1.7588837,0.3080115672745452,0.0,0.0048264025186763974,0.0,200,0.04238486289978027,0.5722215916725586,0.5552503082086373,11400,1.2105015384565723,0.0
57,1.1932330131530762,0.4322773928448488,0.4170998241354495,1.0910628246897909,0.02568233439283071,0.0,0.13768756877936753,0.1,0.00238800048828125,0.04423213005065918,0.04985367,1.1308367,0.32043814983157554,0.0,0.008541005250689761,0.0,200,0.10282731056213379,0.5284399909828997,0.5164198949050484,11600,1.1822916344547834,0.0
58,1.2256548404693604,0.3912600461357097,0.012887110185640281,0.4127027303490424,0.38071036497154215,0.0,0.1262805046047926,0.1,0.002393007278442383,0.04391956329345703,0.050513133,0.9439572,0.32752033946198894,0.0,0.007772600269458277,0.0,200,0.1561570167541504,0.07040527164285806,0.05720537671221041,11800,1.2354971646409714,0.0
59,1.1965429782867432,0.43494460314673433,0.26239211444422844,0.8716553381426535,0.18249002493752417,0.0,0.13319467234983726,0.1,0.002474546432495117,0.04526162147521973,0.05021015,1.4412429,0.33826276583046344,0.0,0.008631456124208273,0.0,200,0.038983821868896484,0.33174802832839323,0.31873278922319276,12000,0.9217105131850752,0.0
60,1.3661539554595947,0.10609099034215186,0.04128885000415455,0.1411447378692208,0.035649568633023036,0.0,0.130793594533473,0.1,0.003066539764404297,0.08857417106628418,0.050392732,1.0391105,0.3150455882816323,0.0,0.002095161109974931,0.0,200,0.15101122856140137,7.144184612317565,5.058081241945302,12200,1.0092551827093759,0.0
61,1.1254560947418213,0.21445791651736945,0.16511933901088924,0.4734879577886384,0.0516389537552292,0.0,0.1341747342188547,0.1,0.002201557159423828,0.042633056640625,0.049377594,0.89536005,0.30498682110520603,0.0,0.004200869286866001,0.0,200,0.040869951248168945,0.6323302488790916,0.44336710292417775,12400,0.99005392264274,0.0
62,1.176635503768921,0.39455069666432613,0.3066256761987776,0.913928146179818,0.1514236623978006,0.0,0.13197326115750582,0.1,0.002254009246826172,0.042607784271240234,0.049562406,1.4320805,0.313943208661118,0.0,0.00785481027340568,0.0,200,0.09632658958435059,0.4725845507963262,0.4985813663198493,12600,0.8958365611290788,0.0
63,1.3133881092071533,0.33234187138246807,0.1952162471024983,0.6165457076632717,0.14077856738486946,0.0,0.12326472581809511,0.1,0.0025899410247802734,0.048000335693359375,0.04953274,1.4961555,0.3157830749332531,0.0,0.006570436789412562,0.0,200,0.04624581336975098,0.4021827920909939,0.35306670744361635,12800,1.0603849599472708,0.0
64,1.298316240310669,0.303336955029373,0.09955968948197295,0.42201897886742484,0.15216665416810057,0.0,0.13032692321462913,0.1,0.002499818801879883,0.054427385330200195,0.049835462,1.0045394,0.3145384629428651,0.0,0.006041277074648273,0.0,200,0.04637455940246582,0.17606668034467943,0.15593672162252017,13000,1.279269944553972,0.0
65,1.246483564376831,0.38949914140001884,0.18352204217025087,0.6004636675844606,0.1071012432878595,0.0,0.13419692365814556,0.1,0.0032052993774414062,0.04890799522399902,0.05037919,1.0321245,0.32203453078858046,0.0,0.007731907169410698,0.0,200,0.035332441329956055,0.3142940609132502,0.3012691184622878,13200,1.0245546528045608,0.0
66,1.2220745086669922,0.46957037925903755,0.2516439664411727,0.742758150387303,0.06462209553742262,0.0,0.13241125186699906,0.1,0.002460002899169922,0.04899430274963379,0.049546424,1.016775,0.3367881156356262,0.0,0.009365016934492997,0.0,200,0.03874921798706055,0.36790077883872724,0.3428376460705028,13400,0.9280562899734531,0.0
67,1.265892505645752,0.2184033903910653,0.1656002884234057,0.4199966814495789,0.054661662129474126,0.0,0.13082857667766742,0.1,0.0026264190673828125,0.052063941955566406,0.050322123,1.167985,0.32494964311117014,0.0,0.0043217242978211366,0.0,200,0.04940938949584961,0.6256491262704835,0.6178011565167955,13600,0.9496079340935987,0.0
68,1.274688482284546,0.4294899664191347,0.26638022730459693,0.7621571865851747,0.1415010234056901,0.0,0.1401616896479923,0.1,0.0031168460845947266,0.057799339294433594,0.05016857,0.91344035,0.33540367544196664,0.0,0.008579023370819222,0.0,200,0.024909496307373047,0.3375418140605743,0.3342005759718059,13800,0.7988716729266422,0.0
69,1.2401347160339355,0.4060743135212239,0.25455880997356684,0.7376082552201398,0.03637896138985007,0.0,0.13144546585897104,0.1,0.0027158260345458984,0.051407814025878906,0.050109096,1.1196396,0.3424707392498924,0.0,0.008096425945604079,0.0,200,0.051282644271850586,0.3763394994396244,0.3650757415614254,14000,0.823856003300543,0.0
70,1.2704131603240967,0.34664358393575695,0.2862964359253675,0.7905231382390494,0.039780240270564225,0.0,0.1299148471130069,0.1,0.002791166305541992,0.05091261863708496,0.04995722,2.1016035,0.3428880237184789,0.0,0.006845996120933084,0.0,200,0.16190505027770996,0.4466684464866605,0.44448142678425406,14200,0.8270100874738877,0.0
71,1.2355844974517822,0.3811983798552849,0.2663695265841322,0.6763869387859622,0.07877567116639608,0.0,0.1312302348441673,0.1,0.002695798873901367,0.05356335639953613,0.05000711,1.1000217,0.34671905933215946,0.0,0.007562513386656462,0.0,200,0.06218767166137695,0.3854850221121801,0.37688313351242075,14400,0.666687011924218,0.0
72,1.3936448097229004,0.5464177682184193,0.16558926240718333,0.7649179061804805,0.2985221252291782,0.0,0.12910040931518238,0.1,0.0027854442596435547,0.05113554000854492,0.04997875,1.733872,0.3666889302207854,0.0,0.010795108911032362,0.0,200,0.032590627670288086,0.24449516178628836,0.21015426226854866,14600,0.6614741057065628,0.0
73,1.3381192684173584,0.5472977086490838,0.2143278189379281,0.8989293403845465,0.31798409906571634,0.0,0.13509030865215935,0.1,0.002810239791870117,0.05231308937072754,0.050580263,1.3457248,0.38474980806361525,0.0,0.010857218509396312,0.0,200,0.04800009727478027,0.2556204487870815,0.21369719393184275,14800,0.655201351687513,0.0
74,1.310683250427246,0.3644324328085544,0.26157045028658293,0.7317946645514701,0.054662694144263724,0.0,0.12671177192739647,0.1,0.002726316452026367,0.07174181938171387,0.04971211,1.4767195,0.3827180705381092,0.0,0.0072099570618334545,0.0,200,0.03252601623535156,0.4616759976365388,0.4723562023057853,15000,0.4688222562799076,0.0
75,1.296546459197998,0.42308151774483915,0.2574756531080058,0.8676540965668011,0.24716762109098855,0.0,0.13347789930155557,0.1,0.0027604103088378906,0.05067920684814453,0.049567804,1.441614,0.38675441525878224,0.0,0.00841716816899145,0.0,200,0.04566025733947754,0.3812320850072834,0.34398501685734845,15200,0.4893106451228085,0.0
76,1.320441722869873,0.4306835658440953,0.2649253022319951,0.8424570158520016,0.14348351414409455,0.0,0.12363864388850619,0.1,0.002681732177734375,0.0540471076965332,0.04997148,1.7999034,0.3911473303173136,0.0,0.008484915760213887,0.0,200,0.022027254104614258,0.32245120686013057,0.3168895839799205,15400,0.48732292553015427,0.0
77,1.2802906036376953,0.40349527224715453,0.23149462126416726,0.5982082631808477,0.010065430345998692,0.0,0.13429748425705484,0.1,0.00263214111328125,0.0497438907623291,0.050523326,0.7297939,0.3923821245102977,0.0,0.007859356347708847,0.0,200,0.1017916202545166,0.2694773827831636,0.2642032097621927,15600,0.7570834795172791,0.0
78,1.3526041507720947,0.3865846309428232,0.18400640184032382,0.6916222905645046,0.2001485311173202,0.0,0.1304548362616958,0.1,0.002717733383178711,0.04846501350402832,0.049787316,1.3727462,0.39180237515355026,0.0,0.007643954328451007,0.0,200,0.036052703857421875,0.2529352536461834,0.2471869185616632,15800,0.5501000786873377,0.0
79,1.3105547428131104,0.41794118450374973,0.205875402727268,0.6237410787355592,0.08334397130343926,0.0,0.1267106757173169,0.1,0.0026760101318359375,0.05111074447631836,0.04925494,1.0419798,0.3944162560885702,0.0,0.008257471736279377,0.0,200,0.08822512626647949,0.2496580814893374,0.24425023803364118,16000,0.47471481449966274,0.0
80,1.2447583675384521,0.4445338366797691,0.15070631649848074,0.5607178329718153,0.1915569512299696,0.0,0.1374377108833355,0.1,0.0029838085174560547,0.05090498924255371,0.05007322,1.1098857,0.39942801414769014,0.0,0.008753601019818702,0.0,200,0.033190011978149414,0.208018491515074,0.20010862685923497,16200,0.7461628542305431,0.0
81,1.2855088710784912,0.5592070767566504,0.21853122515775728,0.895929104294745,0.31476292128308725,0.0,0.1286178752430839,0.1,0.008322000503540039,0.05927705764770508,0.04960475,1.4644017,0.41540592040858615,0.0,0.011127517990242952,0.0,200,0.028208255767822266,0.23271365595171853,0.2058596542670022,16400,0.7895222393316262,0.0
82,1.3170466423034668,0.4054476881325134,0.254533932266169,0.769778422808385,0.051086988209486775,0.0,0.12636511934966607,0.1,0.0028586387634277344,0.051444053649902344,0.049530536,1.446694,0.41441009718097893,0.0,0.008058552871256765,0.0,200,0.030135393142700195,0.318645074466508,0.32107031971280026,16600,0.7037289473329021,0.0
83,1.309356927871704,0.40903512279917076,0.18359940937989563,0.6971426097969478,0.23347709914863504,0.0,0.13118648318795895,0.1,0.003062009811401367,0.05412864685058594,0.049573086,1.4029765,0.4138725997427981,0.0,0.00807617975462935,0.0,200,0.07340121269226074,0.24676682444710218,0.24502447540188818,16800,0.733433509038583,0.0
84,1.2714653015136719,0.4817567054477917,0.16001202643005394,0.6751815177519356,0.26116050762394794,0.0,0.1277448201206053,0.1,0.0028960704803466797,0.049794912338256836,0.050138764,0.9696152,0.4206610103132975,0.0,0.009410464145142376,0.0,200,0.03265500068664551,0.15367675552462473,0.14926880135470263,17000,1.3710732845034281,0.0
85,1.2949750423431396,0.6858028001300918,0.40464422836327674,1.1193355470901958,0.1826565676078031,0.0,0.1293529835373677,0.1,0.0029036998748779297,0.05111360549926758,0.05011392,1.1216129,0.44717518929497696,0.0,0.01344910309793207,0.0,200,0.06685423851013184,0.39477612679831037,0.35185860625514254,17200,1.4180978766549577,0.0
86,1.291712760925293,0.557246463832325,0.3463830398573359,1.119293897500802,0.20909149470425875,0.0,0.13600171109308282,0.1,0.0063855648040771484,0.050888776779174805,0.05045359,1.5479237,0.45818231674871174,0.0,0.011082457267098687,0.0,200,0.15191316604614258,0.33958803922185676,0.3454343594906132,17400,1.3482173438378686,0.0
87,1.3125338554382324,0.4244683390287386,0.14042000527631232,0.6334798177099825,0.2376611077667537,0.0,0.13277589606024964,0.1,0.002607583999633789,0.046813249588012695,0.050649196,1.2283347,0.45481091897671444,0.0,0.00827479538830618,0.0,200,0.053688764572143555,0.2420099293852315,0.2043715218377922,17600,0.7211417091365658,0.0
88,1.4273285865783691,0.6719664281152349,0.20396827349152086,0.9576870238503443,0.4356898118229927,0.0,0.12391230072967035,0.1,0.0025484561920166016,0.05523490905761719,0.04992303,1.3425026,0.4765264698905665,0.0,0.013302618845411495,0.0,200,0.028419017791748047,0.15377572348155935,0.15682565469763365,17800,0.6932419065293566,0.0
89,1.348548412322998,0.7109662374084063,0.33697223519605907,1.1130323202325063,0.17811775427278823,0.0,0.12790373869771704,0.1,0.0026786327362060547,0.050264596939086914,0.05019889,1.1406726,0.4999704466423505,0.0,0.013947943729782027,0.0,200,0.050748586654663086,0.25035664385451484,0.2296868859744893,18000,1.1007283414331048,0.0
90,1.3356897830963135,0.5604181626800117,0.3566669582390415,1.0252051707961343,0.03290093369230399,0.0,0.12614285896993815,0.1,0.002921581268310547,0.04978799819946289,0.049774494,1.0809858,0.5060152182461166,0.0,0.011094232282448444,0.0,200,0.045296669006347656,0.34417336960188266,0.3399876804616372,18200,0.7668046578827791,0.0
91,1.3415005207061768,0.2847908526229064,0.18049933927724937,0.5295697494430563,0.10441558946835218,0.0,0.12887830813380002,0.1,0.002752542495727539,0.05702471733093262,0.050092597,1.2434543,0.4838927816837956,0.0,0.005503712015369038,0.0,200,0.11875772476196289,1.4332846089189932,0.733653341868897,18400,1.0907195849179956,0.0
92,1.3676121234893799,0.49174632877545255,0.2849335710523553,0.7813831290376269,0.07837144284049946,0.0,0.12757892196442183,0.1,0.002767324447631836,0.04523968696594238,0.048172317,1.5805081,0.4846781363929613,0.0,0.00965123069818665,0.0,200,0.11467456817626953,0.292657523144164,0.3204199727714773,18600,1.0352929082932818,0.0
93,1.3687160015106201,0.49794854605918726,0.29615980106596057,0.8632674133321678,0.07989125731986604,0.0,0.1311495782163183,0.1,0.002614259719848633,0.07450127601623535,0.048815895,1.2319628,0.48600517735958393,0.0,0.009758778703974335,0.0,200,0.06041693687438965,0.3487643419674072,0.34021913772901696,18800,1.1172890677674354,0.0
94,1.3666112422943115,0.6052619052148616,0.2533509937932455,1.041383346956739,0.4144698764176815,0.0,0.1346535486524402,0.1,0.002854585647583008,0.052263736724853516,0.048910733,1.677381,0.49793085014511174,0.0,0.011920396555552017,0.0,200,0.03297567367553711,0.33557053039480755,0.2669009965931973,19000,1.5222780146337695,0.0
95,1.2751328945159912,0.6602803861804962,0.2424813053983281,1.0161584166610327,0.3329623776056955,0.0,0.1245545557068014,0.1,0.002704143524169922,0.05343317985534668,0.04988735,1.4850136,0.5141658037486502,0.0,0.013141118462944145,0.0,200,0.03647446632385254,0.2520526160904181,0.1883490148033794,19200,0.971882795468126,0.0
96,1.2578790187835693,0.6703846677938408,0.3217079655888119,1.187407685542649,0.3047390419757992,0.0,0.12322517729908292,0.1,0.0034589767456054688,0.052533626556396484,0.049562704,2.3252943,0.5297876901531693,0.0,0.013318463531118468,0.0,200,0.06227684020996094,0.2738584457154558,0.2538306329328152,19400,1.10038724852062,0.0
97,1.2599365711212158,0.5016343726311184,0.30555407278594177,0.9874021881992999,0.15150317056370938,0.0,0.11710396668030754,0.1,0.0026781558990478516,0.05386781692504883,0.050291765,4.6441417,0.5269723584009642,0.0,0.009978130068716597,0.0,200,0.04491472244262695,0.42504891379568194,0.414315291705937,19600,1.5123496504800717,0.0
98,1.318392038345337,0.7119405478291672,0.1633818963714821,0.9674587026705133,0.5159597728414048,0.0,0.12235224566635941,0.1,0.00847172737121582,0.05363941192626953,0.04902242,1.0328419,0.5454691773437845,0.0,0.014072456992663244,0.0,200,0.09155678749084473,0.11724463189204529,0.09997524643677012,19800,1.5551233860811464,0.0
99,1.322800874710083,0.7169367434449496,0.16654552775995315,0.9451485287858146,0.5539598718420128,0.0,0.12150338401366334,0.1,0.0027456283569335938,0.0514676570892334,0.05067238,1.1385057,0.5626159339539011,0.0,0.014168949345710358,0.0,200,0.039226531982421875,0.119224051550341,0.0997894884075212,20000,1.1648066347834527,0.0
100,1.3345832824707031,0.49670190742485504,0.12896743518397838,0.6138199374385123,0.28242714007173775,0.0,0.12870198790766568,0.1,0.0029010772705078125,0.07831788063049316,0.049645122,1.279302,0.5560245313009965,0.0,0.00983607044137677,0.0,200,0.05685997009277344,0.1685057751736953,0.1676507931295432,20200,0.9862100262084296,0.0
101,1.3733527660369873,0.36199463045087,0.23788630010400091,0.6695867676407142,0.014304013391410757,0.0,0.12336591926522761,0.1,0.0028052330017089844,0.051572561264038086,0.049649097,0.9432037,0.5366215412159839,0.0,0.007211021220650482,0.0,200,0.06268978118896484,0.6530132393644216,0.4662713899746317,20400,0.8496261431887463,0.0
102,1.3865177631378174,0.7919579118182342,0.3504642686924927,1.161346915914801,0.21469324552898286,0.0,0.13239704590189996,0.1,0.0026547908782958984,0.05219435691833496,0.05048197,0.9280205,0.562155178276209,0.0,0.015588548474369433,0.0,200,0.15697407722473145,0.29263223500414254,0.2968571735366513,20600,0.9427183471172538,0.0
103,1.3952972888946533,0.695524233738107,0.36967560691574514,1.2829163731654512,0.34164780347868196,0.0,0.13059882250127983,0.1,0.002726316452026367,0.050147294998168945,0.04946671,2.1838999,0.5754920838223988,0.0,0.013548937783104516,0.0,200,0.07872962951660156,0.3271833101121559,0.27823353148663876,20800,1.0705201753731595,0.0
104,1.4721601009368896,0.5621989826102848,0.21659992139337603,0.9333184069085306,0.3869755223283532,0.0,0.12937167795893814,0.1,0.002797365188598633,0.05273079872131348,0.049678907,1.4341714,0.5741627737011874,0.0,0.011114959314341935,0.0,200,0.043814659118652344,0.1798130737551649,0.20247104087455917,21000,1.3291249793337025,0.0
105,1.406529426574707,0.7138501194386918,0.28850746600206634,1.1786869834219145,0.4521563909597573,0.0,0.13360423160859017,0.1,0.0026221275329589844,0.04861044883728027,0.049380973,1.2141353,0.5881315082749379,0.0,0.014021207252488281,0.0,200,0.07370567321777344,0.19892720198805441,0.1922278091421467,21200,0.9953533153381282,0.0
106,1.3719689846038818,0.6512043938663421,0.20477453997120812,0.8981505776115264,0.34949702258428084,0.0,0.12297805259746367,0.1,0.028148412704467773,0.05608010292053223,0.049374007,1.5677612,0.5944387968340784,0.0,0.01284802312464837,0.0,200,0.11083292961120605,0.16896151052336622,0.1655630877723796,21400,1.7028118040393085,0.0
107,1.4326286315917969,0.8880277568766081,0.36488783401744296,1.2656768364126358,0.28840366387008104,0.0,0.12456381221721237,0.1,0.0026366710662841797,0.04731941223144531,0.049328484,1.1836226,0.6237976928383314,0.0,0.017386173716164927,0.0,200,0.05751633644104004,0.24255720297348202,0.22134374782722074,21600,1.5605780407142795,0.0
108,1.422029733657837,0.7602038768012649,0.4028651120604136,1.412288936208714,0.3408270007962697,0.0,0.13035673118270616,0.1,0.019526958465576172,0.05034303665161133,0.049556967,1.4289572,0.6374383112346248,0.0,0.015086084898146581,0.0,200,0.08931684494018555,0.270820657775029,0.25396494971855155,21800,1.5583143171796383,0.0
109,1.4707417488098145,0.31438272562865255,0.09899045300042014,0.4113194353324999,0.16015568679090011,0.0,0.12610904859312375,0.1,0.0026237964630126953,0.0460352897644043,0.049800854,0.97041297,0.6051327526740276,0.0,0.006188738061768853,0.0,200,0.056688547134399414,1.7263271005651952,1.0467573329328532,22000,0.672343110723791,0.0
110,1.3824801445007324,0.5211497952452917,0.3089815377497694,1.0254316392637544,0.2359488920049081,0.0,0.12967827956730293,0.1,0.0025959014892578125,0.05063748359680176,0.049411688,1.237229,0.596734456931154,0.0,0.01027846755060604,0.0,200,0.06055474281311035,0.34122340645397525,0.2832152683919005,22200,0.5483812952059072,0.0
111,1.8358335494995117,0.5929216892060093,0.5347328006966725,1.4916125076308466,0.08877988963272848,0.0,0.1339694118846186,0.1,0.002453327178955078,0.05491805076599121,0.050211392,1.5070894,0.5963531801586396,0.0,0.011625100945245033,0.0,200,0.04503059387207031,0.5163040008444053,0.5299227652156616,22400,0.7302148385900565,0.0
112,1.286351203918457,0.5820681233273518,0.2755763788737437,1.0130888862240366,0.2562757221585914,0.0,0.12102557578153078,0.1,0.0029022693634033203,0.05134010314941406,0.049739417,2.4647334,0.5949246744755108,0.0,0.011424019573669154,0.0,200,0.1081082820892334,0.32740321979670356,0.2991142594491181,22600,0.7974957504258248,0.0
113,1.3998515605926514,0.3341678477335238,0.20351731205295553,0.6695430673019914,0.12442656718434318,0.0,0.1282989540942434,0.1,0.003354787826538086,0.052004098892211914,0.04994236,1.0684398,0.5688489918013121,0.0,0.006648636199905942,0.0,200,0.06914448738098145,0.4198157232578159,0.41466632122448255,22800,1.2648660162020504,0.0
114,1.3453125953674316,0.6907843240271148,0.494519356386156,1.4281528376170418,0.15957498732349745,0.0,0.12906153584964372,0.1,0.0027251243591308594,0.046926021575927734,0.04965177,1.2458124,0.5810425250238924,0.0,0.013710498438083873,0.0,200,0.05855417251586914,0.4136028377999277,0.39870975759558697,23000,1.3825419287689085,0.0
115,1.3418753147125244,0.732417139670786,0.2940101521117188,1.0640742906950116,0.2905385204864857,0.0,0.12973308853493842,0.1,0.0024230480194091797,0.04770517349243164,0.04989623,1.0738183,0.5961799864885817,0.0,0.014577363946400794,0.0,200,0.04482078552246094,0.2702716582609268,0.2414176738724856,23200,1.6576477312520081,0.0
116,1.3559455871582031,0.7238209977491432,0.1467681020742161,0.8803283583438036,0.501711287263491,0.0,0.12446129953248238,0.1,0.002954721450805664,0.056295156478881836,0.050082967,1.2184254,0.6089440876146378,0.0,0.014091805623794872,0.0,200,0.03440141677856445,0.1487754668745083,0.11185902595703182,23400,1.9263405007686838,0.0
117,1.3904035091400146,0.18719889982177038,0.06429832512146753,0.24696555521053237,0.07880468584809186,0.0,0.12398924121315635,0.1,0.0026788711547851562,0.05303072929382324,0.049565945,2.2158103,0.566769568835351,0.0,0.0037029491116590376,0.0,200,0.13793540000915527,5.754217649469066,4.678163944097283,23600,1.8086123113929318,0.0
118,1.3618261814117432,0.4546752972995224,0.21829056911904646,0.7310589862364771,0.1652509605057108,0.0,0.13134387884546808,0.1,0.002645254135131836,0.05067563056945801,0.050516147,1.0804713,0.5555601416817681,0.0,0.008806693291838294,0.0,200,0.07495307922363281,0.2777018897346727,0.22891174919487733,23800,1.29262499327784,0.0
119,1.414093255996704,0.8113085121704066,0.38439431626659437,1.4157316866913092,0.3588249419177022,0.0,0.12784680047972696,0.1,0.0028531551361083984,0.07968306541442871,0.05016008,1.1509144,0.581134978730632,0.0,0.015956222599173307,0.0,200,0.03160524368286133,0.3312704595813733,0.3317019639711736,24000,1.7547708300540175,0.0
120,1.392223834991455,0.3863258064763773,0.22203499527143805,0.6175524423571954,0.026269989169630643,0.0,0.13396150149876868,0.1,0.0026013851165771484,0.04671072959899902,0.048890546,0.7587232,0.5616540615052066,0.0,0.007692885507159046,0.0,200,0.06618237495422363,0.3011812436675128,0.29971941467825397,24200,1.6836289043625257,0.0
121,1.4175803661346436,0.39846838419062103,0.18606467589154838,0.6302599188204014,0.1571213971538529,0.0,0.12224843197920196,0.1,0.00269317626953125,0.0503232479095459,0.04981369,2.3225336,0.545335493773748,0.0,0.007864230568342675,0.0,200,0.053594350814819336,0.29408023057750426,0.28060126639036737,24400,1.5500667329379392,0.0
122,1.41145658493042,0.4104769300031422,0.2696883527778528,0.8297487187363144,0.16745965296563148,0.0,0.12389039713857614,0.1,0.002880096435546875,0.05507826805114746,0.049569365,1.4848744,0.5318496373966874,0.0,0.007980142185862883,0.0,200,0.028724193572998047,0.31818109476498335,0.3067021006580206,24600,0.6591337168812074,0.0
123,1.4233183860778809,0.5569691657057727,0.2641825459119675,0.9476564749231622,0.20657486028067623,0.0,0.12466578870563502,0.1,0.00260162353515625,0.04958295822143555,0.0492285,1.5488138,0.534361590227596,0.0,0.011118143869947002,0.0,200,0.05199146270751953,0.23915335944290086,0.24175848906289585,24800,1.8590853803618153,0.0
124,1.3575799465179443,0.540851243511628,0.2681105752371975,0.9186756446826502,0.19269939600532732,0.0,0.12425435542005753,0.1,0.0028340816497802734,0.05224800109863281,0.050236292,1.2949785,0.5350105555559992,0.0,0.010607243519883274,0.0,200,0.11881852149963379,0.24905327726960674,0.24107497514227644,25000,1.4795165230705436,0.0
125,1.463573932647705,0.551915218609456,0.43345010824682684,1.267110479266738,0.11760982750094004,0.0,0.1254812826589009,0.1,0.002622365951538086,0.05111980438232422,0.05035128,1.6164638,0.5367010218613448,0.0,0.010681154815808502,0.0,200,0.07040905952453613,0.4310606597066497,0.4161651193643427,25200,1.6560546682724333,0.0
126,1.4475276470184326,0.47646191186992937,0.30037807915350623,0.9891845295697218,0.24626868257788284,0.0,0.12382059182252798,0.1,0.0028107166290283203,0.05359649658203125,0.049681984,2.539884,0.5306771108622033,0.0,0.009508881240334385,0.0,200,0.044888973236083984,0.3609097192056007,0.36372922667077845,25400,1.7565190568197695,0.0
127,1.4641656875610352,0.7600957587259769,0.34091967689530367,1.0923536065283879,0.19988325249191655,0.0,0.12690787315924582,0.1,0.018978118896484375,0.07723593711853027,0.049422726,1.0836734,0.5536189756485806,0.0,0.014784317820911313,0.0,200,0.16926980018615723,0.30812762454174264,0.27514238699566657,25600,1.6438913723551227,0.0
128,1.5380523204803467,0.7874401686199771,0.23105457260412696,1.0739719870009052,0.5343397345211681,0.0,0.12147965975071048,0.1,0.002432107925415039,0.046726226806640625,0.050775904,1.5881865,0.5770010949457203,0.0,0.015444845302447031,0.0,200,0.039406538009643555,0.2158637026321414,0.1705600431827133,25800,1.552082990290747,0.0
129,1.3408174514770508,0.6738416266027129,0.32312693753941646,1.0523107216141279,0.16665534154709502,0.0,0.12576693599453515,0.1,0.0027463436126708984,0.04873824119567871,0.05005889,1.2247195,0.5866851481114195,0.0,0.013190040451849365,0.0,200,0.07848930358886719,0.2058660284047876,0.2102715516889046,26000,1.7596317641927728,0.0
130,1.3965587615966797,0.6612305408640868,0.3995215438614726,1.1971177544569835,0.07761868299195156,0.0,0.12447574477616234,0.1,0.007544040679931641,0.0513308048248291,0.049666014,0.96263504,0.5941396873866863,0.0,0.013015737127396105,0.0,200,0.06076526641845703,0.32291983314799516,0.31462372769040875,26200,1.6475345969617932,0.0
131,1.3672080039978027,0.8093651620784355,0.34795024142783465,1.2280520151816063,0.450789551133462,0.0,0.13544767958675713,0.1,0.0028028488159179688,0.05159711837768555,0.049949594,1.1979277,0.6156622348558612,0.0,0.01598665106010004,0.0,200,0.09030270576477051,0.22879114181279922,0.21306623847603023,26400,1.6573413003689328,0.0
132,1.405433177947998,0.5173465414597298,0.16023143197800457,0.6838869079979439,0.29461439083889135,0.0,0.13175600939387644,0.1,0.0027425289154052734,0.05146431922912598,0.050311033,0.94546396,0.6058306655162481,0.0,0.010129624152425885,0.0,200,0.10543203353881836,0.18887994962610802,0.15261035670936646,26600,1.7783507333019875,0.0
133,1.4151604175567627,0.5825306862537079,0.34697422253354504,0.9820447546801344,0.2372419076382167,0.0,0.1258211201274502,0.1,0.0028536319732666016,0.0517582893371582,0.048822545,1.2401173,0.6035006675899941,0.0,0.011577496177694102,0.0,200,0.026288986206054688,0.3629936303312797,0.3503216781721469,26800,1.1313132726741892,0.0
134,1.4146802425384521,0.5754957757101439,0.23964627144464998,0.8553557289925918,0.20776061246840088,0.0,0.12616228783733,0.1,0.003068208694458008,0.05424237251281738,0.049840312,0.94224054,0.6007001784020092,0.0,0.011312758094370459,0.0,200,0.06381535530090332,0.20416546064893676,0.20002264238849174,27000,0.3376627322385853,0.0
135,1.480182409286499,0.1989765009755661,0.11695437048652295,0.3218366854865522,0.059983845974887214,0.0,0.129634882313323,0.1,0.0027930736541748047,0.05227041244506836,0.049724285,0.90597445,0.5605278106593649,0.0,0.003859317473617928,0.0,200,0.04072856903076172,2.920920129786358,1.8999840234740175,27200,0.8195108543573584,0.0
136,1.3942503929138184,0.6911137426912722,0.23279423190681114,0.8490022659744237,0.2906358718788288,0.0,0.12951808603007223,0.1,0.002753734588623047,0.04481315612792969,0.05007521,1.0497565,0.5735864038625555,0.0,0.013407587434837592,0.0,200,0.0384669303894043,0.22242081540000927,0.2386979237090849,27400,0.5454105633090113,0.0
137,1.4228017330169678,0.3647071693828155,0.08303739856373406,0.4865581993571804,0.25553869567851656,0.0,0.11875379468108929,0.1,0.002681255340576172,0.05152106285095215,0.049394075,1.4750262,0.5526984804145816,0.0,0.007051077717668669,0.0,200,0.03896212577819824,0.17356890931157293,0.1554073812119736,27600,0.9124838847461735,0.0
138,1.3888750076293945,0.9605253324548673,0.2082200626536826,1.2067304978100297,0.6310060203215636,0.0,0.12416233273871519,0.1,0.003065824508666992,0.04908108711242676,0.049708195,0.9438338,0.5934811656186102,0.0,0.018804191640217342,0.0,200,0.05927872657775879,0.33590947506816826,0.27805063491058507,27800,1.314257773366279,0.0
139,1.4252841472625732,0.6777718522982875,0.4208675366190884,1.3868079075628812,0.29535265279496276,0.0,0.1295817954398542,0.1,0.0027985572814941406,0.05422258377075195,0.04970125,1.7132688,0.601910234286578,0.0,0.013193615567563141,0.0,200,0.05897688865661621,0.3568686265624874,0.3152208568885924,28000,1.1327781538432031,0.0
140,1.4681785106658936,0.7590160240729988,0.3538534859618038,1.3009126818368182,0.40752080262605617,0.0,0.12142001932713643,0.1,0.008832454681396484,0.05093669891357422,0.051323928,1.2297423,0.6176208132652201,0.0,0.014971488853788866,0.0,200,0.07853865623474121,0.2977493397439763,0.2863977630369318,28200,0.9293082784135328,0.0
141,1.4394662380218506,0.5242715081168806,0.33282071013465947,0.9945283122285156,0.07895495280713187,0.0,0.12864281509752934,0.1,0.002561330795288086,0.05104398727416992,0.04944353,1.4558023,0.6082858827503862,0.0,0.010246002743072968,0.0,200,0.06133460998535156,0.3526898242132037,0.36450095336150456,28400,0.7791462780022824,0.0
142,1.4335298538208008,0.6461606754837079,0.4635613865930862,1.1232893255374836,0.16475069089094632,0.0,0.12628402402522618,0.1,0.0026667118072509766,0.049601078033447266,0.049604334,1.1593773,0.6120733620237184,0.0,0.012790535670122845,0.0,200,0.06968450546264648,0.363544743424225,0.35274056500676165,28600,0.7340466904633187,0.0
143,1.492307186126709,0.5606555103261874,0.19759739892137182,0.8340816885897264,0.2795207538642421,0.0,0.12159260789285786,0.1,0.0028409957885742188,0.05123114585876465,0.05044494,1.2048341,0.6069315768539654,0.0,0.010937347259835422,0.0,200,0.07584333419799805,0.1720493677477598,0.15880739215339262,28800,0.953402564208083,0.0
144,1.4557719230651855,0.5775124423585406,0.19930973412685207,0.9171345321312171,0.412284884074129,0.0,0.13431505492053616,0.1,0.0027332305908203125,0.06767940521240234,0.0499856,1.1982366,0.603989663404423,0.0,0.011464364648180623,0.0,200,0.043712615966796875,0.14916308716938068,0.14120400208877928,29000,0.579467533657078,0.0
145,1.5194475650787354,0.7348763266095047,0.2231233296730929,1.0131603950557668,0.45608073280411693,0.0,0.12011501714045437,0.1,0.008243799209594727,0.08372855186462402,0.049681492,1.3977321,0.6170783297249312,0.0,0.014309909069601489,0.0,200,0.16814804077148438,0.13654524129729917,0.13678713503352505,29200,0.6758559251267534,0.0
146,1.3996508121490479,0.6632071641845403,0.3166446391891795,1.1501536607743936,0.36130049908311007,0.0,0.12942251696211796,0.1,0.003056764602661133,0.055130958557128906,0.04988066,1.2588165,0.6216912131708922,0.0,0.013098425846344219,0.0,200,0.05121350288391113,0.20744342447590938,0.20475643469474453,29400,0.24416729574382723,0.0
147,1.4161837100982666,0.4541258418355527,0.534429743426155,1.3697651007155325,0.05063190883098043,0.0,0.1336010362362514,0.1,0.0029325485229492188,0.047682762145996094,0.049558803,1.5658798,0.6049346760373583,0.0,0.009050714085698084,0.0,200,0.08219623565673828,0.6769921292185249,0.6596412933673312,29600,0.38495287121406024,0.0
148,1.390913963317871,0.36360529717579804,0.18808721942432036,0.5879304186628331,0.06712224979152163,0.0,0.12819430654799385,0.1,0.0026361942291259766,0.047181129455566406,0.05027791,1.1844387,0.5808017381512023,0.0,0.007213503982558956,0.0,200,0.07274770736694336,0.5969816071212135,0.44932960493574214,29800,0.3708277325616853,0.0
149,1.4435131549835205,0.7809538526553159,0.40971438462929893,1.2626838284996433,0.28486959662168176,0.0,0.13197797987942428,0.1,0.0028085708618164062,0.051100969314575195,0.049870387,1.039367,0.6008169496016137,0.0,0.015401121906234157,0.0,200,0.024213075637817383,0.3136287217566765,0.320025842280735,30000,1.5442400287240587,0.0
150,1.4308185577392578,0.5334734555518857,0.07754283053035474,0.6540724086188195,0.45302965870011924,0.0,0.12384415207556893,0.1,0.008098125457763672,0.06341743469238281,0.049671423,2.108043,0.5940826001966409,0.0,0.010491418805465148,0.0,200,0.047722578048706055,0.06623284681116684,0.06312685083744705,30200,2.0927829409137226,0.0
151,1.4023747444152832,0.9785477812013381,0.3639407751494606,1.4402876104628237,0.476636392078516,0.0,0.12187990826139246,0.1,0.002542257308959961,0.04942131042480469,0.04970891,1.471776,0.6325291182971107,0.0,0.019433574264673112,0.0,200,0.0646522045135498,0.31603633797621117,0.2627025293745056,30400,1.0841313511623354,0.0
152,1.4670898914337158,0.6102397731686405,0.23359812617638273,0.8353604178802181,0.2428229506615498,0.0,0.12496192072620625,0.1,0.0025069713592529297,0.0537259578704834,0.050688192,0.74829704,0.6303001837842637,0.0,0.011912202947403576,0.0,200,0.04500460624694824,0.15926539426505573,0.17452675487627844,30600,1.0361009138339674,0.0
153,1.4808788299560547,0.7324998710581986,0.1707779010490088,1.0227610534963738,0.5912029611162002,0.0,0.12182205595296051,0.1,0.0030362606048583984,0.05246591567993164,0.049611755,1.4752822,0.6405201525116572,0.0,0.014561563684548565,0.0,200,0.049944162368774414,0.07783428964442977,0.07381045191756144,30800,0.24599614978356452,0.0
154,1.383420705795288,0.7052229034642428,0.19525374663678563,0.9585531316327918,0.44879903540785304,0.0,0.1260638813859935,0.1,0.002684354782104492,0.05288410186767578,0.050306972,1.029396,0.6469904276069158,0.0,0.014001983153147449,0.0,200,0.0294034481048584,0.15189002547577585,0.13811694647638156,31000,0.6600048268636333,0.0
155,1.4670100212097168,0.806187761581874,0.3005306956112524,1.2823932423052182,0.5029624594191022,0.0,0.11707324171997759,0.1,0.0028057098388671875,0.06700754165649414,0.049799684,2.512599,0.6629101610044117,0.0,0.015957229184286575,0.0,200,0.05629396438598633,0.14730490103071345,0.1386863919731876,31200,0.6898391209523033,0.0
156,1.4913101196289062,0.9375625270546701,0.23245673109743606,1.1608989289229799,0.6104803183146544,0.0,0.12405320995815651,0.1,0.022376060485839844,0.054415225982666016,0.05031414,1.2027608,0.6903753976094376,0.0,0.018580960260016023,0.0,200,0.07007741928100586,0.11564870403335997,0.09432380851937151,31400,0.8919392815537984,0.0
157,1.4376192092895508,0.6600092544625262,0.5337881997668251,1.4674508243699476,0.048610840452708026,0.0,0.12422465938954422,0.1,0.0024344921112060547,0.04438281059265137,0.049909886,2.2377245,0.6873387832947464,0.0,0.012846039719465397,0.0,200,0.026667118072509766,0.4774129491016619,0.4729939322587954,31600,0.9521123742185135,0.0
158,1.458770513534546,0.5509018871771861,0.38986820689968976,1.1194708103998072,0.1447907319355698,0.0,0.12555841927048395,0.1,0.002908468246459961,0.05191993713378906,0.0492364,1.1454248,0.6736950936829904,0.0,0.010691218424958637,0.0,200,0.09336566925048828,0.5246190272928715,0.42289480886100705,31800,0.6011805726397393,0.0
159,1.4686388969421387,0.6117471975118295,0.3196523735342251,0.9676878178941555,0.09337940144356245,0.0,0.11987999349228502,0.1,0.0026938915252685547,0.05016589164733887,0.049302958,1.6784158,0.6675003040658744,0.0,0.012091134475740489,0.0,200,0.11725974082946777,0.25582867962022743,0.2313941027079744,32000,0.43614638689602064,0.0
160,1.5421221256256104,0.5811855829579144,0.3658089816043081,1.0345270141307172,0.21699705056119442,0.0,0.12588000610570194,0.1,0.0029392242431640625,0.04387784004211426,0.04977352,1.0837518,0.6588688319550784,0.0,0.0115111842403003,0.0,200,0.1056678295135498,0.31677066873892057,0.30382630084136936,32200,0.23285591367635272,0.0
161,1.512683391571045,1.158603617712506,0.44451891630657836,1.5276234871435104,0.40305978453710306,0.0,0.1286873013721324,0.1,0.0026979446411132812,0.059737443923950195,0.049354214,0.87207013,0.7088423105308211,0.0,0.02261641343621595,0.0,200,0.027673721313476562,0.40009708177535863,0.3502471502090165,32400,0.05469496563233719,0.0
162,1.8807499408721924,0.5809235208391568,0.5565185018150804,1.433030335690998,0.038056423817433,0.0,0.1240166540147625,0.1,0.04881119728088379,0.045267343521118164,0.050127316,1.6742967,0.6960504315616548,0.0,0.011487736095636834,0.0,200,0.0710446834564209,0.5002798178666601,0.5255899465435713,32600,0.05386500045273343,0.0
163,1.4610605239868164,0.924094703693671,0.3101568664433426,1.3620760119107964,0.5158234506829029,0.0,0.12609418025525448,0.1,0.008608818054199219,0.05528593063354492,0.04985248,1.2018846,0.7188548587748564,0.0,0.018140376213291592,0.0,200,0.06016969680786133,0.19769584743941543,0.17476455876278574,32800,0.08137436312871839,0.0
164,1.4782233238220215,1.0632700998374665,0.6949545159018488,1.8039359414684755,0.35732708593879864,0.0,0.12549530377730786,0.1,0.002374887466430664,0.043498992919921875,0.05003233,1.1639392,0.7532963828811174,0.0,0.02078420938689673,0.0,200,0.055800437927246094,0.3742114667317032,0.33468668826756215,33000,0.044774222514685345,0.0
165,1.493453025817871,0.7067784636810364,0.2807452894253491,1.0103489994357617,0.33016308797658933,0.0,0.12513137335775357,0.1,0.0026090145111083984,0.04856467247009277,0.050071374,0.9909102,0.7486445909611094,0.0,0.013824742573547624,0.0,200,0.06322312355041504,0.2846682970366856,0.30030319405545053,33200,0.05964928552792977,0.0
166,1.4672672748565674,0.5543136251760143,0.3039025351449922,0.9861415592997561,0.23553734996466402,0.0,0.13297726825668876,0.1,0.002732515335083008,0.05083584785461426,0.049975567,1.0564876,0.7292114943825998,0.0,0.010972178839554217,0.0,200,0.05792951583862305,0.6249858190253919,0.4678497046030941,33400,0.07494151227298096,0.0
167,1.5096564292907715,0.6792616690492108,0.39477005842059004,1.2974609064510207,0.2059706765135536,0.0,0.12540990253474618,0.1,0.00255584716796875,0.05116128921508789,0.04997657,1.2342048,0.7242165118492608,0.0,0.013284302738685208,0.0,200,0.05451846122741699,0.30489331811497605,0.28635490056797824,33600,0.08174399772959476,0.0
168,1.4909043312072754,0.8071483908850665,0.2738081606757065,1.0746243377373361,0.39581846414719235,0.0,0.13216311025423838,0.1,0.0027420520782470703,0.05095267295837402,0.050309867,0.95039994,0.7325096997528414,0.0,0.015787389467218117,0.0,200,0.04294300079345703,0.15616804177858976,0.17386871112117733,33800,0.11110757026971514,0.0
169,1.5124602317810059,0.7568250979023184,0.32262687545049645,1.2195120485579822,0.3865562621699585,0.0,0.12270215627642177,0.1,0.002366304397583008,0.05065727233886719,0.0496481,1.4429216,0.7349412395677891,0.0,0.01492490212115247,0.0,200,0.029212236404418945,0.1771632838708702,0.1728985787946706,34000,0.049674854759502264,0.0
170,1.5087194442749023,0.6341257140796761,0.220059980374618,0.8981128310092699,0.3138664305225212,0.0,0.127803886630935,0.1,0.008142709732055664,0.18825721740722656,0.049660765,0.9751861,0.7248596870189778,0.0,0.012467588132062455,0.0,200,0.08158016204833984,0.16510259860346882,0.15995233914495707,34200,0.03673521313909001,0.0
171,1.4831674098968506,0.8044565547439568,0.33755360481532537,1.3239932868408648,0.37845559082438945,0.0,0.12225119366306111,0.1,0.0026662349700927734,0.05207562446594238,0.049616665,2.0739024,0.7328193737914759,0.0,0.015710838482238608,0.0,200,0.059807538986206055,0.19572111602544331,0.19046686959620127,34400,0.03746990394754262,0.0
172,1.570974349975586,0.7295778467209061,0.3990705574535481,1.216964124755975,0.18059307092599383,0.0,0.1211424571791742,0.1,0.002723217010498047,0.05056571960449219,0.050252777,0.8894359,0.7324952210844189,0.0,0.014209583591329398,0.0,200,0.09737777709960938,0.2533858573882104,0.24462639847538786,34600,0.07434022440848198,0.0
173,1.5621154308319092,0.9639203961864702,0.3620255931819636,1.3573335518955558,0.3777641630777402,0.0,0.12237962675329835,0.1,0.0026137828826904297,0.044690608978271484,0.04961179,1.1214054,0.7556377385946241,0.0,0.018722051944439717,0.0,200,0.12818694114685059,0.20913224444687942,0.18204459766772824,34800,0.10308985121122467,0.0
174,1.5939056873321533,0.7878284894888615,0.13042930253659335,0.9544924550463392,0.6434173408660749,0.0,0.1251548719955041,0.1,0.002661466598510742,0.047380685806274414,0.049956456,0.9494403,0.7588568136840479,0.0,0.01541713887266011,0.0,200,0.07972216606140137,0.08452034834386807,0.09411331187344982,35000,0.3203984959884166,0.0
175,1.5465140342712402,0.8244708178818418,0.41990862667339696,1.4112816274063402,0.2903652802296357,0.0,0.11900858932329679,0.1,0.0025517940521240234,0.04979848861694336,0.049588095,1.3290046,0.7654182141038273,0.0,0.01622239588405498,0.0,200,0.03228759765625,0.21134641349887923,0.20940072502737556,35200,0.3066561859609072,0.0
176,1.562692403793335,0.7071398741600681,0.3935337315417501,1.1360421105480751,0.10203419820277615,0.0,0.11848896726194752,0.1,0.002836942672729492,0.04274582862854004,0.050074693,1.3053007,0.7595903801094513,0.0,0.013972581908776403,0.0,200,0.14850807189941406,0.36414312070591204,0.29824709616780926,35400,0.060000462999460914,0.0
177,1.4947679042816162,0.5443740531903181,0.3427067422336543,0.954660653305657,0.06557884290078135,0.0,0.11935043623716747,0.1,0.002919435501098633,0.052224159240722656,0.049695402,1.5574775,0.738068747417538,0.0,0.010597411522832242,0.0,200,0.08303594589233398,0.5307642166696145,0.4208583328099766,35600,0.09661957145342233,0.0
178,1.47749924659729,0.7327337920568434,0.38509598453175425,1.3880223049037597,0.4032641382179758,0.0,0.12091183880561769,0.1,0.002771615982055664,0.05448341369628906,0.049593784,3.6952953,0.7375352518814686,0.0,0.014232960480381765,0.0,200,0.029569625854492188,0.271044633063924,0.2824312872984678,35800,0.055195824915350876,0.0
179,1.4458656311035156,0.6869737475069522,0.5335206146210764,1.4459174247486404,0.18010915839025787,0.0,0.12440277010749037,0.1,0.002818584442138672,0.053189754486083984,0.04959708,1.2220318,0.7324791014440171,0.0,0.013366253589034635,0.0,200,0.07491350173950195,0.37087692020402646,0.3756049259613755,36000,0.053416722216018765,0.0
180,1.515089750289917,0.4973974874758762,0.10436871808941296,0.6674426916936849,0.38711753091403595,0.0,0.12522100457664645,0.1,0.002824544906616211,0.05139279365539551,0.049545344,1.486168,0.708970940047203,0.0,0.009692516980891328,0.0,200,0.03707385063171387,0.13974040667821114,0.11751346045518979,36200,0.10197433432830129,0.0
181,1.5125765800476074,0.8005211836101033,0.40130113816863466,1.285419555390274,0.17204386667099783,0.0,0.11734938045578466,0.1,0.0026710033416748047,0.04492306709289551,0.049813356,1.3746129,0.718125964403493,0.0,0.015749499329799677,0.0,200,0.022188663482666016,0.26738936342520053,0.2594558625238242,36400,0.08498268753529092,0.0
182,1.5309991836547852,0.648113328142546,0.23016474000446854,0.9065087322629393,0.2951135107566322,0.0,0.11697831497114937,0.1,0.007914304733276367,0.07731056213378906,0.05043303,1.682083,0.7111247007773982,0.0,0.012680771644993202,0.0,200,0.03597569465637207,0.15186638971431546,0.14479050023522308,36600,0.1140807040968883,0.0
183,1.483813762664795,0.9001900722900272,0.47808324141315234,1.588434917205503,0.4331059336505071,0.0,0.11634655898175647,0.1,0.0052721500396728516,0.05021095275878906,0.04944342,1.9763352,0.7300312379286611,0.0,0.017646238830311554,0.0,200,0.08164620399475098,0.3373038325658246,0.29944658116647405,36800,0.08323983680774431,0.0
184,1.5141654014587402,0.9536804321826217,0.34632946415597915,1.3474228242600046,0.3963202113740318,0.0,0.11952284464974516,0.1,0.0026214122772216797,0.04641389846801758,0.049720753,1.0320197,0.7523961573540572,0.0,0.018505501173208653,0.0,200,0.017568111419677734,0.2267720735428262,0.17915104783788263,37000,0.04122435246079765,0.0
185,1.5223462581634521,0.6684215324032761,0.5012526770655558,1.4208114587581384,0.026533822686646155,0.0,0.12357841406117748,0.1,0.003650188446044922,0.0473325252532959,0.04975946,0.98885024,0.7439986948589791,0.0,0.012905570814025005,0.0,200,0.16972708702087402,0.39317224070735907,0.4287312079828843,37200,0.42859552368596293,0.0
186,1.4825377464294434,1.2937232086459587,0.7149952971943578,1.771991404466978,0.05789402826551442,0.0,0.12282633563203614,0.1,0.0026636123657226562,0.05041956901550293,0.049947876,0.89995193,0.798971146237677,0.0,0.02513278324714831,0.0,200,0.08573293685913086,0.3435700572879517,0.30480678311510906,37400,0.5158714099655466,0.0
187,1.5500528812408447,0.7600306618007115,0.32571360124259147,1.2606935216779855,0.36774812367071424,0.0,0.12285243598840864,0.1,0.002863168716430664,0.06662487983703613,0.05028311,1.2869887,0.7950770977939804,0.0,0.014898692854406818,0.0,200,0.040309906005859375,0.2781963529826746,0.29795887257301834,37600,0.3534504280761444,0.0
188,1.529320240020752,1.3564791904068303,0.22447014245679106,1.5084877117429987,0.9698513244457845,0.0,0.12371720631087525,0.1,0.0026934146881103516,0.05066347122192383,0.049389176,1.0511488,0.8512173070552654,0.0,0.026498481638082393,0.0,200,0.03664731979370117,0.11817979807135084,0.09076195502503279,37800,0.45882738363803927,0.0
189,1.574732780456543,1.0540306052539994,0.4599149256756712,1.7301002416868276,0.43300254347793604,0.0,0.11922997953621498,0.1,0.0026464462280273438,0.048882246017456055,0.04969926,1.7022238,0.8714986368751388,0.0,0.02057683731067995,0.0,200,0.08393645286560059,0.17183439062098135,0.1743326767844776,38000,0.5976368052325892,0.0
190,1.5828649997711182,0.8838975184793114,0.3056740026076093,1.2443201146606389,0.5721918942918216,0.0,0.11695544224260312,0.1,0.0024297237396240234,0.04192781448364258,0.050099257,3.3561304,0.8727385250355562,0.0,0.017385325338320788,0.0,200,0.07044363021850586,0.26677794789886977,0.19796989858395736,38200,0.37324473270663727,0.0
191,1.3832404613494873,1.1793235349343683,0.3521389250481367,1.70374623959022,0.7136689886943559,0.0,0.12454609810202873,0.1,0.003045797348022461,0.08183622360229492,0.05028227,1.9033997,0.9033970260254374,0.0,0.02292974401427348,0.0,200,0.03158211708068848,0.12373117532843106,0.13317472634147573,38400,0.06653222829924654,0.0
192,1.536689043045044,0.5378114341977599,0.40570341838395024,1.1507016718645986,0.062774680490451,0.0,0.12912331089221424,0.1,0.0027577877044677734,0.04411149024963379,0.05010884,0.802772,0.8668384668426696,0.0,0.010573120812456463,0.0,200,0.06278371810913086,0.9715146609634516,0.6561052933775131,38600,0.0427094332989455,0.0
193,1.5015089511871338,0.9266623822717112,0.2901499666320522,1.114359713017249,0.4253576045759863,0.0,0.12815616030978183,0.1,0.002828359603881836,0.055420875549316406,0.05029923,1.252247,0.8728208583855738,0.0,0.018005838856093505,0.0,200,0.045526981353759766,0.13728144235837259,0.16579679681525844,38800,0.029234910756830587,0.0
194,1.5223736763000488,0.7839549768879164,0.2501999193970962,1.1277339785256963,0.5377554652058879,0.0,0.12113893076276876,0.1,0.004064083099365234,0.05359172821044922,0.050178748,1.620729,0.863934270235808,0.0,0.015458115090526765,0.0,200,0.023993968963623047,0.12750762163861842,0.11597260902882407,39000,0.027545284847493263,0.0
195,1.5674593448638916,0.6132775757191893,0.378266670165547,1.2622642284880305,0.3481981937304045,0.0,0.12334549867365253,0.1,0.029754161834716797,0.07716917991638184,0.04954469,1.6902155,0.8388686007841462,0.0,0.01188164104916032,0.0,200,0.06123208999633789,0.36467841426441716,0.3398899311288049,39200,0.04217281743958103,0.0
196,1.4729595184326172,1.0289131622668886,0.23101664072136766,1.3549812640689616,0.7036864435719274,0.0,0.11950342294141773,0.1,0.003060579299926758,0.051422119140625,0.04985687,1.3854321,0.8578730569324204,0.0,0.019857736997435378,0.0,200,0.085906982421875,0.19252637061600528,0.14515948613720542,39400,0.0268834664053266,0.0
197,1.5271720886230469,0.7011006162194332,0.3558483564082857,1.0671308946247051,0.1365974257638225,0.0,0.12280109077631414,0.1,0.003062009811401367,0.05989527702331543,0.050355483,1.0568162,0.8421958128611218,0.0,0.01368418249079265,0.0,200,0.0404512882232666,0.2814769798703905,0.27483133629720263,39600,0.043872051306763395,0.0
198,1.5567424297332764,0.667985973849603,0.17949904208646536,0.8767363195841227,0.41393944954013495,0.0,0.12855858529546813,0.1,0.0030875205993652344,0.11911630630493164,0.050413962,1.2005752,0.8247748289599699,0.0,0.013175299847189577,0.0,200,0.1074678897857666,0.21567372799393986,0.2122040629828085,39800,0.04040808738582234,0.0
199,1.4684274196624756,0.744545200746008,0.1730198411168574,0.9435261276621929,0.4761744078217754,0.0,0.12467245035902136,0.1,0.002759218215942383,0.07292366027832031,0.049769565,1.2957146,0.8167518661385738,0.0,0.014745736467336252,0.0,200,0.062111854553222656,0.10707934728923708,0.0955907370173254,40000,0.04466117240220318,0.0
200,1.5141770839691162,0.7783034675100478,0.39681871407543073,1.3923496705259988,0.321344843624367,0.0,0.12505812617636167,0.1,0.002660989761352539,0.049265384674072266,0.050006226,1.6690369,0.8129070262757212,0.0,0.01528435493882628,0.0,200,0.047890663146972656,0.1995002166407035,0.19948714740547294,40200,0.047462636854064495,0.0
201,1.515655279159546,1.0499396412513031,0.32157312431049845,1.5683453557736557,0.7223360316536042,0.0,0.12118839653122368,0.1,0.0032689571380615234,0.09825396537780762,0.049015533,1.5565398,0.8366102877732794,0.0,0.02060673338931617,0.0,200,0.08113956451416016,0.19004597552008612,0.1764538373223562,40400,0.03785371166310775,0.0
202,1.5490412712097168,0.9795330769985071,0.29533016822457,1.4139986802838596,0.5823091109692293,0.0,0.12188612024708881,0.1,0.0027496814727783203,0.07339787483215332,0.04984382,1.3861389,0.8509025666958021,0.0,0.01936684081290587,0.0,200,0.04451799392700195,0.15960502840055382,0.14027091895186272,40600,0.040117617132729315,0.0
203,1.5741276741027832,0.6271530140740676,0.4599856642774059,1.1590172394460796,0.04786179455972656,0.0,0.12234915836584177,0.1,0.0027718544006347656,0.05420947074890137,0.049862824,1.1014911,0.8285276114336287,0.0,0.012301613910783889,0.0,200,0.09150147438049316,0.4307422333401274,0.44036111912948767,40800,0.04396484113492758,0.0
204,1.5034737586975098,0.8390355406707477,0.20834275866631793,1.050267987908493,0.5029807942098511,0.0,0.130773679793626,0.1,0.014414787292480469,0.05293107032775879,0.050290637,0.89299744,0.8295784043573406,0.0,0.016394043596595565,0.0,200,0.09449625015258789,0.0857426591211903,0.08016162727674371,41000,0.04786901625918555,0.0
205,1.5370194911956787,0.8657984804623199,0.5313149365116087,1.6113343734347896,0.11549721186585085,0.0,0.11972377392647833,0.1,0.0024313926696777344,0.04623222351074219,0.050345823,1.3158069,0.8332004119678386,0.0,0.01693870161091556,0.0,200,0.05185890197753906,0.2963042602423649,0.2909009683146567,41200,0.04159965771388651,0.0
206,1.5541441440582275,0.763492196758121,0.299610821059353,1.2499614986503178,0.4831649740905893,0.0,0.1215620724126852,0.1,0.0032100677490234375,0.05629467964172363,0.049571224,1.8791678,0.8262295904468668,0.0,0.014766149723884977,0.0,200,0.09712553024291992,0.17799892190062208,0.17102133629874433,41400,0.0494232886264584,0.0
207,1.529996633529663,0.4612107479509141,0.351787920664004,0.8691075033053777,0.11078423012587009,0.0,0.12306968728471067,0.1,0.002582073211669922,0.07138848304748535,0.049889967,0.9244461,0.7897277061972716,0.0,0.009093220236631033,0.0,200,0.10191702842712402,0.8112784100687342,0.6727940857136222,41600,0.05281434937079469,0.0
208,1.5521633625030518,0.8915158906786821,0.5581244469923637,1.6166717604467327,0.0602876622982322,0.0,0.11825764792672286,0.1,0.002825021743774414,0.052098989486694336,0.05019457,1.0267763,0.7999065246454127,0.0,0.017390855412717874,0.0,200,0.0538022518157959,0.3216179322293957,0.33291210196277704,41800,0.12724601393087528,0.0
209,1.538454294204712,0.7545739483144245,0.3856914648704598,1.2959293143243582,0.2652330369149865,0.0,0.12141046043152129,0.1,0.0028221607208251953,0.0529632568359375,0.048188154,2.7594135,0.7953732670123138,0.0,0.014704339536851387,0.0,200,0.039981842041015625,0.24698296015743507,0.23942942647783572,42000,0.09382876138663408,0.0
210,1.543837547302246,0.6630810491296161,0.482917812677694,1.4758328091215844,0.27926974367251833,0.0,0.13381843959691314,0.1,0.008714437484741211,0.061937808990478516,0.05017426,1.2226112,0.782144045224044,0.0,0.012835732552268598,0.0,200,0.11658239364624023,0.387601411109409,0.3811904616341335,42200,0.03923512387529742,0.0
211,1.6132311820983887,1.1169998098046674,0.10565116703201016,1.2124678842058274,0.9493090755176431,0.0,0.12749177299524683,0.1,0.0025222301483154297,0.04811429977416992,0.050045203,0.87252396,0.8156296216821064,0.0,0.021811212728624952,0.0,200,0.06891012191772461,0.1524359474534991,0.12356440558006695,42400,0.027338750032764963,0.0
212,1.6544067859649658,0.653884722732124,0.07873089293532258,0.7693444000551989,0.5652999594716579,0.0,0.1201216573824505,0.1,0.0027353763580322266,0.052170753479003906,0.049627624,1.1705902,0.7994551317871083,0.0,0.012778081255680366,0.0,200,0.06263566017150879,0.06887643979692491,0.09637634067716078,42600,0.029428165029950257,0.0
213,1.5459542274475098,1.001351306976212,0.25826102246216376,1.360648316804014,0.6364099369630003,0.0,0.12807252158683896,0.1,0.0029921531677246094,0.04939007759094238,0.049734917,1.0441754,0.8196447493060187,0.0,0.019493004530927987,0.0,200,0.11514878273010254,0.13132422535062033,0.10674856136199183,42800,0.030063552651885376,0.0
214,1.5252482891082764,0.9974036391401826,0.29812252919109156,1.3546594846984492,0.5719026252304873,0.0,0.12876434730099925,0.1,0.003121614456176758,0.05166172981262207,0.05005888,1.0895295,0.8374206382894351,0.0,0.019440914611856007,0.0,200,0.0803384780883789,0.12045361939490219,0.10072043495356946,43000,0.023806843800786067,0.0
215,1.538571834564209,1.1605345036640073,0.1344724751606337,1.3175361191841215,0.9495303808968131,0.0,0.12561881322935015,0.1,0.0028502941131591797,0.051592111587524414,0.049837515,0.75654054,0.8697320248268925,0.0,0.02245799587444258,0.0,200,0.040821075439453125,0.07627401512094162,0.05940644671426764,43200,0.02531307339388367,0.0
216,1.573720932006836,0.7473959892018871,0.3451183351581087,1.2207627171984319,0.2576019372693695,0.0,0.12397707266577984,0.1,0.003027200698852539,0.07461667060852051,0.04964025,1.36738,0.8574984212643919,0.0,0.014681321522862459,0.0,200,0.09728217124938965,0.32810618616519477,0.32529252328186714,43400,0.024861998075753206,0.0
217,1.5610837936401367,1.0951246032314947,0.5071648873963829,1.8434350211477193,0.5410846315517691,0.0,0.12725028363139915,0.1,0.0026345252990722656,0.04758310317993164,0.05007952,1.0911014,0.8812610394611022,0.0,0.021294637538420643,0.0,200,0.06114983558654785,0.21539709396295323,0.20637248095071917,43600,0.03520668688424127,0.0
218,1.5566372871398926,0.751793803810832,0.4851544916119682,1.2675657590664229,0.19477155724758738,0.0,0.12433660949621018,0.1,0.003062725067138672,0.052388668060302734,0.049708422,1.021941,0.8683143158960752,0.0,0.014579371805281871,0.0,200,0.023804187774658203,0.37192475094735716,0.3231589796270367,43800,0.04279723616836315,0.0
219,1.5492885112762451,0.9657246025841691,0.27213191634030615,1.2806309788303714,0.6380566843818124,0.0,0.12230095780696229,0.1,0.002935171127319336,0.05334186553955078,0.050491538,1.0951381,0.8780553445648847,0.0,0.018934917356117388,0.0,200,0.058175086975097656,0.09265608431041253,0.09486237102767894,44000,0.0722476740734802,0.0
220,1.582897663116455,0.87893271089025,0.3624489630753532,1.4620563595810199,0.5712707535968876,0.0,0.1301173152386082,0.1,0.0028145313262939453,0.05107307434082031,0.049432486,0.9886023,0.8781430811974212,0.0,0.016954461150708082,0.0,200,0.036049604415893555,0.18676160599095668,0.18754248686212427,44200,0.05648205485521987,0.0
221,1.5894279479980469,0.7303527066060526,0.3051138622459811,1.189709105596925,0.40078773313754507,0.0,0.1133022938780273,0.1,0.0036864280700683594,0.05840158462524414,0.04996162,1.3278011,0.8633640437382843,0.0,0.014228008718305964,0.0,200,0.1358509063720703,0.17742096822933512,0.160180479993721,44400,0.03865581132262273,0.0
222,1.533405065536499,0.9267545595368845,0.24152620777663297,1.3034979291803281,0.6298906527121849,0.0,0.12164485902784974,0.1,0.00272369384765625,0.04854178428649902,0.04988146,1.3666768,0.8697030953181444,0.0,0.018204459449548762,0.0,200,0.03654193878173828,0.09916459288751675,0.09895146767187031,44600,0.02904337198500707,0.0
223,1.5660126209259033,1.1507934176253574,0.1833627501425033,1.3895781858137373,0.8937198598549385,0.0,0.12237141224469084,0.1,0.0028944015502929688,0.05781292915344238,0.04944238,0.7699557,0.8978121275488657,0.0,0.022455508415125173,0.0,200,0.08230113983154297,0.13951610756708424,0.10369381348157963,44800,0.04075229814521692,0.0
224,1.597290277481079,1.0397562179157216,0.22614854019817693,1.275268540856738,0.7521902413871473,0.0,0.12643522842587335,0.1,0.0030372142791748047,0.05819296836853027,0.0498422,1.0818756,0.9120065365855513,0.0,0.02044736170542348,0.0,200,0.04522228240966797,0.08840529155627028,0.07149548062347484,45000,0.06733349514221734,0.0
225,1.5685505867004395,1.0746627741660975,0.3880465432896386,1.569887280197646,0.4832848195431754,0.0,0.12255225995061522,0.1,0.002851724624633789,0.05153775215148926,0.0501758,1.0890051,0.9282721603436059,0.0,0.02104836374384496,0.0,200,0.16288518905639648,0.13965374105736045,0.13076708088022887,45200,0.06959567894255936,0.0
226,1.3764069080352783,1.0724897999776486,0.17343396090258179,1.2600507206408755,0.7996092848262153,0.0,0.12986714908380356,0.1,0.15941119194030762,0.20309972763061523,0.050871097,1.024055,0.9426939243070102,0.0,0.021015614266076642,0.0,200,0.3316018581390381,0.06932628183728742,0.07439567135961399,45400,0.04742414647099732,0.0
227,1.4178383350372314,0.9888411092926258,0.44071787079169056,1.465218856025487,0.28505541748660596,0.0,0.12971851979114832,0.1,0.1271047592163086,0.04766678810119629,0.050288454,0.86573356,0.9473086428055717,0.0,0.019278828147322992,0.0,200,0.1509099006652832,0.23281877172046042,0.2129293260952099,45600,0.08025345356136936,0.0
228,1.512476921081543,0.566560730909041,0.3274160167263611,1.0100132969591156,0.2352158625059871,0.0,0.12123334311192961,0.1,0.0028612613677978516,0.051825761795043945,0.05024658,1.5180125,0.9092338516159187,0.0,0.011168297085410176,0.0,200,0.12063312530517578,1.1774471675230145,0.703578263181575,45800,0.03955704809075222,0.0
229,1.5479886531829834,0.5650368183943821,0.15052736748591267,0.720635145504873,0.39556382676467516,0.0,0.12580556533971549,0.1,0.0026509761810302734,0.0475616455078125,0.050311577,0.9903877,0.8748141482937651,0.0,0.01116758429207472,0.0,200,0.04951953887939453,0.5946088019597802,0.18401390958329683,46000,0.08620051248831932,0.0
230,1.5708165168762207,1.2034279148466573,0.2819333594705046,1.5861509883141454,0.9149579889925789,0.0,0.12121815860177268,0.1,0.002736806869506836,0.05313897132873535,0.050204273,1.4538361,0.9076755249490543,0.0,0.023525574933680272,0.0,200,0.03575587272644043,0.23112151515819257,0.2560066123670627,46200,0.23674554509130896,0.0
231,1.5667762756347656,0.7988158534250716,0.5043724897510105,1.367934388477758,0.04953536486737494,0.0,0.12255073282347784,0.1,0.002788543701171875,0.05085444450378418,0.05001039,1.0041221,0.896789557796656,0.0,0.015663806605942805,0.0,200,0.038918256759643555,0.3369046629661717,0.31368253939970875,46400,0.08286148232444578,0.0
232,1.5451853275299072,1.1420978885053172,0.4001351194984164,1.5897736869808385,0.5253409490540043,0.0,0.12648103730661572,0.1,0.0028929710388183594,0.05405902862548828,0.050074328,0.9053662,0.9213203908675223,0.0,0.022249612845979715,0.0,200,0.028838396072387695,0.27419501937846497,0.23063760241107947,46600,0.15794205181179874,0.0
233,1.5910048484802246,1.2288384776880246,0.3370678638303127,1.792259226823192,0.9021356948923923,0.0,0.1196118692496498,0.1,0.0024394989013671875,0.051564931869506836,0.049742166,2.269711,0.9520721995495726,0.0,0.02380390819736799,0.0,200,0.02509140968322754,0.23001387755621286,0.16107806459426383,46800,0.09436958964301533,0.0
234,1.5675373077392578,1.367473247398085,0.22180131165062253,1.5974892489807855,1.115554420746013,0.0,0.12221632481118667,0.1,0.0026972293853759766,0.05043435096740723,0.050220184,0.81338364,0.9936123043344238,0.0,0.026832213863617484,0.0,200,0.05466318130493164,0.14497299055195648,0.08199746320421629,47000,0.10928719615465954,0.0
235,1.5922305583953857,0.8661276110389096,0.4096213886404529,1.3648831814439246,0.23755866086123673,0.0,0.12298617256486921,0.1,0.0027556419372558594,0.10499453544616699,0.050184183,1.4438046,0.9808638350048724,0.0,0.016521215519622188,0.0,200,0.08968162536621094,0.3031270167584105,0.33537061800222506,47200,0.11791444927646456,0.0
236,1.5372412204742432,1.1823718216457657,0.32083443592362926,1.6118204626757018,0.7513093063883949,0.0,0.12764134804849955,0.1,0.0028390884399414062,0.05125236511230469,0.04975212,1.0781109,1.0010146336689618,0.0,0.023155780442320535,0.0,200,0.02871108055114746,0.11800978614098089,0.11118633656941274,47400,0.12311983900791068,0.0
237,1.634211540222168,0.6741310841525937,0.1733978167959107,0.8263082881169449,0.3792916541547467,0.0,0.11839865332414777,0.1,0.006272077560424805,0.05082559585571289,0.050436083,0.93688416,0.968326278717325,0.0,0.01306577576863404,0.0,200,0.1298058032989502,0.6306040503245232,0.39033649717376134,47600,0.03828998865972548,0.0
238,1.6242504119873047,0.8419407918408806,0.36159386187015036,1.371500683128182,0.39407747430866996,0.0,0.12353401405999816,0.1,0.0026502609252929688,0.05200672149658203,0.04970752,1.1636897,0.9556877300296805,0.0,0.016465258909699486,0.0,200,0.023482561111450195,0.26611453916236105,0.22202587615166422,47800,0.11031579760806894,0.0
239,1.566572666168213,1.0737991850002886,0.3934273720646292,1.543414530525952,0.5159787425695385,0.0,0.12142365571410485,0.1,0.03961014747619629,0.06246042251586914,0.049368758,1.113071,0.9674988755267413,0.0,0.021137193715525207,0.0,200,0.05154895782470703,0.17378734652455974,0.190449768196461,48000,0.0989748977587661,0.0
240,1.524275779724121,1.4490580753550353,0.18729255380147009,1.7547054480799442,1.2616954910261904,0.0,0.13640640106328003,0.1,0.0028862953186035156,0.05148792266845703,0.04992032,0.84577584,1.0156547955095707,0.0,0.028544787930076906,0.0,200,0.06857180595397949,0.20383196369485884,0.18056032575656303,48200,0.10481194547358441,0.0
241,1.5604212284088135,0.9329951230374718,0.32273742840482883,1.2161402936752357,0.40884878407979774,0.0,0.11869115260267277,0.1,0.002748250961303711,0.05487060546875,0.05029067,0.902473,1.0073888282623609,0.0,0.018422968204468454,0.0,200,0.03313589096069336,0.11113930820396424,0.1101925369780032,48400,0.1388272144112333,0.0
242,1.527984619140625,0.9608149185175788,0.27710440055911434,1.3280802621769863,0.6472046627054746,0.0,0.13020264837681053,0.1,0.0027015209197998047,0.047606468200683594,0.049846545,1.0132267,1.0027314372878826,0.0,0.01871850963531147,0.0,200,0.044002532958984375,0.11184564065452227,0.11361187488503979,48600,0.10489744938624092,0.0
243,1.5096802711486816,0.7234023740725087,0.4462563653838681,1.239442846997775,0.13775952248254045,0.0,0.11656749539811179,0.1,0.0025970935821533203,0.04777717590332031,0.050165165,0.8163942,0.9747985309663452,0.0,0.014322190694110067,0.0,200,0.07786011695861816,0.3900317490247038,0.3746510521055756,48800,0.12205516341995709,0.0
244,1.5557758808135986,1.0516067370791387,0.4899819390114317,1.7646720631134347,0.4941839514213502,0.0,0.12770781848371668,0.1,0.0028395652770996094,0.058380842208862305,0.049964715,1.1315838,0.9824793515776244,0.0,0.020426807996632153,0.0,200,0.0314023494720459,0.201770997464154,0.20257652696068773,49000,0.11394157403278339,0.0
245,1.5570495128631592,1.0865223417014591,0.432169627812538,1.5241249958452463,0.5486331745542349,0.0,0.12158782918061614,0.1,0.002758026123046875,0.04998350143432617,0.04975941,1.4827247,0.9928836505900079,0.0,0.02139944296035798,0.0,200,0.18181872367858887,0.17262339734240664,0.17026429290021583,49200,0.1241619961419438,0.0
246,1.584808588027954,0.9683660419238189,0.3781819450681304,1.5446047490999442,0.5610282902171814,0.0,0.12176122572486016,0.1,0.0025992393493652344,0.0541071891784668,0.049511366,1.2203317,0.9904318897233891,0.0,0.018824577394923502,0.0,200,0.10683965682983398,0.16299160727431816,0.1593685964896652,49400,0.47091000977752834,0.0
247,1.5968589782714844,1.1020677953996962,0.3853192707707869,1.6633029863878293,0.6302692956493455,0.0,0.12019714921427886,0.1,0.00272369384765625,0.05095815658569336,0.05045644,1.0630884,1.0015954802910199,0.0,0.02168078254142875,0.0,200,0.3646528720855713,0.16201036215849113,0.1582687188574581,49600,0.09429104449633853,0.0
248,1.5669784545898438,1.0153479151208615,0.4983474393631329,1.568667590804451,0.26086557551078415,0.0,0.12323679555257909,0.1,0.002920866012573242,0.05266761779785156,0.050484255,0.82188416,1.002970723774004,0.0,0.019859111405006888,0.0,200,0.05029916763305664,0.22718423814201386,0.2239871365866366,49800,0.7047939940170586,0.0
249,1.5497093200683594,0.5770250827732323,0.4562421183208849,1.073608926039681,0.08398205767130992,0.0,0.12740627664366017,0.1,0.0027358531951904297,0.05053591728210449,0.05019031,0.9203812,0.9603761596739269,0.0,0.011283717632649095,0.0,200,0.04487967491149902,0.8523731427699061,0.7632812170549591,50000,0.1701701734425551,0.0
250,1.5600507259368896,0.8403505781875487,0.19307400549351547,1.1444895727721343,0.6108073709785151,0.0,0.13607801600128597,0.1,0.005654096603393555,0.04737210273742676,0.050276093,1.019787,0.948373601525289,0.0,0.016595225232215738,0.0,200,0.03534674644470215,0.11743013549101733,0.08604164088748353,50200,0.3509161634488173,0.0
251,1.4865868091583252,0.7166055555763771,0.3910195366953756,1.2852366558778572,0.21385107909643863,0.0,0.12613347085014348,0.1,0.002527475357055664,0.045632123947143555,0.049712032,1.5076985,0.9251967969303979,0.0,0.014288797325969244,0.0,200,0.07854628562927246,0.3366133255581718,0.27887792270566514,50400,1.4998435354968402,0.0
252,1.4982216358184814,1.3687886877132274,0.53364064867943,1.7719916062815684,0.45024256090254455,0.0,0.118831783848779,0.1,0.0023505687713623047,0.0435795783996582,0.050562076,0.9785314,0.9695559860086809,0.0,0.026629282496560682,0.0,200,0.06346535682678223,0.31902719734740703,0.3086282538450661,50600,1.6532690868255697,0.0
253,1.841688871383667,0.8073349618345467,0.400341289047965,1.4427032277429033,0.4287123351057412,0.0,0.12581096802778574,0.1,0.003389120101928711,0.060137271881103516,0.0497964,1.2364498,0.9533338835912675,0.0,0.015744924865354382,0.0,200,0.04121065139770508,0.23837129491456238,0.23315143358429796,50800,1.526120394790891,0.0
254,1.4864912033081055,0.46426012930023497,0.35167719140342435,1.0565948412341513,0.18896295542036018,0.0,0.1193581099337771,0.1,0.0024695396423339844,0.05203080177307129,0.049724624,1.543772,0.9044265081621642,0.0,0.009160954221783783,0.0,200,0.20222234725952148,0.8381322650931169,0.7924053713979178,51000,1.3899957427046508,0.0
255,1.503983736038208,0.9921601666012301,0.26767151022031477,1.2746615854264265,0.5658155266303357,0.0,0.12376160986038356,0.1,0.002492666244506836,0.04665660858154297,0.04973549,1.1264583,0.9131998740060708,0.0,0.019256420792138945,0.0,200,0.04098010063171387,0.13553607033579657,0.13511756886454626,51200,1.0600584857701798,0.0
256,1.6771905422210693,1.0087380404484259,0.36356301069394276,1.4289749890104333,0.5656261459044225,0.0,0.12297921439479785,0.1,0.002691030502319336,0.05050921440124512,0.04979314,1.5220968,0.9227536906503063,0.0,0.019640343883854265,0.0,200,0.03881669044494629,0.21003620694834985,0.19145181055927676,51400,1.0146703305819549,0.0
257,1.5785925388336182,0.8653092428359939,0.5725444779773419,1.809230677449236,0.29340844687365836,0.0,0.12132498317042198,0.1,0.0027163028717041016,0.047644615173339844,0.049317554,2.15142,0.9170092458688751,0.0,0.017046323344283708,0.0,200,0.07877326011657715,0.3731384714014179,0.3755825339509599,51600,1.322707953252486,0.0
258,1.6374576091766357,0.9727334734732198,0.31849668668897163,1.3516570789537499,0.5187902475120448,0.0,0.1254725783615281,0.1,0.0026311874389648438,0.05124378204345703,0.04969056,1.1835626,0.9225816686293096,0.0,0.018859484569263375,0.0,200,0.09239602088928223,0.14932753951456704,0.14101514213992594,51800,0.9707167849534347,0.0
259,1.6133508682250977,1.1570511191938928,0.29536609079052606,1.4656645286250383,0.6715695505301923,0.0,0.12457236100210337,0.1,0.002756357192993164,0.050660133361816406,0.05017879,0.9586759,0.9460286136857678,0.0,0.02234952974938787,0.0,200,0.06396722793579102,0.13429954486005635,0.11507021096801338,52000,0.9521351160186028,0.0
260,1.586730718612671,0.9427218852747958,0.29713092306336963,1.2807448804691641,0.5776709675525705,0.0,0.12455723246460995,0.1,0.0027573108673095703,0.049889564514160156,0.04983789,1.4389032,0.9456979408446706,0.0,0.01864390395261237,0.0,200,0.06689763069152832,0.13125397942312975,0.13856301968518445,52200,1.4963907182520468,0.0
261,1.5867958068847656,1.0915281217437918,0.28607543372474215,1.494399332778361,0.7696112199565005,0.0,0.1261172164646995,0.1,0.002638101577758789,0.05087614059448242,0.049924016,1.1409903,0.9602809589345828,0.0,0.021459120016132326,0.0,200,0.03469562530517578,0.10863461204328176,0.10244485792067919,52400,1.4343719150459238,0.0
262,1.6038222312927246,0.8005321676182962,0.3705605366563296,1.3116246208853861,0.29129691694026144,0.0,0.12376556920124211,0.1,0.002596139907836914,0.04634356498718262,0.050070833,0.9159184,0.9443060798029541,0.0,0.015697496308379313,0.0,200,0.06255412101745605,0.2860277621843778,0.27100131076050865,52600,0.813656531804343,0.0
263,1.6563482284545898,1.0047060683417959,0.46211341525757077,1.3307505894083145,0.20857554358872613,0.0,0.11970543190987323,0.1,0.002782583236694336,0.07347512245178223,0.049536142,0.8040682,0.9503460786568384,0.0,0.01955600565588906,0.0,200,0.06717061996459961,0.17339341824330082,0.17244312303446307,52800,0.1884814713480424,0.0
264,1.675382137298584,0.8307354655703714,0.21096197575086048,1.119378365994665,0.5954617298068091,0.0,0.11662650792017884,0.1,0.0027620792388916016,0.05470728874206543,0.050189056,1.3900783,0.9383850173481917,0.0,0.016394135176567664,0.0,200,0.0534060001373291,0.1140333055554482,0.09722682916653747,53000,0.8343700509678268,0.0
265,1.5919344425201416,1.1809635269393213,0.36335879415385053,1.630611346479708,0.624005890257042,0.0,0.12646914275274973,0.1,0.0026831626892089844,0.05233573913574219,0.049282953,0.97503054,0.9626428683073047,0.0,0.022943934776933905,0.0,200,0.03871297836303711,0.17231245180513155,0.1729262044969055,53200,1.814224756990753,0.0
266,1.6475253105163574,0.7876354156655497,0.49698565154034285,1.6321202454484292,0.4175639593136194,0.0,0.12444109750192739,0.1,0.015983104705810547,0.05072140693664551,0.04973794,1.574285,0.9451421230431293,0.0,0.015557270921217309,0.0,200,0.047922611236572266,0.4190950630365315,0.39555697331326345,53400,1.9754674434710615,0.0
267,1.666402816772461,1.371636625242046,0.2704636162735683,1.645941464259176,0.9660310120158986,0.0,0.12115733339908087,0.1,0.005086183547973633,0.05276918411254883,0.049928855,1.0061584,0.987791573263021,0.0,0.026755587402225545,0.0,200,0.02608013153076172,0.17331367309605358,0.15667933958446947,53600,1.0494613638702464,0.0
268,1.6217803955078125,1.6014297456497966,0.044187755294420344,1.6402361666851657,1.5276660713735355,0.0,0.12530734777827116,0.1,0.002699136734008789,0.051325321197509766,0.049966823,0.95674425,1.0491553905016986,0.0,0.031223347244377926,0.0,200,0.0702817440032959,0.18901604706184133,0.11543253522758908,53800,0.7799371255018038,0.0
269,1.6138217449188232,1.1682646241932588,0.3053371753545304,1.655869316825694,0.8128005447310807,0.0,0.12083447580293835,0.1,0.0028352737426757812,0.05034971237182617,0.05021019,1.2213178,1.0610663138708547,0.0,0.02271649353019408,0.0,200,0.0890505313873291,0.09694338130203146,0.10164804824632429,54000,1.2135517363861348,0.0
270,1.7043490409851074,0.7219014675877695,0.4445182192655429,1.4914016978907099,0.44213455973310384,0.0,0.12359267106516499,0.1,0.002600431442260742,0.054773807525634766,0.049668666,2.0493982,1.0271498292425463,0.0,0.01414198805941367,0.0,200,0.0462498664855957,0.7906471029897498,0.7455364498373589,54200,1.3681919328014607,0.0
271,1.6425225734710693,1.2793028310326255,0.6572228834840482,1.822667070488187,0.16265372281502946,0.0,0.13135904541077528,0.1,0.003078937530517578,0.05280160903930664,0.049948875,0.86993635,1.0523651294215541,0.0,0.0248369178289767,0.0,200,0.03402519226074219,0.2619282696794519,0.26257944547863926,54400,1.4166551525809703,0.0
272,1.6795763969421387,0.951913468661356,0.5029380889795372,1.706665284395289,0.4178440484930976,0.0,0.129771009010922,0.1,0.002770662307739258,0.0795290470123291,0.05012931,1.080024,1.0423199633455342,0.0,0.018544554963937615,0.0,200,0.15730881690979004,0.3057469539142639,0.2794596419504561,54600,0.8751221734659311,0.0
273,1.619339942932129,0.8761079184924748,0.19208346719695216,1.0347399904343562,0.5483365523080725,0.0,0.12290393418452353,0.1,0.002892732620239258,0.05211973190307617,0.04983798,1.3009002,1.0256987588602284,0.0,0.0172173262776433,0.0,200,0.07805299758911133,0.14292491913936528,0.10831177682676074,54800,0.9264146698478054,0.0
274,1.620487928390503,1.347710915897188,0.152687493947113,1.5407035832376792,1.1300153214471849,0.0,0.11954837751448039,0.1,0.013563156127929688,0.05282258987426758,0.049555283,3.18085,1.0578999745639244,0.0,0.026173937332706773,0.0,200,0.04387235641479492,0.11172681489374235,0.11669109972490671,55000,0.5409073379196058,0.0
275,1.615983009338379,0.9806381350118913,0.5214702169502708,1.4454304923459158,0.1239783219102669,0.0,0.12935774669697647,0.1,0.0025377273559570312,0.04682660102844238,0.049923927,0.8268408,1.0501737906087212,0.0,0.019219862601116397,0.0,200,0.05697941780090332,0.23538464322200978,0.23552601884030697,55200,0.6707588111725545,0.0
276,1.6188299655914307,1.4183926071256574,0.32094498513894726,1.8103346840402192,0.9894353169603933,0.0,0.13066299205872092,0.1,0.0028502941131591797,0.0504605770111084,0.04962877,0.9184925,1.0869956722604148,0.0,0.027714614273599385,0.0,200,0.16476130485534668,0.16555362061661316,0.13541864123604386,55400,0.8592019174181423,0.0
277,1.6790285110473633,1.0623541383868227,0.48768580495431657,1.7215095292183236,0.3452568847698909,0.0,0.12143452841102018,0.1,0.002796173095703125,0.05134391784667969,0.049685787,1.1957753,1.0845315188730555,0.0,0.020806178543407747,0.0,200,0.02347707748413086,0.21083803586561697,0.22066387021717884,55600,0.814665402247483,0.0
278,1.6188533306121826,0.7849837166867737,0.3060352290549397,1.281361518126993,0.46537840121282364,0.0,0.12746451413641718,0.1,0.0028429031372070312,0.05208611488342285,0.04990407,1.4602379,1.0545767386544274,0.0,0.015249557110065492,0.0,200,0.03411531448364258,0.32469261485237855,0.3107824239532979,55800,0.6755371254357344,0.0
279,1.6126363277435303,1.2354433255235515,0.1902027744649147,1.4748231350404184,1.0335690658561838,0.0,0.125536367071861,0.1,0.002751588821411133,0.05190920829772949,0.049837008,1.1215638,1.0726633973413398,0.0,0.024126982996559774,0.0,200,0.033514976501464844,0.06648568018892434,0.06803037085969706,56000,0.5937665429557918,0.0
280,1.618513584136963,1.1382020894203044,0.4039673382699683,1.656956149333857,0.692104958255299,0.0,0.1275602565303239,0.1,0.0026235580444335938,0.06040525436401367,0.05008378,1.0926352,1.0792172665492363,0.0,0.022482479788649024,0.0,200,0.07633256912231445,0.12946655843026122,0.12716015049678936,56200,0.806585991936676,0.0
281,1.6534850597381592,0.9051662781734209,0.11360991302332908,1.0897147461509806,0.8051736844371989,0.0,0.12362156022128122,0.1,0.002645254135131836,0.04729962348937988,0.05003622,0.9730369,1.0618121677116548,0.0,0.017766784123526745,0.0,200,0.06250238418579102,0.0933732879261921,0.06931533400931902,56400,0.678763053989412,0.0
282,1.6762363910675049,1.5648368407282751,0.12526672459167676,1.7185676274537578,1.3896887694178253,0.0,0.11594283831470208,0.1,0.0027399063110351562,0.051249027252197266,0.04971285,8.03847,1.1121146350133169,0.0,0.03033295449096432,0.0,200,0.028683900833129883,0.13949081889945608,0.11738244649597154,56600,0.7299237561130899,0.0
283,1.6903388500213623,0.8657376037958608,0.03320735720583473,0.9129806237821645,0.8265264811696756,0.0,0.12267979633549937,0.1,0.0027053356170654297,0.053122520446777344,0.04963657,3.4381514,1.0874769318915711,0.0,0.017003517058960152,0.0,200,0.045588016510009766,0.08573389637296923,0.10903290247794152,56800,0.7078484349512725,0.0
284,1.5679421424865723,0.9908184798086197,0.34142299289295713,1.3616193592578951,0.506819541280725,0.0,0.12096175679693415,0.1,0.0029053688049316406,0.05219125747680664,0.049988266,1.2316294,1.077811086683276,0.0,0.019178894096925397,0.0,200,0.02551579475402832,0.15792467009473338,0.14629142668594672,57000,0.5189159680907506,0.0
285,1.6188600063323975,1.3593099356137992,0.5697864377827381,1.8084874552265133,0.3889878852199192,0.0,0.1204865443785273,0.1,0.0028142929077148438,0.051599979400634766,0.04993859,0.80583143,1.1059609715763283,0.0,0.026433499484794516,0.0,200,0.17762517929077148,0.19858090638980758,0.1945095449999607,57200,0.6102904096373266,0.0
286,1.5869920253753662,1.1323997191102901,0.4866196773843221,1.6404296920466468,0.35820213927435635,0.0,0.12579468611537276,0.1,0.0030562877655029297,0.05141496658325195,0.049780454,0.9384813,1.1086048463297244,0.0,0.022078439009788446,0.0,200,0.15928006172180176,0.19044131835604042,0.18560024824798124,57400,0.9076445367218163,0.0
287,1.523700475692749,1.0240559959343245,0.4088109041859026,1.6246738663373008,0.48086300927737824,0.0,0.12405111172366702,0.1,0.002748727798461914,0.05251336097717285,0.050178185,1.3915634,1.1001499612901846,0.0,0.019848461198161457,0.0,200,0.0912923812866211,0.18280969212706544,0.18140180312075624,57600,1.3757153611388253,0.0
288,1.6315765380859375,0.7296502652300279,0.6267245922581074,1.5902584481116788,0.10151648859375675,0.0,0.12426608424399518,0.1,0.0028121471405029297,0.05043649673461914,0.04959971,1.5149165,1.063099991684169,0.0,0.014400989832898429,0.0,200,0.09686064720153809,0.6735156077813781,0.6029238015329536,57800,0.9305303536528039,0.0
289,1.6342546939849854,1.1209732829154406,0.3281982709857546,1.3761433319086365,0.563528376647874,0.0,0.1292629129221885,0.1,0.003038644790649414,0.06773519515991211,0.049503144,0.84187037,1.0688873208072962,0.0,0.021766731658039475,0.0,200,0.08631372451782227,0.0810147337008136,0.08571437993861056,58000,1.5871498721186479,0.0
290,1.6219542026519775,1.3686177815084828,0.4274646802407122,1.929066963980203,0.8225924007514359,0.0,0.12655010259376315,0.1,0.0026874542236328125,0.0663607120513916,0.049859114,0.92116684,1.0988603668774148,0.0,0.026856468107124852,0.0,200,0.12927675247192383,0.16062472113685258,0.15936415152115213,58200,1.6283590129274865,0.0
291,1.6160683631896973,1.3435800433738951,0.32622583949014167,1.6926232088435194,0.8122791430948594,0.0,0.12681154419434557,0.1,0.0027267932891845703,0.05249667167663574,0.04984729,0.8579037,1.123332334527063,0.0,0.026208542103856827,0.0,200,0.06295418739318848,0.1322715895224724,0.11789522915979339,58400,1.2733275980401297,0.0
292,1.5915703773498535,0.9931881850646559,0.3377717812750081,1.4556853326749655,0.5488290176727643,0.0,0.12468666422375897,0.1,0.0028772354125976562,0.06673336029052734,0.050427113,1.0091465,1.1103179195808222,0.0,0.019578270173648438,0.0,200,0.038923025131225586,0.16750715205134858,0.16850962077212708,58600,1.434321328709613,0.0
293,1.6304776668548584,1.2584713377569599,0.6448579815318474,2.020234932442479,0.3025378503262295,0.0,0.12243049739930757,0.1,0.002747058868408203,0.06480193138122559,0.04955929,1.0156618,1.125133261398436,0.0,0.024675813105315816,0.0,200,0.027446269989013672,0.21978975248268837,0.21542154330865027,58800,1.3747269170229046,0.0
294,1.6005547046661377,1.3249791421139063,0.2210413451597198,1.5680359912811779,0.9870596281494025,0.0,0.12651176354776741,0.1,0.0027790069580078125,0.05636119842529297,0.050111186,0.86420333,1.145117849469983,0.0,0.02580319435180896,0.0,200,0.06310224533081055,0.07115767966732005,0.05310830618728913,59000,1.1982809199230569,0.0
295,1.6208500862121582,0.9722648016429098,0.4895659452265167,1.4994525703015245,0.20150033745979765,0.0,0.12447124791358531,0.1,0.00711822509765625,0.046765804290771484,0.04985954,0.9584378,1.1278325446872757,0.0,0.019088706062470005,0.0,200,0.056635141372680664,0.33412706780557694,0.33070100976343036,59200,1.0326029031878947,0.0
296,1.630523920059204,1.0546217636802346,0.4738481738982705,1.85319964841363,0.6732744946740787,0.0,0.12974830793735562,0.1,0.002640247344970703,0.11573076248168945,0.05015212,1.235976,1.1205114665865716,0.0,0.020552906160505046,0.0,200,0.15844988822937012,0.21680389425295582,0.20490169894666513,59400,1.6335038082529476,0.0
297,1.6486763954162598,1.1336047051017202,0.633118584569794,1.8084606803874632,0.13683428104166503,0.0,0.1202863997119119,0.1,0.0027894973754882812,0.05375170707702637,0.05010066,1.2109116,1.1218207904380866,0.0,0.022376996968954836,0.0,200,0.37743544578552246,0.26420875884872846,0.2573136090486886,59600,0.7683769587942569,0.0
298,1.654536485671997,1.1250959732856294,0.3541308393053681,1.5792575280246197,0.6511638052816259,0.0,0.12210719136617616,0.1,0.0027570724487304688,0.0506596565246582,0.049893208,1.1461033,1.122148308722841,0.0,0.02204052234008469,0.0,200,0.0678248405456543,0.09834683648813827,0.10132066913890916,59800,1.6180105684776873,0.0
299,1.5951778888702393,0.9485220978885123,0.37991663940756454,1.2394863219708605,0.301319542796955,0.0,0.12505344933738988,0.1,0.002778768539428711,0.05327963829040527,0.049742687,0.62113166,1.1047856876394082,0.0,0.018426037402010563,0.0,200,0.03470110893249512,0.1640795737188279,0.15261996335980674,60000,0.755253796471297,0.0
300,1.6779232025146484,1.0764308760068013,0.4035402133917251,1.6023963683975624,0.4695274204263289,0.0,0.13120678101278352,0.1,0.00464177131652832,0.04917120933532715,0.04942075,0.7068895,1.1019502064761475,0.0,0.020885583426703148,0.0,200,0.030597925186157227,0.16061880564915726,0.15002811044789105,60200,1.254273628510792,0.0
301,1.6688001155853271,0.5210038051841621,0.1852393635798991,0.7375357046695005,0.23911567802116035,0.0,0.12504153346361718,0.1,0.002510547637939453,0.045366525650024414,0.050002087,0.8796258,1.0438555663469489,0.0,0.010133601440951412,0.0,200,0.10332083702087402,1.03728992733916,0.8047466961714823,60400,1.6899436428735017,0.0
302,1.6405487060546875,0.8585530937148348,0.21939886659611937,1.153345578228957,0.5845537332110138,0.0,0.12041018164166789,0.1,0.0025353431701660156,0.04879188537597656,0.050281964,1.5629647,1.0253253190837375,0.0,0.01676759441123746,0.0,200,0.03862261772155762,0.09125501613565122,0.07447102394347034,60600,1.5541455952414232,0.0
303,1.5758020877838135,0.888494711222884,0.16800579119795384,1.0570239610238468,0.6432814313904047,0.0,0.11736723865467796,0.1,0.002671480178833008,0.05045890808105469,0.0499656,1.4635333,1.011642258297652,0.0,0.01734986223314662,0.0,200,0.03368878364562988,0.06593329962418401,0.07365172317248495,60800,1.6158784782982598,0.0
304,1.656764268875122,0.9463931126169058,0.5603372919791918,1.5001644059726131,0.10858250092356297,0.0,0.11576237467081953,0.1,0.0024356842041015625,0.045665740966796875,0.049988165,1.4388623,1.0051173437295775,0.0,0.018218475069794668,0.0,200,0.10059833526611328,0.31139076434445145,0.29856216962935733,61000,1.6205565789708591,0.0
305,1.564823865890503,1.1213970831031639,0.6066893555293495,1.6662529584589525,0.09688707475454253,0.0,0.1239920407586085,0.1,0.0029218196868896484,0.06292128562927246,0.050117914,0.77247983,1.016745317666936,0.0,0.02178111958664668,0.0,200,0.1340775489807129,0.318228614347937,0.2795962988358984,61200,1.5697240096428395,0.0
306,1.5242276191711426,0.8936336257934031,0.5331435021657778,1.7084367007693542,0.22317602958243096,0.0,0.123273715572357,0.1,0.002892732620239258,0.04943060874938965,0.05030012,2.0290837,1.004434148479583,0.0,0.017375904375682864,0.0,200,0.06397795677185059,0.27205258495845924,0.2825733483500776,61400,0.9961680807917248,0.0
307,1.5825281143188477,1.4836611152399195,0.3369978523495963,1.8910637541986122,1.0392558221502934,0.0,0.122103501903991,0.1,0.002606630325317383,0.0493016242980957,0.04983683,1.0648707,1.0523568451556167,0.0,0.029216970901253296,0.0,200,0.12697482109069824,0.19119743966225627,0.1602439584337712,61600,0.7647398724658769,0.0
308,1.5738482475280762,1.348850581927814,0.23657565839628794,1.6213810336461632,1.0623807814684532,0.0,0.12118710228741719,0.1,0.0026891231536865234,0.053536415100097656,0.050067037,0.9743307,1.0820062188328365,0.0,0.02622855597780413,0.0,200,0.028342723846435547,0.10105088224711438,0.0813420757458395,61800,0.6897923836799943,0.0
309,1.6576356887817383,1.0891536746151815,0.5299347241984296,1.8031262423457266,0.5350882001591581,0.0,0.11858105050851603,0.1,0.0029435157775878906,0.05503702163696289,0.050606165,2.2115035,1.0827209644110711,0.0,0.02140239897537881,0.0,200,0.1116018295288086,0.26222361535944005,0.2665083820450749,62000,0.710791238228235,0.0
310,1.7245891094207764,1.0582483700825283,0.3615106547763297,1.4207247394442588,0.47690394243085393,0.0,0.11667115464762993,0.1,0.002682209014892578,0.060869693756103516,0.04978332,0.9447431,1.0802737049782167,0.0,0.02049031233250869,0.0,200,0.08064484596252441,0.16498864363015664,0.1518734535911558,62200,0.8410689070553543,0.0
311,1.5661957263946533,0.9331325597710101,0.10993528487923103,1.103411885467221,0.8242437818037394,0.0,0.13203120877894206,0.1,0.0026984214782714844,0.049468040466308594,0.050146975,0.89321923,1.0655595904574962,0.0,0.01852603069481919,0.0,200,0.0341191291809082,0.17257159485569776,0.0896088480393442,62400,2.037140238780364,0.0
312,1.6072602272033691,1.2902942338329166,0.6369102698990169,1.839056017971774,0.20827333250884555,0.0,0.12226178039958266,0.1,0.003119945526123047,0.06947636604309082,0.04954349,0.78821456,1.0880330547950383,0.0,0.02500412228318699,0.0,200,0.0491948127746582,0.23403857694352376,0.2428250136594142,62600,1.0101515574592648,0.0
313,1.5456287860870361,1.0053723633885885,0.46444200442706124,1.7140247393792445,0.5254348736986887,0.0,0.12557156930669655,0.1,0.002742290496826172,0.04443502426147461,0.049441442,1.1895736,1.0797669856543934,0.0,0.01951744564515796,0.0,200,0.03721213340759277,0.1884830927926734,0.18542229440754607,62800,1.2321570866311211,0.0
314,1.6086187362670898,1.4289248576449345,0.16190040149527518,1.5378042186883962,1.1502715034795585,0.0,0.11911099477568163,0.1,0.0027170181274414062,0.05277109146118164,0.050125938,1.0510176,1.1146827728534476,0.0,0.02788317247489697,0.0,200,0.043669939041137695,0.08627140891124575,0.07039009328578993,63000,0.7627112541915245,0.0
315,1.6250107288360596,1.3856157828800888,0.30882760883824206,1.7220451020907261,1.0167516334550968,0.0,0.12343844660409765,0.1,0.0031201839447021484,0.05193829536437988,0.05008987,1.3735195,1.1417760738561118,0.0,0.027003012873650804,0.0,200,0.05642271041870117,0.1198143037552732,0.09459731388813807,63200,0.8045471108679526,0.0
316,1.6429548263549805,1.3005774229807594,0.15908855623454926,1.5107063273962102,1.1252950574883813,0.0,0.127220420284902,0.1,0.0034742355346679688,0.07987833023071289,0.05009222,1.2929144,1.1576562087685767,0.0,0.0252642867337561,0.0,200,0.06703591346740723,0.036336847439072915,0.03592895835472497,63400,1.5602718512527158,0.0
317,1.6311347484588623,1.337944850058367,0.524099894925793,1.6720107129110091,0.4313652343352968,0.0,0.11840976651133557,0.1,0.002797365188598633,0.05185055732727051,0.05042911,0.77113414,1.1756850728975559,0.0,0.025998671213260785,0.0,200,0.1251051425933838,0.16112887570399273,0.16057925335466708,63600,1.569803230688797,0.0
318,1.7372543811798096,0.9013902667909772,0.42763647361736556,1.5195720655573781,0.32847937201976585,0.0,0.11818373459612927,0.1,0.0029637813568115234,0.05081772804260254,0.050002314,1.3926327,1.148255592286898,0.0,0.01745542456811356,0.0,200,0.07200360298156738,0.48376435309334503,0.39720546541516005,63800,1.7417683400294484,0.0
319,1.7063307762145996,1.249765380822133,0.5507491543077122,1.869406255729467,0.37440601948950597,0.0,0.11995012937233102,0.1,0.0026488304138183594,0.07068991661071777,0.049744077,0.89729553,1.1584065711404214,0.0,0.02426111506826393,0.0,200,0.06210136413574219,0.18712742817808836,0.19006732428528786,64000,1.1917493641606816,0.0
320,1.6402015686035156,1.2655326076336961,0.407999229200632,1.9041375744106894,0.8458690615536129,0.0,0.12327130382079395,0.1,0.0029249191284179688,0.052786827087402344,0.050502185,2.5416665,1.1691191747897491,0.0,0.024663685091641106,0.0,200,0.0394899845123291,0.12690001656859598,0.12964069015513024,64200,1.6842378414793913,0.0
321,1.6754772663116455,1.2762210125673978,0.4269944137858109,1.7004089915189178,0.6361281447317065,0.0,0.12752610975412837,0.1,0.0029592514038085938,0.05166435241699219,0.049832605,1.0670453,1.1798293585675141,0.0,0.024958464096255913,0.0,200,0.1251511573791504,0.14325331565592278,0.13885170566827454,64400,0.9059417597052791,0.0
322,1.5770998001098633,0.7093289674476816,0.5479073125165258,1.644736901419836,0.24943288952441642,0.0,0.1221370058062665,0.1,0.0027680397033691406,0.053810834884643555,0.050376076,2.2857563,1.132779319455531,0.0,0.014019833163245982,0.0,200,0.03440666198730469,0.589885506221011,0.5246734016702619,64600,1.6777250311497063,0.0
323,1.648859977722168,1.3657640458847586,0.20804685854527386,1.5782849833293031,1.0681983029531152,0.0,0.12170643472200382,0.1,0.002880096435546875,0.0557401180267334,0.049979404,1.1194195,1.1560777920984537,0.0,0.026705138917613915,0.0,200,0.032685041427612305,0.08183110926494773,0.08871045307551464,64800,1.6161131085257232,0.0
324,1.6510989665985107,1.0602431094206988,0.31116295410317135,1.5650829668192323,0.796358379171263,0.0,0.12339318938019106,0.1,0.008602380752563477,0.05367588996887207,0.049560208,1.7910898,1.1464943238306784,0.0,0.020881718427043974,0.0,200,0.051757097244262695,0.09418847123811841,0.09448699416100781,65000,0.6318978018706181,0.0
325,1.67854905128479,1.363987438867105,0.347571611095573,1.7150587849272343,0.8838918497487188,0.0,0.12538137705460392,0.1,0.00276947021484375,0.05771040916442871,0.04977563,1.2987201,1.168243635334321,0.0,0.0265963849444629,0.0,200,0.04336857795715332,0.12945827203293156,0.10912903739963696,65200,1.4268432643564053,0.0
326,1.6005988121032715,1.1200670620265096,0.5225335093073005,1.8131899445641744,0.3887073155470566,0.0,0.11962332352767116,0.1,0.0027608871459960938,0.0674128532409668,0.05005457,1.3091222,1.16342597800354,0.0,0.021949758691351268,0.0,200,0.06248044967651367,0.18193986670127946,0.18656584264103093,65400,1.577458865378439,0.0
327,1.6272635459899902,1.3474893363355385,0.22868598499203752,1.6132941188867325,1.1046803731845505,0.0,0.12387294153957266,0.1,0.025355100631713867,0.050563812255859375,0.04996357,1.2561791,1.18183231383674,0.0,0.02638045940192136,0.0,200,0.07090973854064941,0.06203944859699165,0.05768661630344165,65600,1.5250132846010402,0.0
328,1.6661198139190674,1.0001369594230993,0.2037694011840742,1.347185550372698,0.8461583012167521,0.0,0.12981407375811915,0.1,0.018175363540649414,0.05173158645629883,0.050355174,1.1718068,1.163662778395376,0.0,0.019701353262090677,0.0,200,0.07699084281921387,0.13371716047936213,0.11169729430390021,65800,1.5568178913352302,0.0
329,1.6904234886169434,1.162610906821054,0.19221913186036998,1.357684329508727,0.9534132622288499,0.0,0.13008309457885345,0.1,0.0028100013732910156,0.05456376075744629,0.050156735,0.6907411,1.1635575912379437,0.0,0.022654050504993594,0.0,200,0.04159426689147949,0.06662840796604472,0.056384165237715216,66000,1.4201436673310237,0.0
330,1.6718418598175049,1.5324220583191042,0.11412880052927658,1.6609808702540625,1.3976815058758034,0.0,0.11961745519648188,0.1,0.0024814605712890625,0.05787205696105957,0.049691025,2.1998694,1.20044403794606,0.0,0.029900230074414866,0.0,200,0.03689742088317871,0.11359216924053106,0.09790858467478165,66200,1.5694889906241833,0.0
331,1.6946284770965576,1.2501856283250694,0.38707422374820993,1.6337962864935576,0.7284099056415438,0.0,0.12298627457359672,0.1,0.0027954578399658203,0.05086183547973633,0.050413236,1.079123,1.2054181969839608,0.0,0.024228658076449732,0.0,200,0.07798337936401367,0.12755803471900148,0.1166179224462272,66400,1.436187201061122,0.0
332,1.7385990619659424,1.1816832294407396,0.30170077298014264,1.5846446003948464,0.7368336890444134,0.0,0.12452635657744177,0.1,0.0028069019317626953,0.05185842514038086,0.05039486,0.77772987,1.2030447002296387,0.0,0.023135163031553684,0.0,200,0.05195951461791992,0.11121723533692413,0.11621116404209651,66600,0.913477026688732,0.0
333,1.6769378185272217,1.2871328154716188,0.27649454254677663,1.5806903693134022,0.8379002757573676,0.0,0.12206878525874018,0.1,0.002695798873901367,0.054314613342285156,0.050032526,0.8319647,1.2114535117538368,0.0,0.024980041510064093,0.0,200,0.03463602066040039,0.07166868851899716,0.07228749256431928,66800,1.5075527623436382,0.0
334,1.695206880569458,0.9731866915305747,0.3406810208021477,1.5277593424637657,0.6876204850014683,0.0,0.12161171980161309,0.1,0.025941848754882812,0.05159950256347656,0.04969076,1.3335402,1.1876268297315105,0.0,0.01908510953495525,0.0,200,0.02950906753540039,0.2681948932748575,0.21898323541923617,67000,1.3012111095358807,0.0
335,1.720078468322754,1.4535871887839236,0.32462550411008667,1.8632929797745015,0.9829047921830463,0.0,0.12409368438093278,0.1,0.0029294490814208984,0.060813188552856445,0.049878284,1.0785496,1.214222865636752,0.0,0.028213462403649317,0.0,200,0.03512167930603027,0.08476462430673502,0.09018389848146853,67200,1.6573798538100137,0.0
336,1.7078044414520264,1.174586285576554,0.31475722469981365,1.6473740248427355,0.7998130631990339,0.0,0.13012494742908792,0.1,0.0027053356170654297,0.05421042442321777,0.050314754,1.3168001,1.2102592076307321,0.0,0.022850755967153046,0.0,200,0.10083842277526855,0.10765501930202209,0.10579862493977227,67400,1.975336332620752,0.0
337,1.6089797019958496,1.5500147411754965,0.2803505116015042,1.871267670257326,1.1474981018841073,0.0,0.12004068611844372,0.1,0.0029344558715820312,0.05576324462890625,0.04986741,1.0615414,1.2442347609852085,0.0,0.030146727553060408,0.0,200,0.08629631996154785,0.09783482817610407,0.08836648276567802,67600,1.8221031090236535,0.0
338,1.6497204303741455,0.9446170568417482,0.5578347685778651,1.753486827362681,0.21068997745705978,0.0,0.12290297812235396,0.1,0.005478620529174805,0.08951425552368164,0.049769554,1.2520611,1.2142729905708625,0.0,0.01832372160769844,0.0,200,0.10242652893066406,0.39142020600023236,0.3805759979636065,67800,2.330104000974636,0.0
339,1.6368277072906494,1.2214826610127416,0.6377348936039442,1.8691392333194865,0.19279745417127,0.0,0.1266005160446432,0.1,0.002883434295654297,0.05234241485595703,0.05012863,0.76075554,1.2149939576150506,0.0,0.023792185636819844,0.0,200,0.04978227615356445,0.21325170000274696,0.2120406544525832,68000,2.2280138804112766,0.0
340,1.6709177494049072,1.1659599684671111,0.648827639884623,1.9139442701072924,0.39804698594495946,0.0,0.12177162109310967,0.1,0.0026831626892089844,0.049298763275146484,0.050122228,1.0611614,1.2100905587002568,0.0,0.022636706177840586,0.0,200,0.05139303207397461,0.24307725945148645,0.23869866355489983,68200,2.0381293151302566,0.0
341,1.6509332656860352,1.1799279897665362,0.3016653475661344,1.4143278828833705,0.6681619546275652,0.0,0.12869269770846517,0.1,0.002765178680419922,0.04715442657470703,0.050202,0.7574454,1.2070743018068848,0.0,0.0228789732811022,0.0,200,0.10224676132202148,0.09640559071495104,0.09744041793788272,68400,2.1888699186396505,0.0
342,1.648454189300537,1.1789437214156457,0.12004143945311438,1.3147356352672555,0.9933129717151232,0.0,0.1252614898412902,0.1,0.0027582645416259766,0.0517277717590332,0.050174013,0.82916045,1.204261243767761,0.0,0.0229882792516099,0.0,200,0.06078624725341797,0.032315381830820715,0.030769426927059317,68600,2.314551506096639,0.0
343,1.6904783248901367,1.4377260825902305,0.47206874879167116,1.9373061941941172,0.6682060057805272,0.0,0.12376134320610702,0.1,0.0027616024017333984,0.05401492118835449,0.04968852,0.94346464,1.2276077276500077,0.0,0.0278613496473904,0.0,200,0.03535747528076172,0.13428252520652229,0.12290925812421749,68800,2.334198491676108,0.0
344,1.6899819374084473,0.8061310815895312,0.4567436183346728,1.5664232614783646,0.3480746031684583,0.0,0.1209682936838755,0.1,0.0028107166290283203,0.07585334777832031,0.04951269,1.804839,1.1854600630439602,0.0,0.015931412085405897,0.0,200,0.08640146255493164,0.4605090047800982,0.42842757866925735,69000,2.364718239490793,0.0
345,1.72212553024292,1.4465809944316228,0.5402177455882683,1.9672619504621605,0.657121424658017,0.0,0.12513866591078504,0.1,0.0024797916412353516,0.04791522026062012,0.05026824,0.8358582,1.2115721561827266,0.0,0.02831671611807056,0.0,200,0.06147313117980957,0.18265371721374793,0.1838512431610713,69200,1.8905519902522976,0.0
346,1.737551212310791,0.9550266129362022,0.2869422630782864,1.3891084506250688,0.6548525521817854,0.0,0.12499753579333726,0.1,0.0028352737426757812,0.05171346664428711,0.04967838,1.4474994,1.1859176018580744,0.0,0.018870698235010502,0.0,200,0.08160257339477539,0.16086977555708204,0.14197955356457673,69400,2.150457140046646,0.0
347,1.7168354988098145,1.550005655560652,0.1759143603089609,1.8317002478665747,1.3587464461820984,0.0,0.12710450581336746,0.1,0.0027685165405273438,0.053530216217041016,0.049562864,1.0676453,1.2223264072283322,0.0,0.03003351321022697,0.0,200,0.047155141830444336,0.10352896185904963,0.08945648213325792,69600,1.7576659010617177,0.0
348,1.6829826831817627,1.332677023230388,0.29185507695114227,1.7379566185239668,0.9176048837155172,0.0,0.12203332695092195,0.1,0.0026886463165283203,0.050878047943115234,0.050001454,1.2122668,1.233361468828538,0.0,0.02593391482696243,0.0,200,0.05515933036804199,0.07018499496305447,0.0640273809834879,69800,2.0747038316742263,0.0
349,1.8036305904388428,1.2404211122876045,0.5963106330669521,1.9111330368433623,0.4704409833735525,0.0,0.12692954453505673,0.1,0.002698659896850586,0.05149984359741211,0.04960787,1.1280941,1.2340674331744446,0.0,0.024274190640478015,0.0,200,0.05421161651611328,0.2126408513841075,0.21014371743372337,70000,1.8635307986576557,0.0
350,1.704876184463501,1.3708938004395226,0.46736341722096236,1.753813497566,0.5919933979183754,0.0,0.12288936993433554,0.1,0.0026950836181640625,0.05520486831665039,0.05047555,1.0898923,1.2477500699009525,0.0,0.026936820593072272,0.0,200,0.03603100776672363,0.13647992048470795,0.13297675116702687,70200,2.0735258763164732,0.0
351,1.744825839996338,1.0090694883191003,0.5001438301437889,1.745002670786873,0.48988941758320154,0.0,0.12300894454651795,0.1,0.0027048587799072266,0.05299854278564453,0.049670327,1.2882631,1.2238820117427673,0.0,0.01981851108044727,0.0,200,0.0358881950378418,0.2536578708562319,0.23499611019437683,70400,2.136389562905492,0.0
352,1.706650972366333,1.234116317530042,0.3087426915992394,1.5859144366137703,0.9094324435464497,0.0,0.11989804603457518,0.1,0.002652406692504883,0.04906177520751953,0.049986992,0.9253659,1.224905442321495,0.0,0.024214254326305598,0.0,200,0.03702950477600098,0.08114983901389065,0.08256999074805531,70600,1.7524237321756753,0.0
353,1.651045799255371,1.5177409537239965,0.1408000670654475,1.6540226219434289,1.307529469623383,0.0,0.12360723918631865,0.1,0.005222797393798828,0.05077505111694336,0.049221788,1.1973176,1.254188993461745,0.0,0.029366993693593683,0.0,200,0.045633792877197266,0.0891317946093319,0.06089967223740663,70800,2.0455106077244163,0.0
354,1.6119024753570557,1.108415514258835,0.6838364672893994,1.927078208828699,0.03173546716253483,0.0,0.12250028635941274,0.1,0.0027310848236083984,0.04889082908630371,0.05028888,0.81258774,1.239611645541454,0.0,0.021638942634457405,0.0,200,0.12415575981140137,0.31911861407177544,0.32806159068895624,71000,1.7410223502907807,0.0
355,1.6471498012542725,1.1832373804107221,0.34547409687122793,1.719359627654744,0.7890598650187992,0.0,0.12478628832139635,0.1,0.0027151107788085938,0.06159400939941406,0.050118018,1.7277994,1.233974219028381,0.0,0.02305506659026062,0.0,200,0.08062410354614258,0.1277161776067613,0.12002273451046401,71200,1.4472151671569662,0.0
356,1.7355248928070068,0.9432833022127097,0.45662686540737885,1.4385444252500177,0.40226625224302437,0.0,0.12434923263118113,0.1,0.0029540061950683594,0.05152082443237305,0.050093256,0.81558657,1.2049051273468139,0.0,0.01844022420517253,0.0,200,0.0728294849395752,0.32560361496146734,0.2602584310991784,71400,1.7201156267131659,0.0
357,1.768240213394165,1.0061808252906503,0.3650975325969856,1.3492294551860464,0.41959039396106945,0.0,0.12232579503558481,0.1,0.002792835235595703,0.05261540412902832,0.050021373,1.170804,1.1850326971411975,0.0,0.019637857428450176,0.0,200,0.06681060791015625,0.15648482892218984,0.14572269866203666,71600,1.4727776751282569,0.0
358,1.6573975086212158,0.8688629318189747,0.5009873528597498,1.7116142010281392,0.4880269252668817,0.0,0.11926872399880872,0.1,0.0028815269470214844,0.051801443099975586,0.05021608,1.3173285,1.1534157206089752,0.0,0.017079850162891118,0.0,200,0.10728263854980469,0.35154925393383746,0.3214822917999861,71800,1.6931529239007326,0.0
359,1.7068471908569336,1.3855024648044145,0.2114880729458969,1.7475052298069111,1.2300693107965839,0.0,0.12296336889857826,0.1,0.002843141555786133,0.05408883094787598,0.049933996,1.2863977,1.1766243950285191,0.0,0.02695484429821803,0.0,200,0.030485153198242188,0.12510637687668652,0.1243216872174785,72000,1.8164204466434979,0.0
360,1.6560359001159668,1.5121225573608985,0.2958494541513428,1.844744440735087,1.0461861667392272,0.0,0.12279136091296268,0.1,0.007859230041503906,0.05613350868225098,0.049592286,2.9131463,1.2101742112617573,0.0,0.029612577592141462,0.0,200,0.0720818042755127,0.17588780185975977,0.13750798088593713,72200,2.016306618179368,0.0
