iteration,time_sampling,stoc_pol_mean,stoc_pol_std,stoc_pol_max,stoc_pol_min,rollout_success,alpha,delta,time_vpg,time_npg,kl_dist,surr_improvement,running_score,rwd_sparse,rwd_dense,success_percentage,num_samples,time_VF,VF_error_before,VF_error_after,env_samples,eval_score,eval_success
0,1.0342373847961426,0.026557947428857774,0.010714391210144739,0.04195973983532798,0.011675791489255117,0.0,0.13666312775750553,0.1,0.03137636184692383,0.05254936218261719,0.050130654,2.06429,0.026557947428857774,0.0,0.0005274473385866278,0.0,200,0.014216184616088867,6.827432624977691,2.228234982734832,200,0.03195505782115154,0.0
1,0.931769609451294,0.028181174840433622,0.01042121471589652,0.04321637959640843,0.0153215898464476,0.0,0.14133634352489524,0.1,0.002753734588623047,0.05246114730834961,0.056109462,1.3873498,0.02672027017001536,0.0,0.0005407813774064076,0.0,200,0.014486551284790039,1.8538970920329,0.2820035436215341,400,0.031877418365880476,0.0
2,0.9921000003814697,0.016831043164596656,0.00789772043542473,0.027282913721216405,0.005824007740898313,0.0,0.15981735910350264,0.1,0.0027608871459960938,0.05224251747131348,0.051232055,0.9079171,0.02573134746947349,0.0,0.0003360026569781186,0.0,200,0.013762235641479492,1.1056715379467679,1.7895761651757132,600,0.0217939930519804,0.0
3,1.0130670070648193,0.03998174297491007,0.03444697405006696,0.09735341380066351,0.005729794530054497,0.0,0.14878801633710564,0.1,0.0026836395263671875,0.052582502365112305,0.05583819,1.343739,0.027156387020017148,0.0,0.0007963986022864701,0.0,200,0.013938665390014648,1.1884769920907388,0.6585917206718,800,0.03225811361109955,0.0
4,1.0436079502105713,0.04771502937848996,0.023292717084460998,0.07950150103482076,0.015745373360967856,0.0,0.15106651484488787,0.1,0.0027506351470947266,0.05386710166931152,0.05047517,0.9918418,0.029212251255864432,0.0,0.0009529688968527446,0.0,200,0.01821613311767578,0.5378221557895893,0.4600913991783756,1000,0.03406267846370159,0.0
5,1.0876505374908447,0.04780648694137064,0.01449697577540518,0.06125867974182105,0.024052376495740102,0.0,0.14389445562381933,0.1,0.0026993751525878906,0.053536415100097656,0.048553176,0.89789796,0.031071674824415054,0.0,0.0009371534717604623,0.0,200,0.01327967643737793,0.3708952966439363,0.42857087509735037,1200,0.04459220105831687,0.0
6,1.0843968391418457,0.05264278044355501,0.0450178529949564,0.11974586757648929,0.011460787277762204,0.0,0.14967638142632445,0.1,0.0027434825897216797,0.05346941947937012,0.0511933,1.1599485,0.03322878538632905,0.0,0.0010513060772393227,0.0,200,0.014107227325439453,0.6074690061399391,0.5453500156282118,1400,0.07440837448879623,0.0
7,1.1207525730133057,0.07309050448999987,0.09945780865914551,0.24463914497479444,0.005649144955412434,0.0,0.1563566435787437,0.1,0.0026667118072509766,0.052362918853759766,0.050565675,1.291627,0.03721495729669613,0.0,0.0014556479914839434,0.0,200,0.014234542846679688,0.7476356918175173,0.7129204139410134,1600,0.08320043900275897,0.0
8,1.0858523845672607,0.06569589160246708,0.09130526670741228,0.22356066970732147,0.0046271525775602555,0.0,0.14489943335613406,0.1,0.0027184486389160156,0.05214357376098633,0.04983048,1.5407968,0.04006305072727323,0.0,0.0013064942201938654,0.0,200,0.013389348983764648,0.7148608339691124,0.6966583142845001,1800,0.13042180052700522,0.0
9,1.0667603015899658,0.057215832314861874,0.03384173544716797,0.09750224575997343,0.016559801238741484,0.0,0.14993289238223564,0.1,0.002675294876098633,0.05254554748535156,0.051696952,0.97640604,0.0417783288860321,0.0,0.001139919462352634,0.0,200,0.014178991317749023,0.350636010724255,0.31407150276381957,2000,0.14533347710492536,0.0
10,1.3205087184906006,0.09690343010219611,0.12489698554403446,0.3102673875501028,0.0028303933192395385,0.0,0.14542532342155673,0.1,0.002854585647583008,0.05460381507873535,0.048934735,1.4044865,0.0472908390076485,0.0,0.0019372470058195987,0.0,200,0.01652050018310547,0.7205472396352959,0.6861071461112223,2200,0.13399374404850103,0.0
11,1.2557289600372314,0.10909820315750074,0.08905380141228368,0.23000425021078638,0.009283291134826614,0.0,0.14233928016323805,0.1,0.0031669139862060547,0.0542447566986084,0.048865784,2.2519631,0.05347157542263373,0.0,0.002170887533278673,0.0,200,0.014237642288208008,0.5222829082920988,0.47060688176725024,2400,0.15568704645028733,0.0
12,1.0887725353240967,0.06538919911440548,0.03977317161122477,0.13284171761359276,0.0322733113409989,0.0,0.15297123430447138,0.1,0.002714395523071289,0.053156137466430664,0.05006625,1.1072563,0.0546633377918109,0.0,0.0012979166066618066,0.0,200,0.014136552810668945,0.9997962237199584,0.4317325489689765,2600,0.21689882704094246,0.0
13,1.0110185146331787,0.17338086036545391,0.2461135996957119,0.5963075410822427,0.006180001315087582,0.0,0.13716041335601045,0.1,0.0028192996978759766,0.05328536033630371,0.049508847,1.5770911,0.0665350900491752,0.0,0.0034577358262101576,0.0,200,0.01566624641418457,0.795771892284782,0.7531675799015504,2800,0.4438017885012489,0.0
14,1.0562562942504883,0.31501149607005513,0.43681656244006456,1.0713454650687853,0.05230720415593028,0.0,0.13602213732041513,0.1,0.0028083324432373047,0.05309700965881348,0.04936767,1.92222,0.09138273065126319,0.0,0.006296942871062641,0.0,200,0.014135122299194336,0.8291569328364303,0.7234231000745293,3000,0.34652911345835763,0.0
15,1.0588970184326172,0.06530073509893364,0.020768537736886323,0.09419648468626776,0.03778582797196253,0.0,0.1314621247394156,0.1,0.0027196407318115234,0.054296016693115234,0.0509328,1.6219373,0.08877453109603023,0.0,0.0012923354467490752,0.0,200,0.013587474822998047,7.89369547821435,7.3831707008514185,3200,0.3346501913235174,0.0
16,1.0868213176727295,0.09208529737410723,0.04690357600636499,0.15724991707215966,0.028911717720017657,0.0,0.13555063505947812,0.1,0.0027451515197753906,0.05278301239013672,0.050418347,1.173776,0.08910560772383794,0.0,0.0017680560773857264,0.0,200,0.013359308242797852,1.6032065325662956,0.46952503530229756,3400,0.4465493596771906,0.0
17,1.1275031566619873,0.09903606543489943,0.05039153230804961,0.18586268799463035,0.0629692653246734,0.0,0.14562600705984666,0.1,0.0026886463165283203,0.052483558654785156,0.048797265,1.0760243,0.09009865349494409,0.0,0.0019750181146819946,0.0,200,0.013353109359741211,0.4588882903231228,0.2699335144720503,3600,0.423503037660367,0.0
18,1.0842876434326172,0.43306843797983385,0.35967298827287547,0.9836310092521046,0.02934798538737517,0.0,0.13171673665698896,0.1,0.0027017593383789062,0.052664995193481445,0.05064619,1.7452207,0.12439563194343306,0.0,0.008659475951579928,0.0,200,0.013944864273071289,0.805999807462061,0.7554731999207774,3800,0.5430301581476493,0.0
19,1.0845026969909668,0.1608152189285756,0.13787231094404434,0.37546764358367973,0.022001151728684984,0.0,0.1426019543839918,0.1,0.002750873565673828,0.053223371505737305,0.05055554,1.0479275,0.1280375906419473,0.0,0.003204667792622024,0.0,200,0.014215230941772461,0.49276056413272495,0.44151696720037475,4000,1.2547075169504978,0.0
20,1.1108894348144531,0.11128724533516383,0.06642349724499864,0.21258288923711643,0.030358909695452345,0.0,0.14235185741213746,0.1,0.002699136734008789,0.05347037315368652,0.049643382,1.0056021,0.12636255611126895,0.0,0.002225140724686331,0.0,200,0.013742446899414062,0.5197335635667008,0.683019586897035,4200,1.1390571022679388,0.0
21,1.1104533672332764,0.13606899544954293,0.09525138556983871,0.27350962159536724,0.02744324843878397,0.0,0.1320914691907178,0.1,0.002785205841064453,0.05299711227416992,0.050441228,1.8822541,0.12733320004509635,0.0,0.0027003468791025552,0.0,200,0.014044046401977539,0.49919347057875174,0.49004677009513053,4400,1.6585872561101442,0.0
22,1.1603689193725586,0.6349370315103104,0.5832441444282651,1.3987506971426382,0.03645922080986713,0.0,0.13924581042728132,0.1,0.0027663707733154297,0.05338311195373535,0.048646156,1.3934892,0.17809358319161778,0.0,0.012694144803169806,0.0,200,0.01367044448852539,0.7712366395495311,0.7035204187456554,4600,1.7331877757935272,0.0
23,1.1081764698028564,0.19299874355706131,0.13393791262182272,0.3925186708174059,0.03260882767780388,0.0,0.14047516830894466,0.1,0.0032439231872558594,0.05371594429016113,0.04960144,1.1637905,0.17958409922816213,0.0,0.0038406036616905003,0.0,200,0.013515472412109375,0.45476413500618446,0.6474226721757634,4800,1.6338250282239708,0.0
24,1.1359531879425049,0.4323644999563372,0.32989060790069813,0.95560020748863,0.04943006023513449,0.0,0.13154568249433082,0.1,0.0027227401733398438,0.055603742599487305,0.05043946,1.6785611,0.20486213930097963,0.0,0.008586076691020237,0.0,200,0.013371706008911133,0.5004059207148872,0.45812312650462267,5000,1.5832452884012997,0.0
25,1.1386163234710693,0.07617211871361884,0.046682553814716844,0.1554077859154963,0.03524707286430466,0.0,0.1371020237560787,0.1,0.002837657928466797,0.05470991134643555,0.05050869,1.7762522,0.19199313724224357,0.0,0.0015048332734650905,0.0,200,0.013699769973754883,13.072488899984233,9.407243823696653,5200,1.488267186331526,0.0
26,1.1559033393859863,0.08169359077510575,0.08866753802512056,0.23426461174290933,0.016005117990281835,0.0,0.13581163441612684,0.1,0.0025992393493652344,0.05557394027709961,0.050311614,0.8476952,0.1809631825955298,0.0,0.0016321037659454184,0.0,200,0.013004779815673828,4.178065550629187,1.721227516245795,5400,1.4462425629444666,0.0
27,1.0986909866333008,0.14921519914094417,0.13166184282135168,0.3468798723318607,0.026654991909287672,0.0,0.13432194759948665,0.1,0.002957582473754883,0.054624080657958984,0.05033956,1.3992102,0.17778838425007124,0.0,0.0029835197490775413,0.0,200,0.014429330825805664,0.5922857988602592,0.4979575148641791,5600,1.01803129165204,0.0
28,1.0960693359375,0.1649973051139617,0.12218929749440822,0.29543996396633604,0.027847322783080088,0.0,0.12823155180320833,0.1,0.002858400344848633,0.05417776107788086,0.049180508,1.2206825,0.17650927633646027,0.0,0.0032970656067442417,0.0,200,0.013951778411865234,0.42486145802272685,0.4988969227055623,5800,1.0642233043479818,0.0
29,1.0984327793121338,0.23044858937970453,0.2518574271823328,0.6548261018500896,0.030813555819277524,0.0,0.12902930382757533,0.1,0.0028295516967773438,0.054444313049316406,0.04983777,2.47022,0.1819032076407847,0.0,0.004588628670681119,0.0,200,0.014022111892700195,0.7526610766306651,0.7332872376482482,6000,1.0874896808102112,0.0
30,1.105180263519287,0.4519958715974144,0.4241805085353631,1.1150679263453496,0.045297614864332,0.0,0.1392389554811887,0.1,0.0029609203338623047,0.05394935607910156,0.050272465,1.365113,0.20891247403644764,0.0,0.00903964789915099,0.0,200,0.013855934143066406,0.7906508172217624,0.73688158306658,6200,1.1496175606857741,0.0
31,1.0978412628173828,0.10978214134141712,0.0764137091710253,0.2372231756494158,0.041968591196828796,0.0,0.1454061670257738,0.1,0.0027403831481933594,0.052809953689575195,0.049442954,1.1050035,0.1989994407669446,0.0,0.002191651104205071,0.0,200,0.013727903366088867,0.4894894564255754,0.6256787363173026,6400,0.8152824084379424,0.0
32,1.0896427631378174,0.1756085036039085,0.16240687821094388,0.456095880086696,0.07031073841674083,0.0,0.13474659968939556,0.1,0.0027527809143066406,0.0526125431060791,0.04897421,1.548687,0.19666034705064098,0.0,0.003486296640553928,0.0,200,0.01342463493347168,0.5553537469880602,0.5586812360334684,6600,0.618360736965193,0.0
33,1.1310088634490967,0.3157138247657883,0.166552153904453,0.48214665987077193,0.07550042184991106,0.0,0.1375537753015594,0.1,0.0028009414672851562,0.05249357223510742,0.049281303,0.9305667,0.20856569482215573,0.0,0.006313325351873764,0.0,200,0.013500452041625977,0.420537023347977,0.39280809424483815,6800,0.8528312381130401,0.0
34,1.1281914710998535,0.2598568992472865,0.24440219386448842,0.6529359861571138,0.03296137618856064,0.0,0.13710316660827215,0.1,0.002918243408203125,0.05421924591064453,0.048511505,1.487959,0.21369481526466882,0.0,0.005185627491617386,0.0,200,0.016301631927490234,0.5877405346794735,0.569506348368411,7000,0.765224274576889,0.0
35,1.1802268028259277,0.13359437977647964,0.14796037035398737,0.38715177557202995,0.024972295588710645,0.0,0.13343806974103237,0.1,0.0027666091918945312,0.05305123329162598,0.050213486,2.4320023,0.20568477171584992,0.0,0.0026702844127356653,0.0,200,0.014316082000732422,0.7556328960487905,0.7749171596372588,7200,0.9547548247758545,0.0
36,1.1366081237792969,0.16362634245871638,0.11600399574177087,0.30088428600760425,0.04826670784259016,0.0,0.13296791802106647,0.1,0.002801656723022461,0.052425384521484375,0.04875147,1.1489558,0.20147892879013657,0.0,0.0032429106364146973,0.0,200,0.013539552688598633,0.5057832989181145,0.46703334332717117,7400,0.5246695272126388,0.0
37,1.1541752815246582,0.10487978259401813,0.05548096608538798,0.1866084915857375,0.03425239856585299,0.0,0.13780857313449843,0.1,0.09520554542541504,0.36081910133361816,0.050048485,0.8592058,0.19181901417052474,0.0,0.0020629119527940678,0.0,200,0.01663351058959961,1.4043954013042739,0.9589927241881531,7600,1.0054029011701275,0.0
38,1.1555938720703125,0.2510515665178174,0.11147403291695426,0.4381433731953222,0.15888383675999945,0.0,0.13866472701407784,0.1,0.0027344226837158203,0.05232715606689453,0.050152585,1.3228848,0.19774226940525402,0.0,0.005009215224581686,0.0,200,0.015353679656982422,0.31101011734019907,0.3300072164368992,7800,0.9015783324742478,0.0
39,1.1587772369384766,0.18731573242101168,0.18204919461292565,0.47223154666285544,0.020164063661282115,0.0,0.14275194350107961,0.1,0.002643108367919922,0.05347037315368652,0.04971186,1.0111097,0.1966996157068298,0.0,0.0037100356630842034,0.0,200,0.013356447219848633,0.511339483162187,0.5092858449202232,8000,1.2672573979410955,0.0
40,1.1670236587524414,0.23930860516641086,0.19056011386691282,0.545871558217718,0.02712308418052102,0.0,0.1301412300713875,0.1,0.002744436264038086,0.052559614181518555,0.049696457,1.7402498,0.2009605146527879,0.0,0.004758701317305981,0.0,200,0.014116764068603516,0.5050203254848049,0.49283537449140075,8200,1.1876995964537158,0.0
41,1.0691556930541992,0.47851352059875385,0.199605633347537,0.7469726248640706,0.1921935271895738,0.0,0.13530548965483621,0.1,0.0031311511993408203,0.05380749702453613,0.04883601,1.0968384,0.22871581524738452,0.0,0.00954588865856526,0.0,200,0.01430654525756836,0.5439600335275377,0.4609685149615939,8400,1.250441149198448,0.0
42,1.1035254001617432,0.3242908546357611,0.1635843252684821,0.5852380381890843,0.1358703976524741,0.0,0.14295640749876676,0.1,0.0029561519622802734,0.0548863410949707,0.04995643,1.102506,0.2382733191862222,0.0,0.006466208220929654,0.0,200,0.019293546676635742,0.3488335499951008,0.272700399085822,8600,1.7704461981090673,0.0
43,1.1003918647766113,0.45985463564542145,0.4224148457399264,1.1835521460777854,0.1305426126761973,0.0,0.1327798586180339,0.1,0.002842426300048828,0.05391979217529297,0.04933974,1.743109,0.26043145083214214,0.0,0.00915131235135537,0.0,200,0.014277219772338867,0.5787943442403586,0.5349318529333585,8800,1.627854392127485,0.0
44,1.1100783348083496,0.5947641551897866,0.5509152444668951,1.5155296411758414,0.07987989584407455,0.0,0.13302420056928008,0.1,0.002869844436645508,0.05294990539550781,0.04865115,1.9922568,0.29386472126790664,0.0,0.011874393149647326,0.0,200,0.013586997985839844,0.6055657728718512,0.5434018798457492,9000,1.551576917284908,0.0
45,1.0905687808990479,0.2658062551196483,0.1603840890735368,0.5001053881067593,0.05453932707575344,0.0,0.13487734441187513,0.1,0.002863168716430664,0.052822113037109375,0.050126113,1.2310821,0.29105887465308083,0.0,0.005194915532831442,0.0,200,0.014072179794311523,0.9334064495355896,0.8500227929746875,9200,0.9408553229220885,0.0
46,1.0964877605438232,0.32562681939670923,0.22953501652189237,0.6719537026844495,0.04916089317057305,0.0,0.1320435407872527,0.1,0.002875089645385742,0.05440258979797363,0.049308755,1.3459729,0.2945156691274437,0.0,0.00649425842090577,0.0,200,0.013970136642456055,0.4946146962864136,0.404937837840079,9400,1.2244469254640824,0.0
47,1.1214416027069092,0.7440311322364208,0.9147828305279436,2.3193208580316615,0.05950435231858059,0.0,0.12223963852622462,0.1,0.002799510955810547,0.054262399673461914,0.0489639,2.771481,0.3394672154383414,0.0,0.014690765735380109,0.0,200,0.01613593101501465,0.7125227550912244,0.6847099733288239,9600,1.1734868166829673,0.0
48,1.1217725276947021,0.43671954489994647,0.27725769364747715,0.8197586454217721,0.04094825363836083,0.0,0.13232007457945608,0.1,0.0029125213623046875,0.05441021919250488,0.049765144,1.0806737,0.3491924483845019,0.0,0.008723153663379241,0.0,200,0.013796329498291016,0.3229402686592441,0.3586464038072769,9800,0.8572763923639629,0.0
49,1.1216540336608887,0.4420986951995188,0.36532044033068967,1.0393476001684947,0.1356890766106565,0.0,0.1357413159312234,0.1,0.0027625560760498047,0.052713632583618164,0.049743716,1.3708562,0.35848307306600363,0.0,0.00879612499025416,0.0,200,0.013428926467895508,0.44920446126394736,0.4422826105365486,10000,1.5898180679885634,0.0
50,1.1498537063598633,0.173330463824069,0.09342478456856299,0.3275470968078512,0.09298039225647123,0.0,0.12684531466306867,0.1,0.002735137939453125,0.05300569534301758,0.050981987,0.8017252,0.33996781214181016,0.0,0.003445751160999682,0.0,200,0.013857841491699219,3.598544082303975,1.8818708303052676,10200,0.8383572785898162,0.0
51,1.1200964450836182,0.41107724937914064,0.13786798184294527,0.5583066027389907,0.20023991826160328,0.0,0.13131777785833657,0.1,0.002872467041015625,0.05347943305969238,0.049173627,1.7188065,0.34707875586554326,0.0,0.00821730697087098,0.0,200,0.013750791549682617,0.178393313013303,0.21990564536814514,10400,0.5712667545815686,0.0
52,1.1793277263641357,0.37140365149195265,0.34428437513582555,0.9285208242704427,0.05972142074574448,0.0,0.12509677797110835,0.1,0.0029129981994628906,0.05388307571411133,0.050218973,1.7346007,0.34951124542818424,0.0,0.0074236200353670345,0.0,200,0.016844749450683594,0.5055916953588725,0.5163776640833185,10600,0.5776032472622054,0.0
53,1.165541648864746,0.5268055302466078,0.5075324729310631,1.3405686707404831,0.017168167229709853,0.0,0.13330313684355635,0.1,0.0027387142181396484,0.052033424377441406,0.0493984,1.7304493,0.3672406739100266,0.0,0.010503364113772055,0.0,200,0.01385498046875,0.6054337963979701,0.5936287508513884,10800,0.6003935055073892,0.0
54,1.1503405570983887,0.5121385192085052,0.21659694510956326,0.7979789521749278,0.23118203520402156,0.0,0.1276915187584117,0.1,0.0027952194213867188,0.05261039733886719,0.04983361,1.3527647,0.3817304584398745,0.0,0.01022845167375009,0.0,200,0.013595819473266602,0.3103839745808979,0.2522962995854711,11000,0.4978501884659455,0.0
55,1.1724789142608643,0.29790363011387055,0.08865351587989387,0.42794110533680985,0.20801598427345153,0.0,0.13049170334126214,0.1,0.002800464630126953,0.05289268493652344,0.048938543,1.712229,0.3733477756072741,0.0,0.005933210811450877,0.0,200,0.013432025909423828,0.22918915893441033,0.29409916540730446,11200,0.5063843127478831,0.0
56,1.1799592971801758,0.3859720621508904,0.2748324034783347,0.7573114535550972,0.10136439465914358,0.0,0.12430793526028142,0.1,0.0027217864990234375,0.05242919921875,0.050022673,1.6385942,0.37461020426163577,0.0,0.0075458206579093875,0.0,200,0.013495683670043945,0.36260630254333864,0.35901838735712394,11400,0.46676868212262496,0.0
57,1.0987310409545898,0.3497995586307535,0.26864626845600487,0.751030494030994,0.028021247441161436,0.0,0.1336906276030275,0.1,0.002897024154663086,0.054479122161865234,0.050164744,1.0161185,0.37212913969854755,0.0,0.006969126066530391,0.0,200,0.013416051864624023,0.4079662195887542,0.3990399691762949,11600,0.5392424250733079,0.0
58,1.1205565929412842,0.39425199751561707,0.2024511630038859,0.6685906904762927,0.1070316024795676,0.0,0.12855181799414195,0.1,0.0027921199798583984,0.05436396598815918,0.049910564,1.5105426,0.3743414254802545,0.0,0.00788475087168847,0.0,200,0.014498710632324219,0.2602773850480301,0.25698061357256435,11800,0.5646940903812149,0.0
59,1.1128637790679932,0.3627417357050089,0.23881356842160423,0.6961770729874467,0.07308533173982515,0.0,0.1309213845175999,0.1,0.0028581619262695312,0.05395650863647461,0.05065737,1.0626374,0.37318145650272994,0.0,0.007239104061412379,0.0,200,0.01374363899230957,0.3626054648842006,0.35171432603955133,12000,0.6142573852200137,0.0
60,1.103578805923462,0.19084838014472105,0.08432102122460892,0.2926801802749429,0.05820667748826347,0.0,0.12072969570934329,0.1,0.0027534961700439453,0.053462982177734375,0.049328994,0.82296866,0.35494814886692905,0.0,0.0038153450911135207,0.0,200,0.013785362243652344,1.1328902833399146,0.7277323649316741,12200,0.41857661328721907,0.0
61,1.1327478885650635,0.33674912225433873,0.1388280385570983,0.5552431536618142,0.18104698936718525,0.0,0.13256335420551657,0.1,0.002908945083618164,0.056485652923583984,0.049778525,1.1254952,0.35312824620567007,0.0,0.006699465137491101,0.0,200,0.013994693756103516,0.2068064225842059,0.22994832379250035,12400,0.45573277597232065,0.0
62,1.1532177925109863,0.5883761837335122,0.2960245356185939,1.0237061649822927,0.29934461696751313,0.0,0.12568398503047998,0.1,0.002862691879272461,0.05315542221069336,0.050250612,1.4363854,0.3766530399584543,0.0,0.01176697163019099,0.0,200,0.01371145248413086,0.4243395199578264,0.3801649304800768,12600,0.6513560143656093,0.0
63,1.149442195892334,0.35542853308752814,0.08599657043941271,0.44982201689257817,0.21720465637995423,0.0,0.13081119683685294,0.1,0.0027244091033935547,0.05232954025268555,0.04959322,1.7497957,0.3745305892713616,0.0,0.007032737895380861,0.0,200,0.013695240020751953,0.13267246555196965,0.10278490400501532,12800,0.4460545994175702,0.0
64,1.152177095413208,0.17267927128196792,0.03849073379318865,0.23779039497415805,0.14171536827315573,0.0,0.12798076933467872,0.1,0.0028035640716552734,0.054796695709228516,0.048229355,0.9033779,0.3543454574724223,0.0,0.0034000268228421182,0.0,200,0.013710975646972656,1.3894516481691488,1.33016249214687,13000,0.2773377950221211,0.0
65,1.1426191329956055,0.6390183761248693,0.268719254144171,1.01706171676471,0.28813077367921724,0.0,0.12321304945683145,0.1,0.0027091503143310547,0.05251574516296387,0.04970939,1.5372928,0.38281274933766707,0.0,0.01277324068041787,0.0,200,0.013526678085327148,0.3541432134399922,0.32640813231365956,13200,0.44705653674382856,0.0
66,1.1470451354980469,0.3956502899507677,0.22968111463455826,0.7218985050648601,0.15264920979174484,0.0,0.12495021703669576,0.1,0.002871274948120117,0.05218696594238281,0.04970172,1.3428398,0.38409650339897716,0.0,0.007908289220670234,0.0,200,0.013223409652709961,0.2642279979623019,0.2679771854430206,13400,0.4563936359496566,0.0
67,1.176497459411621,0.5728524794701988,0.4453606903706847,1.2602359229419429,0.11184175458436764,0.0,0.12231463320743734,0.1,0.00275421142578125,0.05226325988769531,0.05013519,2.0201445,0.40297210100609937,0.0,0.011450143392890855,0.0,200,0.01470947265625,0.45716105584871075,0.43401740301431163,13600,0.22249942617052562,0.0
68,1.17806077003479,0.6431672754220816,0.37265519095744093,1.166078071040778,0.2712584805668558,0.0,0.13928493195299596,0.1,0.0029134750366210938,0.05328011512756348,0.049918577,1.20165,0.4269916184476976,0.0,0.012853131807536389,0.0,200,0.013401269912719727,0.3547281793059927,0.3144465000703963,13800,0.1556139580335247,0.0
69,1.1669621467590332,0.5866396307560993,0.37350165890967685,1.020584074198368,0.04439349541077158,0.0,0.13117851200387382,0.1,0.0027103424072265625,0.05204439163208008,0.049820255,1.1349128,0.4429564196785378,0.0,0.011693014230428959,0.0,200,0.012889862060546875,0.3277880267443792,0.3348162386761271,14000,0.12016491293569903,0.0
70,1.1841890811920166,0.4877051936699095,0.5006126226292638,1.342342480040723,0.08585088845036241,0.0,0.1267451277746126,0.1,0.0027043819427490234,0.05214667320251465,0.049634237,1.9484968,0.447431297077675,0.0,0.00974750554627072,0.0,200,0.013044357299804688,0.5829457515962978,0.5689696722130456,14200,0.20769031957551806,0.0
71,1.2050426006317139,0.9910676384320647,1.1144400265720353,2.908507862302925,0.15333005037066874,0.0,0.1266126848270481,0.1,0.002699613571166992,0.05557608604431152,0.049806055,2.012305,0.5017949312131139,0.0,0.019627556510188927,0.0,200,0.01338648796081543,0.6216111162215996,0.5894899484158469,14400,0.25434586816960636,0.0
72,1.199751615524292,0.6892379262914405,0.23217881053342676,0.9596742446196769,0.38072467724397396,0.0,0.12806957668839214,0.1,0.0026683807373046875,0.05334281921386719,0.049396764,1.1641377,0.5205392307209467,0.0,0.01378425621570923,0.0,200,0.013514995574951172,0.29160491471026895,0.2866685727296037,14600,0.07786104555453098,0.0
73,1.1619751453399658,0.48234096483352285,0.25310720993487407,0.7752567764486878,0.14597056363970787,0.0,0.1336925190330649,0.1,0.0028612613677978516,0.05361342430114746,0.04967741,0.8283905,0.5167194041322043,0.0,0.00959240646182716,0.0,200,0.014376640319824219,0.5320327481143111,0.3084953016967215,14800,0.13658828510839216,0.0
74,1.1205644607543945,0.6145850349066111,0.3555824126467802,1.1485378001867572,0.2328488644112269,0.0,0.12730235534329487,0.1,0.0029914379119873047,0.05450916290283203,0.050463796,1.50168,0.5265059672096449,0.0,0.012272918626941827,0.0,200,0.01395559310913086,0.28861758981184016,0.30142697053335915,15000,0.0997910763379517,0.0
75,1.1449775695800781,0.5315346415459954,0.23782623772373188,0.918138661805956,0.33274710331443613,0.0,0.1260355804512188,0.1,0.002851247787475586,0.054242610931396484,0.04950613,1.2441424,0.52700883464328,0.0,0.010604522262018181,0.0,200,0.014203071594238281,0.30853895529869285,0.2810887063592635,15200,0.12640331001541188,0.0
76,1.145214319229126,0.6447698398658768,0.21186886047579173,0.9394221911728764,0.3435884117131161,0.0,0.130663002695936,0.1,0.003056764602661133,0.053009986877441406,0.050535172,1.3447739,0.5387849351655396,0.0,0.01283435773809729,0.0,200,0.01277470588684082,0.23286493975747774,0.1929738734343191,15400,0.08094226554046757,0.0
77,1.1611266136169434,0.40946747113451554,0.2751587873135988,0.7404858284502627,0.010954931532574147,0.0,0.12828641346028097,0.1,0.002834320068359375,0.05256533622741699,0.05124499,1.0391629,0.5258531887624373,0.0,0.008147425564998293,0.0,200,0.013715982437133789,0.37740543981022534,0.3835738193781252,15600,0.28245381081400456,0.0
78,1.2117676734924316,0.7487492783419529,0.43593737947071515,1.2024385103863915,0.2418369215307087,0.0,0.1301890204081936,0.1,0.002816915512084961,0.052820444107055664,0.049709283,1.4941716,0.5481427977203888,0.0,0.014656878848286696,0.0,200,0.013453245162963867,0.35039480531924266,0.3352069262701379,15800,0.38669969410845867,0.0
79,1.1676383018493652,0.7558237440038906,0.20355576177678672,0.9997902754837367,0.46767830471856114,0.0,0.130764232274457,0.1,0.002844095230102539,0.05334043502807617,0.049553577,1.0008055,0.5689108923487389,0.0,0.01490133325087107,0.0,200,0.014208316802978516,0.16970473040782072,0.1331754205281163,16000,0.4781724466692168,0.0
80,1.1664097309112549,0.9492148687325157,0.5734412570296495,1.9409457519194344,0.5692347655655303,0.0,0.13235638468470964,0.1,0.0029523372650146484,0.054235219955444336,0.05075806,1.6220443,0.6069412899871167,0.0,0.0189702345783242,0.0,200,0.013944149017333984,0.38912394739456535,0.34098097957030904,16200,0.4177481121083899,0.0
81,1.2104456424713135,0.46458007265271645,0.1293904935470324,0.6381925583156169,0.3142869244930537,0.0,0.13234312479952126,0.1,0.0029566287994384766,0.05946755409240723,0.050264258,1.1382428,0.5927051682536767,0.0,0.009283150960206743,0.0,200,0.014743328094482422,0.8146438637445937,0.7080692025221971,16400,0.3158904253979467,0.0
82,1.2001938819885254,0.5413753297845227,0.3385943442458465,0.9952454655914207,0.045276033305192066,0.0,0.1268881709106101,0.1,0.003210306167602539,0.05291032791137695,0.04995669,1.119308,0.5875721844067613,0.0,0.010822489688201629,0.0,200,0.01345515251159668,0.4436962012077183,0.30901294995000206,16600,0.3647547731239604,0.0
83,1.1910314559936523,0.9128684985019957,0.5605371396339773,1.8161874191446787,0.41098172210575845,0.0,0.12639870765233976,0.1,0.0028345584869384766,0.052352190017700195,0.049601313,2.0657651,0.6201018158162848,0.0,0.018220477653204163,0.0,200,0.014976024627685547,0.3569879724341805,0.37642516194958053,16800,0.40094735347211136,0.0
84,1.2455954551696777,1.079149767133392,0.582354807334954,1.743748079813167,0.20486513312328947,0.0,0.13611805056115758,0.1,0.002854585647583008,0.05385255813598633,0.050162543,1.2540252,0.6660066109479956,0.0,0.021192726043570302,0.0,200,0.013703584671020508,0.43141724854458985,0.36724913534844866,17000,0.34362607043225085,0.0
85,1.25742769241333,0.8727714317176194,0.6701245845826489,2.001429657015628,0.24179210958935,0.0,0.1339092708220485,0.1,0.0029222965240478516,0.05361056327819824,0.049741343,1.4391588,0.686683093024958,0.0,0.017387125413391373,0.0,200,0.014346837997436523,0.46728825946125346,0.44375027590413474,17200,1.107715530384454,0.0
86,1.2022640705108643,0.5251774158117952,0.17827807772680337,0.7550087527593434,0.32714824203454984,0.0,0.13605028119477802,0.1,0.0027008056640625,0.05217289924621582,0.049695496,0.9853019,0.6705325253036417,0.0,0.010472205287968337,0.0,200,0.013837575912475586,0.8024062312179878,0.740419679400803,17400,0.7171998439229509,0.0
87,1.2348723411560059,0.28865668002933903,0.1955198186657299,0.6149679294468718,0.11147370506630498,0.0,0.1327638710323933,0.1,0.0027687549591064453,0.05278801918029785,0.049136534,3.0982666,0.6323449407762114,0.0,0.005736056985708605,0.0,200,0.014109611511230469,3.342825906163889,1.481060480691875,17600,0.9247019889760163,0.0
88,1.1895508766174316,0.5459628811866446,0.27834792370690126,0.9928477392957299,0.23777039335705258,0.0,0.12376697494904715,0.1,0.00330352783203125,0.05459237098693848,0.050076257,1.39681,0.6237067348172547,0.0,0.010906122062929922,0.0,200,0.015036821365356445,0.24494291791331504,0.23199871157991014,17800,1.2345694582534896,0.0
89,1.17283034324646,0.45051965845778946,0.17543084441609733,0.6765124390507588,0.19313421056856958,0.0,0.12489113944729194,0.1,0.0028617382049560547,0.053786277770996094,0.050034914,0.9956897,0.6063880271813082,0.0,0.009005020130858795,0.0,200,0.01412343978881836,0.23576833357494226,0.20896975638134313,18000,0.8014166277028201,0.0
90,1.1867849826812744,1.0618753996293395,1.0386218739647564,2.8554526207027315,0.338128211768058,0.0,0.12688722110825587,0.1,0.0028357505798339844,0.05325150489807129,0.049843684,2.2733643,0.6519367644261114,0.0,0.021183682082296755,0.0,200,0.013750791549682617,0.7153813419741059,0.7085096581597942,18200,1.009720189329521,0.0
91,1.1727409362792969,0.7419025667941344,0.7931961330897702,1.9691953031423137,0.020821153968389582,0.0,0.1273338318707456,0.1,0.0028221607208251953,0.053118228912353516,0.04958359,1.5033793,0.6609333446629138,0.0,0.01454500939732625,0.0,200,0.013713359832763672,0.6888390545653921,0.6582152604759628,18400,0.6976983510724818,0.0
92,1.1828291416168213,0.6990949651208255,0.5298146691904493,1.5252684357910642,0.06438041947143062,0.0,0.1203927247369273,0.1,0.002811908721923828,0.053081512451171875,0.049367152,2.9707122,0.6647495067087049,0.0,0.013799511787194891,0.0,200,0.015035390853881836,0.4887006656587397,0.45070314546844065,18600,0.520581942673822,0.0
93,1.3846025466918945,0.7883342737701263,0.5029459233740303,1.4125173975209304,0.11968221471056269,0.0,0.12273358124329192,0.1,0.002803802490234375,0.05569767951965332,0.05041633,1.4874469,0.677107983414847,0.0,0.01570005552782414,0.0,200,0.014819622039794922,0.3876953196935963,0.3437405920927591,18800,1.1542974914319613,0.0
94,1.3241767883300781,1.1234119466685686,0.6050432651246404,2.116324690028203,0.5223165438606262,0.0,0.11927441169250669,0.1,0.002947568893432617,0.054062604904174805,0.05023934,2.7821925,0.7217383797402193,0.0,0.02214035719754599,0.0,200,0.01358485221862793,0.43061942607107856,0.33937082161927906,19000,0.48672414359834876,0.0
95,1.1859593391418457,0.7327334913471878,0.3377350390980461,1.146197413825234,0.399257018453376,0.0,0.12993571093938575,0.1,0.00275421142578125,0.0566248893737793,0.049408372,1.2264107,0.7228378909009161,0.0,0.014616983356398432,0.0,200,0.013872861862182617,0.24128974215059829,0.3248503431415143,19200,0.4132450658711721,0.0
96,1.2147822380065918,1.6741307887996548,0.5313328516927451,2.2930832780953345,0.8431521076961075,0.0,0.12369724706902978,0.1,0.0028319358825683594,0.05262470245361328,0.049982857,1.3481463,0.81796718069079,0.0,0.03333809088442921,0.0,200,0.01339268684387207,0.30038384814202684,0.20595054716514638,19400,0.4266196141404572,0.0
97,1.2570345401763916,0.7067957524816403,0.018292883351335016,0.719015940226789,0.6752404529089303,0.0,0.13266988716588352,0.1,0.0027642250061035156,0.05366182327270508,0.049586672,0.8774259,0.8068500378698751,0.0,0.014116943574379683,0.0,200,0.01514124870300293,0.6562376016543283,0.7581294717400983,19600,0.49564034507519766,0.0
98,1.2551543712615967,0.9463267677957776,0.5074122130393706,1.7462545320851266,0.3412720256534833,0.0,0.12946578917028118,0.1,0.006420135498046875,0.05783390998840332,0.050292753,1.7757487,0.8207977108624653,0.0,0.018919350171628317,0.0,200,0.014568567276000977,0.3688922094591183,0.2801315021657662,19800,0.2329703678813425,0.0
99,1.2273516654968262,1.0742355631425466,0.7745856363002689,1.9758598141319097,0.21185301698095563,0.0,0.12342350773965055,0.1,0.0028824806213378906,0.053743839263916016,0.04985137,1.4258395,0.8461414960904735,0.0,0.0213628073370886,0.0,200,0.013440608978271484,0.3843325657310087,0.3879234352572444,20000,1.151164623873697,0.0
100,1.2572681903839111,0.7819701269191532,0.3242007700047528,1.1097215325747898,0.3328700901105903,0.0,0.12941322489080098,0.1,0.0027790069580078125,0.05290675163269043,0.05021782,1.0085279,0.8397243591733415,0.0,0.015560393788649379,0.0,200,0.013818979263305664,0.22580109195404732,0.20621431924478437,20200,0.5904081793094986,0.0
101,1.2583560943603516,0.621434741596266,0.46660518564872633,1.3556023947081286,0.08543890127641576,0.0,0.11909196238421729,0.1,0.0027594566345214844,0.053063392639160156,0.049627267,1.4367363,0.817895397415634,0.0,0.012297359991741263,0.0,200,0.01357126235961914,0.44580613940122993,0.38295781951968816,20400,0.7181187317690941,0.0
102,1.3623161315917969,0.6128189975216802,0.40644945342418365,1.2897844118167283,0.2812148390278305,0.0,0.13721800290759192,0.1,0.002646923065185547,0.0524599552154541,0.050002214,1.0227234,0.7973877574262387,0.0,0.01197849721368906,0.0,200,0.01360177993774414,0.35397076042942377,0.3127958379991281,20600,0.48353784859305304,0.0
103,1.2076964378356934,0.8490939599329164,0.5426930237311718,1.7695953672474254,0.367856403171415,0.0,0.1324941437654436,0.1,0.00283050537109375,0.05571341514587402,0.05004438,1.3685179,0.8025583776769064,0.0,0.016796905870675373,0.0,200,0.013974905014038086,0.34795792678372384,0.3576516481012283,20800,2.337974028803244,0.0
104,1.2420918941497803,0.8093144521551354,0.3428382614144181,1.3351251672725937,0.43962713531317343,0.0,0.13041576861851403,0.1,0.002718210220336914,0.053086280822753906,0.050209504,1.5522083,0.8032339851247293,0.0,0.015988214396981427,0.0,200,0.014497518539428711,0.22167701721941352,0.2095159595286859,21000,0.22998328118830902,0.0
105,1.1810393333435059,0.5345366130483333,0.3240894161314027,0.8891051371269811,0.1344807085705305,0.0,0.1261127401980161,0.1,0.0027115345001220703,0.05315589904785156,0.049835064,0.8328726,0.7763642479170897,0.0,0.01059486324309489,0.0,200,0.014088630676269531,0.34693438941568633,0.34712226587485845,21200,0.16868602141437392,0.0
106,1.2430527210235596,0.8605420085323332,0.5447381027962465,1.752369226296744,0.34314852720641825,0.0,0.1289417983012146,0.1,0.0028100013732910156,0.05350685119628906,0.049883608,2.037845,0.7847820239786141,0.0,0.017196319514855164,0.0,200,0.013263940811157227,0.3797224819664295,0.3746605143716833,21400,0.23040322629277413,0.0
107,1.2451505661010742,1.4908797692818825,0.6121007318583784,2.2020076363499035,0.6305805253784985,0.0,0.12815482043872145,0.1,0.002797365188598633,0.053255558013916016,0.049285296,1.4595548,0.855391798508941,0.0,0.02977360505305149,0.0,200,0.01702284812927246,0.4308174036642033,0.3670049089515208,21600,0.18933386717999526,0.0
108,1.2239270210266113,0.8934950446689158,0.7122378674274044,2.0310005958406863,0.27755128817949104,0.0,0.12971220246922135,0.1,0.0029070377349853516,0.05379986763000488,0.0509191,1.7702152,0.8592021231249385,0.0,0.017835517014661007,0.0,200,0.01345968246459961,0.436867321818896,0.44075150394521,21800,0.23186799647292144,0.0
109,1.2144789695739746,0.8729736438597002,0.7324081161958095,2.1403958754467305,0.40969879542456283,0.0,0.12888362134598003,0.1,0.002777099609375,0.05307793617248535,0.05035199,1.5224473,0.8605792751984147,0.0,0.017119740858524364,0.0,200,0.014673471450805664,0.44369411907721124,0.4484632821403969,22000,0.1900087642543525,0.0
110,1.232435941696167,1.3554059445925315,0.2688880397336091,1.622348004916231,0.9069184178056356,0.0,0.12870382280745066,0.1,0.0033364295959472656,0.05310368537902832,0.050104327,0.89619017,0.9100619421378264,0.0,0.02673078037330829,0.0,200,0.013596534729003906,0.14394107405653495,0.10296922071958262,22200,0.4432488326369903,0.0
111,1.251054286956787,0.9089005752252814,0.579290710954302,1.536657502136928,0.3014193021234978,0.0,0.12401164288791675,0.1,0.002767324447631836,0.0530393123626709,0.0500985,1.0766648,0.9099458054465719,0.0,0.017974986818925686,0.0,200,0.013544321060180664,0.36020685659166274,0.3809581647881356,22400,0.9050045820118179,0.0
112,1.236945629119873,0.6885402084346879,0.46029138993465823,1.2985942552740932,0.0656938237272686,0.0,0.1266178049897406,0.1,0.0027878284454345703,0.05279994010925293,0.04963895,1.5044693,0.8878052457453836,0.0,0.013666043151070624,0.0,200,0.0157930850982666,0.6074637450784854,0.4643042619148043,22600,0.492356435560727,0.0
113,1.261216640472412,1.12246163569166,1.0189039512654259,2.8336469545333025,0.14523768428408948,0.0,0.13150706379850785,0.1,0.0027725696563720703,0.05304098129272461,0.050563008,1.4997919,0.9112708847400113,0.0,0.022316546226248256,0.0,200,0.015629291534423828,0.4626542852777463,0.47092580955056945,22800,0.49915844229124223,0.0
114,1.198446273803711,1.6685258220157777,0.8928813436112771,3.2044331899509637,0.9891900005739138,0.0,0.12097653276806385,0.1,0.0027608871459960938,0.052716970443725586,0.049105395,1.9289834,0.9869963784675879,0.0,0.033111298549836854,0.0,200,0.015505313873291016,0.3658805456317325,0.3219862171421106,23000,1.7363159758853375,0.0
115,1.263312816619873,1.1395036985273888,0.6949035108104623,2.143111220855012,0.36187759204644604,0.0,0.12250564248924302,0.1,0.002853870391845703,0.05392336845397949,0.049547803,1.4639987,1.0022471104735682,0.0,0.022768810608183088,0.0,200,0.01444244384765625,0.2838353916361545,0.29081384436117463,23200,0.4535875306837848,0.0
116,1.2827794551849365,0.9578010843886016,0.5876810784955042,1.7447113947146853,0.35502417188668384,0.0,0.12404918198810555,0.1,0.002860546112060547,0.0523676872253418,0.049772434,1.1355052,0.9978025078650716,0.0,0.019095647619895368,0.0,200,0.014958381652832031,0.3582683776308716,0.3493876317668152,23400,0.336293351035319,0.0
117,1.2553725242614746,0.8403063674403926,0.08223497713766709,0.9772935544077704,0.7734836929704665,0.0,0.13582545672756755,0.1,0.0027701854705810547,0.053308725357055664,0.049425535,0.9957167,0.9820528938226039,0.0,0.01657841146128728,0.0,200,0.013683319091796875,0.3191775199480999,0.18174113240491396,23600,0.15941609158151776,0.0
118,1.2926366329193115,0.9158606057852153,0.3586223624208268,1.5113887246115623,0.5509061429056963,0.0,0.12798279846811397,0.1,0.0028574466705322266,0.05338239669799805,0.05003902,1.2665951,0.9754336650188651,0.0,0.018290219967658384,0.0,200,0.013968467712402344,0.20679099137344353,0.1746754180172933,23800,0.13629674607963357,0.0
119,1.618556022644043,0.884326455677231,0.5908676867792242,1.8177271219167506,0.1841408129530916,0.0,0.11469851273810527,0.1,0.002750396728515625,0.0538325309753418,0.04985581,3.0647383,0.9663229440847018,0.0,0.01722053336901209,0.0,200,0.013582468032836914,0.34182693094424893,0.33779994686592163,24000,0.07353959704827585,0.0
120,1.2135882377624512,0.6216458363041715,0.4303412299321571,1.1685558684537087,0.18433765093863738,0.0,0.12572893452664408,0.1,0.0029196739196777344,0.05453991889953613,0.050336484,0.7652391,0.9318552333066487,0.0,0.012413845005743437,0.0,200,0.019371747970581055,0.3806787946276642,0.3378712803205921,24200,0.07696010479074569,0.0
121,1.231339693069458,1.3866127798931902,0.44801307869414164,1.8583611919862897,0.8554520799548994,0.0,0.1256453256652579,0.1,0.002936840057373047,0.053581953048706055,0.05066173,1.2638538,0.9773309879653028,0.0,0.02701572121892243,0.0,200,0.014226675033569336,0.33254202446981296,0.2935984684495591,24400,0.09692123729025438,0.0
122,1.243356704711914,1.4340770207825795,0.4271835764054833,2.08560162188123,1.0436350282578541,0.0,0.13523894970905287,0.1,0.0028464794158935547,0.052980661392211914,0.049633816,1.231939,1.0230055912470306,0.0,0.028424877094565437,0.0,200,0.013512611389160156,0.2889014914794471,0.20919108456795787,24600,0.04521493868432922,0.0
123,1.2413084506988525,0.9676071693856257,0.4549825980887028,1.4970648139986191,0.47785900318272095,0.0,0.1202768737253396,0.1,0.0028121471405029297,0.053205013275146484,0.049888205,1.8410959,1.0174657490608903,0.0,0.019277652302716074,0.0,200,0.0137176513671875,0.2508329828824107,0.27837023215004114,24800,0.0331688989565309,0.0
124,1.2257094383239746,0.9723530297852829,0.5669146697300054,1.7574594870650297,0.21264376173804211,0.0,0.12741285476727587,0.1,0.002846956253051758,0.052814483642578125,0.04950861,1.3115189,1.0129544771333296,0.0,0.01922335591973224,0.0,200,0.014431476593017578,0.277974314217953,0.28524405105608114,25000,0.04755232417896483,0.0
125,1.3463771343231201,1.749128658985155,1.0453058766533152,2.7621174594570634,0.2519027852310744,0.0,0.13446829589261933,0.1,0.0029447078704833984,0.05406761169433594,0.049752463,1.0685519,1.0865718953185122,0.0,0.03429678296718315,0.0,200,0.013851642608642578,0.3785145504283227,0.33843777788062035,25200,0.03572455417878106,0.0
126,1.2631940841674805,1.112789465888842,1.0178981393506727,2.8308901925481766,0.2353593232930262,0.0,0.12822548442265902,0.1,0.002775907516479492,0.052916765213012695,0.049817376,1.3064967,1.0891936523755452,0.0,0.021719583639212656,0.0,200,0.014768362045288086,0.48702294566882826,0.506698859869672,25400,0.16677412448874687,0.0
127,1.2980940341949463,2.083227292164951,0.6118832054253172,2.5614738400050236,1.0413716230786703,0.0,0.12976913329863024,0.1,0.0027849674224853516,0.05247640609741211,0.04986244,1.049176,1.188597016354486,0.0,0.04121312408224254,0.0,200,0.012942075729370117,0.20384617503643898,0.16333592800472463,25600,0.3808588989096185,0.0
128,1.26534104347229,0.8494567535930342,0.5499847017381039,1.6486143508154263,0.12543211374057897,0.0,0.12949574521003002,0.1,0.0028524398803710938,0.05245351791381836,0.04984653,1.1266664,1.1546829900783409,0.0,0.016746246632714446,0.0,200,0.013408899307250977,1.0988840962884276,0.89255934428564,25800,0.09884528001868557,0.0
129,1.2830524444580078,0.9727836178836882,0.8138697914763804,1.9736205933177944,0.12157901457839994,0.0,0.12862486607261847,0.1,0.0028290748596191406,0.05428600311279297,0.04961921,1.0031276,1.1364930528588757,0.0,0.018791338371741885,0.0,200,0.01375269889831543,0.6441322643020284,0.4658431232527935,26000,0.2026475170800024,0.0
130,1.278545618057251,0.6876135280574474,0.26146007884385025,1.1099292553587474,0.466051879941104,0.0,0.13041653545407392,0.1,0.0037648677825927734,0.05351448059082031,0.049887083,0.9806168,1.0916051003787328,0.0,0.013694592687939962,0.0,200,0.013164520263671875,0.7701150852289798,0.2690079444248863,26200,0.3904360228740294,0.0
131,1.2730557918548584,1.063303854130642,0.8624266600607726,2.4801937794020588,0.1773788966847838,0.0,0.12663142144992376,0.1,0.0028221607208251953,0.05245399475097656,0.049356136,1.7629628,1.0887749757539238,0.0,0.02116465219790211,0.0,200,0.013472318649291992,0.4201508745804375,0.45233369875554624,26400,0.3190509996748833,0.0
132,1.3046355247497559,1.0967685268554228,0.5761328698861499,1.6578260860509606,0.29901784126793857,0.0,0.12576054311803533,0.1,0.0027666091918945312,0.0526280403137207,0.049748506,1.0179147,1.0895743308640737,0.0,0.021635954109206816,0.0,200,0.013608932495117188,0.29281418179516133,0.3098632200276427,26600,0.48838243844803814,0.0
133,1.2908248901367188,1.5815212934280405,0.8015942250524357,2.6261536892970585,0.6040948804425527,0.0,0.1272112459857985,0.1,0.0027854442596435547,0.05255436897277832,0.049785472,1.5026984,1.1387690271204705,0.0,0.031566517232965795,0.0,200,0.013445377349853516,0.45624647060473195,0.42139951293822614,26800,0.19177072148456623,0.0
134,1.3403253555297852,1.334219616287007,0.8529288760800086,2.775452452603428,0.5957566776202082,0.0,0.1245949050511914,0.1,0.0028007030487060547,0.05275702476501465,0.04991008,2.110196,1.1583140860371242,0.0,0.026157986743779442,0.0,200,0.017195701599121094,0.4424922374888372,0.38408797927370364,27000,0.9043033301685769,0.0
135,1.2995562553405762,0.6106489025450211,0.5235115905004419,1.478954867657538,0.07495598894111584,0.0,0.13276792737033427,0.1,0.002744436264038086,0.055419206619262695,0.049944498,1.1310115,1.1035475676879138,0.0,0.012094143798580323,0.0,200,0.013245582580566406,0.6711366297075236,0.7479882527772237,27200,0.9360773296642896,0.0
136,1.3145008087158203,1.8511220542992608,0.30261286419935746,2.1072843342190812,1.3346077897820152,0.0,0.12895202187907792,0.1,0.002755880355834961,0.05225706100463867,0.049549643,1.0082875,1.1783050163490485,0.0,0.03652701334124404,0.0,200,0.013167619705200195,0.2539293884212182,0.19528871965688613,27400,1.3172462402235807,0.0
137,1.2989106178283691,0.9817389293730439,0.45484165816839406,1.7147637341262707,0.49188111908216403,0.0,0.13393797351919798,0.1,0.002763032913208008,0.05200600624084473,0.049879834,1.366349,1.158648407651448,0.0,0.019143725380958113,0.0,200,0.013508081436157227,0.23801409453766245,0.2762972669746415,27600,1.5820297087605544,0.0
138,1.2825100421905518,0.5675607403553405,0.2922093101405109,1.0635654426062375,0.32425801149471367,0.0,0.1289164696419094,0.1,0.0029680728912353516,0.05328655242919922,0.050903812,0.8984579,1.0995396409218372,0.0,0.011288143544328793,0.0,200,0.013842582702636719,1.5506945717664278,1.2860196729188733,27800,0.2522258331740713,0.0
139,1.256056785583496,0.9822396132686158,0.6320868835398509,1.9374146249355355,0.20081619685625146,0.0,0.1291054678575623,0.1,0.0029916763305664062,0.054450035095214844,0.05012108,1.22794,1.087809638156515,0.0,0.019090034282173655,0.0,200,0.013556241989135742,0.3613622662531726,0.32542097163902306,28000,1.5871766340032567,0.0
140,1.2628991603851318,1.8653604243267694,0.9423967466400847,3.234842240712119,0.6433342082265635,0.0,0.12892340709616343,0.1,0.002838611602783203,0.0536503791809082,0.05014179,1.4644916,1.1655647167735403,0.0,0.03675029910838594,0.0,200,0.01402735710144043,0.3321295925485285,0.32730422395713665,28200,1.2217099331089192,0.0
141,1.278550386428833,0.8824270620608953,0.9143754480750577,2.4076149690376747,0.17137233365038557,0.0,0.11812566012089276,0.1,0.003743410110473633,0.0532536506652832,0.04978902,1.7712455,1.137250951302276,0.0,0.017342314624676742,0.0,200,0.013738393783569336,0.5613515720071852,0.5631541444090123,28400,0.3424923961929692,0.0
142,1.4106714725494385,1.1562426836917385,0.8698546426366257,2.229774310511187,0.19835850016839593,0.0,0.12857250822498523,0.1,0.0029001235961914062,0.054495811462402344,0.048929278,1.3532882,1.1391501245412223,0.0,0.023001440496635432,0.0,200,0.015574216842651367,0.34523522284274893,0.34271005846311814,28600,0.3212454774262592,0.0
143,1.3353745937347412,0.9060761772402227,0.6519548193548621,1.8337019499750713,0.194810278924378,0.0,0.13238200927435825,0.1,0.002761363983154297,0.05353856086730957,0.049689945,0.97822344,1.1158427298111224,0.0,0.018037453514369275,0.0,200,0.013514041900634766,0.36795231276840695,0.3577512621458466,28800,0.19137849892227562,0.0
144,1.3279638290405273,1.6343719781909232,1.132205543351657,3.391720068787174,0.22997370732604025,0.0,0.1287862097909612,0.1,0.0029053688049316406,0.05353188514709473,0.050275926,1.5099832,1.1676956546491024,0.0,0.03194706747714931,0.0,200,0.013721942901611328,0.4062988010939006,0.39547535841832077,29000,0.3202939254641228,0.0
145,1.30210542678833,1.4466713196833,0.9388950135640309,2.952475549519012,0.5194834825449594,0.0,0.13984265803357657,0.1,0.003050088882446289,0.05422687530517578,0.050014548,1.1654705,1.1955932211525222,0.0,0.028811935927913722,0.0,200,0.01422119140625,0.3686945935904145,0.34586899722442427,29200,0.04349957169595859,0.0
146,1.4147865772247314,0.8021168842118936,0.4440661145994304,1.2263158570152908,0.12124070292952917,0.0,0.12837080004126736,0.1,0.002777576446533203,0.05290865898132324,0.04963153,0.9010396,1.1562455874584594,0.0,0.015411825342046371,0.0,200,0.013987302780151367,0.3937164234450563,0.4185821255637648,29400,0.15022238597404242,0.0
147,1.3137292861938477,0.9366498773305048,0.8634979207780153,2.297135713534856,0.06872572582806438,0.0,0.13166863252148173,0.1,0.002821683883666992,0.0529322624206543,0.04995512,1.097889,1.1342860164456638,0.0,0.01868538398378905,0.0,200,0.014168262481689453,0.5659257893771935,0.5364625485506787,29600,0.20089738942764832,0.0
148,1.2975921630859375,0.9623150285310018,0.6385607171437819,1.7371791695622445,0.025024504577530294,0.0,0.1267352017303287,0.1,0.0028820037841796875,0.05480694770812988,0.04984652,0.8680161,1.1170889176541978,0.0,0.01913750245026052,0.0,200,0.01483011245727539,0.4117656352450743,0.37460593460919134,29800,0.09818534700219429,0.0
149,1.316204309463501,1.3580273459522132,0.8421778144160668,2.190616406591692,0.155506337262343,0.0,0.12623605464885856,0.1,0.002852201461791992,0.05268597602844238,0.04910296,0.7569432,1.1411827604839995,0.0,0.026677741179719223,0.0,200,0.014594793319702148,0.3275799405092786,0.33442399438119014,30000,0.07199417938627507,0.0
150,1.3255324363708496,1.0739652018802546,1.0303839004612716,2.805755527553517,0.1938097721091657,0.0,0.12225929248712583,0.1,0.0027396678924560547,0.052544593811035156,0.049506187,1.5715053,1.134461004623625,0.0,0.021103456483184874,0.0,200,0.015031814575195312,0.5232544778526746,0.5191653841925897,30200,0.11658910728661213,0.0
151,1.3682596683502197,1.34587314337871,1.0092622502385307,3.0438437541995467,0.4613361830707309,0.0,0.11939402937001589,0.1,0.0027883052825927734,0.05329608917236328,0.05051013,1.9060547,1.1556022184991337,0.0,0.026396578769530846,0.0,200,0.014249324798583984,0.4467970174520072,0.4363509815544367,30400,0.5869880249909232,0.0
152,1.3552772998809814,1.0938243746946912,0.3041919676881691,1.339033394894286,0.5766746112338974,0.0,0.1252614523541245,0.1,0.002877473831176758,0.05320549011230469,0.04967786,1.2494233,1.1494244341186894,0.0,0.021640591871570213,0.0,200,0.013585567474365234,0.08662102411956442,0.08437831096243087,30600,0.1292328882076194,0.0
153,1.3799312114715576,1.5321629435403326,1.0814596036788224,2.9658392092200754,0.45080780030468975,0.0,0.12253450842928941,0.1,0.002828836441040039,0.05241990089416504,0.04994416,1.175395,1.1876982850608537,0.0,0.030484212265913756,0.0,200,0.013757705688476562,0.3956353847741034,0.37957170126520123,30800,0.18183245047668614,0.0
154,1.3399081230163574,1.5325968119766649,1.2266751038985,3.3108493816605304,0.3232847265918613,0.0,0.12241748729820758,0.1,0.0027582645416259766,0.05450630187988281,0.049559217,1.5402651,1.2221881377524348,0.0,0.030314961358065398,0.0,200,0.013020038604736328,0.4515691985376927,0.43552587859718545,31000,0.22039085063567812,0.0
155,1.3068788051605225,1.0137124441800498,0.4687875788481952,1.4422741141637756,0.25357751967330083,0.0,0.126769620373281,0.1,0.002965688705444336,0.053487300872802734,0.049794793,0.7010361,1.2013405683951965,0.0,0.02022144291228175,0.0,200,0.01441335678100586,0.272111586767172,0.2826009543130719,31200,0.2783703402008157,0.0
156,1.342376708984375,1.415935319821569,0.7092364273724053,2.1159415275734466,0.5031129746780705,0.0,0.13441862614630837,0.1,0.0028955936431884766,0.05439138412475586,0.050099216,1.0195924,1.2228000435378337,0.0,0.027883786554506657,0.0,200,0.013537406921386719,0.23015563478197984,0.22684439983147303,31400,0.16749906581548893,0.0
157,1.2992489337921143,0.9412266519420001,0.8458440240468063,1.872752725232076,0.06017797619146368,0.0,0.13140239660306532,0.1,0.002764463424682617,0.05459022521972656,0.049550485,0.8249952,1.1946427043782504,0.0,0.018357193062984126,0.0,200,0.014209508895874023,0.6118800515976415,0.576720711311045,31600,0.257349444415548,0.0
158,1.294297456741333,0.775685939785926,0.3561901365494283,1.1296422431470656,0.24489163399853944,0.0,0.1306586576097909,0.1,0.00278472900390625,0.05293726921081543,0.050270014,0.9595218,1.152747027919018,0.0,0.015405995211697169,0.0,200,0.013939380645751953,0.6087032851076709,0.4074144671780924,31800,0.3952050636794541,0.0
159,1.3352103233337402,0.9467326691541724,0.5377765544367407,1.533481739164126,0.10324446254338286,0.0,0.12795356527999957,0.1,0.0029065608978271484,0.05415821075439453,0.050346278,0.7749344,1.1321455920425336,0.0,0.018855179318276946,0.0,200,0.014728069305419922,0.34737040753298454,0.2937964046463547,32000,0.6960339331210316,0.0
160,1.3081438541412354,1.1763692935968137,1.2389012310848797,3.3024465824643414,0.194836798833154,0.0,0.12938817521272558,0.1,0.002847433090209961,0.05402112007141113,0.049633738,1.6163564,1.1365679621979616,0.0,0.02331463690703421,0.0,200,0.01404428482055664,0.5527762529310865,0.5631309828966072,32200,1.3478823597711946,0.0
161,1.3689005374908447,1.5302393995609256,0.4291755824595721,2.222337306670027,1.1375815128115796,0.0,0.1317553441085661,0.1,0.002832651138305664,0.05393028259277344,0.04952441,1.566732,1.1759351059342582,0.0,0.030084036968136108,0.0,200,0.01806640625,0.2681566556827878,0.2541585061733777,32400,1.7808516781711072,0.0
162,1.3075063228607178,0.7745631255083916,0.38118982967758996,1.2341361336958885,0.18512818146156804,0.0,0.1239388409479883,0.1,0.0027763843536376953,0.05348801612854004,0.049831476,1.1854037,1.1357979078916716,0.0,0.015109853000144212,0.0,200,0.015277385711669922,0.2593725230173313,0.26024455426676385,32600,2.0538414200409405,0.0
163,1.3153562545776367,0.6315560706421197,0.6315206490319697,1.6804567770279637,0.12904075809654084,0.0,0.12678889326563275,0.1,0.002815723419189453,0.05547761917114258,0.050773934,1.7069681,1.0853737241667165,0.0,0.01259927073522038,0.0,200,0.01575326919555664,0.7398036767267117,0.7170002986392788,32800,1.3835266875993726,0.0
164,1.3549582958221436,1.5354341375089668,1.2430794113694843,3.6048106521004812,0.44167322721161795,0.0,0.12151995948114956,0.1,0.0029032230377197266,0.053436279296875,0.04954639,2.1519926,1.1303797655009415,0.0,0.03026575852323459,0.0,200,0.01360011100769043,0.49306086542257604,0.4867250462995685,33000,1.005881221974269,0.0
165,1.3595528602600098,1.5416013009731075,0.7182264915238596,2.517770984934228,0.4892173948039604,0.0,0.12639538083545296,0.1,0.0029184818267822266,0.05372142791748047,0.04922389,1.9615408,1.1715019190481581,0.0,0.030648828802937143,0.0,200,0.013273239135742188,0.2995087859254948,0.26422574507549307,33200,1.0701361508104907,0.0
166,1.3835647106170654,1.1350882927078594,0.8219516061113473,2.5059161890136816,0.34071349685356783,0.0,0.12702765777974206,0.1,0.00302886962890625,0.05416536331176758,0.049756575,1.6957393,1.1678605564141284,0.0,0.022394873585417016,0.0,200,0.014210939407348633,0.4037780480391733,0.404207658445206,33400,1.1702964779207687,0.0
167,1.5002789497375488,0.699017270252687,0.5461662950418245,1.5993702395639064,0.12932793998543138,0.0,0.12296797915539254,0.1,0.003033161163330078,0.05767321586608887,0.04977252,2.0245721,1.1209762277979842,0.0,0.013453215018489501,0.0,200,0.015241384506225586,0.6141615842353818,0.6013353614287754,33600,0.9917742998132151,0.0
168,1.495227336883545,1.669897220157746,1.032253845887369,2.692881291130556,0.3553621366954194,0.0,0.12474046305621028,0.1,0.0028710365295410156,0.05361533164978027,0.049955815,1.1125054,1.1758683270339605,0.0,0.033261457334697764,0.0,200,0.014023780822753906,0.37254275398368764,0.36682765359493413,33800,1.5981105110745808,0.0
169,1.3973324298858643,0.5925736734583278,0.3420745809214855,1.134534183757363,0.1938956636040244,0.0,0.12647966246037556,0.1,0.002840757369995117,0.05307745933532715,0.050045002,1.0369861,1.1175388616763973,0.0,0.011754013803457693,0.0,200,0.013692855834960938,0.9612822891381703,0.8931489903233935,34000,0.9623736304000725,0.0
170,1.4019153118133545,0.734536003976655,0.7243674021237363,1.9470744831111118,0.08462043328647068,0.0,0.12253701318144088,0.1,0.0028259754180908203,0.05355381965637207,0.050071865,1.3235093,1.0792385759064231,0.0,0.014510543277326884,0.0,200,0.013854503631591797,0.6717985281556599,0.589643815506398,34200,0.7488662451011264,0.0
171,1.365126609802246,1.806573541551109,0.49135228464031777,2.2806102016462875,1.0463463315974875,0.0,0.12726671473567672,0.1,0.002708911895751953,0.052361249923706055,0.049774867,1.1776226,1.1519720724708917,0.0,0.03541670342988293,0.0,200,0.01574563980102539,0.25756691348319644,0.26113213119156603,34400,1.0589787817809988,0.0
172,1.3138670921325684,1.0450092487893057,0.6891659025851835,2.2025170774758016,0.4034555271848549,0.0,0.11548289239625496,0.1,0.0029222965240478516,0.05368447303771973,0.049532697,2.8397303,1.1412757901027333,0.0,0.020856406689538955,0.0,200,0.013994693756103516,0.3160826277654489,0.31546441983486295,34600,0.5121329513847578,0.0
173,1.305525541305542,1.0687288327299578,0.43880408598943277,1.7057509547516267,0.4664708748817179,0.0,0.1298543831426327,0.1,0.0029366016387939453,0.053197383880615234,0.049867097,1.3936425,1.1340210943654556,0.0,0.02109736406030374,0.0,200,0.014066934585571289,0.1611476562445376,0.16061883154264003,34800,0.2800068277305002,0.0
174,1.3759002685546875,1.1171238104091712,0.975611456900953,2.7929944194960634,0.3709118339688513,0.0,0.12766718257078646,0.1,0.0029420852661132812,0.0535125732421875,0.049610987,2.4778767,1.132331365969827,0.0,0.02201318969179305,0.0,200,0.013799190521240234,0.45871002387890275,0.4552495490041979,35000,0.26844362214593576,0.0
175,1.372950553894043,1.6882441528453427,0.9461934972631949,2.9775562514876577,0.531356484529345,0.0,0.12453068905406292,0.1,0.00286865234375,0.054337501525878906,0.04963415,1.1568992,1.1879226446573785,0.0,0.033646442279537156,0.0,200,0.014312982559204102,0.3518816784120309,0.3281766811777334,35200,0.5363517953912212,0.0
176,1.303013563156128,2.252681548815881,0.9213459810741158,3.3103839371089854,1.1105965204008486,0.0,0.12322530220906389,0.1,0.0028564929962158203,0.05248427391052246,0.04966268,1.3160095,1.294398535073229,0.0,0.04384617832177609,0.0,200,0.013917207717895508,0.3478436443762932,0.2569298143251283,35400,0.025551632669467278,0.0
177,1.3295783996582031,0.9643158054838916,0.5093390219731064,1.4726540790554274,0.11769413031117648,0.0,0.1228630293646226,0.1,0.0030813217163085938,0.05453753471374512,0.05039253,0.77194095,1.2613902621142952,0.0,0.018972057932250395,0.0,200,0.014516592025756836,0.5001927551498296,0.647434070709953,35600,0.06690410443097539,0.0
178,1.3425929546356201,1.252712710846067,0.8899274456102442,2.7739351457884074,0.6192661073546659,0.0,0.12408528842035467,0.1,0.002843618392944336,0.054349660873413086,0.05011587,1.9184564,1.2605225069874724,0.0,0.024651082340924627,0.0,200,0.013978242874145508,0.4016487154957799,0.3839076713062549,35800,0.02077298518977804,0.0
179,1.3361072540283203,1.3740608531871268,1.1282385613452803,3.0791491191157716,0.09923879254292833,0.0,0.13130183761174768,0.1,0.0028951168060302734,0.05373501777648926,0.049648255,1.252222,1.271876341607438,0.0,0.027097043576681194,0.0,200,0.01652669906616211,0.46230116170362057,0.45260026838390816,36000,0.02836280841094736,0.0
180,1.2979397773742676,1.2835110392564446,0.8274540511743964,2.5067069207666406,0.22314635411949324,0.0,0.12359888304558453,0.1,0.002847433090209961,0.053389787673950195,0.04993519,1.1888005,1.2730398113723385,0.0,0.02535455202154816,0.0,200,0.013332843780517578,0.307936784647443,0.3009014961001096,36200,0.03682723301305444,0.0
181,1.3313307762145996,1.0597306366956667,0.5899262117967895,1.5867005998698362,0.14092660301987825,0.0,0.1216666105047809,0.1,0.0029022693634033203,0.0536038875579834,0.050324734,0.96693635,1.2517088939046712,0.0,0.020574414070056286,0.0,200,0.014022111892700195,0.3215387934124458,0.29586189638460664,36400,0.04443312663448842,0.0
182,1.331406831741333,0.6849959806309041,0.31433178037249393,1.1697202355564507,0.3422522256927554,0.0,0.1290316034848098,0.1,0.002796649932861328,0.0524137020111084,0.049819063,1.2629981,1.1950376025772946,0.0,0.013353677675490807,0.0,200,0.01298975944519043,0.676233908289383,0.4514130529621769,36600,0.10682777708565848,0.0
183,1.3492059707641602,0.7655558158256541,0.3538393030028678,1.0971855124522492,0.25153430661597675,0.0,0.12334872465842507,0.1,0.0027604103088378906,0.05464935302734375,0.050010595,0.99629027,1.1520894239021306,0.0,0.015261387671208038,0.0,200,0.01343989372253418,0.3195727710227109,0.22218611606118757,36800,0.3227111149578584,0.0
184,1.360182285308838,1.3945399516573507,0.5353749453630827,2.1215503613729125,0.6936709018904395,0.0,0.1253483394812993,0.1,0.002759695053100586,0.05237770080566406,0.05046931,1.0631984,1.1763344766776527,0.0,0.027364138979847238,0.0,200,0.01663947105407715,0.27352560185936864,0.2860816581578891,37000,0.31873604045391973,0.0
185,1.3777375221252441,0.25189503270411834,0.2093078667594415,0.503662230735137,0.028312642749571654,0.0,0.12416277541243757,0.1,0.002757549285888672,0.05419802665710449,0.05007522,0.79628265,1.0838905322802994,0.0,0.004984202461666168,0.0,200,0.015544891357421875,4.451165005222498,3.6822058773747712,37200,0.3584417308198123,0.0
186,1.3368735313415527,1.3512169808824195,1.012045693132804,2.461437277115918,0.28845105118674996,0.0,0.12802607796729323,0.1,0.002864837646484375,0.052832841873168945,0.05024982,0.9550589,1.1106231771405115,0.0,0.026301354455407808,0.0,200,0.013602018356323242,0.4886858093000946,0.48934266883604693,37400,0.4215502260503839,0.0
187,1.3557162284851074,1.6108143494692468,1.3129776790510528,3.8585222110107553,0.5359356704479978,0.0,0.12029298126668601,0.1,0.002817392349243164,0.05264782905578613,0.049736954,3.6118896,1.160642294373385,0.0,0.03163164188147204,0.0,200,0.015337944030761719,0.5708423671588019,0.5472376541205822,37600,0.05624122624343572,0.0
188,1.360194206237793,1.3612308527859869,0.48453591720588834,1.8609182016539014,0.6760203789550959,0.0,0.12416881358964497,0.1,0.002809762954711914,0.05253767967224121,0.049825884,1.5523918,1.1807011502146452,0.0,0.02704264471456496,0.0,200,0.013354301452636719,0.2484492390948436,0.20296864976339635,37800,0.33868643692231565,0.0
189,1.3342554569244385,0.9235292312319727,0.4677924624061925,1.3978742744316663,0.38191558270216497,0.0,0.12424293627398549,0.1,0.0027587413787841797,0.05263710021972656,0.04937661,1.3696402,1.154983958316378,0.0,0.018401578595660047,0.0,200,0.013249874114990234,0.2126518896814894,0.23207758106316495,38000,0.37728648659372693,0.0
190,1.403174638748169,1.320253101157769,1.2149948293367945,2.781539105366134,0.09425807094393981,0.0,0.1243379477146804,0.1,0.002741098403930664,0.05236220359802246,0.04994482,1.1554034,1.171510872600517,0.0,0.026248626243474786,0.0,200,0.013294219970703125,0.5077990119035779,0.5022988300541832,38200,0.4364510609539492,0.0
191,1.2904412746429443,1.1781062312482484,0.936635071770384,2.7515939312618136,0.4619793948930874,0.0,0.12802402676337005,0.1,0.003535032272338867,0.05421900749206543,0.049930267,1.6023836,1.1721704084652902,0.0,0.023489509123202183,0.0,200,0.014145612716674805,0.42559101271455185,0.4219380206996846,38400,0.12744853918219576,0.0
192,1.4201436042785645,0.6753749402269826,0.35667484181252646,0.9551353711394385,0.07629454113784909,0.0,0.13293076640712292,0.1,0.002881288528442383,0.0570378303527832,0.049839105,0.78603965,1.1224908616414595,0.0,0.013503702639334045,0.0,200,0.014134883880615234,0.8669020615459554,0.7289755634215463,38600,0.7676136120132305,0.0
193,1.4201836585998535,0.6210942983777663,0.4714144695325463,1.266850231578021,0.16669234590063806,0.0,0.1316538263643868,0.1,0.005068063735961914,0.05355978012084961,0.0499661,0.8905797,1.0723512053150903,0.0,0.012280726736742993,0.0,200,0.021229982376098633,0.826289549429761,0.6002286918434792,38800,1.1180350535125108,0.0
194,1.3224337100982666,1.4294454266903887,0.2647635477773845,1.8288707559312039,1.1377409623499652,0.0,0.12383828339140275,0.1,0.0028121471405029297,0.05349087715148926,0.050081573,1.6138356,1.1080606274526201,0.0,0.02832760334873442,0.0,200,0.013416290283203125,0.12289759120956896,0.13811182124367058,39000,0.7555733905062288,0.0
195,1.334411382675171,2.242636849403575,0.8360651392188729,3.463660449059769,1.1259953344773699,0.0,0.12866728699532076,0.1,0.002817392349243164,0.053479909896850586,0.049765274,1.6903704,1.2215182496477157,0.0,0.04444448564754575,0.0,200,0.013849258422851562,0.4246424150785623,0.3677582436004787,39200,0.6203773149582136,0.0
196,1.346912145614624,1.439114132347346,1.1611843679052267,2.862010594611264,0.17324869383762675,0.0,0.1210736163819276,0.1,0.0028390884399414062,0.05436372756958008,0.050212413,1.2783495,1.2432778379176788,0.0,0.028260776389020303,0.0,200,0.014376163482666016,0.43788453983319936,0.41164901459578507,39400,0.8151930526763772,0.0
197,1.3334147930145264,0.6864472087122618,0.18444136415913487,0.9042109344609689,0.4282751425812206,0.0,0.12885600083630963,0.1,0.0033898353576660156,0.05366396903991699,0.049734928,1.0362983,1.1875947749971372,0.0,0.013452358015695038,0.0,200,0.014686822891235352,0.6878106596979489,0.8086582434139749,39600,0.7955038881749692,0.0
198,1.3559911251068115,0.853086778436654,0.1454219872612147,1.0744367180601222,0.6824057826476828,0.0,0.13315098690823451,0.1,0.0028100013732910156,0.05304431915283203,0.05017506,0.78023237,1.154143975341089,0.0,0.016877793937121188,0.0,200,0.014199495315551758,0.505280845894982,0.3843234564388084,39800,0.8938232825367077,0.0
199,1.3665528297424316,1.0464589924930212,0.6732981325232292,2.0924768220506427,0.22045556070427902,0.0,0.12683890675532297,0.1,0.00876307487487793,0.05719184875488281,0.049670596,1.3989621,1.1433754770562823,0.0,0.02065684110053128,0.0,200,0.013130664825439453,0.339390777104751,0.3228513787454048,40000,1.362390455284635,0.0
200,1.3655240535736084,0.7222532170537329,0.3441924926317118,1.268533638341241,0.3161209496214362,0.0,0.12183073803251555,0.1,0.0027790069580078125,0.055661678314208984,0.05053059,1.0982716,1.1012632510560274,0.0,0.014421522249415408,0.0,200,0.014103174209594727,0.5405037545147127,0.41593681681178885,40200,1.1324250418227302,0.0
201,1.3724181652069092,1.2444864085300975,0.6792510153766887,2.2333581494338364,0.5357895369290746,0.0,0.12113364171553496,0.1,0.0027985572814941406,0.053733110427856445,0.049922924,1.3738939,1.1155855668034345,0.0,0.02462037128397681,0.0,200,0.015065431594848633,0.2584609994145903,0.27210715670609564,40400,0.9085066046989875,0.0
202,1.3503749370574951,1.451007241861993,0.8276868495478169,2.78738473706954,0.7553283241694692,0.0,0.11241242100320964,0.1,0.0028913021087646484,0.05372762680053711,0.049521383,2.7390928,1.1491277343092903,0.0,0.028607872075254417,0.0,200,0.013776063919067383,0.3583468673381536,0.3515044901362587,40600,1.0905693241269323,0.0
203,1.395904779434204,1.2307169987142297,0.8760419967025872,2.3551807363143493,0.03659440260442603,0.0,0.1192925886403341,0.1,0.0029511451721191406,0.05247855186462402,0.050028414,1.3049796,1.1572866607497843,0.0,0.02442161261184489,0.0,200,0.013566970825195312,0.43103804508028,0.42427345511727405,40800,0.8132795714545974,0.0
204,1.4003477096557617,1.425387591566623,0.9838768192213094,2.9801438588698215,0.36225449134414117,0.0,0.11952393974300637,0.1,0.0027222633361816406,0.0526123046875,0.04988584,1.9966987,1.1840967538314682,0.0,0.027816289510505833,0.0,200,0.013552427291870117,0.39663839998854394,0.37459984824211123,41000,1.0741166630161751,0.0
205,1.3718163967132568,0.6246261087694072,0.4935868295083469,1.472331897095648,0.271488257288013,0.0,0.12769390151481955,0.1,0.0027146339416503906,0.05207514762878418,0.049546577,1.2532744,1.1281496893252623,0.0,0.012404149781416044,0.0,200,0.013601541519165039,0.785258698597392,0.8195414377854229,41200,1.089841260754247,0.0
206,1.214604139328003,0.9469508318065037,0.4832588281787643,1.4639760499546053,0.4239638150501688,0.0,0.12120135398491116,0.1,0.0031032562255859375,0.05482840538024902,0.050834652,1.4427696,1.1100298035733864,0.0,0.01885122498480217,0.0,200,0.013543128967285156,0.32596123070491667,0.30807321050050684,41400,1.0115906441503497,0.0
207,1.298565149307251,0.4534899902618561,0.32619170579221923,0.9367561992488003,0.07687484595723762,0.0,0.12504376626511265,0.1,0.0029294490814208984,0.05547761917114258,0.0509725,0.8237179,1.0443758222422335,0.0,0.008964833516913994,0.0,200,0.013898849487304688,1.8200158316505488,1.4360747743392466,41600,1.0788229868870292,0.0
208,1.249986171722412,1.2901932345485239,1.0134673759039539,2.9576891901988036,0.22498740508837656,0.0,0.12091344034933585,0.1,0.002924203872680664,0.05422616004943848,0.049729273,1.8144119,1.0689575634728625,0.0,0.025443410160325235,0.0,200,0.01404881477355957,0.4110900690733146,0.4250059241517829,41800,1.1329238758505151,0.0
209,1.2953681945800781,2.055197895173985,1.1417341042365734,3.920949161611742,0.8525005184875669,0.0,0.12473565056048092,0.1,0.0028324127197265625,0.05279088020324707,0.049617484,1.8129886,1.1675815966429748,0.0,0.04031447321743322,0.0,200,0.014564990997314453,0.460816852091395,0.4374569233662191,42000,1.1193616194051834,0.0
210,1.355497121810913,2.017092714918185,1.2615528557937943,4.140481151377088,0.9452139848838875,0.0,0.12427618265879088,0.1,0.0028421878814697266,0.05392718315124512,0.050517384,1.7542796,1.2525327084704958,0.0,0.03952933920259875,0.0,200,0.013602256774902344,0.46762337613582444,0.4015264532008652,42200,1.1949324665871282,0.0
211,1.2604572772979736,1.666172633039332,0.8122567356779241,2.7897267971904736,0.8605621340519732,0.0,0.12440802620312044,0.1,0.002882242202758789,0.05302023887634277,0.049679555,1.4231807,1.2938967009273794,0.0,0.03303284460559374,0.0,200,0.013844490051269531,0.263665133885794,0.2165029840641412,42400,1.3641721269130433,0.0
212,1.3244421482086182,0.4704732789083854,0.2372646283034457,0.7385900426175945,0.18697922270631367,0.0,0.11956329758207618,0.1,0.0027899742126464844,0.05393624305725098,0.050008755,0.9444656,1.21155435872548,0.0,0.009400046379226992,0.0,200,0.014288187026977539,4.748411434234416,4.876209927927784,42600,0.863675081348997,0.0
213,1.2915034294128418,0.7892607464874899,0.1030521185416115,0.8614908188156087,0.61285957691618,0.0,0.12862294322719284,0.1,0.002786874771118164,0.05283665657043457,0.050607458,2.5939279,1.169324997501681,0.0,0.0156908569983122,0.0,200,0.014499664306640625,0.8841936639587142,0.5402057977786707,42800,1.4337811843883819,0.0
214,1.378636360168457,0.6877160295577092,0.38236094015009553,1.3400372121038702,0.3652818223946657,0.0,0.13061230333453422,0.1,0.002864360809326172,0.05267596244812012,0.04948707,0.9971171,1.121164100707284,0.0,0.013670935099652915,0.0,200,0.013804197311401367,1.0183503310798252,0.6681621856148169,43000,1.1707728696691058,0.0
215,1.3516433238983154,1.1454372346506287,1.0137511557727321,2.8126448998650297,0.11467845069541995,0.0,0.1304138700976406,0.1,0.002829313278198242,0.05363821983337402,0.04995104,1.5848551,1.1235914141016183,0.0,0.022681672659374506,0.0,200,0.013454914093017578,0.4689946395311562,0.4630905512914482,43200,1.2257595759775648,0.0
