iteration,time_sampling,stoc_pol_mean,stoc_pol_std,stoc_pol_max,stoc_pol_min,rollout_success,alpha,delta,time_vpg,time_npg,kl_dist,surr_improvement,running_score,rwd_sparse,rwd_dense,success_percentage,num_samples,time_VF,VF_error_before,VF_error_after,env_samples,eval_score,eval_success
0,1.9321544170379639,0.3772233107782241,0.0034354560288452195,0.3830627657142607,0.37470343564501574,0.0,0.1530144533897726,0.1,0.06873512268066406,0.157606840133667,0.05048666,1.4662806,0.3772233107782241,0.0,0.005071470382022323,0.0,300,0.06541275978088379,2.728842767650956,0.7717989507310207,300,0.37587308423926885,0.0
1,1.6888446807861328,0.38089131385501324,0.005206972580347524,0.38947185739126045,0.375492457276567,0.0,0.16382973540565757,0.1,0.028140783309936523,0.09906220436096191,0.051628772,1.5845877,0.377590111085903,0.0,0.0051226211894008205,0.0,300,0.026924610137939453,0.7805585063343563,0.18928744169149536,600,0.37523139278108736,0.0
2,1.7876789569854736,0.3739886791711453,0.0016027950752816587,0.3755767403861016,0.37207075124377514,0.0,0.16923309956494792,0.1,0.005437135696411133,0.12342143058776855,0.047601674,0.9181197,0.37722996789442725,0.0,0.0050310733983417386,0.0,300,0.028575420379638672,0.19076857869143582,0.25680373972874254,900,0.3742977737935567,0.0
3,1.9357500076293945,0.3889419864978752,0.0163591034392699,0.4171515861951675,0.37705090662289986,0.0,0.17732648554032707,0.1,0.005956411361694336,0.09589743614196777,0.05270534,1.0178995,0.378401169754772,0.0,0.005229068451443219,0.0,300,0.06816911697387695,0.21645906893856348,0.11113183432590172,1200,0.37494451575212534,0.0
4,1.7325243949890137,0.3876564070695705,0.0067628909678036035,0.3962387498256914,0.37746142128685195,0.0,0.1743998735936677,0.1,0.004976749420166016,0.11854362487792969,0.05235208,2.2709112,0.37932669348625186,0.0,0.005204807007259895,0.0,300,0.03660893440246582,0.10712207927446314,0.1110855525413823,1500,0.37668537081123526,0.0
5,1.8001480102539062,0.3676046620614398,0.019759049998924614,0.38757304309177587,0.33474599577774106,0.0,0.1692686849889231,0.1,0.004461526870727539,0.1330423355102539,0.052616928,4.0502844,0.3781544903437707,0.0,0.004954915225534913,0.0,300,0.02996063232421875,0.10658167819931673,0.08914417093242359,1800,0.375986367879715,0.0
6,1.7728979587554932,0.3837017429394186,0.010234761000924233,0.4012298962259869,0.37573619509913786,0.0,0.1596786707857186,0.1,0.004194021224975586,0.08702445030212402,0.048609678,2.72997,0.3787092156033355,0.0,0.0051462884040200125,0.0,300,0.0893242359161377,0.09465986979462833,0.07683463740976673,2100,0.3756260547355777,0.0
7,1.5092511177062988,0.38113326889049154,0.005861243732517646,0.39073618360817786,0.3749684762644979,0.0,0.15577576169902227,0.1,0.0048983097076416016,0.12096953392028809,0.051399034,2.4613435,0.3789516209320511,0.0,0.005124064760471302,0.0,300,0.033687591552734375,0.07395857120593621,0.0717288230594579,2400,0.3763873194127831,0.0
8,1.700117826461792,0.388299349796486,0.009811172573025289,0.4019953564535596,0.37473833190107597,0.0,0.1746580853044508,0.1,0.005403757095336914,0.10378670692443848,0.051612362,1.4329019,0.3798863938184946,0.0,0.005208779821791622,0.0,300,0.06678438186645508,0.07486576302680062,0.06777839084838491,2700,0.3767190077414753,0.0
9,1.680936336517334,0.3734876355182135,0.02576601542192453,0.4037363170500755,0.33247056081068466,0.0,0.1606855232512211,0.1,0.0073511600494384766,0.11593866348266602,0.05172266,2.0703697,0.37924651798846654,0.0,0.005036103568768063,0.0,300,0.04776930809020996,0.08952337847291554,0.08538200200697019,3000,0.37611322052529655,0.0
10,1.917867660522461,0.3872119421059366,0.010065516220243122,0.3975503711008959,0.37463519739280204,0.0,0.16402135303836077,0.1,0.004750251770019531,0.12566328048706055,0.05243571,8.087344,0.3800430604002136,0.0,0.005203284280985183,0.0,300,0.03377938270568848,0.07194011802466571,0.06324689651169452,3300,0.3737479818600833,0.0
11,1.7816717624664307,0.383894580521802,0.008961327685762048,0.39938701011539957,0.3778864235135698,0.0,0.1540533257288447,0.1,0.004113674163818359,0.1042487621307373,0.050170362,5.8069324,0.3804282124123724,0.0,0.005157985316107087,0.0,300,0.08447432518005371,0.06358634405497363,0.06130771442898222,3600,0.37660956757487024,0.0
12,1.7903740406036377,0.3815245501714674,0.004193366944535385,0.38672930738824174,0.3759588353678131,0.0,0.1622781843943495,0.1,0.004426717758178711,0.1135244369506836,0.049088143,3.0482116,0.3805378461882819,0.0,0.005129214584200486,0.0,300,0.027944564819335938,0.062368524342271796,0.05635545112525962,3900,0.3854082970576819,0.0
13,1.7836189270019531,0.377352420728034,0.004133437454897363,0.3830988583041631,0.37152524774506357,0.0,0.16411315933112408,0.1,0.004372358322143555,0.11909055709838867,0.050755914,2.1347961,0.3802193036422571,0.0,0.0050812981048718045,0.0,300,0.05294060707092285,0.057202823648337835,0.05249015908350709,4200,0.40413833111495895,0.0
14,1.8074440956115723,0.4011051926601232,0.025404097616987288,0.43577325646916554,0.3758069536312955,0.0,0.16144575381539272,0.1,0.004657745361328125,0.08723092079162598,0.049857993,3.759106,0.38230789254404374,0.0,0.005387051326675043,0.0,300,0.13498187065124512,0.07807741429860145,0.06395243985572215,4500,0.46335912460624734,0.0
15,1.809227705001831,0.38537942950493553,0.008947487582580821,0.3956400398958262,0.3745663615624451,0.0,0.15276113456825222,0.1,0.004128217697143555,0.08336234092712402,0.05095503,4.79519,0.3826150462401329,0.0,0.005190876313426289,0.0,300,0.056153297424316406,0.06639175143153488,0.05384857739019142,4800,0.5356609196541592,0.0
16,1.602924108505249,0.39674295143456956,0.024091479330101948,0.4357932778021026,0.37357986998690884,0.0,0.16901152748549242,0.1,0.004630565643310547,0.08594369888305664,0.051501095,6.6447625,0.3840278367595766,0.0,0.005330583524433488,0.0,300,0.05301713943481445,0.063974934490862,0.061190890520953146,5100,0.5673331747954329,0.0
17,1.595257043838501,0.38703067823755,0.007701057999004814,0.3968962393181709,0.3794180146835761,0.0,0.1478166438050453,0.1,0.003557920455932617,0.08184003829956055,0.05015534,8.937072,0.3843281209073739,0.0,0.00520232852394765,0.0,300,0.05330848693847656,0.045133257275779624,0.04168924264243085,5400,0.43208034733715195,0.0
18,1.8160896301269531,0.38220769319754505,0.007298741580791322,0.39364032215809475,0.37494153427591737,0.0,0.17024246975102622,0.1,0.005553722381591797,0.09140706062316895,0.049935672,2.0307648,0.384116078136391,0.0,0.0051387949065766145,0.0,300,0.06665992736816406,0.04382386976134797,0.03820534201289873,5700,0.39925807251085926,0.0
19,1.8834402561187744,0.4027722243697621,0.017010880753174817,0.431419212132839,0.3868378926037787,0.0,0.1668912797349353,0.1,0.004316806793212891,0.0918586254119873,0.04850648,2.403499,0.3859816927597281,0.0,0.005415436250952045,0.0,300,0.06471395492553711,0.056230638527888406,0.049063597491640035,6000,0.5836376612665203,0.0
20,1.8974730968475342,0.3953336522772978,0.01452692922978521,0.41459624060118805,0.3802885885347578,0.0,0.17141700839387097,0.1,0.006653785705566406,0.10268187522888184,0.049873136,3.1748264,0.38691688871148505,0.0,0.005271111238722698,0.0,300,0.06209754943847656,0.03628604357011327,0.032637537411921165,6300,0.47089228989545706,0.0
21,1.879044771194458,0.46577496176726796,0.07656219938033854,0.5855794372656241,0.3727860445243886,0.0,0.17787366961802537,0.1,0.004192352294921875,0.08815836906433105,0.050289426,1.1945678,0.39480269601706336,0.0,0.006235490199715673,0.0,300,0.059485435485839844,0.1568165526452084,0.11852056252987538,6600,0.4617128566808714,0.0
22,1.9162349700927734,0.40112017410474937,0.03683223264003007,0.46482312544826593,0.377093212058383,0.0,0.15975167793002418,0.1,0.003507375717163086,0.08402252197265625,0.05037396,3.644635,0.395434443825832,0.0,0.005392539617865098,0.0,300,0.028926372528076172,0.31899516778632697,0.08161695270262799,6900,0.38108171959008647,0.0
23,1.8464832305908203,0.39641188499504976,0.01482222731825488,0.4185454795771481,0.38244251280819636,0.0,0.18512597736202935,0.1,0.003357410430908203,0.07844352722167969,0.050084993,0.82457685,0.3955321879427538,0.0,0.005327223562536998,0.0,300,0.028179168701171875,0.07604476715751217,0.08584328613594615,7200,0.37966184004527764,0.0
24,1.7515432834625244,0.4077428005757248,0.03339242591517043,0.46325451392889516,0.3780666374422415,0.0,0.1762513468550674,0.1,0.0037965774536132812,0.07985258102416992,0.049089406,4.418837,0.39675324920605093,0.0,0.005474563816302697,0.0,300,0.03322172164916992,0.1327498129977304,0.08344395258886171,7500,0.38062639684609484,0.0
25,1.6725878715515137,0.38053535312864883,0.004868275650960432,0.3868577736602453,0.37372546444769966,0.0,0.16722977144046133,0.1,0.0037577152252197266,0.07695817947387695,0.049743846,2.4515812,0.3951314595983107,0.0,0.00511883368620843,0.0,300,0.028411388397216797,0.12313773351503758,0.0288605128575234,7800,0.3808733138623565,0.0
26,1.6197881698608398,0.37351826067166977,0.01993202829890751,0.39863820226355634,0.34291916043484516,0.0,0.1814401485086673,0.1,0.0037004947662353516,0.06778073310852051,0.05118244,1.8291628,0.3929701397056466,0.0,0.005032682636162205,0.0,300,0.05594944953918457,0.05141358354388217,0.07702467747459973,8100,0.38381026949570546,0.0
27,1.608616590499878,0.38327205234183626,0.007068960857549678,0.3913918010221971,0.3752701875677506,0.0,0.1965745641577953,0.1,0.003370046615600586,0.061213016510009766,0.051703397,1.2599466,0.39200033096926556,0.0,0.005149194250770539,0.0,300,0.04678082466125488,0.07067406063591172,0.03232081581775478,8400,0.3930504568179827,0.0
28,1.7208356857299805,0.4059865256951297,0.01269896550850675,0.4277686125940712,0.3966133688107237,0.0,0.1665852413080049,0.1,0.0040209293365478516,0.08445358276367188,0.050021876,4.6377,0.393398950441852,0.0,0.005409570682646692,0.0,300,0.05355477333068848,0.060656414116306505,0.04774316361224065,8700,0.38089257001158855,0.0
29,1.6477630138397217,0.39697097082360333,0.023742189319323256,0.43520721095422127,0.37250058125959934,0.0,0.18093031331355866,0.1,0.0035905838012695312,0.07249283790588379,0.050084885,2.7236638,0.3937561524800272,0.0,0.0053376753582330475,0.0,300,0.10262656211853027,0.07942112971617872,0.03838003732937297,9000,0.3999827105319394,0.0
30,1.8095643520355225,0.3962904843100405,0.006408998141515622,0.4043042391393433,0.38921042296741404,0.0,0.17387542352900673,0.1,0.003439664840698242,0.08529376983642578,0.049690023,4.5091844,0.39400958566302857,0.0,0.005320477077965532,0.0,300,0.07645940780639648,0.04042493830227432,0.050198098248329215,9300,0.39826600672812756,0.0
31,1.8287277221679688,0.385834657841616,0.0051627901642730956,0.39391271416480955,0.37956769479548164,0.0,0.1854631309074323,0.1,0.004832029342651367,0.0924985408782959,0.050753996,0.8151833,0.39319209288088736,0.0,0.005200298604003652,0.0,300,0.05018949508666992,0.03366703235419228,0.031166433323845236,9600,0.4115764750531496,0.0
32,1.824699878692627,0.3861138567658503,0.011414149551920886,0.40519124093121683,0.37540397846011425,0.0,0.1816171378671976,0.1,0.004885435104370117,0.08387303352355957,0.049577784,2.0105214,0.3924842692693836,0.0,0.0051956152033899375,0.0,300,0.03211021423339844,0.039283976695695305,0.03664552224612781,9900,0.3843979957592322,0.0
33,1.87101411819458,0.4517251985339001,0.08087603167388416,0.5876163335888003,0.3815547036063443,0.0,0.19507202005815957,0.1,0.007718801498413086,0.0942678451538086,0.04963159,0.9950638,0.39840836219583525,0.0,0.006004452601830723,0.0,300,0.10823178291320801,0.1685862242905503,0.11516333406991905,10200,0.4195488495944406,0.0
34,1.8293564319610596,0.3909538843087454,0.022413763023595944,0.42960516783895486,0.37464884257320336,0.0,0.17476730004689386,0.1,0.014957904815673828,0.08556222915649414,0.050233975,3.0886045,0.3976629144071263,0.0,0.0052550689936393365,0.0,300,0.030202865600585938,0.15128455730895649,0.0436077136669261,10500,0.38195793839638165,0.0
35,1.8526906967163086,0.47531056842719976,0.11562457618325858,0.6720474123676924,0.37503705953554056,0.0,0.19781545130559638,0.1,0.0049555301666259766,0.08283114433288574,0.049596805,1.0415658,0.40542767980913363,0.0,0.006347668813788401,0.0,300,0.027498245239257812,0.2509988237782957,0.19058119474145846,10800,0.38426686435264396,0.0
36,1.7941675186157227,0.4024628808729927,0.010110805031975569,0.41520473227544935,0.388132163221925,0.0,0.1769515595874771,0.1,0.005315303802490234,0.07531547546386719,0.050127067,3.156412,0.4051311999155196,0.0,0.0053674941428389095,0.0,300,0.061409950256347656,0.0711362570702512,0.056946771956695626,11100,0.4317391970642716,0.0
37,1.6722376346588135,0.39770109091108646,0.009206610989943778,0.40935127114398207,0.38391088806782236,0.0,0.18935984927519797,0.1,0.0033142566680908203,0.07644939422607422,0.04936877,2.7953825,0.40438818901507634,0.0,0.005333543826877624,0.0,300,0.02731943130493164,0.05022679009068403,0.05691020811063605,11400,0.730025793074138,0.0
38,1.8699777126312256,0.4904550196080863,0.055077243213478524,0.5652843916286263,0.43197028456556874,0.0,0.1934685338018732,0.1,0.004220724105834961,0.08265399932861328,0.05115245,0.71858925,0.41299487207437735,0.0,0.006552315711418155,0.0,300,0.07814431190490723,0.20628160969447168,0.07200526282075635,11700,0.42955804030335515,0.0
39,1.7234477996826172,0.4162513998121302,0.04377917081005977,0.49115220947843385,0.3809218236041957,0.0,0.19430257311587684,0.1,0.005213737487792969,0.07328319549560547,0.050205085,1.0451636,0.4133205248481527,0.0,0.005576645450183232,0.0,300,0.03288578987121582,0.13301955617307804,0.10438508005278585,12000,0.39050197518894086,0.0
40,1.9952094554901123,0.4303247767080881,0.061272146019115,0.5357799819515588,0.38773263877747105,0.0,0.17906296756140538,0.1,0.0062334537506103516,0.11220812797546387,0.049987044,1.0159507,0.41502095003414624,0.0,0.005755596359108505,0.0,300,0.04690694808959961,0.1037560161442729,0.11217085338033617,12300,0.4066725554216095,0.0
41,1.9991450309753418,0.44603917268537885,0.06141622893386186,0.5401625690991779,0.3808317650767522,0.0,0.18990880408917146,0.1,0.0039441585540771484,0.09246587753295898,0.049208555,0.9927073,0.41812277229926953,0.0,0.0059567827015398886,0.0,300,0.0561060905456543,0.11761534899099166,0.07574728374734428,12600,0.3810192253762091,0.0
42,1.987361192703247,0.39610578550755743,0.016399476438634087,0.4242203887141339,0.38302631984422697,0.0,0.17931917056988958,0.1,0.0032525062561035156,0.09556984901428223,0.049734306,3.0045254,0.41592107362009834,0.0,0.005317185284066594,0.0,300,0.0355076789855957,0.05101839194785133,0.05270463011428522,12900,0.4482969830486085,0.0
43,2.002852439880371,0.43526827578370025,0.030586160341341467,0.4812507814019949,0.40344513785785496,0.0,0.16837988666251358,0.1,0.006197929382324219,0.10357213020324707,0.05048522,4.2800937,0.41785579383645854,0.0,0.0058478463433166514,0.0,300,0.049022674560546875,0.042976984465520104,0.04455430657656621,13200,0.39031474527878524,0.0
44,1.8596453666687012,0.45842276102988494,0.11674372813459585,0.6344208326206263,0.31072312708222355,0.0,0.1940608313304882,0.1,0.0046215057373046875,0.09427332878112793,0.04950234,0.7118376,0.42191249055580116,0.0,0.00601412810956402,0.0,300,0.02727341651916504,0.17027278297165765,0.13408897299204117,13500,0.39039065648981114,0.0
45,1.9040393829345703,0.6618851702723874,0.39357974472654317,1.3421006294524296,0.3959515535195403,0.0,0.20285969615813307,0.1,0.005398273468017578,0.08941841125488281,0.051007546,0.7650454,0.44590975852745984,0.0,0.008788821240114928,0.0,300,0.05773591995239258,0.5473506381191522,0.47650719040905404,13800,0.39209922486670834,0.0
46,1.9131295680999756,0.42699252900531787,0.03766694373981042,0.48390885006245266,0.3785076494658186,0.0,0.18034487451667885,0.1,0.006310939788818359,0.11517024040222168,0.049554683,1.4219196,0.44401803557524566,0.0,0.005737688030752119,0.0,300,0.03658938407897949,2.3392459022752923,0.07901388125871549,14100,0.40503512968660504,0.0
47,1.9538586139678955,0.4154332272199314,0.030115308979430596,0.46332024394319593,0.38345080390864456,0.0,0.2036402015254278,0.1,0.0045969486236572266,0.0869143009185791,0.049585596,0.97687024,0.44115955473971424,0.0,0.005575013074808612,0.0,300,0.032579898834228516,0.06837159855303547,0.3502397841340987,14400,0.380549708063554,0.0
48,1.9896948337554932,0.43413783947256734,0.07442468105492099,0.5626874944335374,0.38374191304345867,0.0,0.18655274080616652,0.1,0.005034446716308594,0.09620523452758789,0.050085142,0.8931783,0.4404573832129996,0.0,0.005815894771283387,0.0,300,0.06745529174804688,0.4303825437738254,0.3748263481545175,14700,0.3867025972551856,0.0
49,1.972778081893921,0.3912922823057234,0.008705702642525383,0.40517238576567993,0.3825391882742774,0.0,0.17612079725754526,0.1,0.0038411617279052734,0.08948612213134766,0.049882006,1.0758289,0.435540873122272,0.0,0.005255023028602848,0.0,300,0.034894466400146484,0.25052140518117666,0.1001179411971709,15000,0.38743954383676255,0.0
50,1.698939323425293,0.419409335124291,0.01458575339931569,0.4424309326273378,0.40233686564601356,0.0,0.181423168508393,0.1,0.0032720565795898438,0.06310272216796875,0.049883608,0.6765333,0.4339277193224739,0.0,0.005626952478357627,0.0,300,0.10525393486022949,0.12444776536721897,0.06856162375216217,15300,0.39280220784035774,0.0
51,1.853471279144287,0.39698191601626853,0.020717590666292928,0.4278293592821299,0.3694182421330518,0.0,0.1841667566258616,0.1,0.00670623779296875,0.07794189453125,0.049925208,0.9082279,0.4302331389918534,0.0,0.005325147416465747,0.0,300,0.03255748748779297,0.09643049776816853,0.10046302152911628,15600,0.3896953752980791,0.0
52,1.946772575378418,0.5385541085935897,0.13232564031358637,0.7350997032272075,0.4174409968148161,0.0,0.1905447396070669,0.1,0.005353212356567383,0.08207321166992188,0.0502566,0.7911246,0.441065235952027,0.0,0.00710474165379436,0.0,300,0.04569053649902344,0.1958743244731588,0.158288169690812,15900,0.378037488072058,0.0
53,1.9244251251220703,0.5543692591278686,0.08420250474063184,0.678547805253743,0.4443852110866155,0.0,0.19575650240047224,0.1,0.004355669021606445,0.08996796607971191,0.050296895,0.6955814,0.4523956382696112,0.0,0.007319554296604488,0.0,300,0.04880666732788086,0.1222712212770953,0.09492521765569785,16200,0.38072012141144157,0.0
54,2.140231132507324,0.5252682859436149,0.16624534500001842,0.8116241171397934,0.4122957394645471,0.0,0.19190664625449244,0.1,0.00936746597290039,0.08990955352783203,0.049334045,1.2805516,0.4596829030370116,0.0,0.007040826968175984,0.0,300,0.12161588668823242,0.24482921788814302,0.22027739066548307,16500,0.39979698862441865,0.0
55,2.1448304653167725,0.38856217408095195,0.04950150258107375,0.44063394414586965,0.3088874610189009,0.0,0.17395653736752542,0.1,0.006841897964477539,0.11961126327514648,0.0501744,2.8740067,0.45257083014140564,0.0,0.005234391797725306,0.0,300,0.10237526893615723,0.5689917362524854,0.0834452114542187,16800,0.40574999767152514,0.0
56,2.145697593688965,0.5608699360999928,0.31072138297198754,1.0987425857217639,0.3644365182603749,0.0,0.19889405289965645,0.1,0.0044438838958740234,0.09068942070007324,0.049970105,1.0005075,0.4634007407372644,0.0,0.007545732398761631,0.0,300,0.03290438652038574,0.4947766769991161,0.5183649858175072,17100,0.4486540876873127,0.0
57,2.139328956604004,0.6910817543891061,0.40285746383085386,1.3844567643111703,0.3969254277816,0.0,0.1965423541185085,0.1,0.004823923110961914,0.09134173393249512,0.050140843,0.8976004,0.4861688421024486,0.0,0.009213714421013664,0.0,300,0.027576923370361328,0.5554546529853125,0.4126077313810891,17400,0.5636336663360261,0.0
58,1.9287445545196533,0.44014003292364795,0.05070692931387472,0.4764583834786823,0.3534992499091518,0.0,0.17726508513006867,0.1,0.004225015640258789,0.07866883277893066,0.050427735,2.4178646,0.4815659611845685,0.0,0.005877780283644605,0.0,300,0.06471657752990723,0.19316878511257177,0.3300323823858016,17700,0.4879490429298599,0.0
59,1.9635834693908691,0.3912405363463249,0.060609411093309536,0.46514328964123663,0.2968013150434612,0.0,0.18705591983141096,0.1,0.005588054656982422,0.08588004112243652,0.050263155,1.2688909,0.47253341870074417,0.0,0.005249343585049338,0.0,300,0.03199052810668945,0.7767246123081039,0.13304968770478387,18000,0.5408176914650679,0.0
60,2.0816099643707275,0.39559524780795013,0.01756039825019312,0.4195066172090122,0.37659244031967354,0.0,0.1714760564392736,0.1,0.003971099853515625,0.08555793762207031,0.04924177,9.06985,0.46483960161146476,0.0,0.005299231685897691,0.0,300,0.05927848815917969,0.057551614998083624,0.0998366129655116,18300,0.5925545516280792,0.0
61,2.053701639175415,0.5077564697618305,0.13493966305634292,0.7143862721926018,0.3856745526614866,0.0,0.2030107624099812,0.1,0.004400491714477539,0.0955348014831543,0.050092537,0.8859594,0.4691312884265013,0.0,0.006738072473685165,0.0,300,0.05603313446044922,0.36442870350189205,0.33593640031541006,18600,0.5092453955509201,0.0
62,2.014113664627075,0.3893040999434163,0.02763071307572407,0.41808263720306554,0.3444015884803126,0.0,0.17511509098314024,0.1,0.0046389102935791016,0.10889577865600586,0.050005764,1.5077246,0.46114856957819284,0.0,0.005225739233318087,0.0,300,0.06064105033874512,0.08114893880936212,0.06225619249771283,18900,0.5264722162402221,0.0
63,2.1370718479156494,0.7351246963669201,0.5373260158076522,1.6625220355378107,0.3740676438049412,0.0,0.20148990200334527,0.1,0.004606485366821289,0.0998692512512207,0.049489126,0.88988686,0.4885461822570656,0.0,0.009846688519767815,0.0,300,0.08238768577575684,0.6566281200872972,0.5336995314694266,19200,0.48150484712566216,0.0
64,2.11610746383667,0.4345096882717835,0.0498128468454715,0.5176581847573352,0.38949920800816257,0.0,0.2022840710281696,0.1,0.0039055347442626953,0.10068869590759277,0.049591117,0.78718454,0.4831425328585374,0.0,0.005839852164048868,0.0,300,0.03684830665588379,0.20648339477741312,0.38405725353600306,19500,0.4432428640831563,0.0
65,1.7679047584533691,0.5141323153152624,0.11192025055450627,0.6396550824592915,0.34997072311986904,0.0,0.18474262223263935,0.1,0.003263235092163086,0.07522749900817871,0.049573492,0.9473591,0.4862415111042099,0.0,0.0068483139127679515,0.0,300,0.02217411994934082,0.23115314806186124,0.15383159871659458,19800,0.43299692192620104,0.0
66,1.7197604179382324,0.5302547750378377,0.12760903201248927,0.7401843566229325,0.41156598388782184,0.0,0.19352958646876636,0.1,0.006107330322265625,0.20691251754760742,0.04935511,0.8212233,0.4906428374975727,0.0,0.0070897047964553,0.0,300,0.0331873893737793,0.12584809795144405,0.1454780154361739,20100,0.47224101958444836,0.0
67,1.7285144329071045,0.634689996999935,0.23863119781628586,1.0083442227353718,0.3793308505067792,0.0,0.19493302680533578,0.1,0.003311634063720703,0.06528568267822266,0.04991412,0.748001,0.5050475534478089,0.0,0.00843018921619811,0.0,300,0.05475759506225586,0.3076865588975935,0.2406381337150985,20400,0.591428311196254,0.0
68,1.849632978439331,0.5756685341395945,0.20346234993865275,0.8599318007925109,0.37572380994901533,0.0,0.19451796332616444,0.1,0.003648042678833008,0.07604146003723145,0.049507465,0.6638837,0.5121096515169875,0.0,0.007608294998000076,0.0,300,0.024576902389526367,0.2558642854697902,0.23557129598025417,20700,0.47854109248901716,0.0
69,2.0416030883789062,0.8142706857829209,0.3889558113641363,1.4118290654437147,0.41382765138237615,0.0,0.18878640872509125,0.1,0.0036468505859375,0.07866668701171875,0.04932247,1.0611562,0.5423257549435808,0.0,0.010846873883031304,0.0,300,0.027936935424804688,0.33325472646402393,0.2939704458562555,21000,0.4875886418858963,0.0
70,2.175981283187866,0.6214246799314954,0.23824114846655575,0.9733279207332441,0.40094965788237313,0.0,0.1986667579581459,0.1,0.00498509407043457,0.09352326393127441,0.050543174,0.76927656,0.5502356474423723,0.0,0.008340125531461552,0.0,300,0.06496357917785645,0.4185043485400131,0.25352647641366133,21300,0.5425595750238993,0.0
71,2.2002477645874023,0.8990205864560398,0.5688835070393331,1.872155627268353,0.48347408746095527,0.0,0.17883837842896202,0.1,0.0042874813079833984,0.09003376960754395,0.051259372,1.2198198,0.5851141413437391,0.0,0.012038345224320807,0.0,300,0.06920981407165527,0.42047313376146783,0.39805145030664546,21600,0.5706195742885807,0.0
72,2.2533788681030273,1.581525044540982,1.2434963112117403,3.6720347547357757,0.44724024667537177,0.0,0.19786156872689606,0.1,0.004436969757080078,0.09650826454162598,0.050972104,0.957803,0.6847552316634634,0.0,0.02112180924972481,0.0,300,0.04522442817687988,0.6580376849147688,0.48984161622917227,21900,0.7152895759772947,0.0
73,2.2300474643707275,0.46120252143335694,0.0684621517250039,0.5713299825612866,0.39370171216234323,0.0,0.15897032352232945,0.1,0.04555082321166992,0.09224438667297363,0.049586415,1.7777511,0.6623999606404528,0.0,0.006200957299244817,0.0,300,0.03438448905944824,9.369091997393484,2.1042600514869756,22200,0.5287797779084806,0.0
74,2.04453182220459,1.5090216759214492,0.39152669081159525,1.9499759474369034,0.9644784553812618,0.0,0.2134375415829481,0.1,0.0049059391021728516,0.09100961685180664,0.049838528,0.55070424,0.7470621321685524,0.0,0.020075841261377698,0.0,300,0.023671388626098633,0.32591295406178095,0.38847240610225015,22500,0.6090401121930045,0.0
75,2.1760737895965576,0.6820912722466596,0.3291610233075094,1.1440885065724669,0.3522750091195659,0.0,0.19878517239326585,0.1,0.00401759147644043,0.09143924713134766,0.049939558,0.5767108,0.7405650461763632,0.0,0.009007915161528596,0.0,300,0.03610539436340332,0.3453825372623877,0.37404217460239353,22800,0.9086789723356699,0.0
76,1.979337215423584,1.123961401818248,0.7752224163897943,2.377362868072642,0.4321356330732692,0.0,0.190989357917252,0.1,0.004648447036743164,0.09188318252563477,0.049986694,1.2061833,0.7789046817405516,0.0,0.015012761314077165,0.0,300,0.03292965888977051,0.4649216417306496,0.4496656854609707,23100,1.4347569227709085,0.0
77,1.8179569244384766,0.8609765334596124,0.2232415337218968,1.1406219133949804,0.5318068618669894,0.0,0.19875949187977823,0.1,0.005354166030883789,0.0906071662902832,0.04954853,0.6118571,0.7871118669124577,0.0,0.01147897016653949,0.0,300,0.026247501373291016,0.17754119371071564,0.18369807580745048,23400,1.6763117910169572,0.0
78,1.9816901683807373,1.1939642544659592,0.48071260250625564,1.9321212480824572,0.765647986117489,0.0,0.19432226046544726,0.1,0.008797645568847656,0.09245777130126953,0.050112523,0.67818207,0.8277971056678078,0.0,0.01584390134940639,0.0,300,0.06595230102539062,0.2513422330682347,0.23824579894006803,23700,1.8847057095500344,0.0
79,1.9936795234680176,0.9135879645569716,0.18690427938905407,1.0720724124321288,0.6146119603123525,0.0,0.18573656110635656,0.1,0.003983497619628906,0.0878748893737793,0.050589774,0.65506935,0.8363761915567243,0.0,0.012118081659177833,0.0,300,0.029758930206298828,0.10602477749935361,0.10473416631889151,24000,1.2284127849526012,0.0
80,1.9969072341918945,0.9009144049860904,0.41124870863254576,1.5959955362073683,0.5244049500889386,0.0,0.18411399952981208,0.1,0.004555702209472656,0.09641385078430176,0.049413096,0.8056277,0.842830012899661,0.0,0.012067141096879805,0.0,300,0.05950164794921875,0.28466557470529924,0.25648962397789504,24300,0.8963447942686212,0.0
81,2.092190980911255,0.71321718959691,0.3272269896862082,1.2296499798342895,0.37934135707506395,0.0,0.18721646421974872,0.1,0.003931760787963867,0.08768129348754883,0.049702913,0.8299707,0.8298687305693858,0.0,0.009511919086991207,0.0,300,0.08002352714538574,0.4438335519981675,0.32475850720203076,24600,0.8705603281985078,0.0
82,1.8294720649719238,0.9036163565953113,0.26268310282255414,1.3141443670140267,0.6346647456868876,0.0,0.19908962027001006,0.1,0.0038259029388427734,0.07657718658447266,0.05028828,0.67078835,0.8372434931719784,0.0,0.01208378854451449,0.0,300,0.09797358512878418,0.1681792331078181,0.19690004771826003,24900,0.8869107644926335,0.0
83,1.7623012065887451,0.7202705033954324,0.3705659318604536,1.3542323097013835,0.442550071615417,0.0,0.17812554895935162,0.1,0.003922700881958008,0.07446694374084473,0.049299657,1.1700033,0.8255461941943238,0.0,0.00963080978761785,0.0,300,0.08269166946411133,0.31044742296271466,0.3079915529540846,25200,0.6311845659417742,0.0
84,2.0100173950195312,1.1076099921937579,0.4759899665560551,1.8641699091274928,0.6508837380637245,0.0,0.19368335049000887,0.1,0.005589008331298828,0.09342455863952637,0.05004302,0.7415036,0.8537525739942673,0.0,0.014792885933511593,0.0,300,0.06061267852783203,0.37391015901915536,0.30468063146783503,25500,0.7339882116543359,0.0
85,1.8344743251800537,1.3361171257568536,0.44994791395253614,2.0887528995188185,0.9522667836116163,0.0,0.21762457515505043,0.1,0.004312038421630859,0.08133459091186523,0.050462805,0.57561344,0.9019890291705259,0.0,0.017750463811559643,0.0,300,0.03641176223754883,0.299471149176463,0.17522281929358885,25800,0.6797744934046815,0.0
86,2.0186638832092285,0.8978145152081979,0.5184714760877284,1.740274020050902,0.4630404112364919,0.0,0.19798782724376743,0.1,0.003554821014404297,0.08605170249938965,0.049785353,0.78300947,0.9015715777742932,0.0,0.011991645936961042,0.0,300,0.031699419021606445,0.5369525685552368,0.46075526365138336,26100,1.2588623410951774,0.0
87,2.0358710289001465,1.3545142844533324,0.4910058188278753,1.917231013394062,0.8399263062232093,0.0,0.19320396202809406,0.1,0.005018711090087891,0.10504317283630371,0.049350813,0.7549298,0.9468658484421972,0.0,0.018030398836360897,0.0,300,0.049182891845703125,0.22333125486960675,0.23409900670529682,26400,0.7036774751665593,0.0
88,2.251403331756592,0.5882982496691328,0.03980078733763792,0.6474362479922284,0.5513426071613863,0.0,0.1745441367072615,0.1,0.0037946701049804688,0.09065413475036621,0.049540292,1.1317137,0.9110090885648908,0.0,0.007886537065913971,0.0,300,0.034859418869018555,1.7646911458488495,0.7153848405159117,26700,0.44784767587724356,0.0
89,2.208155393600464,0.7088772055886825,0.1208378191727717,0.8972400188522676,0.5645433869013026,0.0,0.18730838295559357,0.1,0.0036728382110595703,0.09202980995178223,0.04987173,0.6081784,0.8907959002672701,0.0,0.009465711521601958,0.0,300,0.14141225814819336,0.2829802225178744,0.15418660319239208,27000,0.44092671264775957,0.0
90,2.2863047122955322,1.3530236229720727,1.0925550425507935,3.1631828212002118,0.46664429815352315,0.0,0.18196663507361135,0.1,0.009838581085205078,0.0910329818725586,0.05019299,1.4672959,0.9370186725377504,0.0,0.01788674622655994,0.0,300,0.03411746025085449,0.6669690887273263,0.6335485200048293,27300,0.41662099939781827,0.0
91,2.325770616531372,0.7271561700742335,0.22778784032252483,0.9765711441828093,0.3866569909823884,0.0,0.19451911270814912,0.1,0.00409698486328125,0.11956572532653809,0.049828302,0.55967385,0.9160324222913987,0.0,0.009738795341729311,0.0,300,0.03588247299194336,0.19298167806146702,0.22888686738762545,27600,0.42099425637274474,0.0
92,2.098911762237549,2.343648959745206,2.1546997824408516,5.942484224353451,0.47356066453249046,0.0,0.21107404274510838,0.1,0.006476879119873047,0.09690737724304199,0.05027181,0.72181696,1.0587940760367793,0.0,0.03126464950613566,0.0,300,0.04291653633117676,0.7335166144560233,0.5900245387323484,27900,0.43145080718062817,0.0
93,2.1751534938812256,0.5439754822272129,0.10523776318338375,0.7173981665121111,0.43828816763873985,0.0,0.17875399721694124,0.1,0.004496574401855469,0.10055160522460938,0.049818087,1.4790843,1.0073122166558228,0.0,0.0072635653014057715,0.0,300,0.04503369331359863,5.124640002880503,6.461926128015032,28200,0.5184248076649712,0.0
94,2.2592790126800537,0.7672305903824588,0.29621009542520665,1.2092097669735842,0.40995946797462146,0.0,0.17935934706864765,0.1,0.005210399627685547,0.0924537181854248,0.049190238,0.7297809,0.9833040540284865,0.0,0.010235632645278131,0.0,300,0.06129884719848633,1.4588498049835874,0.36224953076614236,28500,0.5774190599053154,0.0
95,2.1335508823394775,1.4853835427111397,0.978908746050555,3.133885523760082,0.5830932430274107,0.0,0.2011328477297001,0.1,0.004875659942626953,0.09664654731750488,0.049291644,0.7907984,1.033512002896752,0.0,0.019784247366750704,0.0,300,0.044083595275878906,0.44330876212249937,0.4967062317554702,28800,0.8827541077252814,0.0
96,1.8069767951965332,1.7014921675821704,1.3285978301019439,3.9224484309709435,0.6237578707338883,0.0,0.18360104565163882,0.1,0.0036537647247314453,0.0702366828918457,0.049800493,1.2982122,1.1003100193652937,0.0,0.022678285642027292,0.0,300,0.08325362205505371,0.5615053753617741,0.5044069156487829,29100,0.5496322302764652,0.0
97,1.7469534873962402,1.1264425465554981,0.44751228179271835,1.816416745615913,0.6580642488261783,0.0,0.19394884693590952,0.1,0.004839420318603516,0.07218384742736816,0.050160807,0.73345256,1.102923272084314,0.0,0.01498927800664949,0.0,300,0.023828506469726562,0.23209552909408923,0.23647658832149612,29400,0.42816875988097175,0.0
98,2.020439863204956,1.846169503118707,1.3100073275092807,3.7866341467491225,0.5306524366021397,0.0,0.18098074736721412,0.1,0.006894826889038086,0.09518909454345703,0.04954909,1.1504859,1.1772478951877534,0.0,0.024516873599514596,0.0,300,0.02822566032409668,0.45770426005827364,0.4277706195333766,29700,0.4555894865653914,0.0
99,2.1602325439453125,0.8637280290259043,0.1947557128595614,1.1543457893885845,0.6777903104849547,0.0,0.17450194644766734,0.1,0.006626129150390625,0.09795928001403809,0.04994353,1.2048017,1.1458959085715685,0.0,0.01154705359163571,0.0,300,0.0342402458190918,0.925061365429812,0.666041573566617,30000,0.5379916118407035,0.0
100,2.164121389389038,1.3286484126906508,0.8574250887759687,2.7446119414542185,0.5467250354683604,0.0,0.20118511077401768,0.1,0.043821096420288086,0.10616207122802734,0.050006855,0.69650096,1.164171158983477,0.0,0.01765662094206532,0.0,300,0.14017677307128906,0.36866525562282054,0.3756398287771555,30300,0.6333837451356923,0.0
101,2.1420817375183105,1.7839498602335766,1.1357043991813869,2.9056594160929805,0.3783294436976628,0.0,0.18535759159139617,0.1,0.004203319549560547,0.08644509315490723,0.04996162,0.7785692,1.226149029108487,0.0,0.02372745467848346,0.0,300,0.03636908531188965,0.4643463673841185,0.4287683445931885,30600,0.5038413649957195,0.0
102,2.2030937671661377,1.4245573746416893,0.6811849369881293,2.347058879007934,0.4276291160647947,0.0,0.17214736324464652,0.1,0.004098415374755859,0.0838005542755127,0.049407862,1.3922782,1.2459898636618072,0.0,0.01898121655798314,0.0,300,0.02913045883178711,0.29168502181100575,0.29342327869013063,30900,0.5966677409838539,0.0
103,2.1903164386749268,1.2131299160923632,0.2639258930642677,1.429555386106129,0.7615325494693629,0.0,0.1919050623367645,0.1,0.0037355422973632812,0.07978701591491699,0.05042551,0.62174726,1.2427038689048628,0.0,0.01620826957078251,0.0,300,0.024190664291381836,0.16984939895591916,0.14250799188660462,31200,0.6047878232955163,0.0
104,1.8065080642700195,0.6159063574785283,0.1549367282010326,0.7857960752652767,0.36977777000739354,0.0,0.1803986765430347,0.1,0.004189491271972656,0.08869433403015137,0.050440583,1.29736,1.1800241177622295,0.0,0.008297889078998076,0.0,300,0.03410768508911133,2.948707885021629,1.130574320609676,31500,0.5739918070915538,0.0
105,2.0590460300445557,1.0399761052960166,0.6066004563713809,2.0116259178141696,0.46697748795227767,0.0,0.19988171588665501,0.1,0.003634214401245117,0.07828640937805176,0.049936157,0.7283581,1.1660193165156083,0.0,0.013890825189632932,0.0,300,0.02515268325805664,0.3698126633609406,0.3750375480255471,31800,0.5270183886699137,0.0
106,2.2527027130126953,1.3194361629442324,0.8071135815006009,2.52306922981135,0.41743871226078805,0.0,0.18008938057114193,0.1,0.0044939517974853516,0.08656501770019531,0.04977064,0.9531014,1.1813610011584708,0.0,0.017574711645978822,0.0,300,0.031075000762939453,0.49393681629415603,0.4668243527563922,32100,0.5834218284443587,0.0
107,2.2856714725494385,2.5531248972732956,1.6318006228442303,5.319330260189956,1.174527362700095,0.0,0.1899477213067736,0.1,0.004460573196411133,0.08645200729370117,0.049379293,1.1557267,1.3185373907699534,0.0,0.03387293842014777,0.0,300,0.044083595275878906,0.6622915701191423,0.519834873561085,32400,0.4392376824380664,0.0
108,2.1922965049743652,1.0537723034535469,0.6039242506734582,2.096251134501085,0.6261924741137991,0.0,0.1851062024620469,0.1,0.0074307918548583984,0.0819089412689209,0.050245736,0.7179378,1.2920608820383126,0.0,0.014053445448715738,0.0,300,0.25982236862182617,0.37336931688076713,0.6606481790519563,32700,0.41858850414912036,0.0
109,2.0590078830718994,1.2925502382746756,0.772642836036392,2.571854514618608,0.5044535912666195,0.0,0.20049506292649483,0.1,0.04946732521057129,0.08188748359680176,0.049492594,0.7859008,1.2921098176619488,0.0,0.017250874059666674,0.0,300,0.0853431224822998,0.4752745788435312,0.4088682103824661,33000,0.38903962216362137,0.0
110,2.0163114070892334,0.7681306904232729,0.4032179077417009,1.4495841336567787,0.4465606781656597,0.0,0.16920830649570215,0.1,0.004023313522338867,0.08897757530212402,0.04930832,0.6818707,1.2397119049380811,0.0,0.010285293634846766,0.0,300,0.030406951904296875,1.6838540705628244,0.6789451225104254,33300,0.3891506934736411,0.0
111,1.8954384326934814,1.9535849937934193,2.4337860914576392,6.1675477014076785,0.4457478497144763,0.0,0.1995021303674517,0.1,0.003569364547729492,0.06998562812805176,0.049777843,0.8955958,1.311099213823615,0.0,0.02605546464376531,0.0,300,0.020962238311767578,0.7026649911111067,0.7102389348669313,33600,0.4059907959047047,0.0
112,1.8756229877471924,0.5739960325547458,0.1238006362341726,0.7824280915724575,0.46650233449260486,0.0,0.18829224004578973,0.1,0.007104635238647461,0.07552599906921387,0.04928089,0.5706405,1.2373888956967283,0.0,0.0076716486035982995,0.0,300,0.02162957191467285,1.9220383704046442,1.687425682967963,33900,0.3987710477418105,0.0
113,1.922900915145874,1.3158041586691238,1.2944627597850842,3.555820276167512,0.48785532996809416,0.0,0.19218362496235694,0.1,0.006720066070556641,0.07525968551635742,0.049763862,1.0056993,1.245230421993968,0.0,0.01756975209137968,0.0,300,0.03443598747253418,0.5409209655979647,0.5452312841035785,34200,0.41326650422082795,0.0
114,2.007909059524536,0.5971591824254836,0.17873170832438234,0.9018050312182427,0.44378941754104384,0.0,0.18255919191496328,0.1,0.0063076019287109375,0.09068465232849121,0.049340583,0.57226676,1.1804232980371197,0.0,0.008005359162250751,0.0,300,0.025336503982543945,1.5539729331956529,1.1060125047627074,34500,0.4151067385859042,0.0
115,2.180983304977417,1.7185041485021082,0.6301180049454184,2.606387744233858,0.8281014516743197,0.0,0.1896494020657733,0.1,0.004220247268676758,0.09296607971191406,0.050001536,0.89144063,1.2342313830836187,0.0,0.022924723053604705,0.0,300,0.02502298355102539,0.3431007225900122,0.3299648807932371,34800,0.427184781993413,0.0
116,2.2156460285186768,0.656099764433685,0.19703613951339577,0.8966842034294327,0.38971178812523577,0.0,0.17908116926278533,0.1,0.0039691925048828125,0.09104347229003906,0.050102267,0.54027414,1.1764182212186252,0.0,0.008792502525105439,0.0,300,0.02702808380126953,0.6456633334563129,0.6860745051714306,35100,0.4318325537739149,0.0
117,2.2296504974365234,1.4665847280090452,0.67926108894132,2.2934766359278167,0.6041028813921944,0.0,0.18176058462818065,0.1,0.0039119720458984375,0.08112120628356934,0.050148904,0.8202599,1.2054348718976673,0.0,0.01958021303319444,0.0,300,0.02234053611755371,0.2989927097302653,0.28347193259668013,35400,0.47576985514853276,0.0
118,2.1333110332489014,2.1493523231906613,2.619188066068734,6.683961758216338,0.5225143848805606,0.0,0.201370903088372,0.1,0.004596233367919922,0.1008291244506836,0.049706094,1.012421,1.2998266170269668,0.0,0.02862165915780138,0.0,300,0.027640581130981445,0.7302913889495907,0.6781391683281,35700,0.49021769634415263,0.0
119,2.1875505447387695,3.329741080123368,1.7278502194148047,4.8161092010396285,0.45482332061140596,0.0,0.1833213462324014,0.1,0.004791259765625,0.09984540939331055,0.050089777,0.70114523,1.5028180633366068,0.0,0.04439581409868707,0.0,300,0.03365159034729004,0.559123153664799,0.33799400799446283,36000,0.7735130736824046,0.0
120,1.7919516563415527,1.557767452607664,1.0384782296384714,3.087725904245994,0.5039217483761467,0.0,0.19638594710819335,0.1,0.00421452522277832,0.08839869499206543,0.04997676,0.69098735,1.5083130022637126,0.0,0.020811172326644034,0.0,300,0.019936323165893555,0.6639919172494083,0.8157162115994051,36300,1.0011613262815227,0.0
121,1.9269676208496094,1.722156768036768,1.0822871743419051,2.977841705718664,0.4434412320213754,0.0,0.1808152429525241,0.1,0.003526449203491211,0.0932765007019043,0.050303277,0.77649176,1.5296973788410182,0.0,0.022996186675062435,0.0,300,0.02437758445739746,0.7418477816538078,0.38561077782163244,36600,3.266472524632898,0.0
122,2.1210968494415283,1.2869116746634863,1.0629860107657016,3.1087698695974466,0.43162870344285376,0.0,0.18936095818999726,0.1,0.004190921783447266,0.08972048759460449,0.050382517,0.62172884,1.5054188084232651,0.0,0.01719786814399212,0.0,300,0.053826332092285156,0.6792108392906341,0.5669034835697699,36900,3.237302891669112,0.0
123,2.227583646774292,1.87766032389762,1.371736320179695,3.9673967951292393,0.3699958962470862,0.0,0.17768904271065658,0.1,0.00624537467956543,0.10485506057739258,0.049694892,0.9685243,1.5426429599707008,0.0,0.025078735135498194,0.0,300,0.03872513771057129,0.4947072602031128,0.4753380881293161,37200,2.180222081119791,0.0
124,2.178224563598633,1.6458588616528553,1.0249650799745806,3.328773041481431,0.778622521153089,0.0,0.18551792432732378,0.1,0.024554014205932617,0.12322592735290527,0.050291188,1.0994552,1.5529645501389162,0.0,0.021984223565281017,0.0,300,0.028206586837768555,0.38047266560252774,0.33524822245008357,37500,2.037894344750675,0.0
125,2.342315196990967,2.092386619982677,1.660351586878297,4.939239363752378,0.7596363956823684,0.0,0.17943906484332386,0.1,0.0036139488220214844,0.09205460548400879,0.049724005,1.064024,1.6069067571232925,0.0,0.02792802055640538,0.0,300,0.0697324275970459,0.5117919565330138,0.47732653664843433,37800,1.385532504674268,0.0
126,2.1113715171813965,1.9817207634088772,0.9836916094688034,3.170156055086226,0.6730069769292011,0.0,0.1867829686416534,0.1,0.003966569900512695,0.1050717830657959,0.050253823,0.78239596,1.6443881577518509,0.0,0.02646533827957645,0.0,300,0.04137897491455078,0.28503316863930833,0.2788847382001937,38100,2.3559093496717836,0.0
127,2.102971076965332,1.3545658008764048,0.21021066510969033,1.6814926969297432,1.1120338520911457,0.0,0.18457906427774012,0.1,0.004596233367919922,0.16843032836914062,0.04963992,0.7818271,1.6154059220643062,0.0,0.018103182772571263,0.0,300,0.02920246124267578,0.3080928329320076,0.24369329038032506,38400,2.4068925007771695,0.0
128,2.066660165786743,1.3155849004861797,0.9083034195343872,2.8721928253408433,0.5902174393855336,0.0,0.17930804309336784,0.1,0.004296302795410156,0.11693310737609863,0.049733665,0.8384453,1.5854238199064936,0.0,0.017558860062326098,0.0,300,0.02722477912902832,0.5328317471122778,0.43586075930126456,38700,4.3199662015342435,0.0
129,1.8732540607452393,1.1428855402233313,0.5932572701108279,2.059210911037448,0.6172184950684602,0.0,0.18835514821281685,0.1,0.0038156509399414062,0.08813285827636719,0.050220262,0.65027356,1.5411699919381774,0.0,0.01530482148112065,0.0,300,0.10230088233947754,0.45334529132182827,0.3004128889128859,39000,3.6825447556039017,0.0
130,2.1125123500823975,1.166816391369291,0.6884176222412942,2.3317286943146724,0.6163542205344216,0.0,0.19174955773896932,0.1,0.004872798919677734,0.09718489646911621,0.04963014,0.74590105,1.503734631881289,0.0,0.015572159652451852,0.0,300,0.06147336959838867,0.3431749464668402,0.3280835628144168,39300,1.6782647041262357,0.0
131,2.1264891624450684,3.220427199044255,2.154879703123714,6.474019846233834,0.9940147527439447,0.0,0.20295660557985254,0.1,0.08966422080993652,0.13147521018981934,0.05030009,0.66444224,1.6754038885975857,0.0,0.04291803124354299,0.0,300,0.03531360626220703,0.6246446218508261,0.5594742964912912,39600,1.2649130330997322,0.0
132,2.2948994636535645,2.2271103008242004,1.6296531089905262,4.416330625325009,0.6053050181670704,0.0,0.1882942614263097,0.1,0.005810976028442383,0.1582021713256836,0.049601313,0.74591535,1.730574529820247,0.0,0.029714414883809874,0.0,300,0.030371904373168945,0.49078560085173767,0.42264727003499303,39900,1.6353657645387,0.0
133,2.2063324451446533,2.3733033104626924,2.793516887866379,7.198718837184557,0.5705368037607905,0.0,0.18693773296627156,0.1,0.005511045455932617,0.09426641464233398,0.05038967,0.95920026,1.7948474078844918,0.0,0.031664506137870266,0.0,300,0.06576681137084961,0.6342910266618702,0.6099614074839758,40200,2.433130309632218,0.0
134,2.238737106323242,2.426196083789396,2.4902224794424335,6.709286729845848,0.646793448030096,0.0,0.1846122751513693,0.1,0.00777125358581543,0.09621191024780273,0.050016653,0.9350475,1.8579822754749822,0.0,0.03230866189161875,0.0,300,0.03137350082397461,0.5470131936511169,0.552887880764885,40500,4.314755890335147,0.0
135,2.2403640747070312,1.28997445602685,0.9065872178904281,2.8474374481438196,0.5847640694962197,0.0,0.1939369939505525,0.1,0.004500389099121094,0.13777399063110352,0.050265387,0.5092253,1.801181493530169,0.0,0.017257126268945815,0.0,300,0.031908512115478516,1.2683441469292167,0.7276803567682109,40800,5.508943503533671,0.0
136,2.247807502746582,2.7736789155097914,0.5857694014725128,3.5519836339609014,2.0072647871324807,0.0,0.19420212180141594,0.1,0.003909587860107422,0.11700248718261719,0.04941496,1.0533473,1.8984312357281314,0.0,0.036819049611551025,0.0,300,0.05179238319396973,0.12377097169497275,0.16336831297090543,41100,3.911630915074539,0.0
137,2.1942834854125977,1.0053574045574547,0.15514586803145672,1.149554688550694,0.7438237033997606,0.0,0.19469831425898704,0.1,0.007754802703857422,0.1259610652923584,0.04955181,0.5272043,1.8091238526110638,0.0,0.013433080590835327,0.0,300,0.04903721809387207,1.442720047778679,0.894279780860933,41400,2.3800609381354003,0.0
138,1.9604647159576416,2.4222933670088214,1.0214033424839095,4.115373149151208,1.3843183634369505,0.0,0.19926908679418365,0.1,0.026049137115478516,0.09303855895996094,0.049289986,0.92689973,1.8704408040508396,0.0,0.032315913748652184,0.0,300,0.02603006362915039,0.2736307731635049,0.28654407966323253,41700,3.5572609463610276,0.0
139,1.9695236682891846,2.8714629338393434,1.0271812048956102,4.483261437608918,1.6315583154599618,0.0,0.1941395932427786,0.1,0.006057024002075195,0.07073259353637695,0.049957365,1.3969041,1.97054301702969,0.0,0.03816694658421453,0.0,300,0.07190823554992676,0.3681109819461666,0.2777712924941425,42000,3.70049731923749,0.0
140,1.8141376972198486,2.281867841596851,1.371585002060904,4.102383455957582,0.7608100611626445,0.0,0.18239566682961111,0.1,0.004475116729736328,0.07667684555053711,0.049561244,1.0026747,2.001675499486406,0.0,0.030489563910825704,0.0,300,0.02713155746459961,0.3568259665179454,0.35552500967148093,42300,3.804849189172844,0.0
141,1.8646752834320068,2.1767640165279207,1.8250959188864286,5.239812548857494,0.6980566585904344,0.0,0.19516362763124911,0.1,0.004876375198364258,0.07700467109680176,0.049418967,0.89707834,2.0191843511905576,0.0,0.02906958863352104,0.0,300,0.026434898376464844,0.46113829102493153,0.4632711610424255,42600,2.6432329539602866,0.0
142,1.8978726863861084,2.3301305453448027,1.3659326452412863,4.165512091723386,0.7779885874605071,0.0,0.18264121397987718,0.1,0.004124164581298828,0.07499432563781738,0.05008068,0.72656596,2.0502789706059823,0.0,0.03103725391185231,0.0,300,0.02396559715270996,0.28844922448734905,0.2740309893871725,42900,3.442899226176787,0.0
143,1.762812852859497,3.666630095756286,2.1840051579577806,7.14212640952402,1.1010815177862388,0.0,0.17702382297652486,0.1,0.0035753250122070312,0.06628298759460449,0.049019724,1.3969673,2.211914083121013,0.0,0.04879305484114488,0.0,300,0.021854162216186523,0.3864562523714836,0.3257049503564233,43200,4.871061284812958,0.0
144,1.7655372619628906,1.2304691110854,0.5010588895301431,2.0603594917297627,0.7165783864322062,0.0,0.1947837663711739,0.1,0.003796100616455078,0.06801986694335938,0.050273478,0.65728116,2.113769585917452,0.0,0.016440544719674738,0.0,300,0.038231849670410156,2.2231799152249136,1.7573375961741522,43500,5.237781205034155,0.0
145,1.7675774097442627,1.6427749668139893,0.9418514239828581,2.7918517683611994,0.5433200756377978,0.0,0.17690555384633996,0.1,0.00524592399597168,0.10000085830688477,0.049688373,0.6087812,2.0666701240071057,0.0,0.021897509627379998,0.0,300,0.029995441436767578,0.6232009757063652,0.334954315609279,43800,7.203220041638989,0.0
146,1.8369193077087402,0.8752348223557886,0.3243766426847826,1.4097803930024972,0.5518172249036777,0.0,0.1780724689464962,0.1,0.003738880157470703,0.0742487907409668,0.05033599,0.6746848,1.947526593841974,0.0,0.011730468246036786,0.0,300,0.18799805641174316,1.8587219228947436,0.5694269745989651,44100,7.425583723018054,0.0
147,1.9159352779388428,1.0262786281203569,0.4239434509918114,1.7455519666517432,0.7078940389062364,0.0,0.18350470651561146,0.1,0.00393986701965332,0.2685661315917969,0.050362725,0.5040573,1.8554017972698122,0.0,0.013736559835425306,0.0,300,0.025699138641357422,0.39203671273380564,0.2879928884533763,44400,6.581157798561616,0.0
148,1.945563554763794,2.854404641291784,0.2091243791247407,3.1110662647203005,2.532950342829411,0.0,0.19268096634346624,0.1,0.04213404655456543,0.07890152931213379,0.04986596,0.6395645,1.9553020816720095,0.0,0.038077860919587966,0.0,300,0.03439760208129883,0.5012690536264895,0.4269017771091233,44700,8.244574823813553,0.0
149,2.067472219467163,3.0951290707170935,0.887896499207448,3.883020701374898,1.6315219323026102,0.0,0.18248208275413955,0.1,0.003932476043701172,0.12016844749450684,0.049783826,0.70208806,2.0692847805765178,0.0,0.04093740914465848,0.0,300,0.024670124053955078,0.5015031011417971,0.3322221758305982,45000,7.778937568360798,0.0
150,1.9523284435272217,1.8321143798533168,0.9928635308483466,3.168275485046755,0.4631218873572715,0.0,0.1805825792054782,0.1,0.003587007522583008,0.07909727096557617,0.04892683,0.78701293,2.0455677405041977,0.0,0.024390474304761815,0.0,300,0.2504003047943115,0.3178736782911806,0.3446336468532407,45300,7.805710602171445,0.0
151,2.001256227493286,3.936937848381454,2.1722822527653283,7.503484468446333,2.133487027462542,0.0,0.19896445459097226,0.1,0.0038013458251953125,0.07525062561035156,0.04981378,0.7959489,2.2347047512919236,0.0,0.05199617523352867,0.0,300,0.22332215309143066,0.4397702548199225,0.33043427973596545,45600,7.303420852653585,0.0
152,2.1435627937316895,1.695543634674464,0.684540841280765,2.2738077961526426,0.5773794783550028,0.0,0.1741599109702448,0.1,0.003922224044799805,0.08034110069274902,0.05023573,0.8239696,2.180788639630178,0.0,0.022602811205986326,0.0,300,0.027257204055786133,0.7006791476691479,0.6894552215457812,45900,7.48361034747288,0.0
153,1.9839997291564941,4.325337376327115,2.088816516376282,7.870117434965729,2.4612930870687064,0.0,0.1941318828085373,0.1,0.0033881664276123047,0.07142019271850586,0.050270997,0.9423716,2.3952435132998717,0.0,0.05764528415748606,0.0,300,0.02410578727722168,0.3552861908366846,0.33712077910558413,46200,6.813369393074113,0.0
154,2.085927724838257,3.3379090082125153,0.8030630218788338,4.711546584408929,2.6827988414170663,0.0,0.18831855491709656,0.1,0.003576993942260742,0.07736873626708984,0.049797338,0.83775,2.489510062791136,0.0,0.04445847066614875,0.0,300,0.06946372985839844,0.14089135926808227,0.14018906735898493,46500,8.745611234588923,0.0
155,2.7233242988586426,2.381272452887576,2.0776852273054645,5.958133110964999,0.8343109979252868,0.0,0.19365033310227076,0.1,0.0045778751373291016,0.08132004737854004,0.04959082,0.7731882,2.47868630180078,0.0,0.03178712972853427,0.0,300,0.027631521224975586,0.607275438304446,0.5418848395284835,46800,7.091169668750776,0.0
156,2.5353684425354004,3.1257299556688602,1.56887100093972,5.676758724465795,1.4039712274880531,0.0,0.2123183773260822,0.1,0.0037965774536132812,0.09749174118041992,0.05090586,0.6831531,2.5433906671875883,0.0,0.04159986543459533,0.0,300,0.020258426666259766,0.2693003437539217,0.2798926493210218,47100,9.13391415892734,0.0
157,1.9240353107452393,2.6523634132903284,2.1159875968747737,6.101199217278252,0.5612157707656705,0.0,0.17640262624689015,0.1,0.0034418106079101562,0.07045650482177734,0.049800385,0.97150004,2.5542879417978623,0.0,0.035441534589966545,0.0,300,0.025145292282104492,0.4241489531429793,0.4130773973381839,47400,9.09722780414468,0.0
158,1.8380553722381592,1.1946391340184501,0.6195590848732415,2.1221694130372915,0.6108204139989997,0.0,0.1955050419098898,0.1,0.00514984130859375,0.09694862365722656,0.04982954,0.60771406,2.418323061019921,0.0,0.015944356808274735,0.0,300,0.06794309616088867,2.0930227517888667,1.073050495621235,47700,7.902327646982438,0.0
159,1.8924925327301025,2.8135098853597946,0.8567516150425091,4.092562609141337,1.7061583938647775,0.0,0.18480914845792776,0.1,0.004162311553955078,0.07131338119506836,0.050105363,0.65140057,2.4578417434539084,0.0,0.03750447895153969,0.0,300,0.03427577018737793,0.18445347320687838,0.23408595600906024,48000,4.6457293467608105,0.0
160,1.971297025680542,4.321646688697201,2.455666798765139,7.575182556434774,0.7307320014661096,0.0,0.1893063692943468,0.1,0.0034449100494384766,0.07558441162109375,0.05057579,0.6611645,2.644222237978238,0.0,0.05749001510571426,0.0,300,0.05407834053039551,0.5617626104818634,0.47613348684025614,48300,5.219847582040268,0.0
161,1.9511466026306152,2.978346631890563,2.485835149408131,6.802236359250772,0.7242258766421152,0.0,0.17626580573336947,0.1,0.01707935333251953,0.08063006401062012,0.05000148,0.9614284,2.677634677369471,0.0,0.039764352972791156,0.0,300,0.028446674346923828,0.49774004432706753,0.4529895494456458,48600,8.808696706273377,0.0
162,1.973823070526123,2.6182817223228367,1.0931003109888606,3.8111111863813183,1.0867259208888593,0.0,0.1852085786336354,0.1,0.0036840438842773438,0.1165015697479248,0.05004539,0.6007519,2.6716993818648076,0.0,0.03481757104716668,0.0,300,0.03605842590332031,0.2250489889605535,0.26032132804158875,48900,6.733103125662542,0.0
163,2.0336592197418213,4.739030500664752,1.9926706315930376,7.565916601913209,1.9311120234699237,0.0,0.18340249562063585,0.1,0.0765385627746582,0.08303403854370117,0.050357394,0.742748,2.8784324937448025,0.0,0.06315804929647295,0.0,300,0.024851322174072266,0.2756356732419875,0.24332842901541102,49200,5.975797157837383,0.0
164,1.9361746311187744,3.7512742516325064,1.7382782402696437,6.5423064064599625,1.8808725081871651,0.0,0.19514767890466908,0.1,0.003949403762817383,0.07704806327819824,0.050330058,0.7421636,2.965716669533573,0.0,0.04967660328031454,0.0,300,0.025256872177124023,0.21216408817518811,0.2143521237864388,49500,7.374839857218164,0.0
165,1.9657926559448242,3.959406174521869,1.8690163793864223,6.881441345567095,2.0484317791796194,0.0,0.20737364426242805,0.1,0.00482630729675293,1.3739807605743408,0.049578246,0.6437228,3.065085620032403,0.0,0.052756048321458734,0.0,300,0.020910263061523438,0.2832286763344058,0.271602970708652,49800,5.988954697637027,0.0
166,1.9795637130737305,3.5536741776471423,2.4897962667091162,7.421950298140354,0.6596843156960234,0.0,0.19632907084933188,0.1,0.015591144561767578,0.07521462440490723,0.05015842,0.74235857,3.113944475793877,0.0,0.04734271767849205,0.0,300,0.02573370933532715,0.37812635624300894,0.35154665389201906,50100,8.539655279861842,0.0
167,1.914226770401001,2.393337149576944,1.0102594492890027,3.8810985650328065,1.430250163313746,0.0,0.17065568106078619,0.1,0.0036525726318359375,0.0714271068572998,0.05023928,0.5817675,3.0418837431721837,0.0,0.03198433699573857,0.0,300,0.08653783798217773,0.42665158840580536,0.22947831636073548,50400,6.178672736316424,0.0
168,1.8075149059295654,3.773426955668441,1.7723525717696442,5.906379599708642,1.2074402326963767,0.0,0.19067525189779952,0.1,0.0033295154571533203,0.06885623931884766,0.049607616,0.60159415,3.1150380644218094,0.0,0.050191441667222864,0.0,300,0.025058269500732422,0.30054815058087203,0.31562687161347264,50700,8.803758776200896,0.0
169,1.8636620044708252,6.305654481388906,3.140101343720764,10.657576225976136,1.988447086014601,0.0,0.19245324898379404,0.1,0.003200054168701172,0.06310248374938965,0.05009232,0.7406629,3.4340997061185194,0.0,0.08363048271358367,0.0,300,0.026618480682373047,0.466414344881429,0.31810155539483964,51000,10.188083165032523,0.0
170,1.7889199256896973,2.2157939374062297,1.2000478588576133,3.4957753041779873,0.42918574416496863,0.0,0.18531463728796163,0.1,0.006350040435791016,0.06950616836547852,0.050070208,0.5032422,3.3122691292472903,0.0,0.02958172064068011,0.0,300,0.03153729438781738,0.6249916344768827,0.9573274901125373,51300,9.052642586921111,0.0
171,1.8120288848876953,3.8595609798016888,2.2134299120090293,6.426547588575512,1.5216933414097211,0.0,0.18957234725830271,0.1,0.007082223892211914,0.08824849128723145,0.049732827,0.61762094,3.36699831430273,0.0,0.051224995643529225,0.0,300,0.030461549758911133,0.42947175229135776,0.3393930537538229,51600,9.335164105567106,0.0
172,1.796593427658081,2.047315449029611,0.9799294741914935,3.0799750531346626,0.685867061244649,0.0,0.18853590264768016,0.1,0.003192424774169922,0.06955885887145996,0.04992098,0.5751367,3.2350300277754185,0.0,0.027238944258823325,0.0,300,0.020023107528686523,1.0797284126209565,0.43417000165709063,51900,8.324786371875033,0.0
173,1.8168048858642578,2.05432315191336,0.6277371111776321,2.7571493677960115,1.1512091184931537,0.0,0.18895446988859785,0.1,0.004683971405029297,0.07298088073730469,0.049686525,0.6371389,3.1169593401892124,0.0,0.027290196030909153,0.0,300,0.021915674209594727,0.3299405203860896,0.11938742735645835,52200,5.749352578069015,0.0
174,1.7802822589874268,3.9644129609313365,2.346179389330428,6.4333516916413505,1.5226801758600734,0.0,0.1847688977475974,0.1,0.0030930042266845703,0.0643317699432373,0.05040451,0.7549022,3.201704702263425,0.0,0.052781287539716344,0.0,300,0.019072532653808594,0.5297745708856303,0.5266827105360968,52500,5.408529117123188,0.0
175,1.8294758796691895,2.793002116645636,1.2392562027416838,4.872032645033153,1.6473425745039585,0.0,0.17202660223395932,0.1,0.009164094924926758,0.07270026206970215,0.048859924,1.3757999,3.1608344437016465,0.0,0.03715558350234922,0.0,300,0.026137590408325195,0.2692480886516221,0.22617832763137577,52800,4.070121036838174,0.0
176,1.8415648937225342,4.9276611558477,3.8377930254799653,9.599903753818966,0.9723452208832964,0.0,0.17382184470541992,0.1,0.004153013229370117,0.07476592063903809,0.049511716,1.0529611,3.3375171149162517,0.0,0.065660114954535,0.0,300,0.05637073516845703,0.5754943285085273,0.4899682214972886,53100,3.532189312863938,0.0
177,1.834043025970459,3.249698191523786,2.301680439189867,6.856478585752555,0.5989870046397298,0.0,0.18052929285379635,0.1,0.0033164024353027344,0.07541584968566895,0.049067378,0.90478706,3.3287352225770053,0.0,0.043320571722,0.0,300,0.019646167755126953,0.3648154090553408,0.3960518338591212,53400,4.78864738111279,0.0
178,1.864142894744873,2.4203600870771917,1.835692036611219,4.515668050406705,0.552277670063054,0.0,0.18577050781430884,0.1,0.06406068801879883,0.0689859390258789,0.04939147,0.56905806,3.237897709027024,0.0,0.0321694936266394,0.0,300,0.02455878257751465,0.6458544562376859,0.563552693935873,53700,3.3065820001960637,0.0
179,1.8614997863769531,2.397975503053919,1.3002303459236464,4.52105298785639,1.117110242749027,0.0,0.17679966848946696,0.1,0.0033338069915771484,0.06881237030029297,0.050084632,0.92967355,3.1539054884297135,0.0,0.0318257157222578,0.0,300,0.026721477508544922,0.4592799463375764,0.29307954710086576,54000,4.591710003125846,0.0
180,1.8608591556549072,3.3974832772817187,1.98242370056977,5.617095672601416,0.841597103622209,0.0,0.17782765167021966,0.1,0.0034232139587402344,0.06708192825317383,0.050336674,0.7397553,3.178263267314914,0.0,0.045012255810159746,0.0,300,0.023450374603271484,0.29860191703266636,0.31993947223932967,54300,5.803458132215897,0.0
181,1.905430793762207,3.0163466227171374,2.2799745310102604,6.273619329739229,0.61548667834007,0.0,0.17260720358215037,0.1,0.004937648773193359,0.07046079635620117,0.050022483,0.8649547,3.1620716028551366,0.0,0.040210580947306875,0.0,300,0.028355121612548828,0.4435494007600279,0.4428925271348169,54600,4.195025682273403,0.0
182,1.9383175373077393,4.262959178827155,2.7977906280737637,8.506714892321245,1.4268162495446952,0.0,0.18631378585761543,0.1,0.0034456253051757812,0.07465815544128418,0.050278176,0.83381915,3.2721603604523386,0.0,0.05679824025952159,0.0,300,0.02056717872619629,0.46965552712254177,0.43012667474433636,54900,2.607505119408587,0.0
183,1.8991022109985352,3.873191407555901,0.7952637068558679,4.629350166850836,2.572377223947813,0.0,0.17798163198024056,0.1,0.004153251647949219,0.09008026123046875,0.050546758,0.8144047,3.332263465162695,0.0,0.05156599667544456,0.0,300,0.029027223587036133,0.11208529280419034,0.07347905825548887,55200,2.3972137801164064,0.0
184,1.971208095550537,3.9470289428079846,2.6379952892793272,7.016480837509455,1.034979575626555,0.0,0.19159979663297133,0.1,0.006584882736206055,0.07382369041442871,0.049822457,0.57123274,3.393740012927224,0.0,0.05251244182736399,0.0,300,0.031240224838256836,0.3457887084768176,0.32737693528398304,55500,2.319861314814632,0.0
185,1.9465327262878418,3.0998280269012666,2.4451490773086664,6.028311502466883,0.5723696395004754,0.0,0.17130006579196252,0.1,0.006786346435546875,0.08866715431213379,0.049456812,0.56490886,3.3643488143246283,0.0,0.04132622078220225,0.0,300,0.03026270866394043,0.4418306874708068,0.4452066289582671,55800,2.867340988930794,0.0
186,1.8592925071716309,4.332196813074367,2.1581482132047194,7.408921124547758,1.8140863007137582,0.0,0.18807003108347461,0.1,0.00534820556640625,0.09721541404724121,0.04983377,0.5594244,3.4611336141996025,0.0,0.057672559953226114,0.0,300,0.027241945266723633,0.30968703702536904,0.30624995388096027,56100,1.9626017285016746,0.0
187,1.826911449432373,3.1325551774360187,1.2898495970807742,5.2669659483351,1.8048133231805048,0.0,0.19557918144989406,0.1,0.003618478775024414,0.07486796379089355,0.04994361,0.5623963,3.4282757705232445,0.0,0.04156399731096844,0.0,300,0.02099442481994629,0.2938652539016718,0.24287547383730104,56400,2.4748881362762556,0.0
188,1.8888180255889893,3.260762729779758,0.7214565411644761,3.8202061425674816,2.046272125158493,0.0,0.19458298367520455,0.1,0.003477811813354492,0.14768028259277344,0.049453437,0.5996571,3.411524466448896,0.0,0.04335830287405803,0.0,300,0.0840451717376709,0.130044281196427,0.09726716989843123,56700,5.975500256224346,0.0
189,1.856992244720459,4.175919843336445,2.5878009209523287,7.602484330708682,1.026878685026029,0.0,0.18138889553830267,0.1,0.0034279823303222656,0.07038235664367676,0.04995326,1.3089201,3.487964004137651,0.0,0.05567113772497942,0.0,300,0.02071356773376465,0.32563710784324257,0.3262413540423992,57000,4.804182377538806,0.0
190,1.8016443252563477,3.864641804318838,1.1388273605598904,5.312938395871202,2.584742654068229,0.0,0.18136631844530127,0.1,0.003244161605834961,0.06379055976867676,0.049069952,0.67112875,3.52563178415577,0.0,0.05110669177119728,0.0,300,0.022186279296875,0.1389903471197811,0.12336947050791894,57300,3.03940780923917,0.0
191,1.8419289588928223,3.5140800671353665,1.3217041987014948,5.622868035046976,2.092069947619048,0.0,0.18883335642834626,0.1,0.003860950469970703,0.07525801658630371,0.049438916,0.65659136,3.5244766124537295,0.0,0.04674840357303797,0.0,300,0.022153377532958984,0.16129610085632543,0.16287344659557842,57600,3.3139372587818685,0.0
192,1.8814795017242432,3.715877909363238,1.9657095335103913,6.278500027334139,0.9113310712160776,0.0,0.18760496699148638,0.1,0.003396272659301758,0.07163166999816895,0.049504012,0.65661365,3.5436167421446805,0.0,0.04934847297075353,0.0,300,0.020494461059570312,0.23330977168500452,0.22552124645816723,57900,2.9566620364455587,0.0
193,1.8104398250579834,2.498153680465906,1.3171556977826784,4.594326170708129,1.1785190428248455,0.0,0.17877644360079253,0.1,0.013382434844970703,0.06810688972473145,0.05012225,0.5797192,3.4390704359768027,0.0,0.03313588158595572,0.0,300,0.024562597274780273,0.45177943887564037,0.3521712881911084,58200,2.4327554377638836,0.0
194,1.9979450702667236,3.201272604054564,2.2637072019565028,7.112693834956993,1.7170860244439596,0.0,0.18757325394152788,0.1,0.0034775733947753906,0.08494234085083008,0.049817726,0.7431491,3.415290652784579,0.0,0.04260929468735354,0.0,300,0.025656461715698242,0.38721158810936424,0.3878098662642252,58500,2.802449156919018,0.0
195,1.9983696937561035,3.7388875394973953,2.1136046516002938,6.7693506375919394,1.451972628193304,0.0,0.1874798765443467,0.1,0.003295421600341797,0.07484221458435059,0.049245954,0.7139914,3.447650341455861,0.0,0.04984086820803191,0.0,300,0.02635979652404785,0.2899215331255909,0.28302519120585595,58800,2.087572641330511,0.0
196,2.0299198627471924,3.222929526290709,2.7028816095347,7.758106768751128,0.6177775446440812,0.0,0.1757507914711053,0.1,0.0037059783935546875,0.07806277275085449,0.05021074,1.0470325,3.4251782599393454,0.0,0.04301781292480967,0.0,300,0.024430036544799805,0.4512701167785834,0.44854193235655393,59100,1.9945549220411394,0.0
197,1.9760713577270508,2.9220374517798353,1.494928896727911,5.2284847202669456,1.0599308366865126,0.0,0.18223979501343138,0.1,0.004117488861083984,0.07907533645629883,0.049590923,0.8379764,3.3748641791233944,0.0,0.038901310227179645,0.0,300,0.024517059326171875,0.25695516852029715,0.2568273476662796,59400,1.6964749724642418,0.0
198,2.008894920349121,1.641406822212699,0.5999783297029346,2.1312371195633144,0.6526823917307717,0.0,0.16712925429643363,0.1,0.0038514137268066406,0.12499260902404785,0.048857383,0.9391321,3.2015184434323247,0.0,0.02176507010494324,0.0,300,0.03885054588317871,1.2255638264421764,0.7643814792696145,59700,1.4456292388889833,0.0
199,2.015110731124878,3.2835853862103885,1.4550657596754955,5.598094408404345,1.7233158881435267,0.0,0.17070363274744912,0.1,0.003191232681274414,0.0727541446685791,0.049984697,1.383221,3.2097251377101315,0.0,0.043814445717264894,0.0,300,0.0228729248046875,0.21817357188189995,0.24031088500664924,60000,2.625715091302058,0.0
200,2.0376222133636475,1.7695986076582453,1.4726813575498465,4.289619325926399,0.6194515254606299,0.0,0.17621895621918002,0.1,0.0034329891204833984,0.07103872299194336,0.050300587,1.0204479,3.065712484704943,0.0,0.02354248579767963,0.0,300,0.02741241455078125,0.673639106627203,0.5567186691919235,60300,3.1544818713855336,0.0
201,2.00337815284729,4.248118622019062,1.3934141088541259,6.6088140405372595,2.998769447067217,0.0,0.17341421496987997,0.1,0.004023551940917969,0.15533804893493652,0.04993344,1.0794786,3.183953098436355,0.0,0.05659956517301566,0.0,300,0.03355073928833008,0.32404829748617064,0.2957155880312241,60600,2.4561869085181383,0.0
202,2.038954496383667,4.052955459571917,2.0608059487348656,6.470024152509874,1.3640345462448775,0.0,0.19209442429769674,0.1,0.005107402801513672,0.12688136100769043,0.049927894,0.6822069,3.270853334549911,0.0,0.053680484505704534,0.0,300,0.028509855270385742,0.38496433037421723,0.2855298685588191,60900,3.017965509772575,0.0
