iteration,time_sampling,stoc_pol_mean,stoc_pol_std,stoc_pol_max,stoc_pol_min,rollout_success,alpha,delta,time_vpg,time_npg,kl_dist,surr_improvement,running_score,rwd_sparse,rwd_dense,success_percentage,num_samples,time_VF,VF_error_before,VF_error_after,env_samples,eval_score,eval_success
0,1.3667981624603271,0.01661092904542593,0.007003311334788621,0.02682120762671997,0.007092214163746479,0.0,0.13411257373147956,0.1,0.05119156837463379,0.056151390075683594,0.05311016,1.8874153,0.01661092904542593,0.0,0.000329723113187126,0.0,200,0.03868818283081055,13.444427321716397,4.602644743858931,200,0.016597269370114857,0.0
1,1.135814905166626,0.018382557287288902,0.006949178704396568,0.028603282713935415,0.009885621551776391,0.0,0.13780288905281404,0.1,0.0027229785919189453,0.05256509780883789,0.05390116,1.3389462,0.016788091869612227,0.0,0.00035515195962774543,0.0,200,0.01429128646850586,3.5972753360392344,0.45204584980259394,400,0.016071570406835572,0.0
2,1.1612513065338135,0.010088138616064248,0.003917840899647933,0.014781127299533627,0.004117900485477091,0.0,0.146032789943366,0.1,0.0026841163635253906,0.05156302452087402,0.052564554,1.2424656,0.01611809654425743,0.0,0.0002014887686306951,0.0,200,0.014791488647460938,1.077487410696125,4.383744435027983,600,0.010221961165562387,0.0
3,1.1513102054595947,0.020938541601783517,0.01708793069998401,0.04830934378670569,0.00213717536496058,0.0,0.14257161941787655,0.1,0.0026297569274902344,0.05225872993469238,0.050061345,1.0543437,0.016600141050010037,0.0,0.00041770186085736166,0.0,200,0.014147281646728516,1.688668039459514,0.5821861978241911,800,0.012267550815100973,0.0
4,1.2809932231903076,0.02550575727299583,0.011175971846938445,0.039236464590814854,0.00858910423681548,0.0,0.14030419431119756,0.1,0.09418153762817383,0.5105912685394287,0.051993273,1.3094778,0.017490702672308615,0.0,0.0005090044060511358,0.0,200,0.016589879989624023,0.444776699237688,0.693348553617381,1000,0.01815156611972951,0.0
5,1.1569571495056152,0.030447197509495927,0.014803618376736714,0.05247490750101275,0.010990783790008401,0.0,0.1399294440134139,0.1,0.003490447998046875,0.054190874099731445,0.052334648,1.156509,0.018786352156027347,0.0,0.0005962659765640392,0.0,200,0.013742208480834961,0.5032653949615431,0.49056055094833106,1200,0.0190549322247445,0.0
6,1.1787257194519043,0.029465252173837966,0.025942244238681172,0.07210517235382463,0.007958351581497079,0.0,0.13988541084376432,0.1,0.0027103424072265625,0.05300426483154297,0.05393165,1.7402725,0.01985424215780841,0.0,0.0005878564807018163,0.0,200,0.015305519104003906,0.6510084434893046,0.5626265416359866,1400,0.027909414886698018,0.0
7,1.182865858078003,0.019981806153893125,0.01928072149337684,0.052527907331664854,0.0028214618456562355,0.0,0.13567391689104177,0.1,0.0026702880859375,0.05185437202453613,0.051974665,1.7629447,0.01986699855741688,0.0,0.0003967104078006905,0.0,200,0.013577699661254883,0.608521429990907,0.5814226065861758,1600,0.034329202990033676,0.0
8,1.3077819347381592,0.03814622289411481,0.04961104168035406,0.12353882387457857,0.003469443935354856,0.0,0.13083133161271754,0.1,0.0026025772094726562,0.055034637451171875,0.05062487,1.8077481,0.021694920991086674,0.0,0.0007543433143620235,0.0,200,0.014106512069702148,0.813545266582365,0.7184916705309287,1800,0.05425350761705903,0.0
9,1.1713390350341797,0.044737389522605614,0.045076759410084356,0.12091020667312732,0.010113361584958222,0.0,0.13353076193911093,0.1,0.003795146942138672,0.053246259689331055,0.050012473,1.9266783,0.02399916784423857,0.0,0.0008914036660370375,0.0,200,0.01458597183227539,0.6325273715299256,0.5684714996069746,2000,0.0555205419831426,0.0
10,1.1566381454467773,0.04305117384162356,0.04782920104916088,0.12333887254465845,0.0018481552352761373,0.0,0.13092508702879885,0.1,0.09381270408630371,0.45976877212524414,0.04990935,2.352925,0.025904368443977067,0.0,0.0008610207778929674,0.0,200,0.015422344207763672,0.6641747120281937,0.6520406619260664,2200,0.06180400718178713,0.0
11,1.2004797458648682,0.057103373374483485,0.054923981132512185,0.14873299878949728,0.004865215940893906,0.0,0.13347826217060701,0.1,0.003062725067138672,0.05313587188720703,0.050441604,1.8775116,0.02902426893702771,0.0,0.0011331982124788537,0.0,200,0.014327526092529297,0.5813239163113213,0.5752358952813409,2400,0.06622509896129615,0.0
12,1.2055683135986328,0.036283441641831546,0.01939712710602016,0.06875205235392935,0.017550288611463995,0.0,0.1352271686537325,0.1,0.0027930736541748047,0.05529642105102539,0.049391378,1.4128293,0.029750186207508095,0.0,0.0007178013013830536,0.0,200,0.016153335571289062,0.4786181569913069,0.32150234898117674,2600,0.07737769470811261,0.0
13,1.233039140701294,0.045421854343657704,0.052125510092911984,0.13349246173431073,0.005727397145240548,0.0,0.13095706903686313,0.1,0.0026845932006835938,0.05282926559448242,0.04972951,1.8859814,0.03131735302112306,0.0,0.0009079338215994417,0.0,200,0.015540122985839844,0.6737454296736841,0.6741155433678312,2800,0.10556118313678707,0.0
14,1.2084839344024658,0.07723552938621131,0.06982330736955702,0.19779425475395965,0.02887411811709973,0.0,0.12290502748666438,0.1,0.002726316452026367,0.05284309387207031,0.05165517,3.28531,0.03590917065763189,0.0,0.0015432899615462911,0.0,200,0.013663291931152344,0.678729210481255,0.5302457803993249,3000,0.1301520017306172,0.0
15,1.2129549980163574,0.03502313772969737,0.0185902845503452,0.0664020175061328,0.017799190767751185,0.0,0.12697930492321993,0.1,0.0026788711547851562,0.05231142044067383,0.049602747,1.3165686,0.03582056736483844,0.0,0.0006854450109808601,0.0,200,0.013622045516967773,0.9578990905755828,0.9403984335242003,3200,0.14648637257418157,0.0
16,1.2063939571380615,0.06837008673207179,0.03914744470863913,0.13235459009374642,0.03035629218164665,0.0,0.13322044314900425,0.1,0.0027980804443359375,0.05238509178161621,0.049841534,1.152108,0.03907551930156178,0.0,0.0013072113846482188,0.0,200,0.013700008392333984,0.3374656062210164,0.33700019191160424,3400,0.2079982846210172,0.0
17,1.2136132717132568,0.0585619198141069,0.028833494306869142,0.09321096429329809,0.0240517039205246,0.0,0.13142685937829185,0.1,0.0026178359985351562,0.05869436264038086,0.050083894,1.7470819,0.041024159352816295,0.0,0.0011620543257723375,0.0,200,0.013454437255859375,0.32484454779122857,0.3237259487609239,3600,0.19316639720582338,0.0
18,1.236588478088379,0.09457312788821112,0.057277555015830074,0.15118208700259095,0.008585725329802674,0.0,0.1242539163398218,0.1,0.002621889114379883,0.0556330680847168,0.050650712,1.355248,0.04637905620635578,0.0,0.0018904866995217808,0.0,200,0.013586282730102539,0.4274051734102845,0.3768308408274136,3800,0.17865489880056554,0.0
19,1.277601718902588,0.08118380943800177,0.05186968265995032,0.16240636507986275,0.025507667681008248,0.0,0.1252672726396225,0.1,0.0027027130126953125,0.051774024963378906,0.05047141,1.4651233,0.049859531529520384,0.0,0.0016168558809122138,0.0,200,0.014032602310180664,0.3426621527664067,0.3465517425618947,4000,0.13998353527591753,0.0
20,1.265566349029541,0.08728292288065935,0.06935869500821987,0.1873742899410571,0.00893963195018455,0.0,0.12806057296997247,0.1,0.002742767333984375,0.05217123031616211,0.051168375,1.5355374,0.05360187066463429,0.0,0.0017443118220045203,0.0,200,0.013933420181274414,0.4812627567745052,0.472565555683901,4200,0.14589448827378676,0.0
21,1.2750422954559326,0.08870962700222676,0.05283497693251736,0.16739180273445056,0.018975323111508298,0.0,0.13835344365509306,0.1,0.002610445022583008,0.051796913146972656,0.05000626,1.0876878,0.057112646298393535,0.0,0.001761584472779791,0.0,200,0.013837099075317383,0.3558047240231495,0.33717303228109496,4400,0.1545209197418311,0.0
22,1.2614197731018066,0.1473141987590815,0.12881499855989173,0.337979749400854,0.01285525016834922,0.0,0.12631871541867107,0.1,0.002670764923095703,0.052947044372558594,0.04898109,1.7666564,0.06613280154446233,0.0,0.002941475012241503,0.0,200,0.013376712799072266,0.5718118258610857,0.496428095724316,4600,0.17295777560986877,0.0
23,1.172619342803955,0.06822418694126575,0.023112499499304738,0.09219944749187514,0.03129919116215784,0.0,0.1357866586353303,0.1,0.0028007030487060547,0.05372285842895508,0.05013732,0.86580193,0.06634194008414267,0.0,0.0013571078525429128,0.0,200,0.013933897018432617,0.9758240643624677,0.4295947536161479,4800,0.1920386945915805,0.0
24,1.200974941253662,0.1518433981864719,0.08670127239966854,0.26898596544165865,0.050957400202962945,0.0,0.12473049625497855,0.1,0.002933502197265625,0.05337715148925781,0.04928412,1.4795381,0.0748920858943756,0.0,0.0029835477471476697,0.0,200,0.014685630798339844,0.4686487840394198,0.429757775017285,5000,0.1313742020126065,0.0
25,1.2401227951049805,0.05455139445890728,0.0036799372336390433,0.06049595797063556,0.050429134084833814,0.0,0.12813693944176185,0.1,0.0027937889099121094,0.0561676025390625,0.04958115,1.8075827,0.07285801675082877,0.0,0.0010547886906631101,0.0,200,0.014779329299926758,1.0486507645943217,0.6711082619353649,5200,0.13183648655046779,0.0
26,1.2332227230072021,0.050516104498747584,0.03929502240425889,0.11304212945309357,0.011614949131382616,0.0,0.12826808487490282,0.1,0.002791881561279297,0.05297493934631348,0.04957826,1.59218,0.07062382552562066,0.0,0.0010084102548017426,0.0,200,0.013739347457885742,0.9453232179211188,0.4918458287045892,5400,0.1289567305308523,0.0
27,1.2353296279907227,0.05426545538285959,0.04626898458234547,0.13079027741109894,0.015604651286587825,0.0,0.1215386647526347,0.1,0.002817392349243164,0.05560874938964844,0.049352527,2.562109,0.06898798851134456,0.0,0.0010851225045659212,0.0,200,0.015096902847290039,0.49563459018138917,0.5877333311308015,5600,0.17465135629571985,0.0
28,1.2211940288543701,0.07293945430926736,0.046822363602859726,0.148410685283964,0.026163507464658193,0.0,0.12779304798809887,0.1,0.002756357192993164,0.0541994571685791,0.049391888,1.5915297,0.06938313509113685,0.0,0.0014543504143604375,0.0,200,0.013844728469848633,0.573552443332097,0.5304142066411217,5800,0.27041326573853386,0.0
29,1.2448363304138184,0.18320314325294218,0.2500743871700544,0.6138943978940553,0.005817140459533886,0.0,0.12381849179177983,0.1,0.0050051212310791016,0.051486968994140625,0.049987957,2.2632833,0.08076513590731738,0.0,0.0036053025980915653,0.0,200,0.014021158218383789,0.8943799288661345,0.7869044876569526,6000,0.22697690227895842,0.0
30,1.237696886062622,0.16422983115663828,0.0889359507404489,0.25685137769939154,0.0211942527279126,0.0,0.13105286608473896,0.1,0.0025959014892578125,0.05324864387512207,0.05022044,0.95517886,0.08911160543224947,0.0,0.0032825155685682183,0.0,200,0.013322830200195312,0.4993553861815868,0.37493854310197733,6200,0.6927632260567486,0.0
31,1.2384510040283203,0.09913892562293714,0.06870017745224548,0.1883481318106672,0.016963065743587486,0.0,0.1281467218881822,0.1,0.0026140213012695312,0.051506996154785156,0.05015072,1.0623511,0.09011433745131825,0.0,0.001978605808297516,0.0,200,0.013723611831665039,0.6954624833018423,0.787143642714059,6400,0.6340491624368862,0.0
32,1.2411444187164307,0.07861172178539089,0.033059166519670696,0.1354684655009535,0.05354594058915119,0.0,0.130068890280272,0.1,0.0026466846466064453,0.052474021911621094,0.049574718,1.0636511,0.08896407588472552,0.0,0.0015367312882757173,0.0,200,0.01429605484008789,1.4826471431349335,0.6125225176311819,6600,0.47024099609035463,0.0
33,1.2731292247772217,0.21518746628598812,0.08571981816946725,0.30467617141571174,0.074826615083378,0.0,0.12852522009330491,0.1,0.0026922225952148438,0.05215334892272949,0.049981583,0.74872106,0.10158641492485179,0.0,0.004296259580362682,0.0,200,0.01342630386352539,0.38580592657342105,0.4201830073555002,6800,0.16357920276791846,0.0
34,1.3038196563720703,0.14001755477077005,0.14872201197305016,0.39390787715522946,0.01758860320198473,0.0,0.11984552158590188,0.1,0.002930164337158203,0.05253791809082031,0.048712336,2.3384333,0.10542952890944363,0.0,0.002751991561127564,0.0,200,0.013764381408691406,0.630246614699488,0.6191967724054609,7000,0.15551758028794954,0.0
35,1.272385597229004,0.15311669567243907,0.1367268297091959,0.38780079087155656,0.05876438677038059,0.0,0.12613217907112187,0.1,0.00269317626953125,0.05159759521484375,0.049350094,2.2633567,0.11019824558574318,0.0,0.002970679566959743,0.0,200,0.013632059097290039,0.5152942002815653,0.4887751754663115,7200,0.16826694563561193,0.0
36,1.2683594226837158,0.12005474954069925,0.12786256527582035,0.33819230816049123,0.023214608595897183,0.0,0.116510963017751,0.1,0.0029654502868652344,0.052564144134521484,0.0492586,3.1706738,0.11118389598123879,0.0,0.0023203755065309287,0.0,200,0.01346135139465332,0.5951894946305187,0.5955593987474427,7400,0.13905605581793815,0.0
37,1.3487470149993896,0.056701043319242084,0.020911532308347705,0.08202405276619194,0.023844717103329114,0.0,0.13030267907143023,0.1,0.0027582645416259766,0.05221223831176758,0.050346687,0.9436081,0.10573561071503912,0.0,0.0011326419680225514,0.0,200,0.013094902038574219,3.23681466894029,1.7722371049791865,7600,0.13668354392606033,0.0
38,1.2725012302398682,0.2119717728924141,0.09095663727114031,0.34074627444442407,0.09523600152548914,0.0,0.12048459277747874,0.1,0.004488468170166016,0.052228450775146484,0.049759384,1.4198192,0.11635922693277662,0.0,0.004191880726352501,0.0,200,0.013058185577392578,0.3779830417300572,0.3927552297709995,7800,0.22528499749314254,0.0
39,1.2125136852264404,0.1340219885639064,0.14358985277936537,0.3742743034355468,0.018771390462570172,0.0,0.12736134681692146,0.1,0.002874135971069336,0.052953481674194336,0.04887624,1.6179041,0.1181255030958896,0.0,0.0026115426355904714,0.0,200,0.013478994369506836,0.5862220166867954,0.5734104341146907,8000,0.15951829761660363,0.0
40,1.2275242805480957,0.08183486334466031,0.04905973105505904,0.1299384096878143,0.009901363704287049,0.0,0.13064431711573593,0.1,0.002763986587524414,0.05286812782287598,0.049886256,1.2483107,0.11449643912076667,0.0,0.0016119509543478289,0.0,200,0.014081716537475586,0.7171246125088127,0.6087250932480371,8200,0.1371855942805784,0.0
41,1.2491047382354736,0.17297438878906835,0.0430324859069176,0.2454366409129914,0.1326851872156718,0.0,0.12656906281939417,0.1,0.0030438899993896484,0.052176475524902344,0.050167136,1.4401273,0.12034423408759684,0.0,0.003418206974357209,0.0,200,0.01461338996887207,0.21888134250145733,0.2151231805650238,8400,0.1463074659883828,0.0
42,1.2490074634552002,0.11731558713433571,0.05359558435291342,0.18479833009386723,0.05233639784362476,0.0,0.13185952392010586,0.1,0.0027801990509033203,0.052748918533325195,0.04994088,1.0541716,0.12004136939227072,0.0,0.002335223392517042,0.0,200,0.013704299926757812,0.26209439518550315,0.25619955821992774,8600,0.169688898321788,0.0
43,1.2822203636169434,0.13589925825921775,0.054995560186005404,0.20926419014913208,0.06330457215840665,0.0,0.1230265346093753,0.1,0.002681255340576172,0.05200314521789551,0.05003292,1.3716251,0.12162715827896543,0.0,0.002677099409372503,0.0,200,0.013274431228637695,0.23422529227619276,0.2237653247284421,8800,0.19138551756561603,0.0
44,1.253906011581421,0.24207209605154334,0.13323852066982075,0.44461205846618573,0.07472408677582726,0.0,0.13075920545080255,0.1,0.0027201175689697266,0.05443835258483887,0.050192975,1.4014035,0.13367165205622322,0.0,0.004818418381474371,0.0,200,0.013806581497192383,0.49743529755825905,0.3940126709521321,9000,0.1425367337665273,0.0
45,1.2698650360107422,0.12643386391000555,0.07799066290391558,0.22744432012280852,0.020736407947662783,0.0,0.12341617479605345,0.1,0.002773284912109375,0.051496028900146484,0.04991898,1.4290451,0.13294787324160146,0.0,0.002516274085644278,0.0,200,0.01368260383605957,0.4366449757296799,0.5480371023647623,9200,0.16661228697230768,0.0
46,1.3033034801483154,0.16315837271079486,0.07754840660719758,0.2720776013411843,0.07257380193646537,0.0,0.12544275821473008,0.1,0.0027170181274414062,0.05144524574279785,0.050366033,1.3210132,0.1359689231885208,0.0,0.0032595543254237387,0.0,200,0.012722015380859375,0.2537622485319055,0.24196714906192018,9400,0.1695870196518975,0.0
47,1.2641472816467285,0.1042297249594627,0.0842767348179312,0.24921875352425948,0.04445539516832105,0.0,0.12099524579337334,0.1,0.0026645660400390625,0.05195331573486328,0.049157273,2.434571,0.13279500336561498,0.0,0.0020687426564261553,0.0,200,0.015036821365356445,0.8134026002632887,0.5479526449748983,9600,0.24033803282546642,0.0
48,1.262082576751709,0.20269778741733924,0.0986236503803966,0.3022416378853159,0.059969773922876446,0.0,0.12425546686270786,0.1,0.002626657485961914,0.05137443542480469,0.04970534,1.7187707,0.13978528177078742,0.0,0.004013969237273434,0.0,200,0.014157295227050781,0.30082301261933847,0.3169319116516911,9800,0.8376056886338791,0.0
49,1.2787458896636963,0.10085082548325308,0.05202025635061291,0.18519682967939832,0.05718794464371473,0.0,0.12421150301565717,0.1,0.0034127235412597656,0.05166435241699219,0.05043861,3.0020227,0.13589183614203398,0.0,0.002016017824651212,0.0,200,0.013458251953125,0.47404455319211436,0.420274646895289,10000,0.4453388432975584,0.0
50,1.3046412467956543,0.17545635830957168,0.14014502191501477,0.41200293755292366,0.07005860256175372,0.0,0.10790189967837766,0.1,0.0036420822143554688,0.05476260185241699,0.048509654,4.3458433,0.13984828835878776,0.0,0.0033846834519685406,0.0,200,0.013263702392578125,0.5324137676788608,0.49629020802200224,10200,0.5693504398921848,0.0
51,1.2970633506774902,0.15940122586257977,0.07032901900705506,0.23885181490272428,0.058900299184069235,0.0,0.12606228605669298,0.1,0.0027930736541748047,0.05147862434387207,0.049558833,1.2817893,0.141803582109167,0.0,0.003183026552200862,0.0,200,0.013466835021972656,0.2684272182509267,0.26000997656200026,10400,0.4824070009010455,0.0
52,1.330246925354004,0.0785391169448513,0.033066743216308155,0.12133599935257046,0.029484739831899483,0.0,0.12432185987558285,0.1,0.0026700496673583984,0.05196094512939453,0.04981955,1.2305127,0.13547713559273541,0.0,0.00156008457753934,0.0,200,0.012964487075805664,1.5260040227003082,1.1174921269754647,10600,0.44017421159165776,0.0
53,1.3290185928344727,0.12555113461661616,0.05239694636008048,0.1812214100511453,0.05099501309242991,0.0,0.12393593153667294,0.1,0.002691507339477539,0.052486419677734375,0.050043833,1.2275643,0.1344845354951235,0.0,0.0024973067805032453,0.0,200,0.013332605361938477,0.2642385362766216,0.19631671859632657,10800,0.6147190589504561,0.0
54,1.3360595703125,0.2980433843712158,0.16236585391683692,0.5695183757135263,0.15103345613194188,0.0,0.11658245640894087,0.1,0.002681255340576172,0.05263829231262207,0.04911231,2.6065426,0.1508404203827327,0.0,0.005897395584467758,0.0,200,0.013267993927001953,0.554041331764061,0.48841997241280877,11000,0.27997661219577535,0.0
55,1.3464434146881104,0.2409997541059809,0.2394661955030735,0.6500884501438277,0.04318085653970978,0.0,0.11134375396553223,0.1,0.0027589797973632812,0.05214095115661621,0.049498547,4.215831,0.15985635375505752,0.0,0.004790998286516876,0.0,200,0.01362752914428711,0.6293055117970582,0.554160371775664,11200,0.41191507599444027,0.0
56,1.3468742370605469,0.11196867470296927,0.09994920902420268,0.2824781961682307,0.026911185889446392,0.0,0.1141820459223434,0.1,0.002923727035522461,0.05610394477844238,0.04998837,2.725482,0.15506758584984873,0.0,0.0021675915531251654,0.0,200,0.0137481689453125,0.7768004135727176,0.9129055181582382,11400,0.8772507400597322,0.0
57,1.3390545845031738,0.2689425206525985,0.3634469316230205,0.8931501389237828,0.01528125518236657,0.0,0.12237095350441786,0.1,0.002709627151489258,0.051906585693359375,0.04914136,2.022867,0.1664550793301237,0.0,0.005368414712822597,0.0,200,0.016156435012817383,0.6860056451955228,0.6769799536327004,11600,0.15043411346180743,0.0
58,1.2652480602264404,0.18121283488207113,0.14412266306655228,0.42486109959473684,0.07040115148341237,0.0,0.12257676761671107,0.1,0.09325861930847168,0.42765140533447266,0.05053864,2.1272073,0.16793085488531845,0.0,0.0036183718771052916,0.0,200,0.013581275939941406,0.48995699724067615,0.4731056057292945,11800,0.833214005275719,0.0
59,1.2622816562652588,0.12025643669025286,0.043931988033935276,0.17489397601653678,0.060918460652369014,0.0,0.12072842030140694,0.1,0.0027544498443603516,0.05926656723022461,0.05024028,2.6822176,0.1631634130658119,0.0,0.002383987870521357,0.0,200,0.015359640121459961,1.0247659507481712,0.3921291668716301,12000,0.8173559765361386,0.0
60,1.2990715503692627,0.0970125940855864,0.08126816516884354,0.23746930214068834,0.04359243020632632,0.0,0.1117916454293318,0.1,0.0028753280639648438,0.05322527885437012,0.04797163,3.4615014,0.15654833116778935,0.0,0.0019401984002743117,0.0,200,0.013767242431640625,0.7965488894603949,0.5746359590292937,12200,0.44470521440358207,0.0
61,1.2800934314727783,0.15384974851393982,0.051233911412192884,0.20913846301455166,0.0870419012513675,0.0,0.11942140847480225,0.1,0.0028083324432373047,0.053133249282836914,0.0499129,1.2727041,0.1562784729024044,0.0,0.0029965729163875304,0.0,200,0.014133214950561523,0.32848504675856394,0.3527914323282754,12400,0.703058617378218,0.0
62,1.3020648956298828,0.19025745883132195,0.05332319600355107,0.24198646713534186,0.11587036828002782,0.0,0.11543279964625337,0.1,0.0028214454650878906,0.052913665771484375,0.051477462,1.610684,0.15967637149529615,0.0,0.003803604692779624,0.0,200,0.014126300811767578,0.33410933469187387,0.21985893229415573,12600,1.096113671038981,0.0
63,1.3046727180480957,0.33872039982578517,0.14410661436486408,0.4809434807552405,0.12309696838637227,0.0,0.1234807549812977,0.1,0.0026845932006835938,0.05228614807128906,0.049915735,0.981785,0.17758077432834504,0.0,0.006636332904967793,0.0,200,0.014139890670776367,0.5496741895526439,0.39208673118661636,12800,0.914655850429518,0.0
64,1.2772483825683594,0.07741120414611662,0.0459004743478708,0.13797243813899046,0.027174529073393492,0.0,0.11725247037112052,0.1,0.002784252166748047,0.0547327995300293,0.049811486,1.3173757,0.1675638173101222,0.0,0.0015428524922260827,0.0,200,0.014141559600830078,1.5906950658911725,2.481245247742706,13000,0.9329643161394815,0.0
65,1.339463233947754,0.2907463806898903,0.20521367642374483,0.6209160952660022,0.05853004449791674,0.0,0.1124172914646485,0.1,0.002777099609375,0.0531156063079834,0.04962172,2.5990229,0.17988207364809902,0.0,0.005691230598225442,0.0,200,0.01348114013671875,0.4371723866526282,0.42099423972852884,13200,1.4853535291002238,0.0
66,1.308251142501831,0.22937029441158763,0.09978892737641074,0.38779815266994044,0.1282290123928776,0.0,0.1234036454798858,0.1,0.002714395523071289,0.05156874656677246,0.04880217,1.4769603,0.18483089572444789,0.0,0.0045201125848686715,0.0,200,0.013274431228637695,0.21533325442676174,0.2211375127159579,13400,1.3951263695624523,0.0
67,1.340456247329712,0.15416505826923704,0.1110863973185469,0.29499481857248955,0.03004412736970468,0.0,0.1181264736023773,0.1,0.002611875534057617,0.05137133598327637,0.04891408,1.9528573,0.18176431197892678,0.0,0.003055982149818586,0.0,200,0.014074325561523438,0.7281764630706505,0.6222481036056386,13600,1.3941386401727238,0.0
68,1.3401541709899902,0.18823358036427978,0.18005710908657865,0.4833192980632635,0.038604677294187255,0.0,0.12466691584515786,0.1,0.0027513504028320312,0.05233883857727051,0.05043931,1.6535481,0.1824112388174621,0.0,0.003736648329789868,0.0,200,0.013282299041748047,0.5586786065041042,0.53537669374387,13800,1.2702053680411807,0.0
69,1.3376328945159912,0.42808405564784147,0.34147871506136906,0.82921345454475,0.014040825745758748,0.0,0.12407204877052355,0.1,0.0027043819427490234,0.05235624313354492,0.04985857,1.2153676,0.20697852050050006,0.0,0.008267704421799593,0.0,200,0.013342618942260742,0.6022333663414402,0.5513602765835699,14000,0.9181324563110831,0.0
70,1.3836541175842285,0.14061606249114905,0.13143633290291948,0.3643562588907367,0.03330282438099605,0.0,0.1221506740752997,0.1,0.0026361942291259766,0.055117130279541016,0.04942071,1.6199833,0.20034227469956495,0.0,0.0027450777061682223,0.0,200,0.013745546340942383,0.6912185730029407,0.86083210850238,14200,1.0558507958790513,0.0
71,1.3886449337005615,0.33847068178929096,0.26871071893157356,0.7734519137229138,0.03868421897185807,0.0,0.11672990009876621,0.1,0.0026400089263916016,0.05344343185424805,0.049701132,3.2717078,0.21415511540853757,0.0,0.006678149036961603,0.0,200,0.014940738677978516,0.48222184813106633,0.4632201058860933,14400,1.2202821014750815,0.0
72,1.3667588233947754,0.32740113752090266,0.13589609980156223,0.5590564420678621,0.23037522734565635,0.0,0.12584138418899796,0.1,0.002593517303466797,0.05265378952026367,0.049417414,1.2542539,0.2254797176197741,0.0,0.006478896332375346,0.0,200,0.01298069953918457,0.23180095890524358,0.2234987297691982,14600,0.9707155444673372,0.0
73,1.370772361755371,0.19378679358291093,0.16874810506888877,0.4753678482927212,0.028332090721666304,0.0,0.11572495516092397,0.1,0.0026290416717529297,0.05120229721069336,0.049909428,2.3164713,0.2223104252160878,0.0,0.0038082419516042034,0.0,200,0.01387166976928711,0.6885777740887082,0.5809688974039753,14800,0.9620109536464764,0.0
74,1.358607292175293,0.20094309664512489,0.09769670237983874,0.2884075994039954,0.04465735100383831,0.0,0.12223883288125216,0.1,0.002849102020263672,0.052471160888671875,0.04941317,1.0697604,0.22017369235899154,0.0,0.0040109981525981156,0.0,200,0.013215780258178711,0.4910716171131712,0.28754997804844773,15000,0.8585174941642956,0.0
75,1.3148338794708252,0.15545081669888328,0.06384278794230802,0.2637557248203285,0.10298965255631484,0.0,0.12294860626731569,0.1,0.002950429916381836,0.053833961486816406,0.04993228,1.8910363,0.21370140479298072,0.0,0.0031063040487106673,0.0,200,0.013919353485107422,0.5526594722426978,0.26578403915651533,15200,0.9230871432112945,0.0
76,1.3178203105926514,0.3390507938274352,0.2945745260553675,0.8076251729937256,0.07863695696987288,0.0,0.11995494390642061,0.1,0.002852201461791992,0.0552980899810791,0.050256945,2.1547654,0.2262363436964262,0.0,0.006693583340368454,0.0,200,0.013314247131347656,0.6200126341867328,0.6269086825931717,15400,0.7038367613692936,0.0
77,1.3165349960327148,0.18722964766574318,0.21012749544838538,0.5453683519401675,0.011803705574678107,0.0,0.12858062188647318,0.1,0.0027577877044677734,0.0521245002746582,0.050294105,1.6512512,0.2223356740933579,0.0,0.0035944000470892663,0.0,200,0.01370382308959961,0.6291321930499523,0.6055104702785871,15600,0.514620131573145,0.0
78,1.2879951000213623,0.3102260179661076,0.3598455073389228,0.9297947405723536,0.07096565127981393,0.0,0.11917549477321271,0.1,0.0027763843536376953,0.05191659927368164,0.049677696,2.0024781,0.23112470848063285,0.0,0.005966153568811572,0.0,200,0.014756441116333008,0.6876383859819346,0.6615884009810581,15800,1.0016592230687755,0.0
79,1.317392349243164,0.35896569817538293,0.17773385947212253,0.4639376215322279,0.05114542793099916,0.0,0.12267010847601438,0.1,0.002741575241088867,0.05235576629638672,0.04937494,1.0548692,0.24390880745010787,0.0,0.007013927931679037,0.0,200,0.014197826385498047,0.38665704827874975,0.2964223892486824,16000,0.42211882128190475,0.0
80,1.3418817520141602,0.20720981248945514,0.1674230543539525,0.49130938272847696,0.06143829948317047,0.0,0.12927331094174224,0.1,0.0027112960815429688,0.05244159698486328,0.049781088,1.9149814,0.24023890795404262,0.0,0.0040878343306522385,0.0,200,0.013459205627441406,0.5443937387887297,0.6109102592812273,16200,0.31321743625831217,0.0
81,1.392956018447876,0.4277548702595986,0.2479888908697046,0.753283740945356,0.1179873854318423,0.0,0.12132273082812374,0.1,0.0028040409088134766,0.05247926712036133,0.049657255,1.2199275,0.25899050418459824,0.0,0.008528022298203972,0.0,200,0.013237476348876953,0.3431272053971626,0.31935231778155904,16400,0.3675606530786633,0.0
82,1.3359696865081787,0.3953115241220786,0.2738028159289245,0.688223328629754,0.08570461782579099,0.0,0.11553074151536402,0.1,0.0030753612518310547,0.052695512771606445,0.04996408,1.7901971,0.27262260617834627,0.0,0.007895045282738013,0.0,200,0.013984918594360352,0.3893869927684075,0.37025314607249443,16600,0.6667147043941931,0.0
83,1.3355731964111328,0.39904120714310387,0.19084534198549422,0.6842915306691779,0.20112756410744229,0.0,0.10889931385939308,0.1,0.0027201175689697266,0.05163311958312988,0.049780443,2.0850098,0.28526446627482205,0.0,0.007919720542074044,0.0,200,0.013563394546508789,0.2568178077012216,0.25679095507069927,16800,0.8110406352994044,0.0
84,1.4531457424163818,0.3335575776786334,0.2943094276081691,0.838414515619907,0.1098418867100552,0.0,0.1123053294408378,0.1,0.002766132354736328,0.05180478096008301,0.049903326,3.3108997,0.29009377741520315,0.0,0.0065848167133241466,0.0,200,0.013249635696411133,0.47450978485606976,0.4521965473520446,17000,0.9021809554423345,0.0
85,1.3542158603668213,0.36692605888806246,0.17348652979732448,0.5050793110266697,0.07220771410699445,0.0,0.11907206969585983,0.1,0.002735614776611328,0.05427289009094238,0.049327146,0.97015,0.2977770055624891,0.0,0.007314808491977909,0.0,200,0.013032674789428711,0.25942890726906354,0.23428355386437064,17200,1.114691251724224,0.0
86,1.3488237857818604,0.2538651573440176,0.15104843992803635,0.45065294088711605,0.03916946575606163,0.0,0.11889983446251648,0.1,0.002712726593017578,0.05149126052856445,0.049910136,1.2548901,0.29338582074064196,0.0,0.0050690372283396295,0.0,200,0.013235330581665039,0.519749853406507,0.35457177675722007,17400,1.33657161342361,0.0
87,1.3658242225646973,0.2957656544281332,0.12785592202880708,0.4734620744959298,0.1244244274881224,0.0,0.11616050309563151,0.1,0.002625703811645508,0.05177712440490723,0.04953471,1.1516929,0.2936238041093911,0.0,0.005762366759999767,0.0,200,0.013101577758789062,0.2071496396915229,0.23706998575742927,17600,1.2404289201080128,0.0
88,1.4012115001678467,0.3872329325268222,0.24809264242324777,0.7324163621738377,0.0698914388533324,0.0,0.11554436530111004,0.1,0.0026640892028808594,0.05164504051208496,0.049195882,2.622338,0.30298471695113427,0.0,0.007740346149890174,0.0,200,0.012897729873657227,0.45994613429817377,0.43357639028606915,17800,1.2128006155012994,0.0
89,1.5013303756713867,0.14246324821973566,0.07488215342031992,0.23583848196319715,0.02919349594140165,0.0,0.11654215301258955,0.1,0.0027227401733398438,0.05117678642272949,0.049190745,0.74306756,0.28693257007799444,0.0,0.00283283968148392,0.0,200,0.012748956680297852,1.198855025736476,1.1046631324297604,18000,1.2351481438534722,0.0
90,1.365562915802002,0.3205762082934307,0.17237856512798166,0.5548721613997696,0.08572638419972498,0.0,0.1288607807251438,0.1,0.0028340816497802734,0.05273866653442383,0.049660806,1.3091131,0.29029693389953803,0.0,0.006395824564449564,0.0,200,0.013524532318115234,0.3078525780424401,0.30506226133956305,18200,1.2504965782969044,0.0
91,1.3278164863586426,0.08496097072600359,0.06535276995844186,0.19306994092144583,0.023999909261557126,0.0,0.11542913634532259,0.1,0.0027458667755126953,0.05218648910522461,0.049477883,0.9977452,0.26976333758218457,0.0,0.0016697036058342608,0.0,200,0.013674497604370117,3.263842665766502,2.546760155837773,18400,1.1385042058762394,0.0
92,1.3541629314422607,0.261385235747881,0.2079942036711384,0.5530379598841223,0.0638236026595713,0.0,0.12042852893625036,0.1,0.0027043819427490234,0.05841660499572754,0.050138358,1.4530312,0.2689255273987542,0.0,0.00518548198477702,0.0,200,0.01441812515258789,0.41714245568954467,0.427574547323411,18600,1.2508514053597395,0.0
93,1.3602516651153564,0.19263717305234926,0.13299450276492236,0.3517467911516423,0.06107582096108951,0.0,0.11438113391207916,0.1,0.0026993751525878906,0.051813602447509766,0.04952613,3.0891974,0.2612966919641137,0.0,0.003814740133898784,0.0,200,0.013704538345336914,0.4012654898814878,0.38923336652682416,18800,1.2768748317451326,0.0
94,1.3797736167907715,0.7116059027878987,0.13283479703640533,0.8834395542217615,0.5623416174406815,0.0,0.11174972569476006,0.1,0.002791166305541992,0.05190587043762207,0.05028406,1.3357708,0.30632761304649225,0.0,0.013968402890515257,0.0,200,0.013707399368286133,0.565907160547082,0.4504797903668133,19000,0.9438533409590678,0.0
95,1.358320951461792,0.2748862205416356,0.18265828739943574,0.5716809465206997,0.07643629716043068,0.0,0.11291340252400706,0.1,0.0027740001678466797,0.053292274475097656,0.049419813,2.3393068,0.30318347379600663,0.0,0.005481719376862153,0.0,200,0.013570308685302734,0.33285200891920813,0.40503412910648107,19200,1.1208560099172196,0.0
96,1.3525779247283936,0.24919732692247215,0.11973987515126536,0.44361193238770535,0.11812929717152798,0.0,0.11516834214452036,0.1,0.002839803695678711,0.05165576934814453,0.050273106,1.4121108,0.2977848591086532,0.0,0.004895788646136782,0.0,200,0.01367807388305664,0.45719144005708234,0.5286579602881052,19400,1.2021083812139577,0.0
97,1.4904637336730957,0.6819089348248434,0.33476366518688655,1.2380874814870013,0.34327915984223495,0.0,0.11929700059533709,0.1,0.002798318862915039,0.05537772178649902,0.05056536,1.8097625,0.3361972666802723,0.0,0.013581094029372806,0.0,200,0.013115644454956055,0.4023730950260752,0.33967469760183755,19600,0.8817180454889719,0.0
98,1.3934402465820312,0.3024288370375265,0.22763554126147467,0.6503712964098267,0.041596453141074616,0.0,0.11641248754486463,0.1,0.002679109573364258,0.05197405815124512,0.04973113,1.6549298,0.33282042371599774,0.0,0.005999489333735176,0.0,200,0.013425827026367188,0.600002357382567,0.6531338406987044,19800,0.7556210868055518,0.0
99,1.39890456199646,0.19694615080126132,0.07157001831444436,0.2897260705617395,0.09301876579130287,0.0,0.11664686089340284,0.1,0.0027570724487304688,0.05164217948913574,0.05000193,1.5681871,0.31923299642452413,0.0,0.003907971111903109,0.0,200,0.013684272766113281,2.519835716545501,1.3801598226290759,20000,0.7336277017678191,0.0
100,1.4446699619293213,0.19483936967017268,0.07541497134995388,0.3088733963469576,0.09700648364212186,0.0,0.1241347365908764,0.1,0.09323835372924805,0.09081912040710449,0.049400624,1.590489,0.306793633749089,0.0,0.003872147805428664,0.0,200,0.015527963638305664,0.90267761980163,0.3743284489568189,20200,0.7678745287044405,0.0
101,1.4585514068603516,0.29726514883599414,0.20446717683254265,0.6346881601668564,0.11799962620735452,0.0,0.11042845149825155,0.1,0.002771139144897461,0.05263948440551758,0.04838281,2.816326,0.3058407852577795,0.0,0.005869774968427873,0.0,200,0.01359868049621582,0.3860790145224276,0.418531555333243,20400,0.6382994525445634,0.0
102,1.4479343891143799,0.24155689013679219,0.03135508709571089,0.2879736445481066,0.2073554535569666,0.0,0.12813877034464213,0.1,0.002679109573364258,0.05560779571533203,0.04975731,1.3932893,0.2994123957456808,0.0,0.004788392725412741,0.0,200,0.013731956481933594,0.0920754542355452,0.1099063247350818,20600,1.066316438505211,0.0
103,1.4045424461364746,0.3482132669156033,0.18223733652397345,0.6306183308308616,0.12244919381807479,0.0,0.11708903748275883,0.1,0.0027937889099121094,0.06011700630187988,0.049763065,2.0912583,0.3042924828626731,0.0,0.006864912876618912,0.0,200,0.013530492782592773,0.4114668187174697,0.4067371657055168,20800,0.8998164383561275,0.0
104,1.4623095989227295,0.11212489133804038,0.020988479773504667,0.14476196915461195,0.09313887726481593,0.0,0.11754759068954984,0.1,0.005596160888671875,0.056932687759399414,0.050543297,0.9857772,0.2850757237102098,0.0,0.002240565745585055,0.0,200,0.013650655746459961,1.2252234444622327,1.1969444280273607,21000,0.7917582328462119,0.0
105,1.41951322555542,0.18777863021427013,0.13182233733841836,0.3920407028407884,0.038153214757258504,0.0,0.12635217534396795,0.1,0.0026841163635253906,0.0525822639465332,0.050481662,1.4364694,0.27534601436061584,0.0,0.0037220329584914,0.0,200,0.013578414916992188,0.38650456033359104,0.3828979963067044,21200,0.9820454914708665,0.0
106,1.4642188549041748,0.21154622724684055,0.14337257313722446,0.43547139416983754,0.08269396548637958,0.0,0.11399910162091781,0.1,0.003055572509765625,0.053287506103515625,0.049741678,2.7150779,0.2689660356492383,0.0,0.004223987901380337,0.0,200,0.015108108520507812,0.3752643287439702,0.373832337187956,21400,1.1252986317890734,0.0
107,1.4315545558929443,0.5260483520181322,0.24454918029770725,0.7833934496299726,0.13577582541259975,0.0,0.11348344576270046,0.1,0.0027763843536376953,0.05248570442199707,0.04946894,1.3667582,0.2946742672861277,0.0,0.010325731963083796,0.0,200,0.015128135681152344,0.5147150567711927,0.47227246256285765,21600,1.4639442539100036,0.0
108,1.7859649658203125,0.4560257192782471,0.2685199297895379,0.8792639947313269,0.2078354942906554,0.0,0.12685441001266023,0.1,0.003168344497680664,0.07244133949279785,0.05045411,1.5052894,0.31080941248533966,0.0,0.009084828972583784,0.0,200,0.018204212188720703,0.514518247419013,0.4490767906630206,21800,1.2480897093675387,0.0
109,1.4268829822540283,0.38906783325750416,0.3883568991383938,1.043609861497252,0.06888667312651418,0.0,0.11726047681845343,0.1,0.002721548080444336,0.05218839645385742,0.04952164,2.1900856,0.31863525456255615,0.0,0.007412561400893332,0.0,200,0.013252973556518555,0.5880174523341275,0.5512604889809495,22000,0.9161578953821844,0.0
110,1.3874642848968506,0.5850526404316683,0.4509284416339398,1.133729362644164,0.085226498074374,0.0,0.11717565653894471,0.1,0.002695322036743164,0.05229616165161133,0.05035348,1.2272322,0.34527699314946736,0.0,0.011573869992087281,0.0,200,0.013601303100585938,0.5145740321801877,0.44461878939340743,22200,0.9432957378872842,0.0
111,1.4283313751220703,0.40119599366472924,0.11810786684206379,0.5543897665829325,0.22898337686090614,0.0,0.11666735703807365,0.1,0.0028040409088134766,0.05399799346923828,0.050340194,1.7148284,0.35086889320099357,0.0,0.007887939012170667,0.0,200,0.013602495193481445,0.17588369301438708,0.20718454154437793,22400,0.46223182276293,0.0
112,1.3887112140655518,0.19083105078439885,0.11492840653527575,0.3540726370647333,0.053831228492498086,0.0,0.1222485321631996,0.1,0.0028057098388671875,0.052683115005493164,0.049582683,1.1831887,0.33486510895933413,0.0,0.0037778465058818547,0.0,200,0.014063119888305664,1.967653978519382,1.42009586777211,22600,0.25329284302537947,0.0
113,1.3873381614685059,0.24417063572528447,0.1274115931345895,0.38333226038201285,0.08496301780113263,0.0,0.12327217471475181,0.1,0.0027234554290771484,0.05215883255004883,0.049876485,1.2706779,0.32579566163592916,0.0,0.004821147976374708,0.0,200,0.01364898681640625,0.7537936648606193,0.38480187173649677,22800,0.3088354545705855,0.0
114,1.4413559436798096,0.30219873948645926,0.195113529995811,0.6308329941546764,0.12392607145980321,0.0,0.11954654039380276,0.1,0.0026068687438964844,0.051755428314208984,0.049690083,2.3802826,0.3234359694209822,0.0,0.005996906136693976,0.0,200,0.013609647750854492,0.383049908721479,0.37288511594251206,23000,0.3556999344880624,0.0
115,1.4130606651306152,0.253535198183887,0.141809178430051,0.47274832342207823,0.08572190855344028,0.0,0.11529357217885018,0.1,0.002679109573364258,0.05226898193359375,0.049458366,2.7185287,0.31644589229727266,0.0,0.005058616779837721,0.0,200,0.015310287475585938,0.3417664428010654,0.3317227333836097,23200,0.2816926457206432,0.0
116,1.461057424545288,0.33242362056345903,0.2323981740848714,0.6462018916131693,0.06084051475592537,0.0,0.11731691822837458,0.1,0.0027272701263427734,0.052008628845214844,0.049882032,2.0205812,0.3180436651238913,0.0,0.0065775835206897445,0.0,200,0.017212629318237305,0.39615513705479893,0.40726785344735134,23400,0.4451705403895428,0.0
117,1.490433931350708,0.3623344460507018,0.35137140354531243,0.9540936960735403,0.04470715712967505,0.0,0.12037312546012197,0.1,0.0028095245361328125,0.05175900459289551,0.049052607,2.1005144,0.3224727432165724,0.0,0.007012526304924371,0.0,200,0.014769554138183594,0.5729990211780029,0.5609833657211184,23600,0.6380265527815848,0.0
118,1.5134413242340088,0.3309152097013117,0.25348226973325816,0.7601164763779914,0.12053550757173787,0.0,0.11500444231768095,0.1,0.002744913101196289,0.05163383483886719,0.049493056,3.1356485,0.3233169898650463,0.0,0.006609128044831049,0.0,200,0.013742685317993164,0.38862261995063496,0.3810745656429797,23800,0.45737507701890473,0.0
119,1.4694128036499023,0.41883593310381995,0.15144941817178206,0.6020752137532703,0.23547263818913472,0.0,0.11566854704251732,0.1,0.002742767333984375,0.05148601531982422,0.050337687,1.4306699,0.3328688841889237,0.0,0.00832198408237379,0.0,200,0.013744115829467773,0.2622394355552248,0.2323668904356639,24000,0.37990492861595154,0.0
120,1.499983787536621,0.24451210926767153,0.1892976100465945,0.47515481610170185,0.04010271537958483,0.0,0.12046257294735865,0.1,0.0026671886444091797,0.05847501754760742,0.050142273,1.3172663,0.32403320669679847,0.0,0.0048748362312700695,0.0,200,0.014620304107666016,0.4325209121897754,0.4527997736562417,24200,0.2432788740132977,0.0
121,1.5041918754577637,0.183571029121872,0.08766960578683482,0.3339088616497827,0.12236049254874785,0.0,0.11749692587746498,0.1,0.002692699432373047,0.05228781700134277,0.049896967,1.2002659,0.3099869889393059,0.0,0.003630359554719769,0.0,200,0.012899637222290039,0.6573987653523704,0.6058581731470389,24400,0.19151727837051588,0.0
122,1.468724012374878,0.35617505376456676,0.21806309531584278,0.7185074578784557,0.13810475064030678,0.0,0.11405349036755778,0.1,0.002733469009399414,0.05104684829711914,0.05043272,4.046154,0.314605795421832,0.0,0.007012214843938153,0.0,200,0.01766347885131836,0.3330788113294855,0.3349946418827982,24600,0.16679438010460187,0.0
123,1.5190412998199463,0.6356775255377136,0.29777262860791254,1.0291762473420714,0.2900592697302236,0.0,0.1160473200201613,0.1,0.002641439437866211,0.05181264877319336,0.049903974,1.7632729,0.34671296843342014,0.0,0.012702365181471591,0.0,200,0.012765169143676758,0.421792148433944,0.3837045382091342,24800,0.2015460109858708,0.0
124,1.4792695045471191,0.6084665386285846,0.32960186641335754,1.0832799830561741,0.15756053268997275,0.0,0.11411010728432638,0.1,0.002584695816040039,0.0521390438079834,0.04937526,1.7256945,0.3728883254529366,0.0,0.012007224007010937,0.0,200,0.01307535171508789,0.4086608726645915,0.32403742765117804,25000,0.09982519833770898,0.0
125,1.5418226718902588,0.397641179537226,0.3227858153475787,0.9409346874855447,0.09246808861794913,0.0,0.12208537631123208,0.1,0.002651214599609375,0.05154752731323242,0.050436296,1.8831382,0.37536361086136555,0.0,0.00793697011941158,0.0,200,0.013405084609985352,0.4957586982094954,0.5360379224030892,25200,0.088241603611475,0.0
126,1.479642391204834,0.36050578007048767,0.1474090972200445,0.5955522639790973,0.1994022808436748,0.0,0.11711933440447894,0.1,0.002878427505493164,0.052596330642700195,0.04950957,1.9506689,0.37387782778227774,0.0,0.007185203890828133,0.0,200,0.015621423721313477,0.24486413768235404,0.23812786418503884,25400,0.16598359835639537,0.0
127,1.484666109085083,0.4865135970004243,0.15388814916233756,0.6935364233281563,0.26383398822389287,0.0,0.11693516751068567,0.1,0.0027687549591064453,0.052423954010009766,0.050289407,1.1215361,0.3851414047040924,0.0,0.00952586005328076,0.0,200,0.014272928237915039,0.17672480971054738,0.1686646802574442,25600,0.3693033586257409,0.0
128,1.4881761074066162,0.35819589978060123,0.13049398410786434,0.5822136727706461,0.2552348912537668,0.0,0.12295877245683823,0.1,0.0027284622192382812,0.05237579345703125,0.05002562,1.4434195,0.3824468542117433,0.0,0.007066073815212858,0.0,200,0.014852046966552734,0.2706202584680213,0.20380820034516944,25800,0.21426204587568023,0.0
129,1.498058795928955,0.44869313690507573,0.26969965976429444,0.7356068423697175,0.15850166644613387,0.0,0.115917875079151,0.1,0.0027303695678710938,0.055191993713378906,0.049549762,1.6659721,0.38907148248107654,0.0,0.008938361214038466,0.0,200,0.013895273208618164,0.31991973556415454,0.3147747952802985,26000,0.28079074133431003,0.0
130,1.442988634109497,0.29303563297659796,0.19121993952281122,0.5666458790595807,0.09510256943271644,0.0,0.1173107361679513,0.1,0.002733469009399414,0.052176713943481445,0.049877986,1.2343944,0.3794678975306287,0.0,0.005827387098663215,0.0,200,0.013954639434814453,0.4262155434459004,0.33664924792722967,26200,0.6791079392837948,0.0
131,1.54781174659729,0.6296745256397646,0.44418153924457643,1.1883587452207076,0.0794393378534568,0.0,0.11601826423682327,0.1,0.0027022361755371094,0.05203986167907715,0.04997082,1.4121295,0.4044885603415423,0.0,0.012504530247586848,0.0,200,0.013695240020751953,0.5004906422416739,0.4647712672357794,26400,1.1177192947536123,0.0
132,1.4899489879608154,0.2900060185404,0.13721451079744026,0.5073090266567477,0.12810143620315553,0.0,0.10656912123810086,0.1,0.07503247261047363,0.0543055534362793,0.04861975,6.7670817,0.3930403061614281,0.0,0.005363601518200278,0.0,200,0.012886285781860352,0.23969976813650573,0.2880422000970813,26600,0.4356631288591237,0.0
133,1.5465145111083984,0.23359691769924734,0.10319318775199655,0.32938515515776007,0.059417638250259544,0.0,0.11830299889344059,0.1,0.0026612281799316406,0.0524144172668457,0.04992948,0.95455194,0.37709596731521006,0.0,0.00464069196989594,0.0,200,0.013149499893188477,0.7811028855833689,0.697766281618027,26800,0.3944172943581801,0.0
134,1.4311442375183105,0.20500530581946347,0.04230173232681018,0.27210695206504737,0.1654871510492793,0.0,0.1128773710502264,0.1,0.0026814937591552734,0.05358171463012695,0.04931704,1.1910945,0.3598869011656354,0.0,0.0040059643369973405,0.0,200,0.01357579231262207,0.9243325782563605,0.5729433872565596,27000,0.8369631153216622,0.0
135,1.475027322769165,0.4479285445415752,0.32133448265942965,0.9711395925588753,0.13911065034144146,0.0,0.1182683546509483,0.1,0.0027246475219726562,0.0519561767578125,0.050037976,2.1705687,0.3686910655032294,0.0,0.00871369397673151,0.0,200,0.013979673385620117,0.4209971843132498,0.4312415400637668,27200,0.6680668267182429,0.0
136,1.4493536949157715,0.43557839632764367,0.18851377137884096,0.7075397219626502,0.19236698621367682,0.0,0.11868501780724937,0.1,0.002666950225830078,0.05267453193664551,0.049467612,1.4452913,0.37537979858567083,0.0,0.008687020448903477,0.0,200,0.014871358871459961,0.22557417954148878,0.2139927412497314,27400,0.8872574644764358,0.0
137,1.537388801574707,0.3628721888834284,0.13531737875896435,0.59222029452,0.24632094435261445,0.0,0.1128883590001438,0.1,0.002816438674926758,0.05245804786682129,0.049357414,2.2742684,0.37412903761544664,0.0,0.00715229365119043,0.0,200,0.01340794563293457,0.1733261029682021,0.17485037325618533,27600,1.0328911211928384,0.0
138,1.5151734352111816,0.36744229252922034,0.28180321159584776,0.8518317846578023,0.16241716474198176,0.0,0.11306513099841631,0.1,0.0028700828552246094,0.052812814712524414,0.050108757,2.5819585,0.373460363106824,0.0,0.007182037134566598,0.0,200,0.013222455978393555,0.41774423630141616,0.40718182701664235,27800,0.7562729572049766,0.0
139,1.5151591300964355,0.3475121554945415,0.20620566874194182,0.6853162141255371,0.12917858011727512,0.0,0.10828093667679037,0.1,0.0027565956115722656,0.0522916316986084,0.050133582,2.7703867,0.37086554234559577,0.0,0.006654138151165472,0.0,200,0.013871431350708008,0.30278971560789864,0.2999928027734549,28000,0.4887158921659973,0.0
140,1.4939920902252197,0.5439617405252599,0.41820668716765474,1.2074328548570048,0.11035133966756368,0.0,0.11236250987761306,0.1,0.0027244091033935547,0.05133557319641113,0.0495287,3.3012838,0.3881751621635622,0.0,0.010573295207222248,0.0,200,0.013705968856811523,0.43881729596169233,0.4063250009712082,28200,0.7286302960133378,0.0
141,1.5858073234558105,0.4000311219365333,0.48089471441837367,1.2323050005487177,0.10052105421021615,0.0,0.11172960819575548,0.1,0.0026531219482421875,0.051624298095703125,0.049256105,2.6180668,0.3893607581408593,0.0,0.007975039266759153,0.0,200,0.0134124755859375,0.5879771604074466,0.5877853319854578,28400,0.2618772159611104,0.0
142,1.4739928245544434,0.4171280210054167,0.21811382420426373,0.6778344012661262,0.13157301730482376,0.0,0.11397126048437309,0.1,0.0026450157165527344,0.05094742774963379,0.049975518,1.4084915,0.39213748442731505,0.0,0.008291231610361256,0.0,200,0.013309478759765625,0.25973516317325235,0.24598935254315651,28600,0.41245496134085324,0.0
143,1.5590524673461914,0.525687847350394,0.3085069277512971,0.9940584844430083,0.21280197432185133,0.0,0.11572589002170897,0.1,0.002743959426879883,0.05415773391723633,0.04970117,1.8673286,0.40549252071962294,0.0,0.0104639102799343,0.0,200,0.013766765594482422,0.32638512756700944,0.3243097450249118,28800,0.41676210607498027,0.0
144,1.5254709720611572,0.15546222224556075,0.016205387413669593,0.17383274997584972,0.13562335812140136,0.0,0.11527034777018845,0.1,0.0029859542846679688,0.05408167839050293,0.050374947,1.2989117,0.38048949087221673,0.0,0.0030918805960662003,0.0,200,0.01468038558959961,3.6605230598493144,2.563847656041759,29000,0.5947095087799665,0.0
145,1.4817349910736084,0.3660011573340098,0.24264458073715062,0.7016137013055154,0.025469015895198555,0.0,0.11808900409462988,0.1,0.0027806758880615234,0.053519248962402344,0.050175667,1.4874945,0.37904065751839605,0.0,0.007309554307353199,0.0,200,0.013691902160644531,0.36983726165034747,0.37351900952019956,29200,0.1718280164147827,0.0
146,1.5059802532196045,0.16921960576744866,0.08297164869297358,0.28163352058779667,0.06291100151562395,0.0,0.11887420215963247,0.1,0.003320932388305664,0.05319857597351074,0.050062038,0.8372072,0.35805855234330136,0.0,0.0033688512013342617,0.0,200,0.01371312141418457,1.3160737741927613,0.8915745611953296,29400,0.13136157197502168,0.0
147,1.4984195232391357,0.3943343623446064,0.19372533938901765,0.6927938493791732,0.1847722977785389,0.0,0.11199850726617135,0.1,0.002719879150390625,0.056478261947631836,0.049534444,2.4118726,0.3616861333434319,0.0,0.007833143762030238,0.0,200,0.013257503509521484,0.30994534209521435,0.32670849754477715,29600,0.06805967093189423,0.0
148,1.53053617477417,0.643719171679646,0.35642126531270685,1.020813993835166,0.06852452705616684,0.0,0.11645002096710066,0.1,0.0028133392333984375,0.05735516548156738,0.050032366,1.4259055,0.3898894371770533,0.0,0.012861280725977212,0.0,200,0.013451337814331055,0.4972742168460521,0.4586334011605586,29800,0.06574297814877127,0.0
149,1.4839167594909668,0.26074145940327736,0.17350174051098283,0.5533280228129994,0.10009900683061232,0.0,0.10930958139903035,0.1,0.0027403831481933594,0.05328488349914551,0.04907269,7.14078,0.37697463939967574,0.0,0.005181976434838799,0.0,200,0.019042253494262695,0.3690843234337075,0.40987384110592084,30000,0.7926885247540092,0.0
150,1.4910523891448975,0.5456507754421571,0.42969615338729433,1.205367549862584,0.0529371391006331,0.0,0.11257927757608958,0.1,0.0027894973754882812,0.05246400833129883,0.050396137,2.9685335,0.39384225300392384,0.0,0.010885939952940071,0.0,200,0.013695478439331055,0.4826229811935652,0.4598940370095092,30200,0.31201287227212054,0.0
151,1.5239157676696777,0.470797527384179,0.2849019404780743,0.9455782929682759,0.20858919630509862,0.0,0.11391972087255088,0.1,0.08561491966247559,0.052911996841430664,0.049899686,1.9922786,0.4015377804419494,0.0,0.00932495575939499,0.0,200,0.025536775588989258,0.33751817657484523,0.31831417208070817,30400,0.33951387785982984,0.0
152,1.6680302619934082,0.8601779907801951,0.4130248906547857,1.3981209518657203,0.27474214150482684,0.0,0.11080126172789452,0.1,0.0027794837951660156,0.052614450454711914,0.04955993,2.4796903,0.4474018014757739,0.0,0.01707904618623055,0.0,200,0.012882471084594727,0.43253879655562133,0.3605725499804286,30600,0.6966984527293477,0.0
153,1.5874035358428955,0.5155844546769093,0.3590380230037157,1.0673456112841917,0.17980238580323063,0.0,0.11250456569103538,0.1,0.002856016159057617,0.05265021324157715,0.04996839,2.1844494,0.4542200667958875,0.0,0.010197433089652522,0.0,200,0.013476133346557617,0.38148000767216605,0.3932550793391337,30800,0.4041102265534013,0.0
154,1.5153343677520752,0.4496226303894776,0.23505458781933358,0.806323545746463,0.20652404863758378,0.0,0.1128717068564034,0.1,0.0027549266815185547,0.05199098587036133,0.04928463,1.8090796,0.4537603231552465,0.0,0.008970096217621966,0.0,200,0.013057947158813477,0.4103338558090596,0.38964870897773507,31000,0.3876399316530508,0.0
155,1.483090877532959,0.5097903040576031,0.1845848277803063,0.7982360288491865,0.28933146158742046,0.0,0.11480207317080855,0.1,0.0028564929962158203,0.051328182220458984,0.05006095,1.4788692,0.4593633212454822,0.0,0.0101371642858078,0.0,200,0.013019800186157227,0.20473006293182383,0.17074973021557874,31200,0.7330467361674505,0.0
156,1.4981536865234375,0.4655917803354062,0.2719984939887671,0.9231690330257233,0.22414005866865547,0.0,0.11102520746604895,0.1,0.002677440643310547,0.055130958557128906,0.050015256,3.2988477,0.4599861671544746,0.0,0.009245589193876075,0.0,200,0.013677358627319336,0.3377635098529402,0.3055969263421073,31400,0.76474038279919,0.0
157,1.4976966381072998,0.20770032440168976,0.15123824214716253,0.38015176305618914,0.043090439751173513,0.0,0.11343501119352342,0.1,0.0027611255645751953,0.05540823936462402,0.04973148,0.9070843,0.4347575828791961,0.0,0.004123853499868034,0.0,200,0.012817621231079102,1.9248419996414008,1.1681169395066404,31600,0.3961339292950603,0.0
158,1.5035455226898193,0.42421805155303594,0.3545595006068311,0.987065352548064,0.04409305861808612,0.0,0.1137203775130541,0.1,0.0025894641876220703,0.05155634880065918,0.049852505,2.1567657,0.43370362974658005,0.0,0.00831153384561786,0.0,200,0.013602495193481445,0.4870098313845556,0.5064735949288712,31800,0.48589116989815295,0.0
159,1.5772550106048584,0.3485426774899714,0.198000295881524,0.5726253990651551,0.03562905808973397,0.0,0.11447661410332166,0.1,0.0027437210083007812,0.052968740463256836,0.04935033,1.5478412,0.4251875345209192,0.0,0.006963310215964879,0.0,200,0.013179779052734375,0.2530379294641259,0.2512260968261975,32000,0.3681886020396159,0.0
160,1.5503888130187988,0.41417882102843206,0.13773571834025825,0.615226334907807,0.23576604473447363,0.0,0.11170282169491283,0.1,0.0029528141021728516,0.05321097373962402,0.0497474,3.9077892,0.4240866631716705,0.0,0.008150311284318864,0.0,200,0.013603925704956055,0.18656363378456875,0.17101001638570204,32200,1.2591569574002845,0.0
161,1.5154693126678467,0.2822887474899976,0.14185450234308297,0.44409536225423013,0.13080066115297823,0.0,0.1193269217053745,0.1,0.09356689453125,0.21666216850280762,0.04951556,1.0600109,0.4099068716035032,0.0,0.005509365922356068,0.0,200,0.013502120971679688,0.26052492363864316,0.2569318220266082,32400,0.5960661799902717,0.0
162,1.5222909450531006,0.3627844627574626,0.29818222585992965,0.7954757370640966,0.08091034057746703,0.0,0.11583793418280203,0.1,0.002737283706665039,0.05263805389404297,0.05032547,1.4962709,0.40519463071889916,0.0,0.00722943683101452,0.0,200,0.01358938217163086,0.3839787812291363,0.3831374206032661,32600,0.3765835548235465,0.0
163,1.5718810558319092,0.2508733483491666,0.12833701719718285,0.4230502477616979,0.07506063766331762,0.0,0.10495537411839134,0.1,0.0027060508728027344,0.05242276191711426,0.051200226,3.2783172,0.3897625024819259,0.0,0.0049657847088311925,0.0,200,0.01355743408203125,0.5042807845373424,0.47997628246802754,32800,0.42117148664998444,0.0
164,1.5306792259216309,0.7657604171858783,0.5358200193471087,1.424250884605792,0.0984617196080247,0.0,0.11551717032503789,0.1,0.0027284622192382812,0.052242279052734375,0.04914713,1.716181,0.42736229395232117,0.0,0.015116740467224797,0.0,200,0.10723614692687988,0.5649875105779362,0.5249743159395507,33000,0.3856800475042686,0.0
165,1.6147148609161377,0.432090894499698,0.2590990451708016,0.8409215878229808,0.17718854485746818,0.0,0.11225387787716483,0.1,0.002960681915283203,0.052989959716796875,0.04937559,2.2003958,0.4278351540070589,0.0,0.008590924105947645,0.0,200,0.021790027618408203,0.3105395936667668,0.3137701884944289,33200,0.3601071105233235,0.0
166,1.5619845390319824,0.32656753281574685,0.15774405491354676,0.5933758369505564,0.20110588198313079,0.0,0.11913738936929136,0.1,0.00274658203125,0.05620980262756348,0.04987884,1.680646,0.4177083918879277,0.0,0.0064291391292485385,0.0,200,0.014288663864135742,0.3013627202349432,0.33573383988132277,33400,0.22719962548803743,0.0
167,1.6224422454833984,0.3461064437329244,0.08114179804846086,0.47822068853443744,0.27761097243889876,0.0,0.11360400189418242,0.1,0.002810955047607422,0.05267333984375,0.050252438,2.8215067,0.41054819707242735,0.0,0.006783196664519784,0.0,200,0.0157928466796875,0.20443257083554517,0.19238044958512948,33600,1.2120246005419004,0.0
168,1.4922082424163818,0.3040868766383883,0.08772719668681771,0.4445148451677855,0.20274138499003422,0.0,0.12075353313535238,0.1,0.002802133560180664,0.05190753936767578,0.050196577,1.1613234,0.3999020650290234,0.0,0.006061182455628898,0.0,200,0.013611555099487305,0.30885388157274324,0.23020678913615208,33800,0.5764228667031145,0.0
169,1.584444522857666,0.6533608600611892,0.30317593252703656,1.1399848874805187,0.3302443103853452,0.0,0.11589493575627911,0.1,0.002724170684814453,0.05177903175354004,0.049433395,1.8301659,0.42524794453224,0.0,0.012992506355753277,0.0,200,0.013704299926757812,0.3165060738766073,0.317828290865103,34000,1.4247065205138394,0.0
170,1.574843168258667,0.2020964217753039,0.07587596314099199,0.3098334086993326,0.09709459697250569,0.0,0.10883083903689654,0.1,0.031685590744018555,0.05294394493103027,0.050347652,0.9995968,0.40293279225654643,0.0,0.00400898137398447,0.0,200,0.015905141830444336,1.2327134779187632,1.1287353943184113,34200,0.5615709999635411,0.0
171,1.5768589973449707,0.30389130369156475,0.03994065804650672,0.3641517364129932,0.2631790159347204,0.0,0.11161009883341609,0.1,0.002784252166748047,0.052787065505981445,0.049685434,1.2348362,0.3930286434000483,0.0,0.0058767310493733,0.0,200,0.016062498092651367,0.2379286211634727,0.16583830957408643,34400,0.4771898535490083,0.0
172,1.6217918395996094,0.5806096706342815,0.263326763147399,0.9260391623300607,0.18654041860820772,0.0,0.1080079004267512,0.1,0.0027811527252197266,0.052282094955444336,0.049798783,2.1677163,0.41178674612347166,0.0,0.011404985957164649,0.0,200,0.016655921936035156,0.3049836223969047,0.3053311627574068,34600,0.1804013953667041,0.0
173,1.5884056091308594,0.5849539608162544,0.44419944218677976,1.331627691534906,0.20864009280076315,0.0,0.11827484319714994,0.1,0.007179975509643555,0.056105852127075195,0.049430527,2.4148803,0.42910346759275,0.0,0.011642539963304327,0.0,200,0.01804947853088379,0.4931906318325688,0.4713999244179087,34800,1.304653942273328,0.0
174,1.627568006515503,0.27087400747319396,0.04470908898147291,0.3312165897099149,0.21267457551004934,0.0,0.11556903275072368,0.1,0.002778291702270508,0.0528254508972168,0.04879352,0.8764563,0.4132805215807944,0.0,0.005350696945596108,0.0,200,0.016097068786621094,0.32158434429232635,0.37545717833979525,35000,0.19189022969863068,0.0
175,1.5438435077667236,0.3906447482999597,0.2794875273549838,0.8291355512010092,0.05158440460485814,0.0,0.11523773384152618,0.1,0.002725362777709961,0.051506757736206055,0.04956,1.6014798,0.41101694425271096,0.0,0.007754579836523871,0.0,200,0.015338897705078125,0.3393701383523822,0.3389894790966759,35200,0.15360559195127915,0.0
176,1.4809703826904297,0.6496316968474152,0.4417753671245089,1.3398441597627586,0.21003709931743406,0.0,0.1222867419991356,0.1,0.002908945083618164,0.05253267288208008,0.049970012,1.7631278,0.4348784195121814,0.0,0.012728622468612297,0.0,200,0.014783382415771484,0.44546444744655533,0.42898354520356863,35400,0.18497054640617558,0.0
177,1.5366392135620117,0.28693494158673705,0.16660549746450748,0.5740363892581866,0.16443443349445164,0.0,0.11609872482419961,0.1,0.002783060073852539,0.05396604537963867,0.049847756,1.8036966,0.420084071719637,0.0,0.005642910447164199,0.0,200,0.01957225799560547,0.5592577359047248,0.5923588719566554,35600,0.32701696886732684,0.0
178,1.5452260971069336,0.688824570898252,0.4296353362284896,1.1615580988844347,0.17439540412376575,0.0,0.11649176277216641,0.1,0.0027315616607666016,0.052864789962768555,0.050345916,1.2665197,0.44695812163749854,0.0,0.013602491750664678,0.0,200,0.014669179916381836,0.3905172194977882,0.369428315372695,35800,0.20126937500244738,0.0
179,1.6244745254516602,0.26099065474596134,0.07690680789608957,0.3606850189889128,0.1512504499402125,0.0,0.1193684817076484,0.1,0.00406956672668457,0.05247855186462402,0.050271705,0.88080436,0.4283613749483448,0.0,0.005151167251492412,0.0,200,0.014657974243164062,0.9966122651464292,1.0117531545531193,36000,0.25433878482040856,0.0
180,1.5264556407928467,0.4364944770177853,0.2629647866751628,0.7651958930208015,0.094336227173304,0.0,0.12390398234585209,0.1,0.002714395523071289,0.052960872650146484,0.05000309,1.576572,0.4291746851552889,0.0,0.008712719287277106,0.0,200,0.013891458511352539,0.28221936196290887,0.27758188726200334,36200,0.3093602490783979,0.0
181,1.4574170112609863,0.3614879295755572,0.1948407563687043,0.6816883779180493,0.16678109904920932,0.0,0.1186224565896749,0.1,0.0028924942016601562,0.05293536186218262,0.050103024,1.6673437,0.4224060095973158,0.0,0.007215066503779319,0.0,200,0.013974905014038086,0.3416384343876772,0.30462655730008187,36400,0.21922335471457108,0.0
182,1.492293119430542,0.5311177781689419,0.1991275377201432,0.8328622165907602,0.33972418059572984,0.0,0.11395496073459686,0.1,0.002824544906616211,0.051938772201538086,0.0493371,1.831385,0.4332771864544784,0.0,0.01046014587154558,0.0,200,0.013227701187133789,0.20658679112663245,0.2124174370379578,36600,0.22716223467545313,0.0
183,1.559295654296875,0.5879390768356719,0.2276887754522173,0.8193729461477197,0.3188564464577267,0.0,0.11534338868884605,0.1,0.0028433799743652344,0.05203557014465332,0.050068587,1.2883315,0.44874337549259774,0.0,0.011623495900444114,0.0,200,0.016069889068603516,0.23781976788050668,0.2232685897867181,36800,0.3329315220071511,0.0
184,1.5875532627105713,0.6873206688818256,0.3532574077120424,1.122292015407501,0.18232501529032982,0.0,0.1216730304288141,0.1,0.0028123855590820312,0.051911115646362305,0.050183862,0.9546044,0.4726011048315205,0.0,0.01356429447109126,0.0,200,0.018483638763427734,0.3385619354159747,0.3016448678750657,37000,0.20320096802737875,0.0
185,1.507066249847412,0.2873215043671462,0.1634205751506728,0.47354369151026465,0.040768903646955026,0.0,0.11426800930824292,0.1,0.0027871131896972656,0.05194807052612305,0.049657766,0.8302384,0.4540731447850831,0.0,0.0057278725365606355,0.0,200,0.01542973518371582,0.7064961858763062,0.7631576760828399,37200,0.21398447521147415,0.0
186,1.5332927703857422,0.4144104649882062,0.22792067271730246,0.7702162722141622,0.13465414487912813,0.0,0.10902444591496654,0.1,0.0028290748596191406,0.05260133743286133,0.050102368,2.896951,0.4501068768053954,0.0,0.008112210114463203,0.0,200,0.014092445373535156,0.29417922675830993,0.2793887033142844,37400,0.22087206474680532,0.0
187,1.6315932273864746,0.7238015209711713,0.22776632758128884,1.003811065980635,0.3874988173145567,0.0,0.1160960311533447,0.1,0.002847909927368164,0.05603456497192383,0.050203677,1.3191421,0.477476341221973,0.0,0.014305214467168498,0.0,200,0.015526771545410156,0.21468803505975212,0.20731495151310983,37600,0.3323242391182685,0.0
188,1.5350639820098877,0.7784633038821565,0.28729333609796154,1.0782187546633002,0.3994067446345229,0.0,0.10941958326638279,0.1,0.0028009414672851562,0.052402496337890625,0.049913663,2.0082242,0.5075750374879914,0.0,0.01553010907870523,0.0,200,0.013447761535644531,0.2855920548784068,0.24774110341577063,37800,0.28380669891397453,0.0
189,1.5958366394042969,0.778499284981003,0.4601791735366481,1.4925047325560374,0.2076332948989338,0.0,0.11594756903054247,0.1,0.0026946067810058594,0.05265998840332031,0.04923647,1.7377336,0.5346674622372926,0.0,0.015271671638686295,0.0,200,0.014127969741821289,0.37279908299462383,0.32491080750604373,38000,0.26617568890085724,0.0
190,1.6512722969055176,0.9447943113605715,0.484290370269102,1.5275324247754414,0.3414255416159404,0.0,0.11293095561618194,0.1,0.002736806869506836,0.052307844161987305,0.049666084,1.4684814,0.5756801471496205,0.0,0.01874610399271849,0.0,200,0.01355290412902832,0.3344140126080849,0.2752111523090681,38200,0.1932351407853181,0.0
191,1.5755786895751953,0.460529797792923,0.2896996752878736,0.9465476447356848,0.22087158106194557,0.0,0.11528750354796347,0.1,0.0027141571044921875,0.05583047866821289,0.04976441,2.09236,0.5641651122139508,0.0,0.00920246997124901,0.0,200,0.013355731964111328,0.7916658251149984,0.8207430487766167,38400,0.3431450087665659,0.0
192,1.6213438510894775,0.474848540452774,0.24953012691889748,0.7551209396863251,0.20612240663321282,0.0,0.11802013272431715,0.1,0.0027933120727539062,0.052053213119506836,0.049732435,1.1714234,0.5552334550378332,0.0,0.009460446747788426,0.0,200,0.013733386993408203,0.817994790228542,0.4590756684802029,38600,0.19903679754166062,0.0
193,1.5547537803649902,0.34973415985215495,0.15999394199643863,0.5323206715001223,0.09767839876801764,0.0,0.11850916828133286,0.1,0.002955913543701172,0.05382800102233887,0.050266508,0.9697579,0.5346835255192653,0.0,0.006970100381786121,0.0,200,0.01353907585144043,0.862365734474791,0.32140261584917074,38800,0.2565775642280295,0.0
194,1.5975713729858398,0.8309579271411325,0.6213203386206603,1.7807106783386346,0.20804775201735817,0.0,0.11390162523905024,0.1,0.00281524658203125,0.05369305610656738,0.050603528,1.829651,0.5643109656814521,0.0,0.016439092313297043,0.0,200,0.013438224792480469,0.4745315342706393,0.49916589568630787,39000,0.20193788436527868,0.0
195,1.498206615447998,0.5079186772200379,0.1377770890615234,0.7008509683534754,0.31158889396588224,0.0,0.11946286813969147,0.1,0.0028336048126220703,0.05347323417663574,0.05033432,1.422404,0.5586717368353108,0.0,0.009984580287350466,0.0,200,0.013506412506103516,0.14557112210348774,0.13763753265793924,39200,0.2308641190854556,0.0
196,1.4994828701019287,0.6000845137054471,0.21322201199533153,0.8733632785442995,0.2759211586320496,0.0,0.11172048439419725,0.1,0.002864360809326172,0.05337953567504883,0.049695507,1.4512875,0.5628130145223244,0.0,0.011852894057908098,0.0,200,0.013421773910522461,0.20155868289574264,0.1905230480950321,39400,0.2051976889738761,0.0
197,1.5927734375,0.4328470331454155,0.3287472439668897,0.9213501892048602,0.12683143589821516,0.0,0.11313455081533995,0.1,0.0029144287109375,0.05424642562866211,0.04990684,1.5360134,0.5498164163846335,0.0,0.0084544871510753,0.0,200,0.013759851455688477,0.4004416353188773,0.39713231429064566,39600,0.15671325350983586,0.0
198,1.5075621604919434,0.4847539381760749,0.3483078590634121,1.0527070392753985,0.18463036777620362,0.0,0.11865931303689502,0.1,0.002813100814819336,0.05376768112182617,0.049948484,1.6863587,0.5433101685637777,0.0,0.009632896559536471,0.0,200,0.015537023544311523,0.34321163369840196,0.34294634185700273,39800,0.16044699196291703,0.0
199,1.6059398651123047,0.6006767338386516,0.45547230945673467,1.387642672684687,0.2890721660031886,0.0,0.11492415304798931,0.1,0.0027921199798583984,0.05289435386657715,0.050017558,1.9813803,0.5490468250912651,0.0,0.011714987799240982,0.0,200,0.016286373138427734,0.39552910486396614,0.3912274374978909,40000,0.12347795278976222,0.0
200,1.4903995990753174,0.6201903450924386,0.36740200012891644,1.0454633815840269,0.10064233356288478,0.0,0.11282362300358717,0.1,0.0027277469635009766,0.05235719680786133,0.04969646,1.2424994,0.5561611770913825,0.0,0.012382795409954102,0.0,200,0.013670921325683594,0.3004536749616198,0.2922497888823948,40200,0.11550217814237973,0.0
201,1.5538206100463867,0.34548490021427797,0.32306845552740887,0.8953711450214283,0.08169761679487199,0.0,0.10988494593934442,0.1,0.002780914306640625,0.05220746994018555,0.04969038,1.9299191,0.535093549403672,0.0,0.00680013168339259,0.0,200,0.013548612594604492,0.6385561913899465,0.6368765242268632,40400,0.12621934441702962,0.0
202,1.525550365447998,0.5929139147532446,0.28004392290792357,1.0151573841342807,0.29096796114326784,0.0,0.11409238463877762,0.1,0.0027573108673095703,0.05455517768859863,0.04936774,1.824675,0.5408755859386293,0.0,0.011773481656716257,0.0,200,0.013347387313842773,0.223111034774196,0.22249651000223597,40600,0.1610453183069183,0.0
203,1.531792402267456,0.4436717946253138,0.3498822448088025,1.0420298895502595,0.1893070811333403,0.0,0.12130428677892535,0.1,0.0027277469635009766,0.0531916618347168,0.049511164,1.8649596,0.5311552068072978,0.0,0.008783174698579675,0.0,200,0.013525247573852539,0.49483235789234487,0.4807582843968608,40800,0.21433175857045583,0.0
204,1.6076300144195557,0.39739683109719093,0.17100479014662065,0.6842050907684993,0.2624832249288035,0.0,0.1153257179201749,0.1,0.0027837753295898438,0.05374002456665039,0.050232023,1.924298,0.5177793692362871,0.0,0.00786520696814485,0.0,200,0.01377105712890625,0.29633194651424094,0.2506200582039715,41000,0.18487106098740538,0.0
205,1.5854275226593018,0.5086281809721444,0.2193189159180704,0.8456389261832331,0.23105177158410334,0.0,0.11087310363498691,0.1,0.0026438236236572266,0.05206942558288574,0.050850846,2.4921598,0.5168642504098728,0.0,0.010032485485262043,0.0,200,0.015500545501708984,0.22361510275818736,0.22548762534965555,41200,0.17674817555031727,0.0
206,1.5449678897857666,0.5883864342705292,0.29440886296116153,0.9843492318714208,0.274108376848042,0.0,0.11382208567642177,0.1,0.002782106399536133,0.05315208435058594,0.049853064,1.5880853,0.5240164687959386,0.0,0.01170905072179927,0.0,200,0.012950897216796875,0.2695142799909792,0.26908486198349785,41400,0.27363943056707324,0.0
207,1.4921720027923584,1.0260074293454713,0.5613798031965671,1.9011220974276375,0.3545337943194077,0.0,0.11559626806287815,0.1,0.0027310848236083984,0.05177903175354004,0.05016942,1.6712711,0.5742155648508918,0.0,0.02024326686267708,0.0,200,0.014454126358032227,0.4754864037309947,0.42892752119019834,41600,0.25272810868671447,0.0
208,1.5338997840881348,0.39464020232444197,0.35824960615441287,0.9962071368298724,0.06598871436024366,0.0,0.10665876823848916,0.1,0.002736806869506836,0.052480459213256836,0.04910912,2.8078115,0.5562580285982468,0.0,0.007830259793085678,0.0,200,0.013080120086669922,0.4974462418566244,0.5521463592764142,41800,0.20476109632499515,0.0
209,1.55308198928833,0.4077886001616353,0.3124935930699526,0.9469872033516119,0.1841092886894577,0.0,0.11464433165117577,0.1,0.0027451515197753906,0.05160355567932129,0.049222425,2.8844268,0.5414110857545856,0.0,0.008048381175295917,0.0,200,0.014893770217895508,0.4857126460905944,0.49287125294512735,42000,0.1930200890512563,0.0
210,1.4746801853179932,0.4586738882323288,0.3161436242386375,0.9838338982390669,0.15511917971938857,0.0,0.11579084622656892,0.1,0.002944469451904297,0.05257105827331543,0.04991251,1.939655,0.53313736600236,0.0,0.009047855061572015,0.0,200,0.013868331909179688,0.4294625472789939,0.4069695554728326,42200,0.172639722697687,0.0
211,1.5180821418762207,0.913277507862524,0.6018515441567515,1.5547609323153484,0.23033158869817325,0.0,0.11292423620576635,0.1,0.002816438674926758,0.05251049995422363,0.049937878,1.6231767,0.5711513801883764,0.0,0.018181382582850604,0.0,200,0.013519763946533203,0.4093502858923304,0.3956459816123234,42400,0.15725298747128913,0.0
212,1.526235818862915,0.45328324119896635,0.3269929535176847,1.0149420070454804,0.20926318064639962,0.0,0.113034156522155,0.1,0.002855539321899414,0.05240511894226074,0.049928952,2.2534983,0.5593645662894354,0.0,0.00898554775067103,0.0,200,0.016538619995117188,0.42764717746660713,0.44194383487893657,42600,0.26754613706502717,0.0
213,1.5173609256744385,0.2957279473388162,0.2454040325592439,0.7061607715025949,0.10146648229455532,0.0,0.11468524347696471,0.1,0.0027337074279785156,0.052285194396972656,0.049929656,1.500502,0.5330009043943735,0.0,0.005815762084112447,0.0,200,0.01620793342590332,0.9765688208161968,0.8517387707898083,42800,0.835452520179865,0.0
214,1.5103161334991455,0.6604503374114099,0.5762736553935893,1.5821864106582846,0.01436744721708675,0.0,0.11423589379342204,0.1,0.0028574466705322266,0.051926374435424805,0.049196687,2.655304,0.5457458476960771,0.0,0.012902988634745458,0.0,200,0.014575004577636719,0.5007002408867058,0.5044444434156216,43000,0.7639900065146109,0.0
215,1.5801825523376465,0.3093214868741694,0.25076890439012406,0.7405871952728953,0.11863381471801795,0.0,0.11695890185909416,0.1,0.0028295516967773438,0.05302762985229492,0.04974903,1.3484606,0.5221034116138864,0.0,0.006080023709286253,0.0,200,0.01490640640258789,0.8113324482061886,0.7273663066135243,43200,0.27294440098163525,0.0
216,1.5354018211364746,0.45669189890750617,0.16719682284407397,0.7454104798175956,0.34761534256655646,0.0,0.11410447863490764,0.1,0.0028662681579589844,0.05286049842834473,0.049072523,1.8403629,0.5155622603432484,0.0,0.009103439775496488,0.0,200,0.013421773910522461,0.1726291698102427,0.15052890460440105,43400,0.3407544039083295,0.0
217,1.6089832782745361,0.51593607245121,0.2883306651679578,0.827150880041476,0.1394867047828475,0.0,0.11078474454284122,0.1,0.0027785301208496094,0.05289721488952637,0.049875725,1.4216697,0.5155996415540446,0.0,0.010286102735480248,0.0,200,0.012720108032226562,0.27172068677503736,0.27169763385872153,43600,0.3159147825406649,0.0
218,1.5902090072631836,0.5706158548534126,0.14613516976094018,0.7474338898441488,0.36913939346818525,0.0,0.11547953273728609,0.1,0.002760648727416992,0.05750441551208496,0.04975029,1.8332813,0.5211012628839814,0.0,0.011343196640506762,0.0,200,0.013636350631713867,0.14108813912456392,0.13886509022344165,43800,0.2482385706560398,0.0
219,1.5986237525939941,0.4305422575130263,0.38546611780679335,1.095968956190623,0.16922840785787382,0.0,0.11764738959248698,0.1,0.002828359603881836,0.05295085906982422,0.049600016,1.8517145,0.5120453623468859,0.0,0.008454914315658486,0.0,200,0.014643669128417969,0.48142642444111317,0.4783628066653442,44000,0.3325113257382912,0.0
220,1.6404240131378174,0.5334838521913753,0.3685891717492235,0.9194951351222713,0.06522884569803128,0.0,0.11256437361897102,0.1,0.10075092315673828,0.07804751396179199,0.04958623,1.0628923,0.5141892113313349,0.0,0.010602183661375181,0.0,200,0.014904260635375977,0.3634124284152207,0.3591819211770096,44200,0.30979529774879466,0.0
221,1.6229708194732666,0.48183657341127906,0.35432183736532696,0.8393370534320864,0.0924972745167615,0.0,0.11051908838403719,0.1,0.002921581268310547,0.053941965103149414,0.04969953,1.8916419,0.5109539475393293,0.0,0.009591281014871996,0.0,200,0.013705968856811523,0.34674777711112864,0.34546999201144535,44400,0.2502562284729636,0.0
222,1.6496655941009521,0.39346425947142083,0.2335747265775085,0.699852639168661,0.15227881550564218,0.0,0.11289767932383868,0.1,0.002705812454223633,0.051674842834472656,0.04932487,1.3380134,0.4992049787325385,0.0,0.007745956306307069,0.0,200,0.013738155364990234,0.31970744993360145,0.3130712467976035,44600,0.3682991377789488,0.0
223,1.6707310676574707,0.5719061053725647,0.37324903302408463,1.1839750989324147,0.17580747803134944,0.0,0.11676191528734936,0.1,0.003000497817993164,0.05278134346008301,0.04947413,1.9113967,0.5064750913965411,0.0,0.011322992711017471,0.0,200,0.0166323184967041,0.34249365778733004,0.3387129132885745,44800,0.4145136654803953,0.0
224,1.5728695392608643,0.4873248109839981,0.39997323673668406,1.149917759602978,0.08536126787871343,0.0,0.11488705579775059,0.1,0.002824068069458008,0.052425384521484375,0.0498947,3.2718673,0.5045600633552868,0.0,0.009723638085945084,0.0,200,0.013449430465698242,0.44141954383544985,0.436295867451574,45000,0.4659837106297126,0.0
225,1.5129172801971436,0.6189189051072622,0.29503529489781777,1.001376279220543,0.3063757875661965,0.0,0.1177771595934493,0.1,0.003029346466064453,0.0535736083984375,0.049928598,2.5673933,0.5159959475304844,0.0,0.012323656063999575,0.0,200,0.013889074325561523,0.24176080538587363,0.2262474301682593,45200,0.8003450737587553,0.0
226,1.5759661197662354,0.44120572818535053,0.14435087092889395,0.6899500306091411,0.3388696787048888,0.0,0.1118001736376471,0.1,0.0028176307678222656,0.0534968376159668,0.04957506,1.4209763,0.5085169255959711,0.0,0.008756043179440311,0.0,200,0.015786170959472656,0.217783543807331,0.22249523163052,45400,0.4263283922485665,0.0
227,1.5199992656707764,0.47966551697816395,0.30870521421361374,0.9321267160567687,0.0660125925964109,0.0,0.11815436220638498,0.1,0.002853870391845703,0.053350210189819336,0.049754564,2.070876,0.5056317847341903,0.0,0.009548867490219076,0.0,200,0.013818025588989258,0.3382214077998237,0.3304872007246886,45600,0.4210199440478017,0.0
228,1.5734927654266357,0.5383786546149505,0.36102685674522633,1.116712687855025,0.12695669399633017,0.0,0.11471407914484825,0.1,0.002889394760131836,0.05309748649597168,0.050629687,2.7491708,0.5089064717222664,0.0,0.010741874730467914,0.0,200,0.013997077941894531,0.3490075294188526,0.3479659304280432,45800,0.49850682521773687,0.0
229,1.6334481239318848,0.41147953471994836,0.08247429751723578,0.5205678617903902,0.28844267353055003,0.0,0.1152685584878563,0.1,0.0028324127197265625,0.05369448661804199,0.05047317,1.374286,0.49916377802203465,0.0,0.008226657948705297,0.0,200,0.013640642166137695,0.17050719031850853,0.1444676940591932,46000,0.434246786033703,0.0
230,1.6498303413391113,0.6388672369909468,0.3438619478982098,1.0448172072321968,0.24923847690648485,0.0,0.1185934439196996,0.1,0.0027506351470947266,0.051831722259521484,0.05045799,1.0458074,0.5131341239189259,0.0,0.012715787016017215,0.0,200,0.014116764068603516,0.2848478891240852,0.28674509880361,46200,0.5300628647243173,0.0
231,1.6730327606201172,0.5136388464496491,0.22841107280691175,0.8554835319068851,0.21202731594985905,0.0,0.12073597264787159,0.1,0.003061056137084961,0.054909706115722656,0.049729362,1.5862583,0.5131845961719982,0.0,0.01012718640224062,0.0,200,0.013480186462402344,0.18198013929841986,0.18080369754713954,46400,0.6224987485933723,0.0
232,1.548412799835205,0.4393651216379028,0.16788478913851837,0.7231739897154628,0.28519286378541,0.0,0.12038769922200662,0.1,0.09159088134765625,0.8330690860748291,0.04975206,1.6716547,0.5058026487185886,0.0,0.008649243272661209,0.0,200,0.013402938842773438,0.24146361350465356,0.23496908820436824,46600,0.664202294342651,0.0
233,1.5634043216705322,0.6684556840531064,0.2629754449191468,0.9370907050878258,0.2724388818134002,0.0,0.1123105609014106,0.1,0.003061056137084961,0.05278897285461426,0.050053183,1.5213685,0.5220679522520404,0.0,0.013297974929437625,0.0,200,0.013656854629516602,0.21543453694103556,0.2008200750619642,46800,1.0952129742731407,0.0
234,1.5840489864349365,0.9180701332604231,0.3949474884345481,1.500217846099153,0.3854158352757408,0.0,0.1137666158539879,0.1,0.0030536651611328125,0.05409812927246094,0.049676333,1.6584582,0.5616681703528786,0.0,0.01814130144332408,0.0,200,0.013754129409790039,0.3379147025670625,0.29644332197548545,47000,1.3817735286729744,0.0
235,1.5594277381896973,0.449986188458388,0.16838214591996378,0.7086469398980837,0.2389930628683083,0.0,0.10628970450489737,0.1,0.0027513504028320312,0.0531461238861084,0.049865678,3.1271076,0.5504999721634296,0.0,0.008909185329842773,0.0,200,0.013678312301635742,0.251822349419268,0.30065167014976885,47200,0.8416168616623182,0.0
236,1.6038124561309814,0.5830372322550049,0.30911245656364733,1.0183518361561827,0.2905809698871621,0.0,0.11544768012010778,0.1,0.0026960372924804688,0.05301094055175781,0.05016345,1.1619564,0.5537536981725871,0.0,0.011600316160113217,0.0,200,0.013548612594604492,0.21939491318855292,0.22160846151375643,47400,0.9560753298351305,0.0
237,1.559206247329712,0.8071153355401113,0.42679460714616096,1.1945458798623074,0.14517487609700927,0.0,0.11784403767956739,0.1,0.0028014183044433594,0.05181121826171875,0.04999058,1.1605539,0.5790898619093395,0.0,0.016016495866403007,0.0,200,0.013428211212158203,0.28729044131655884,0.27732411337044793,47600,0.8618807102158784,0.0
238,1.5814170837402344,0.40385210886090794,0.18044952962757835,0.5999327055768999,0.1388135457552754,0.0,0.11434173340451073,0.1,0.0027930736541748047,0.05164694786071777,0.050038163,0.9029506,0.5615660866044964,0.0,0.008026594169696205,0.0,200,0.014264583587646484,0.4457676138977995,0.4308329600710409,47800,0.9866115853996527,0.0
239,1.6026153564453125,0.3561506010633161,0.16170632930345005,0.5607389358945695,0.13927717558784675,0.0,0.11509837765579202,0.1,0.0027534961700439453,0.05288362503051758,0.04963293,1.1810689,0.5410245380503784,0.0,0.007042378591360281,0.0,200,0.01365351676940918,0.9545125298402976,0.6503015076604788,48000,0.761513480456245,0.0
240,1.6325716972351074,0.38076502557932423,0.029214836320165683,0.40468395708139104,0.3317545213068724,0.0,0.10905023524917133,0.1,0.0027065277099609375,0.052753448486328125,0.048789416,1.7255894,0.524998586803273,0.0,0.007567437871378065,0.0,200,0.013918876647949219,0.4872450889473075,0.20851517984131132,48200,0.8449369537214159,0.0
241,1.6278626918792725,0.7802425042509105,0.16159948852326064,1.022588147902297,0.5685391034978936,0.0,0.1100783279882552,0.1,0.0027849674224853516,0.053008079528808594,0.04998682,1.7458584,0.5505229785480368,0.0,0.015541911591337004,0.0,200,0.015076398849487305,0.17821142530140868,0.20943893679298145,48400,1.3720332192533198,0.0
242,1.6406984329223633,0.43721937756504864,0.17650193414619572,0.6295549347530633,0.22788451518793057,0.0,0.12120299253084853,0.1,0.002769947052001953,0.05290865898132324,0.049674064,1.7071462,0.539192618449738,0.0,0.008724994780765992,0.0,200,0.013000249862670898,0.16951166693105102,0.16817815535353897,48600,1.6967783168217923,0.0
243,1.592850923538208,0.4048608418952361,0.1056574132031323,0.5553587677129787,0.27833878473633716,0.0,0.11131672434559137,0.1,0.0027191638946533203,0.05208396911621094,0.050354775,1.603533,0.5257594407942878,0.0,0.00785993381460924,0.0,200,0.01499176025390625,0.1746194075624955,0.16489839761191888,48800,1.7449091015780318,0.0
244,1.5908560752868652,0.4049954483524716,0.15702593503868634,0.6303898987790041,0.25285733049766546,0.0,0.10775951413692969,0.1,0.002955913543701172,0.05263519287109375,0.04963594,2.6804838,0.5136830415501062,0.0,0.008018907872142688,0.0,200,0.013933658599853516,0.18579906636640833,0.17604345700356117,49000,0.6124876778893461,0.0
245,1.581871509552002,0.710870620042681,0.2172576508458279,0.9784914885793963,0.3972398931168738,0.0,0.11360392499119226,0.1,0.0031614303588867188,0.05385923385620117,0.049848687,2.6921878,0.5334017993993637,0.0,0.013918389657961222,0.0,200,0.014208555221557617,0.2938932762281789,0.2611101145680892,49200,0.7372482661535794,0.0
246,1.604722499847412,0.3851261253273072,0.2825735703020309,0.8566869298441103,0.12893434506539445,0.0,0.11576036266165918,0.1,0.0030477046966552734,0.053619384765625,0.049486216,1.6001124,0.5185742319921581,0.0,0.00746118358915312,0.0,200,0.01385641098022461,0.4698017429826936,0.47105405948644585,49400,1.2357552406460977,0.0
247,1.6322083473205566,0.7150703213052866,0.3206952851809073,1.1814638211588677,0.27543281174783507,0.0,0.11515387522155628,0.1,0.002860546112060547,0.05307579040527344,0.05082095,1.3494732,0.538223840923471,0.0,0.014238740745378866,0.0,200,0.013672113418579102,0.29577165933568866,0.2771500432765973,49600,1.1854355122601183,0.0
248,1.610957384109497,0.2633644508245688,0.11562470952707887,0.41122014743612795,0.10562064728381812,0.0,0.11905036458621007,0.1,0.0028471946716308594,0.052927494049072266,0.049863406,0.9502746,0.5107379019135808,0.0,0.005263461442203592,0.0,200,0.01343393325805664,1.2515154688692645,1.2456984446106452,49800,0.311156324940744,0.0
249,1.6591072082519531,0.36113195580887847,0.34284193283837855,0.9507227358989013,0.11984667522783264,0.0,0.11168632989288974,0.1,0.07378029823303223,0.052846431732177734,0.04968926,2.3510036,0.4957773073031106,0.0,0.007138610504237754,0.0,200,0.014312267303466797,0.5744342620431877,0.5364294918319769,50000,0.5520375687546393,0.0
250,1.6200315952301025,0.5342958387743323,0.08728959932774327,0.6604803888826337,0.413746815456458,0.0,0.11527263744278424,0.1,0.0028421878814697266,0.05245494842529297,0.050457243,2.9246438,0.49962916045023276,0.0,0.010532364599854216,0.0,200,0.01673746109008789,0.06765539162260881,0.06878239463600955,50200,0.9376333983966901,0.0
251,1.6197090148925781,0.348895888508974,0.16578349686407967,0.5746828263268557,0.10984897979167518,0.0,0.11289219730805383,0.1,0.0028166770935058594,0.05600428581237793,0.04998166,3.0523758,0.48455583325610685,0.0,0.006885673862540029,0.0,200,0.01353311538696289,0.3329768731807874,0.29917347917294224,50400,0.06741594869641596,0.0
252,1.7027864456176758,0.8720791685914276,0.3186695235330159,1.4150421163733107,0.6303949285086018,0.0,0.11901565465509235,0.1,0.0028946399688720703,0.05694007873535156,0.051117774,2.3766077,0.523308166789639,0.0,0.017340594826680822,0.0,200,0.014143228530883789,0.3597312402441675,0.34169861072929847,50600,0.2545381106686274,0.0
253,1.6050286293029785,0.3455547902452495,0.15289800016114943,0.5279702194343436,0.1724341924254382,0.0,0.11312767763802328,0.1,0.002866506576538086,0.05378985404968262,0.05008197,1.1603895,0.5055328291352,0.0,0.0068939789321667555,0.0,200,0.016369104385375977,0.27560679120684606,0.30665788588042114,50800,0.27080056292629867,0.0
254,1.5915491580963135,0.4508745592539772,0.23128516417691986,0.7260243184963537,0.19378666788913795,0.0,0.11343851921406642,0.1,0.002825021743774414,0.05304908752441406,0.050530396,1.5756438,0.5000670021470778,0.0,0.00897816064744791,0.0,200,0.014088153839111328,0.20864881301125365,0.2076028910769733,51000,0.2167323273081876,0.0
255,1.6259574890136719,0.9098472419871213,0.433176625042743,1.2731259226734586,0.20176953603120373,0.0,0.11594099523888982,0.1,0.002828359603881836,0.05388450622558594,0.050082527,0.9458946,0.5410450261310822,0.0,0.01800389897206607,0.0,200,0.016679763793945312,0.3893356382081173,0.3592911570268398,51200,0.13843015601436076,0.0
256,1.6004219055175781,0.7859513493379098,0.14245333079631534,0.9603974638568866,0.5632972480337046,0.0,0.11598791697806003,0.1,0.09355497360229492,0.0815739631652832,0.049792577,1.7220272,0.5655356584517649,0.0,0.015536240909452884,0.0,200,0.014093637466430664,0.1874121316396032,0.13728303336270817,51400,0.06285539443769297,0.0
257,1.626241683959961,0.5328851174736537,0.11254405982219852,0.6847552340388621,0.3818994224380165,0.0,0.11388478836547399,0.1,0.002790212631225586,0.0538175106048584,0.050236702,1.4764075,0.5622706043539538,0.0,0.010544061946523063,0.0,200,0.013486146926879883,0.1318302621470353,0.162919017355932,51600,0.09037714410091426,0.0
258,1.645935297012329,0.5827537391280725,0.056728442100591754,0.6212787216076512,0.4849709094125655,0.0,0.11356872681370336,0.1,0.002936840057373047,0.053528547286987305,0.050454248,1.3533064,0.5643189178313657,0.0,0.01141523184214627,0.0,200,0.01389169692993164,0.05492063466590061,0.05835770690946013,51800,0.07789789313780827,0.0
259,1.6001505851745605,1.0161277889129405,0.3774953481468679,1.5348699644382915,0.5383843538197505,0.0,0.11848612360397562,0.1,0.0027856826782226562,0.054396867752075195,0.04958189,1.3661996,0.6094998049395232,0.0,0.020051020973954455,0.0,200,0.016344070434570312,0.28611027975195197,0.25571059382741423,52000,0.14506138078432398,0.0
260,1.6113715171813965,0.3866786415467166,0.21278428456684884,0.6567535683329926,0.06021542053350059,0.0,0.11571140407189327,0.1,0.002887725830078125,0.05345940589904785,0.04977776,1.5770721,0.5872176886002425,0.0,0.007634329116604927,0.0,200,0.01598978042602539,0.7595855867486898,0.785780574682859,52200,0.1512162984877241,0.0
261,1.6189262866973877,1.1732210271376877,0.4578340276094597,1.7609363170511754,0.48865693646925557,0.0,0.11522777814897855,0.1,0.0028035640716552734,0.05316329002380371,0.049943805,1.0577478,0.645818022453987,0.0,0.023250680722709364,0.0,200,0.013878583908081055,0.28698083337974467,0.2587481607447581,52400,0.09602189763035641,0.0
262,1.6906845569610596,0.8864633678977387,0.261882898116322,1.3356248077364303,0.6896014737601722,0.0,0.12285592407221825,0.1,0.003435850143432617,0.053144216537475586,0.050321322,1.0707301,0.6698825569983622,0.0,0.017509108290728624,0.0,200,0.015358448028564453,0.15453114158495987,0.14537015952781152,52600,0.1141301092313451,0.0
263,1.6397640705108643,0.6346407200103473,0.35038621672466835,1.168071387564381,0.2771485783812922,0.0,0.11516234424601628,0.1,0.002672910690307617,0.05203533172607422,0.049687322,1.4786916,0.6663583732995607,0.0,0.012474899636239014,0.0,200,0.01418924331665039,0.3408379163290266,0.3392988765536774,52800,0.2393095841480718,0.0
264,1.6120271682739258,0.4110375685360526,0.25505667592620146,0.7060813727165997,0.03268814573140248,0.0,0.11410358960409349,0.1,0.00287628173828125,0.05319857597351074,0.04980953,0.98447424,0.6408262928232099,0.0,0.008210679473215472,0.0,200,0.014087677001953125,1.1530385650455528,0.7970006981787051,53000,0.24663814137985632,0.0
265,1.6531212329864502,0.5424404076167987,0.3696655452789276,0.9972881989516882,0.1350673699685802,0.0,0.11390656147857275,0.1,0.002814054489135742,0.05388617515563965,0.050329894,1.6828249,0.6309877043025688,0.0,0.01073392225118363,0.0,200,0.017094135284423828,0.40585316422691686,0.34269624064574505,53200,0.17179696858226712,0.0
266,1.6552703380584717,0.5180207099482703,0.26514290366755766,0.8078010783759042,0.09790715425374243,0.0,0.106503045077155,0.1,0.002766132354736328,0.0531461238861084,0.048900593,4.786492,0.6196910048671389,0.0,0.010293064299922633,0.0,200,0.015155792236328125,0.3857143823284412,0.31609949790427966,53400,0.275662645642595,0.0
267,1.641958236694336,0.6931177616619167,0.2692547416199622,1.0005199691896978,0.3960707166177254,0.0,0.11669723678716849,0.1,0.0029299259185791016,0.05296683311462402,0.050051946,1.3595383,0.6270336805466167,0.0,0.013691902569797375,0.0,200,0.01402735710144043,0.1919532132478285,0.20976302002010447,53600,0.3357708121710031,0.0
268,1.6945281028747559,0.9307360510283427,0.3529944320038728,1.353024644760737,0.4217998830983299,0.0,0.1157580401050674,0.1,0.0026960372924804688,0.05216050148010254,0.049534917,1.2686162,0.6574039175947892,0.0,0.01817080008822597,0.0,200,0.016119956970214844,0.3110869750905281,0.2737548596426492,53800,0.24410218718513868,0.0
269,1.639479160308838,0.3955573003512636,0.24168616153402803,0.7570791104765302,0.08273634985707762,0.0,0.1067556436150813,0.1,0.0028111934661865234,0.05287647247314453,0.049686976,3.0634437,0.6312192558704367,0.0,0.007833252366051667,0.0,200,0.016106367111206055,0.3534388993663886,0.4065407841962038,54000,0.23951014761601683,0.0
270,1.657822847366333,0.22732682959662515,0.10947286897377935,0.33808545583751853,0.04960738741206283,0.0,0.11389805294350668,0.1,0.002834796905517578,0.05200457572937012,0.049269162,0.96307516,0.5908300132430555,0.0,0.004461656946970332,0.0,200,0.013580083847045898,2.767582071128826,2.4447675448316275,54200,0.34113347527348165,0.0
271,1.6207175254821777,1.0098939373415836,0.44318060424725486,1.5781482948955405,0.33954042018685693,0.0,0.11640001705433725,0.1,0.0027718544006347656,0.05299210548400879,0.050079152,1.3372177,0.6327364056529083,0.0,0.019727052059979183,0.0,200,0.01380610466003418,0.35898220779231826,0.34184090568278164,54400,0.675651853387013,0.0
272,1.6802704334259033,0.6113398968924747,0.3474287378913029,1.1325376607924573,0.2069845562830071,0.0,0.11174363075481693,0.1,0.002787351608276367,0.05203080177307129,0.04978268,1.4990022,0.6305967547768649,0.0,0.012097701164173965,0.0,200,0.014073371887207031,0.2814010731014127,0.2750079334810098,54600,1.4878957575297356,0.0
273,1.643181562423706,0.5169399514204266,0.18096247147092995,0.7227477112106849,0.23352694661573312,0.0,0.11649820829127772,0.1,0.002771615982055664,0.05485129356384277,0.049896143,1.1904266,0.6192310744412212,0.0,0.00996638566329202,0.0,200,0.014295101165771484,0.20554131872479145,0.20959623029579563,54800,1.2565915402510703,0.0
274,1.660581350326538,0.3197728467589919,0.04877838266994197,0.3861082325636822,0.2485831897470626,0.0,0.11162253784871902,0.1,0.0028345584869384766,0.053328752517700195,0.04949852,2.648847,0.5892852516729983,0.0,0.006344803424339757,0.0,200,0.014121294021606445,1.0432136635041755,0.8962969736548403,55000,1.038908908090969,0.0
275,1.66739821434021,0.497538798810387,0.4267383642229635,1.2122935256321374,0.0984828331634642,0.0,0.11099578773042022,0.1,0.002746105194091797,0.05231213569641113,0.04961618,2.5414498,0.5801106063867372,0.0,0.009735041901670898,0.0,200,0.01567840576171875,0.4568596599018368,0.4491264408553434,55200,1.0678944693075096,0.0
276,1.6442844867706299,0.644653884356821,0.3623261144614386,1.1659491757073497,0.27737468988888075,0.0,0.1155347564460745,0.1,0.0027894973754882812,0.05220198631286621,0.050005283,1.7611518,0.5865649341837456,0.0,0.012503701488371578,0.0,200,0.014528751373291016,0.3125121765269841,0.31618292215045085,55400,0.690454097621307,0.0
277,1.6283764839172363,0.5288057448960443,0.41108615463488185,1.182044631584668,0.12513389931832303,0.0,0.1229438962854661,0.1,0.002704620361328125,0.0520932674407959,0.050043058,1.438429,0.5807890152549755,0.0,0.010446497773697787,0.0,200,0.01412343978881836,0.43940767001434144,0.4365773168974372,55600,0.30310612861646113,0.0
278,1.7078089714050293,0.734108854013096,0.1849311739314613,0.9857039051328123,0.4668653700529222,0.0,0.11722711271351187,0.1,0.002798318862915039,0.05282020568847656,0.04986169,2.1692495,0.5961209991307875,0.0,0.014486761272067342,0.0,200,0.013766765594482422,0.18200617167207436,0.17172361258429186,55800,0.361800450248471,0.0
279,1.6364362239837646,0.7701927798608027,0.3900182151644227,1.3549810590317517,0.3255674543646416,0.0,0.11347978027019781,0.1,0.002704143524169922,0.05207967758178711,0.049617734,1.604843,0.613528177203789,0.0,0.015154263160769694,0.0,200,0.015601634979248047,0.3220391887730837,0.3087699456600847,56000,0.915647445599424,0.0
280,1.6571903228759766,0.7174675534314754,0.2548176785569517,1.013469968241891,0.3103659966001149,0.0,0.11437435565114755,0.1,0.0866861343383789,0.05218315124511719,0.0501088,1.4835869,0.6239221148265577,0.0,0.014002792596106393,0.0,200,0.01397252082824707,0.21184058051098573,0.19957059180419398,56200,0.40224176866002886,0.0
281,1.661797285079956,0.7133942215079591,0.443687691692802,1.4208555422807687,0.21111349196457546,0.0,0.11802646290138215,0.1,0.0027358531951904297,0.05275988578796387,0.04993847,1.7022771,0.6328693254946979,0.0,0.013640042081966248,0.0,200,0.013228654861450195,0.3359512217462065,0.31808449249188797,56400,0.4465909375717884,0.0
282,1.667241096496582,0.9331164730922287,0.1201236279109589,1.1060188506768942,0.7796226022123305,0.0,0.11292723009229852,0.1,0.002880096435546875,0.05480051040649414,0.05045446,1.6527786,0.662894040254451,0.0,0.018575318005214107,0.0,200,0.013538360595703125,0.15900006138730996,0.11018481804589915,56600,0.3635335932543761,0.0
283,1.6748676300048828,0.5803944276665518,0.2957070910751796,1.0902025137189726,0.3755367995603102,0.0,0.1212513085514353,0.1,0.0027959346771240234,0.05238509178161621,0.05017705,1.9412047,0.6546440789956611,0.0,0.011476110022204368,0.0,200,0.013882160186767578,0.2918061403560229,0.3123295719847272,56800,0.3873882254892352,0.0
284,1.658735752105713,0.4246014595061117,0.26459940606090604,0.8652649401815247,0.18550571657015757,0.0,0.11569339381379824,0.1,0.0027294158935546875,0.05432415008544922,0.05018549,2.04386,0.6316398170467062,0.0,0.008381247673567597,0.0,200,0.01375436782836914,0.8440775812375749,0.6932270058644036,57000,0.2693528531125705,0.0
285,1.6636557579040527,1.0343752645520523,0.18773874981575725,1.320659541430266,0.7949699164644375,0.0,0.11813642144293532,0.1,0.0028421878814697266,0.05312514305114746,0.04966737,1.6749508,0.6719133617972408,0.0,0.019773568710516047,0.0,200,0.013747453689575195,0.16429866778713742,0.163199088353779,57200,0.24616076840829762,0.0
286,1.6655759811401367,0.4773229663406081,0.3126194949197078,0.8732585641414652,0.13897764263485296,0.0,0.11316863141280643,0.1,0.0036153793334960938,0.05205583572387695,0.05047332,2.7243469,0.6524543222515775,0.0,0.009396302043206664,0.0,200,0.013495922088623047,0.5225377758528833,0.5115642017669091,57400,0.16886758527650234,0.0
287,1.6404521465301514,0.8300419159694297,0.1631911119834045,0.957524106756659,0.555040241605629,0.0,0.11333580438571367,0.1,0.002819061279296875,0.052025556564331055,0.05029492,0.94722867,0.6702130816233627,0.0,0.01626520331645024,0.0,200,0.013230085372924805,0.10888666542493117,0.10907400218793013,57600,0.24140949531927847,0.0
288,1.6484711170196533,1.0241685951917505,0.26402198448485803,1.4474633232923577,0.7406816316058501,0.0,0.11310256374004883,0.1,0.0027353763580322266,0.05261659622192383,0.0497157,1.6099968,0.7056086329802016,0.0,0.0201276389942716,0.0,200,0.013565301895141602,0.2147782313400671,0.18767014018153316,57800,0.27146533807713485,0.0
289,1.6529924869537354,0.4459767155056849,0.41236106103055553,1.0942977534620097,0.019845674667929643,0.0,0.11391735579259527,0.1,0.002770662307739258,0.05196785926818848,0.04955866,1.4103907,0.67964544123275,0.0,0.008894790584465722,0.0,200,0.014010190963745117,0.7341029047128621,0.7392153893579978,58000,0.3341421099368169,0.0
290,1.6501624584197998,0.8571231153924986,0.1616529412355033,1.0697565958965674,0.6174405084881553,0.0,0.11985531899396865,0.1,0.0030422210693359375,0.053212881088256836,0.04974467,1.1067675,0.6973932086487248,0.0,0.016886126263933106,0.0,200,0.015329122543334961,0.0897683630755221,0.08827042051296273,58200,0.8006437029887424,0.0
291,1.6675944328308105,0.7039896648756514,0.33670861723163126,1.0057387825238155,0.13497536909794752,0.0,0.11121598435489682,0.1,0.00284576416015625,0.05359625816345215,0.04982436,1.0233113,0.6980528542714175,0.0,0.013907382845220202,0.0,200,0.01582193374633789,0.24785335311598503,0.24394739181868202,58400,0.7811129227387571,0.0
292,1.660247564315796,0.615125770820313,0.315612324233655,1.0659358803046872,0.1984058245391627,0.0,0.11550621614386379,0.1,0.0028753280639648438,0.05382370948791504,0.050334767,1.4161044,0.6897601459263071,0.0,0.012240889301464252,0.0,200,0.013577461242675781,0.28042068141254617,0.2637147276391036,58600,0.6762482163455431,0.0
293,1.660585641860962,0.613800457484062,0.37059041600707987,1.0168424390012658,0.1536437543252239,0.0,0.11720357172029018,0.1,0.0027780532836914062,0.05453372001647949,0.0499298,1.3415643,0.6821641770820825,0.0,0.0122256695532343,0.0,200,0.013422489166259766,0.33495972177344324,0.31539276471674904,58800,1.2097974304816288,0.0
294,1.6840972900390625,0.9413980479519135,0.3804697547343433,1.4373759711157892,0.3854050510449957,0.0,0.1179684397989004,0.1,0.09346222877502441,0.1929783821105957,0.05027097,1.0789131,0.7080875641690657,0.0,0.018510379769119952,0.0,200,0.015275001525878906,0.23697152284628017,0.23414433969551735,59000,0.7894867600278545,0.0
295,1.6650474071502686,0.694615278658632,0.4861848577932676,1.485601784909075,0.17112407994302195,0.0,0.11056801613502806,0.1,0.0027348995208740234,0.05173206329345703,0.049795628,2.5894532,0.7067403356180224,0.0,0.013635124853615,0.0,200,0.013841390609741211,0.3668707370513339,0.3643959814302795,59200,0.5544101510492626,0.0
296,1.6573586463928223,0.551599219947384,0.5384560714698625,1.4752052639495021,0.1365628273683363,0.0,0.11522069509031511,0.1,0.0027663707733154297,0.05280137062072754,0.04989963,1.9786907,0.6912262240509586,0.0,0.01094916515449213,0.0,200,0.015701770782470703,0.519612015566436,0.5157336455100016,59400,1.1723741639857066,0.0
297,1.6948113441467285,0.7864580221138884,0.2745042203118963,1.0302396563382905,0.33809030735668333,0.0,0.11731651016686395,0.1,0.0027627944946289062,0.05279898643493652,0.049716204,1.1819966,0.7007494038572516,0.0,0.015717027636708014,0.0,200,0.015706539154052734,0.14248664695898103,0.13913373967573145,59600,0.7266119995255554,0.0
298,1.6413722038269043,0.6441475663029085,0.2982670262424316,1.1390554496847343,0.35749589987688407,0.0,0.11012295969245993,0.1,0.002696990966796875,0.0520780086517334,0.050426826,2.0557342,0.6950892201018173,0.0,0.012686315796969373,0.0,200,0.01544809341430664,0.23429461083287154,0.21997254176754227,59800,0.7981030257814153,0.0
299,1.6554126739501953,0.5357546484190063,0.28038352901899927,0.8957795240167941,0.10851489196260898,0.0,0.113583425428348,0.1,0.0027115345001220703,0.05179572105407715,0.049205564,1.1838043,0.6791557629335363,0.0,0.0106482589899265,0.0,200,0.016068220138549805,0.30573935746426095,0.2947258551530312,60000,1.0717109422798559,0.0
300,1.719252586364746,0.8475666972908491,0.37015773037336624,1.36322324156038,0.3362526931575872,0.0,0.11684497622704691,0.1,0.0027658939361572266,0.05223417282104492,0.04974839,1.9280634,0.6959968563692676,0.0,0.016733328547607007,0.0,200,0.013293266296386719,0.23902372285935355,0.24061363912965425,60200,1.3636594865508116,0.0
301,1.69557785987854,0.8265466871689917,0.579747046076179,1.7875477579872028,0.31288487227710726,0.0,0.12231709832095988,0.1,0.002714395523071289,0.051872968673706055,0.050039712,1.6632779,0.70905183944924,0.0,0.016383276431547623,0.0,200,0.013625621795654297,0.3775498699587825,0.35824839265788305,60400,0.7414015920335105,0.0
302,1.6695020198822021,0.5430418367652973,0.3985124389629713,1.1119158235400193,0.1657817480414651,0.0,0.11443316684676445,0.1,0.002770662307739258,0.05163216590881348,0.05016873,1.7641412,0.6924508391808457,0.0,0.010773535569378316,0.0,200,0.013346672058105469,0.41230503143829805,0.4188335885293511,60600,0.534349566753993,0.0
303,1.6934995651245117,0.9099549611555402,0.5379432114217894,1.6432313547476176,0.15924964091638108,0.0,0.1134844597591802,0.1,0.002753019332885742,0.05163216590881348,0.049700342,1.3155545,0.7142012513783151,0.0,0.017816337577386147,0.0,200,0.013853311538696289,0.34787687689015634,0.3317863123005261,60800,0.6447158795395546,0.0
304,1.7297239303588867,0.8040735342943509,0.4768568150737479,1.4758698893588271,0.27158879114521856,0.0,0.11527128991559722,0.1,0.002771139144897461,0.05332040786743164,0.05019828,1.5472214,0.7231884796699187,0.0,0.015875925452376916,0.0,200,0.014018058776855469,0.28502039848406846,0.27842777036060434,61000,0.41330521453630614,0.0
305,2.0903453826904297,0.5566539917817739,0.3238261797505917,1.108454278125312,0.3160490671057783,0.0,0.11121107816243753,0.1,0.0027086734771728516,0.05269336700439453,0.049434833,1.9726886,0.7065350308811043,0.0,0.010980825264387109,0.0,200,0.013486623764038086,0.38309773408684,0.37369369241876826,61200,0.601549663693795,0.0
306,1.648862361907959,0.8028381225119567,0.4744469083127003,1.340512194219398,0.041512653495865574,0.0,0.11556506944209091,0.1,0.0029497146606445312,0.05316662788391113,0.050138894,1.0225495,0.7161653400441896,0.0,0.01595700575017184,0.0,200,0.013942480087280273,0.29334464788750153,0.29035472915497335,61400,0.4676826378148293,0.0
307,1.6256482601165771,0.8724509409100567,0.4301017570763692,1.509770928122282,0.30252614936750916,0.0,0.11070971588799354,0.1,0.002947568893432617,0.05176687240600586,0.050240263,2.251807,0.7317939001307764,0.0,0.01702209229133661,0.0,200,0.01363682746887207,0.22435208594418204,0.220358313410995,61600,0.7867969446825221,0.0
308,1.6320481300354004,0.8759526490382726,0.43688155083811897,1.5479645457558915,0.4866306681085874,0.0,0.11253018695519273,0.1,0.0031816959381103516,0.05264115333557129,0.049785,1.901821,0.7462097750215261,0.0,0.01718164163529379,0.0,200,0.013332843780517578,0.2370528270395987,0.228608673678966,61800,0.8360880014214919,0.0
309,1.695448875427246,0.7352864488092982,0.4849478705797495,1.2488415820859775,0.05975012419257183,0.0,0.11173592700674144,0.1,0.00274658203125,0.05182623863220215,0.050101258,1.2848135,0.7451174424003033,0.0,0.014468325136165918,0.0,200,0.015085220336914062,0.3325771282599389,0.33132664298938186,62000,0.9441189767752706,0.0
310,1.6475012302398682,0.6326981170988333,0.47874084344717527,1.4393187809140109,0.18294284422833876,0.0,0.11205965844363369,0.1,0.0027222633361816406,0.05219268798828125,0.04955913,1.9782447,0.7338755098701564,0.0,0.012395198290288033,0.0,200,0.016606569290161133,0.43183138489374734,0.4157434820531727,62200,0.6203037542962457,0.0
311,1.6338603496551514,0.9155513865690946,0.12239029866596819,1.0896377737040295,0.7929319059438251,0.0,0.11956941471290947,0.1,0.002723217010498047,0.05165505409240723,0.049628105,1.288906,0.7520430975400502,0.0,0.017929703474984595,0.0,200,0.013740301132202148,0.09057592765695834,0.09065618381490285,62400,0.735897975838267,0.0
312,1.63694429397583,0.558731025900899,0.2914212276989804,0.9336859174030484,0.26836219097747993,0.0,0.11889732578733371,0.1,0.0027506351470947266,0.05955100059509277,0.04999352,1.5450032,0.732711890376135,0.0,0.011154064726292594,0.0,200,0.014106988906860352,0.40467325417160993,0.3573488429685138,62600,0.3548473594226316,0.0
313,1.6775643825531006,0.7368347943679194,0.4847094601823795,1.3751227442240543,0.16372717835684766,0.0,0.1163336779895909,0.1,0.0028684139251708984,0.05641436576843262,0.049692445,1.4846345,0.7331241807753135,0.0,0.01447718454651571,0.0,200,0.014679193496704102,0.3335991718706575,0.32829353153105684,62800,0.6813815348549933,0.0
314,1.7131078243255615,1.0893621415919275,0.41038852145940735,1.5864409731203883,0.5110167465399181,0.0,0.1159013643724171,0.1,0.002876758575439453,0.0528414249420166,0.050120078,1.5588089,0.7687479768569749,0.0,0.021593999109684507,0.0,200,0.014322757720947266,0.279982241711255,0.259462054618936,63000,1.4543363939031437,0.0
315,1.6804871559143066,0.6714748704192178,0.45412999934970427,1.242648168381771,0.19175848874058385,0.0,0.11379930333615411,0.1,0.002656221389770508,0.05181479454040527,0.049963504,1.6611806,0.7590206662131992,0.0,0.013183986246755854,0.0,200,0.013977766036987305,0.34260058969465407,0.34796750131913434,63200,1.2501521666358075,0.0
316,1.6821084022521973,1.0232062453914301,0.3910942306032669,1.3824602269421178,0.3657993085338096,0.0,0.11412875259886184,0.1,0.0026845932006835938,0.052292823791503906,0.049985193,1.5470605,0.7854392241310223,0.0,0.020206879283266203,0.0,200,0.014405250549316406,0.21788243481961558,0.1976021454474859,63400,1.0593151536834455,0.0
317,1.6318747997283936,0.38068927663299,0.21889080216088602,0.6231585695941106,0.13823097995616532,0.0,0.11297647109703605,0.1,0.0028171539306640625,0.0523371696472168,0.04994335,0.70833987,0.7449642293812191,0.0,0.007425373650256783,0.0,200,0.014908790588378906,1.2791984778958168,1.1982355012736856,63600,0.9779568343150794,0.0
318,1.6687698364257812,0.956852817354763,0.7253446694193094,2.099789976312528,0.08777647467057374,0.0,0.11720208240693707,0.1,0.0028412342071533203,0.052388906478881836,0.049836997,1.8904103,0.7661530881785735,0.0,0.018843822308572244,0.0,200,0.01558995246887207,0.40103809847003474,0.4023856000821134,63800,0.6171243374317069,0.0
319,1.6727893352508545,1.07857278944545,0.29156400543688354,1.5231708009527547,0.7218823797024304,0.0,0.1131297591360754,0.1,0.00266265869140625,0.05248594284057617,0.050281964,2.106463,0.7973950583052611,0.0,0.02125180865508073,0.0,200,0.014725208282470703,0.15975280325189017,0.1405888139909056,64000,1.3601748278138193,0.0
320,1.718442678451538,0.5569865812160811,0.414236745839974,1.2479931104201478,0.22965463915053597,0.0,0.11424590031893288,0.1,0.0027484893798828125,0.052947998046875,0.04977287,2.1597533,0.7733542105963431,0.0,0.010867555884911156,0.0,200,0.014322757720947266,0.5682247262458927,0.5808211414360567,64200,1.2969556691160165,0.0
321,1.6993827819824219,0.8830016754907147,0.6153843139096317,1.6031125897723162,0.22257762951424861,0.0,0.11468741933447837,0.1,0.002970457077026367,0.05258965492248535,0.05003323,1.3705869,0.7843189570857803,0.0,0.017198519713185156,0.0,200,0.014068126678466797,0.3616699125096538,0.35873121164245525,64400,1.0479278387480193,0.0
322,1.7021198272705078,0.4561189494676243,0.34840502671774704,0.9980765200319812,0.06925506333017628,0.0,0.11305994844076994,0.1,0.0026924610137939453,0.051863670349121094,0.049542475,2.5319357,0.7514989563239647,0.0,0.008975663782088606,0.0,200,0.013668298721313477,0.7830875535856641,0.6556837894713378,64600,1.1737643172246839,0.0
323,1.6683120727539062,1.2936003710380446,0.15183162692008642,1.5493125114923527,1.1711194916156806,0.0,0.12194679205383219,0.1,0.0027265548706054688,0.05269646644592285,0.05027505,1.0786362,0.8057090977953727,0.0,0.025233720643204255,0.0,200,0.014163494110107422,0.20430720133267824,0.19416558948892418,64800,0.8517817647424955,0.0
324,1.7214443683624268,1.0533415113721016,0.4261827396148516,1.4459512961747933,0.33655278520996107,0.0,0.1199405226117745,0.1,0.002868175506591797,0.05286526679992676,0.05013037,0.9153887,0.8304723391530455,0.0,0.020805136138133506,0.0,200,0.015914440155029297,0.1990385071017219,0.16886466116506557,65000,1.0627663442184456,0.0
325,1.6627247333526611,0.9041102384775537,0.16823123434258702,1.0836314980333697,0.6767963974084806,0.0,0.11968440051082338,0.1,0.002863168716430664,0.05308723449707031,0.05046925,1.0942459,0.8378361290854963,0.0,0.017906623360878043,0.0,200,0.014621257781982422,0.08052730730438162,0.08185358935908119,65200,0.8822910714559957,0.0
326,1.662670373916626,0.8317683665651916,0.5539893986830827,1.6642555024550731,0.12110034018910301,0.0,0.11663598321136698,0.1,0.0027267932891845703,0.05207228660583496,0.04955505,1.3334956,0.8372293528334659,0.0,0.01638571893657993,0.0,200,0.014679431915283203,0.3614427254618961,0.36100302562597314,65400,1.3288138639412441,0.0
327,1.677807092666626,0.750289181316362,0.4829056830267295,1.32992919408307,0.17551063263522504,0.0,0.11286595096160217,0.1,0.0027594566345214844,0.052751779556274414,0.05027746,1.3103696,0.8285353356817555,0.0,0.014878600498410471,0.0,200,0.01672077178955078,0.3909446435853042,0.35009809540404846,65600,0.9808148513242049,0.0
328,1.6297876834869385,1.1826042107850283,0.43092200230048056,1.6346791305451216,0.5642031511984035,0.0,0.11148390855260201,0.1,0.0026803016662597656,0.05166029930114746,0.0502281,2.5225859,0.8639422231920829,0.0,0.022923398412051266,0.0,200,0.01417088508605957,0.20586124004319448,0.20526713159996632,65800,1.1528782069279522,0.0
329,1.658315896987915,0.5144585856077151,0.3714862618019273,0.9413622026851935,0.04996888232868897,0.0,0.12126156534993236,0.1,0.002850055694580078,0.05193638801574707,0.04977191,1.1442908,0.8289938594336462,0.0,0.009827370123415502,0.0,200,0.02037191390991211,0.762944636727644,0.7074918015827911,66000,1.7812502375223571,0.0
330,1.6215450763702393,0.8280561393227972,0.42933847893482857,1.2310912423465974,0.12549786895333626,0.0,0.11543277764340487,0.1,0.002859830856323242,0.052042484283447266,0.050333112,0.8682779,0.8289000874225613,0.0,0.01616649422404599,0.0,200,0.01448369026184082,0.24460943274668082,0.24125885965729535,66200,1.2141640495083177,0.0
331,1.6385226249694824,0.5256211765077504,0.05183678064691555,0.5982744811544205,0.4521087081614838,0.0,0.11511536582893112,0.1,0.002875089645385742,0.05202841758728027,0.0499544,1.4720244,0.7985721963310801,0.0,0.010479033789349295,0.0,200,0.021402835845947266,0.3978071334159838,0.2755871349267839,66400,1.9302669630826237,0.0
332,1.671928882598877,0.9847068261526162,0.2944517477817945,1.4895007466565933,0.7479420119204088,0.0,0.11126013648978546,0.1,0.0030164718627929688,0.05327939987182617,0.04973755,1.7409991,0.8171856593132337,0.0,0.019297001235348728,0.0,200,0.015346527099609375,0.17656557594274053,0.1819531880041566,66600,0.9430056289359157,0.0
333,1.689767599105835,1.2268094533852798,0.18274987255676453,1.5432646775531276,1.1167112669782495,0.0,0.11347993705680703,0.1,0.0029664039611816406,0.051989078521728516,0.04986792,1.7260225,0.8581480387204384,0.0,0.024247830184156643,0.0,200,0.017582416534423828,0.192324332729523,0.15968762473702292,66800,1.169362535414937,0.0
334,1.6691529750823975,0.9446662268908701,0.34219994024925604,1.1530573252036254,0.3523172927364386,0.0,0.1081702680493312,0.1,0.08707237243652344,0.05300760269165039,0.049848333,0.9529231,0.8667998575374816,0.0,0.018673958690042514,0.0,200,0.019669771194458008,0.17435179980765644,0.15870673318435782,67000,0.9594843041059103,0.0
335,1.6582896709442139,1.248223249017399,0.2023578306364739,1.4703031200090293,1.0400663527966312,0.0,0.11298369843718517,0.1,0.0030698776245117188,0.052834510803222656,0.05056919,1.1108938,0.9049421966854734,0.0,0.024578239367771076,0.0,200,0.015619754791259766,0.1371586668649049,0.10407930265167491,67200,0.6711748782737669,0.0
336,1.6646356582641602,1.3018004949814201,0.4487319121118301,1.8171987135176557,0.6129692027869099,0.0,0.11559295373578511,0.1,0.0027861595153808594,0.052477121353149414,0.04987843,1.0262144,0.944628026515068,0.0,0.025431241995815146,0.0,200,0.014933109283447266,0.19849910045332075,0.16648643667223764,67400,0.3873104301134867,0.0
337,1.7109997272491455,0.5423192753340024,0.3838835079740655,1.0923632509198258,0.022351024287112883,0.0,0.11473141979503422,0.1,0.0028336048126220703,0.052353620529174805,0.050363798,1.3795968,0.9043971513969615,0.0,0.010839983446975204,0.0,200,0.015104055404663086,1.3920813499828548,1.2622078448956113,67600,0.6147670668305285,0.0
338,1.6847825050354004,0.7887018646213746,0.3011199581293837,1.239791699466178,0.40962987535109424,0.0,0.11514256547072074,0.1,0.004674434661865234,0.05478334426879883,0.050262634,1.2438672,0.8928276227194029,0.0,0.01562637623519869,0.0,200,0.015083789825439453,0.3215795540921465,0.22916729585695772,67800,0.7608724687720573,0.0
339,1.6649041175842285,0.9710498390837328,0.47501865380754343,1.7498750795305194,0.46233799143929455,0.0,0.12098020544328114,0.1,0.002744913101196289,0.05170035362243652,0.0502755,2.0566602,0.9006498443558358,0.0,0.019266227417982767,0.0,200,0.015176534652709961,0.20961797472416072,0.21411967324444003,68000,0.8909885943100355,0.0
340,1.7137377262115479,1.0406567445417205,0.3949361878057106,1.3504029661716237,0.38323151047415815,0.0,0.117624696462345,0.1,0.0028314590454101562,0.051511526107788086,0.04987231,1.0458225,0.9146505343744243,0.0,0.020546090440951015,0.0,200,0.01506805419921875,0.1491183139943579,0.1551981925695232,68200,0.9646203877131488,0.0
341,1.7139666080474854,0.9438322881990924,0.45918227609068163,1.441881332225556,0.21550488237444765,0.0,0.1140769743513705,0.1,0.0027594566345214844,0.05236935615539551,0.04986169,1.0747527,0.9175687097568912,0.0,0.018566654882981634,0.0,200,0.016631126403808594,0.21039224889930044,0.2066458024523868,68400,0.3591541740606729,0.0
342,1.7148635387420654,0.6088960049797352,0.23295446892349456,0.9633941295539661,0.3327733609002078,0.0,0.11505092918042224,0.1,0.0027434825897216797,0.051485300064086914,0.050322123,1.0370567,0.8867014392791757,0.0,0.012058091084499931,0.0,200,0.015329599380493164,0.31640057518425097,0.2986712200369893,68600,0.05909687310967195,0.0
343,1.6660058498382568,0.8511510572197012,0.3554563498335577,1.2444222778503335,0.3170207594570499,0.0,0.11584272248937104,0.1,0.0028433799743652344,0.051064252853393555,0.049318314,1.2636164,0.8831464010732283,0.0,0.016626230836625167,0.0,200,0.016247034072875977,0.18760498634756015,0.18366388688517163,68800,0.4874880016177326,0.0
344,1.6262507438659668,0.9524277241664889,0.40087774784693436,1.303525196442289,0.32388894931755613,0.0,0.11953380915319402,0.1,0.0029633045196533203,0.05544757843017578,0.04934533,1.09775,0.8900745333825544,0.0,0.018769430824751916,0.0,200,0.01581430435180664,0.17724533134565,0.17592635353358096,69000,1.043434168389569,0.0
345,1.6885595321655273,0.764148709227924,0.4079986453308939,1.223896708224773,0.34299170354869996,0.0,0.11393537782133935,0.1,0.002859830856323242,0.05247998237609863,0.049964253,1.2704519,0.8774819509670914,0.0,0.015142738590981563,0.0,200,0.01753544807434082,0.2495178742260256,0.24414106965614418,69200,0.34326043340865303,0.0
346,1.6203954219818115,0.8519916062598011,0.5851753062987777,1.6506792798674064,0.24365948639102594,0.0,0.11683367040613651,0.1,0.002695322036743164,0.05254626274108887,0.049960565,1.411172,0.8749329164963623,0.0,0.01689022338997378,0.0,200,0.015740633010864258,0.34139062235374995,0.3415558118897333,69400,0.86061766436625,0.0
347,1.6548218727111816,1.6674779701905107,0.2467927176408955,1.966682142008056,1.3521680693916078,0.0,0.11554792188400195,0.1,0.002808094024658203,0.052243947982788086,0.05004636,1.5851651,0.9541874218657771,0.0,0.03247781687632175,0.0,200,0.01793670654296875,0.2792586860116543,0.22607241684244078,69600,1.7637041220296108,0.0
348,1.6512999534606934,1.0724279539124215,0.22910812623787036,1.2943697090217965,0.6974980739391324,0.0,0.1151913227305022,0.1,0.002833843231201172,0.05355954170227051,0.049640723,0.79841727,0.9660114750704416,0.0,0.02092464649728904,0.0,200,0.015678882598876953,0.08785665444185296,0.09148602420971999,69800,1.2540230744351015,0.0
349,1.658310890197754,0.704339734079305,0.17681244715087518,0.9581126957863673,0.4725284603994725,0.0,0.12032234168167934,0.1,0.002743244171142578,0.05513405799865723,0.050201155,0.94213164,0.9398443009713279,0.0,0.013632483763742907,0.0,200,0.01579141616821289,0.3987601858152687,0.423617174114875,70000,1.808976958924032,0.0
350,1.6887662410736084,0.8171587633920219,0.3251966929824685,1.3728501523521877,0.5796412889848992,0.0,0.12035132045560144,0.1,0.0027513504028320312,0.05175638198852539,0.04995996,1.5066882,0.9275757472133973,0.0,0.016155307027147642,0.0,200,0.01582026481628418,0.26993546394251255,0.21398714197496005,70200,1.7747305516521923,0.0
351,1.6513447761535645,0.9223991566829761,0.40037611872057416,1.377892271471684,0.49922823562273605,0.0,0.11393107953825243,0.1,0.0028591156005859375,0.05403590202331543,0.05000024,1.1275725,0.9270580881603552,0.0,0.018222793545265292,0.0,200,0.015681982040405273,0.192740433358738,0.18059565259746155,70400,0.950255424044275,0.0
352,1.6683504581451416,0.8610618184814494,0.14752182658869403,1.0001700567421081,0.6187104392983204,0.0,0.12082212764548633,0.1,0.0027616024017333984,0.05272412300109863,0.04995849,1.0329725,0.9204584611924647,0.0,0.016758995939023906,0.0,200,0.014490365982055664,0.09637115081436998,0.0906450062624653,70600,1.1376264415501027,0.0
353,1.716092824935913,1.2335685807792962,0.513116934622188,1.8253602019103112,0.5553922528674368,0.0,0.11143433601300795,0.1,0.0026307106018066406,0.05244302749633789,0.04991991,1.1514213,0.9517694731511478,0.0,0.02366444487173055,0.0,200,0.015821456909179688,0.22345854608171087,0.2167404494118434,70800,0.7611773674700363,0.0
354,1.6930148601531982,0.9035603913394736,0.560539658832493,1.7607013724086047,0.2755305349819833,0.0,0.12044486412604621,0.1,0.0026578903198242188,0.05213284492492676,0.04998846,1.1829189,0.9469485649699805,0.0,0.017860364574515352,0.0,200,0.018148422241210938,0.31738125166826797,0.3195818587172322,71000,1.7176647969061671,0.0
355,1.701164722442627,1.0773064385285567,0.541150285399452,1.5463884978951528,0.16383552952423283,0.0,0.10741186911223104,0.1,0.002735137939453125,0.05235576629638672,0.04979761,1.0899523,0.9599843523258381,0.0,0.021014850154539792,0.0,200,0.015883922576904297,0.23990643415486032,0.2305169005644405,71200,0.8446942588217702,0.0
356,1.7283320426940918,1.0261990906607508,0.24754476167088804,1.3084781590837438,0.6278347366854116,0.0,0.11610630690992263,0.1,0.002771615982055664,0.05196571350097656,0.049542397,1.1493548,0.9666058261593294,0.0,0.020103923689232264,0.0,200,0.01592850685119629,0.064554566757144,0.06325947594037366,71400,1.5230753909609511,0.0
357,1.8094205856323242,0.8883304035370477,0.4968913147366136,1.4129490398328233,0.07035496876527379,0.0,0.11747050108411537,0.1,0.002727031707763672,0.0521998405456543,0.05013107,0.9155533,0.9587782838971013,0.0,0.017274991085217375,0.0,200,0.016794204711914062,0.2519377629327964,0.25026177872533917,71600,1.0697414537678107,0.0
358,1.7087359428405762,0.7731102231908196,0.6039838275032761,1.427580461975475,0.151808699454924,0.0,0.11591496746515328,0.1,0.0026268959045410156,0.0512697696685791,0.050149906,1.0965062,0.9402114778264731,0.0,0.015106173030854505,0.0,200,0.016079425811767578,0.4211210864949071,0.40606663434586526,71800,1.1531382863947797,0.0
