Iter | Sampling Pol | Evaluation Pol | Best (Sampled) 
   0 75.33 75.31 -100000000.00 
   1 75.33 75.32 75.33 
   2 75.30 75.31 75.33 
   3 75.37 75.33 75.33 
   4 75.37 75.33 75.37 
   5 75.17 75.34 75.37 
   6 75.14 75.36 75.37 
   7 75.29 75.34 75.37 
   8 75.19 75.35 75.37 
   9 75.18 75.35 75.37 
  10 75.30 75.34 75.37 
  11 75.38 75.34 75.37 
  12 75.13 75.36 75.38 
  13 75.22 75.40 75.38 
  14 75.33 75.45 75.38 
  15 75.14 75.40 75.38 
  16 75.23 75.40 75.38 
  17 75.07 75.37 75.38 
  18 75.33 75.33 75.38 
  19 75.13 75.37 75.38 
  20 75.24 75.35 75.38 
  21 75.20 75.35 75.38 
  22 75.17 75.34 75.38 
  23 75.29 75.28 75.38 
  24 75.20 75.28 75.38 
  25 75.27 75.29 75.38 
  26 75.21 75.29 75.38 
  27 75.21 75.29 75.38 
  28 75.21 75.30 75.38 
  29 75.22 75.29 75.38 
  30 75.30 75.29 75.38 
  31 75.34 75.27 75.38 
  32 75.18 75.24 75.38 
  33 75.13 75.27 75.38 
  34 75.18 75.25 75.38 
  35 75.15 75.27 75.38 
  36 75.11 75.28 75.38 
  37 75.13 75.30 75.38 
  38 75.11 75.30 75.38 
  39 75.43 75.29 75.38 
  40 75.23 75.28 75.43 
  41 75.14 75.26 75.43 
  42 75.22 75.31 75.43 
  43 75.34 75.30 75.43 
  44 75.23 75.30 75.43 
  45 75.25 75.31 75.43 
  46 75.30 75.30 75.43 
  47 75.07 75.30 75.43 
  48 75.22 75.32 75.43 
  49 75.20 75.30 75.43 
  50 75.12 75.31 75.43 
  51 75.29 75.34 75.43 
  52 75.26 75.30 75.43 
  53 75.31 75.31 75.43 
  54 75.19 75.31 75.43 
  55 75.21 75.35 75.43 
  56 75.22 75.36 75.43 
  57 75.28 75.32 75.43 
  58 75.24 75.28 75.43 
  59 75.24 75.31 75.43 
  60 75.27 75.31 75.43 
  61 75.25 75.31 75.43 
  62 75.34 75.34 75.43 
  63 75.32 75.37 75.43 
  64 75.15 75.38 75.43 
  65 75.22 75.31 75.43 
  66 75.32 75.36 75.43 
  67 75.29 75.36 75.43 
  68 75.39 75.38 75.43 
  69 75.20 75.30 75.43 
  70 75.09 75.31 75.43 
  71 75.21 75.29 75.43 
  72 75.35 75.31 75.43 
  73 75.23 75.30 75.43 
  74 75.16 75.31 75.43 
  75 75.26 75.31 75.43 
  76 75.28 75.34 75.43 
  77 75.18 75.33 75.43 
  78 75.33 75.34 75.43 
  79 75.23 75.31 75.43 
  80 75.26 75.31 75.43 
  81 75.26 75.31 75.43 
  82 75.26 75.30 75.43 
  83 75.27 75.29 75.43 
  84 75.29 75.31 75.43 
  85 75.30 75.33 75.43 
  86 75.31 75.37 75.43 
  87 75.31 75.36 75.43 
  88 75.29 75.35 75.43 
  89 75.23 75.33 75.43 
  90 75.27 75.33 75.43 
  91 75.22 75.28 75.43 
  92 75.14 75.33 75.43 
  93 75.28 75.34 75.43 
  94 75.22 75.33 75.43 
  95 75.21 75.32 75.43 
  96 75.21 75.34 75.43 
  97 75.20 75.34 75.43 
  98 75.27 75.34 75.43 
  99 75.35 75.32 75.43 
 100 75.24 75.29 75.43 
 101 75.21 75.19 75.43 
 102 75.28 75.30 75.43 
 103 75.35 75.31 75.43 
 104 75.14 75.34 75.43 
 105 75.33 75.33 75.43 
 106 75.32 75.32 75.43 
 107 75.25 75.30 75.43 
 108 75.20 75.31 75.43 
 109 75.32 75.30 75.43 
 110 75.40 75.32 75.43 
 111 75.32 75.29 75.43 
 112 75.25 75.28 75.43 
 113 75.30 75.28 75.43 
 114 75.35 75.28 75.43 
 115 75.23 75.28 75.43 
 116 75.27 75.30 75.43 
 117 75.24 75.29 75.43 
 118 75.32 75.29 75.43 
 119 75.37 75.28 75.43 
 120 75.34 75.29 75.43 
 121 75.20 75.29 75.43 
 122 75.30 75.29 75.43 
 123 75.06 75.28 75.43 
 124 75.31 75.27 75.43 
 125 75.36 75.27 75.43 
 126 75.28 75.26 75.43 
 127 75.25 75.26 75.43 
 128 75.25 75.26 75.43 
 129 75.31 75.26 75.43 
 130 75.27 75.26 75.43 
 131 75.19 75.26 75.43 
 132 75.21 75.26 75.43 
 133 75.29 75.26 75.43 
 134 75.12 75.26 75.43 
 135 75.23 75.26 75.43 
 136 75.11 75.26 75.43 
 137 75.27 75.26 75.43 
 138 75.23 75.26 75.43 
 139 75.36 75.26 75.43 
 140 75.34 75.26 75.43 
 141 75.19 75.26 75.43 
 142 75.17 75.26 75.43 
 143 75.22 75.26 75.43 
 144 75.24 75.26 75.43 
 145 75.28 75.26 75.43 
 146 75.30 75.26 75.43 
 147 75.27 75.26 75.43 
 148 75.15 75.26 75.43 
 149 75.27 75.26 75.43 
 150 75.14 75.26 75.43 
 151 75.30 75.26 75.43 
 152 75.36 75.26 75.43 
 153 75.27 75.26 75.43 
 154 75.30 75.26 75.43 
 155 75.20 75.27 75.43 
 156 75.29 75.28 75.43 
 157 75.32 75.27 75.43 
 158 75.28 75.28 75.43 
 159 75.29 75.27 75.43 
 160 75.31 75.27 75.43 
 161 75.28 75.28 75.43 
 162 75.26 75.28 75.43 
 163 75.28 75.28 75.43 
 164 75.31 75.28 75.43 
 165 75.30 75.28 75.43 
 166 75.23 75.27 75.43 
 167 75.26 75.27 75.43 
 168 75.29 75.26 75.43 
 169 75.24 75.27 75.43 
 170 75.19 75.27 75.43 
 171 75.26 75.23 75.43 
 172 75.29 75.24 75.43 
 173 75.29 75.27 75.43 
 174 75.29 75.25 75.43 
 175 75.19 75.27 75.43 
 176 75.26 75.27 75.43 
 177 75.27 75.26 75.43 
 178 75.23 75.25 75.43 
 179 75.29 75.25 75.43 
 180 75.30 75.26 75.43 
 181 75.27 75.26 75.43 
 182 75.26 75.25 75.43 
 183 75.28 75.23 75.43 
 184 75.31 75.27 75.43 
 185 75.28 75.26 75.43 
 186 75.38 75.26 75.43 
 187 75.27 75.26 75.43 
 188 75.25 75.27 75.43 
 189 75.20 75.25 75.43 
 190 75.32 75.14 75.43 
 191 75.29 75.16 75.43 
 192 75.20 75.26 75.43 
 193 75.27 75.26 75.43 
 194 75.31 75.23 75.43 
 195 75.31 75.26 75.43 
 196 75.23 75.26 75.43 
 197 75.29 75.26 75.43 
 198 75.32 75.27 75.43 
 199 75.28 75.26 75.43 
 200 75.24 75.27 75.43 
 201 75.28 75.27 75.43 
 202 75.29 75.26 75.43 
 203 75.27 75.26 75.43 
 204 75.28 75.26 75.43 
 205 75.23 75.25 75.43 
 206 75.39 75.24 75.43 
 207 75.28 75.23 75.43 
 208 75.30 75.23 75.43 
 209 75.28 75.23 75.43 
 210 75.28 75.26 75.43 
 211 75.35 75.26 75.43 
 212 75.35 75.26 75.43 
 213 75.28 75.27 75.43 
 214 75.32 75.27 75.43 
 215 75.24 75.27 75.43 
 216 75.32 75.27 75.43 
 217 75.29 75.27 75.43 
 218 75.33 75.27 75.43 
 219 75.32 75.27 75.43 
 220 75.31 75.27 75.43 
 221 75.19 75.27 75.43 
 222 75.25 75.27 75.43 
 223 75.31 75.26 75.43 
 224 75.33 75.26 75.43 
 225 75.35 75.27 75.43 
 226 75.29 75.27 75.43 
 227 75.31 75.27 75.43 
 228 75.29 75.27 75.43 
 229 75.34 75.27 75.43 
 230 75.31 75.27 75.43 
 231 75.27 75.27 75.43 
 232 75.34 75.27 75.43 
 233 75.45 75.27 75.43 
 234 75.33 75.27 75.45 
 235 75.33 75.27 75.45 
 236 75.28 75.27 75.45 
 237 75.31 75.27 75.45 
 238 75.29 75.27 75.45 
 239 75.21 75.27 75.45 
 240 75.32 75.27 75.45 
 241 75.19 75.27 75.45 
 242 75.16 75.26 75.45 
 243 75.30 75.27 75.45 
 244 75.32 75.27 75.45 
 245 75.30 75.26 75.45 
 246 75.24 75.26 75.45 
 247 75.26 75.26 75.45 
 248 75.29 75.27 75.45 
 249 75.32 75.27 75.45 
 250 75.29 75.26 75.45 
 251 75.30 75.26 75.45 
 252 75.26 75.27 75.45 
 253 75.32 75.27 75.45 
 254 75.26 75.28 75.45 
 255 75.31 75.27 75.45 
 256 75.22 75.29 75.45 
 257 75.21 75.31 75.45 
 258 75.34 75.29 75.45 
 259 75.31 75.27 75.45 
 260 75.30 75.27 75.45 
 261 75.30 75.31 75.45 
 262 75.33 75.30 75.45 
 263 75.31 75.34 75.45 
 264 75.34 75.36 75.45 
 265 75.29 75.37 75.45 
 266 75.33 75.36 75.45 
 267 75.33 75.15 75.45 
 268 75.27 75.28 75.45 
 269 75.30 75.25 75.45 
 270 75.36 75.14 75.45 
 271 75.24 75.18 75.45 
 272 75.32 75.31 75.45 
 273 75.38 75.20 75.45 
 274 75.30 75.28 75.45 
 275 75.16 75.27 75.45 
 276 75.16 75.28 75.45 
 277 75.27 75.27 75.45 
 278 75.29 75.31 75.45 
 279 75.25 75.28 75.45 
 280 75.30 75.12 75.45 
 281 75.23 75.34 75.45 
 282 75.37 75.31 75.45 
 283 75.33 75.27 75.45 
 284 75.21 75.27 75.45 
 285 75.29 75.27 75.45 
 286 75.28 75.27 75.45 
 287 75.29 75.27 75.45 
 288 75.22 75.27 75.45 
 289 75.23 75.27 75.45 
 290 75.32 75.26 75.45 
 291 75.26 75.26 75.45 
 292 75.35 75.26 75.45 
 293 75.22 75.26 75.45 
 294 75.23 75.26 75.45 
 295 75.36 75.26 75.45 
 296 75.33 75.26 75.45 
 297 75.25 75.26 75.45 
 298 75.15 75.27 75.45 
 299 75.28 75.27 75.45 
 300 75.21 75.26 75.45 
 301 75.35 75.27 75.45 
 302 75.25 75.26 75.45 
 303 75.18 75.27 75.45 
 304 75.34 75.26 75.45 
 305 75.29 75.27 75.45 
 306 75.27 75.26 75.45 
 307 75.16 75.26 75.45 
 308 75.21 75.26 75.45 
 309 75.20 75.26 75.45 
 310 75.26 75.26 75.45 
 311 75.30 75.26 75.45 
 312 75.30 75.26 75.45 
 313 75.33 75.26 75.45 
 314 75.31 75.26 75.45 
 315 75.24 75.26 75.45 
 316 75.30 75.26 75.45 
 317 75.29 75.26 75.45 
 318 75.29 75.26 75.45 
 319 75.23 75.26 75.45 
 320 75.24 75.26 75.45 
 321 75.28 75.26 75.45 
 322 75.31 75.26 75.45 
 323 75.27 75.26 75.45 
 324 75.18 75.26 75.45 
 325 75.26 75.26 75.45 
 326 75.28 75.27 75.45 
 327 75.16 75.27 75.45 
 328 75.29 75.26 75.45 
 329 75.22 75.27 75.45 
 330 75.27 75.27 75.45 
 331 75.29 75.26 75.45 
 332 75.30 75.26 75.45 
 333 75.27 75.26 75.45 
 334 75.25 75.26 75.45 
 335 75.26 75.26 75.45 
 336 75.30 75.26 75.45 
 337 75.27 75.26 75.45 
 338 75.29 75.26 75.45 
 339 75.27 75.26 75.45 
 340 75.29 75.26 75.45 
 341 75.28 75.26 75.45 
 342 75.28 75.26 75.45 
 343 75.27 75.26 75.45 
 344 75.28 75.26 75.45 
 345 75.28 75.26 75.45 
 346 75.19 75.26 75.45 
 347 75.28 75.26 75.45 
 348 75.32 75.26 75.45 
 349 75.29 75.26 75.45 
 350 75.23 75.26 75.45 
 351 75.21 75.26 75.45 
 352 75.27 75.26 75.45 
 353 75.27 75.26 75.45 
 354 75.27 75.26 75.45 
 355 75.30 75.26 75.45 
 356 75.26 75.26 75.45 
 357 75.14 75.26 75.45 
 358 75.32 75.26 75.45 
 359 75.30 75.26 75.45 
 360 75.29 75.26 75.45 
 361 75.33 75.26 75.45 
 362 75.30 75.26 75.45 
 363 75.23 75.27 75.45 
 364 75.28 75.27 75.45 
 365 75.23 75.27 75.45 
 366 75.24 75.27 75.45 
 367 75.25 75.27 75.45 
 368 75.30 75.27 75.45 
 369 75.10 75.27 75.45 
 370 75.27 75.26 75.45 
 371 75.22 75.27 75.45 
 372 75.25 75.26 75.45 
 373 75.32 75.26 75.45 
 374 75.19 75.26 75.45 
 375 75.27 75.26 75.45 
 376 75.19 75.26 75.45 
 377 75.31 75.26 75.45 
 378 75.29 75.26 75.45 
 379 75.27 75.26 75.45 
 380 75.26 75.26 75.45 
 381 75.29 75.26 75.45 
 382 75.27 75.26 75.45 
 383 75.22 75.26 75.45 
 384 75.37 75.27 75.45 
 385 75.25 75.27 75.45 
 386 75.29 75.27 75.45 
 387 75.27 75.27 75.45 
 388 75.22 75.27 75.45 
 389 75.28 75.28 75.45 
 390 75.27 75.28 75.45 
 391 75.26 75.27 75.45 
 392 75.26 75.27 75.45 
 393 75.34 75.27 75.45 
 394 75.31 75.26 75.45 
 395 75.27 75.26 75.45 
 396 75.21 75.26 75.45 
 397 75.29 75.26 75.45 
 398 75.34 75.27 75.45 
 399 75.20 75.26 75.45 
 400 75.27 75.26 75.45 
 401 75.28 75.26 75.45 
 402 75.22 75.26 75.45 
 403 75.29 75.26 75.45 
 404 75.28 75.26 75.45 
 405 75.28 75.26 75.45 
 406 75.26 75.26 75.45 
 407 75.15 75.26 75.45 
 408 75.27 75.26 75.45 
 409 75.23 75.26 75.45 
 410 75.28 75.26 75.45 
 411 75.29 75.27 75.45 
 412 75.29 75.26 75.45 
 413 75.27 75.26 75.45 
 414 75.30 75.26 75.45 
 415 75.25 75.27 75.45 
 416 75.28 75.26 75.45 
 417 75.28 75.26 75.45 
 418 75.21 75.26 75.45 
 419 75.30 75.27 75.45 
 420 75.30 75.27 75.45 
 421 75.28 75.27 75.45 
 422 75.29 75.27 75.45 
 423 75.33 75.27 75.45 
 424 75.24 75.27 75.45 
 425 75.32 75.27 75.45 
 426 75.29 75.27 75.45 
 427 75.26 75.27 75.45 
 428 75.30 75.27 75.45 
 429 75.29 75.27 75.45 
 430 75.32 75.27 75.45 
 431 75.29 75.27 75.45 
 432 75.27 75.27 75.45 
 433 75.27 75.27 75.45 
 434 75.32 75.27 75.45 
 435 75.32 75.27 75.45 
 436 75.28 75.27 75.45 
 437 75.32 75.27 75.45 
 438 75.30 75.27 75.45 
 439 75.26 75.26 75.45 
 440 75.42 75.26 75.45 
 441 75.23 75.26 75.45 
 442 75.32 75.26 75.45 
 443 75.29 75.26 75.45 
 444 75.28 75.26 75.45 
 445 75.29 75.26 75.45 
 446 75.30 75.26 75.45 
 447 75.29 75.26 75.45 
 448 75.27 75.26 75.45 
 449 75.25 75.26 75.45 
 450 75.28 75.26 75.45 
 451 75.25 75.26 75.45 
 452 75.36 75.26 75.45 
 453 75.32 75.26 75.45 
 454 75.28 75.26 75.45 
 455 75.31 75.26 75.45 
 456 75.32 75.26 75.45 
 457 75.28 75.26 75.45 
 458 75.29 75.26 75.45 
 459 75.31 75.26 75.45 
 460 75.27 75.27 75.45 
 461 75.28 75.27 75.45 
 462 75.31 75.27 75.45 
 463 75.26 75.27 75.45 
 464 75.30 75.27 75.45 
 465 75.30 75.27 75.45 
 466 75.28 75.27 75.45 
 467 75.28 75.27 75.45 
 468 75.25 75.27 75.45 
 469 75.22 75.26 75.45 
 470 75.35 75.26 75.45 
 471 75.29 75.27 75.45 
 472 75.32 75.27 75.45 
 473 75.37 75.26 75.45 
 474 75.34 75.27 75.45 
 475 75.29 75.26 75.45 
 476 75.28 75.27 75.45 
 477 75.27 75.26 75.45 
 478 75.28 75.27 75.45 
 479 75.30 75.26 75.45 
 480 75.28 75.26 75.45 
 481 75.27 75.27 75.45 
 482 75.26 75.26 75.45 
 483 75.30 75.26 75.45 
 484 75.31 75.26 75.45 
 485 75.28 75.26 75.45 
 486 75.28 75.26 75.45 
 487 75.27 75.26 75.45 
 488 75.30 75.27 75.45 
 489 75.28 75.27 75.45 
 490 75.29 75.27 75.45 
 491 75.28 75.27 75.45 
 492 75.28 75.27 75.45 
 493 75.29 75.27 75.45 
 494 75.29 75.27 75.45 
 495 75.29 75.26 75.45 
 496 75.28 75.27 75.45 
 497 75.30 75.27 75.45 
 498 75.30 75.26 75.45 
 499 75.28 75.27 75.45 
 500 75.28 75.27 75.45 
 501 75.29 75.26 75.45 
 502 75.30 75.26 75.45 
 503 75.26 75.27 75.45 
 504 75.27 75.27 75.45 
 505 75.28 75.26 75.45 
 506 75.22 75.26 75.45 
 507 75.28 75.26 75.45 
 508 75.32 75.26 75.45 
 509 75.28 75.26 75.45 
 510 75.32 75.26 75.45 
 511 75.28 75.26 75.45 
 512 75.28 75.26 75.45 
 513 75.29 75.26 75.45 
 514 75.32 75.26 75.45 
 515 75.27 75.26 75.45 
 516 75.23 75.26 75.45 
 517 75.28 75.26 75.45 
 518 75.26 75.26 75.45 
 519 75.29 75.26 75.45 
 520 75.28 75.26 75.45 
 521 75.27 75.26 75.45 
 522 75.33 75.26 75.45 
 523 75.32 75.26 75.45 
 524 75.30 75.26 75.45 
 525 75.22 75.26 75.45 
 526 75.28 75.27 75.45 
 527 75.29 75.26 75.45 
 528 75.27 75.26 75.45 
 529 75.25 75.27 75.45 
 530 75.31 75.26 75.45 
 531 75.31 75.26 75.45 
 532 75.27 75.26 75.45 
 533 75.30 75.26 75.45 
 534 75.30 75.26 75.45 
 535 75.28 75.26 75.45 
 536 75.28 75.27 75.45 
 537 75.29 75.27 75.45 
 538 75.27 75.26 75.45 
 539 75.28 75.26 75.45 
 540 75.28 75.26 75.45 
 541 75.26 75.26 75.45 
 542 75.28 75.26 75.45 
 543 75.28 75.26 75.45 
 544 75.29 75.26 75.45 
 545 75.29 75.26 75.45 
 546 75.29 75.26 75.45 
 547 75.18 75.26 75.45 
 548 75.28 75.26 75.45 
 549 75.27 75.26 75.45 
 550 75.30 75.26 75.45 
 551 75.29 75.26 75.45 
 552 75.24 75.26 75.45 
 553 75.28 75.26 75.45 
 554 75.28 75.26 75.45 
 555 75.27 75.26 75.45 
 556 75.27 75.26 75.45 
 557 75.28 75.26 75.45 
 558 75.29 75.26 75.45 
 559 75.31 75.26 75.45 
 560 75.26 75.26 75.45 
 561 75.27 75.26 75.45 
 562 75.25 75.26 75.45 
 563 75.28 75.26 75.45 
 564 75.31 75.26 75.45 
 565 75.26 75.26 75.45 
 566 75.22 75.26 75.45 
 567 75.30 75.26 75.45 
 568 75.29 75.26 75.45 
 569 75.30 75.26 75.45 
 570 75.25 75.26 75.45 
 571 75.23 75.26 75.45 
 572 75.28 75.26 75.45 
 573 75.27 75.26 75.45 
 574 75.25 75.26 75.45 
 575 75.29 75.26 75.45 
 576 75.29 75.26 75.45 
 577 75.25 75.26 75.45 
 578 75.30 75.26 75.45 
 579 75.27 75.26 75.45 
 580 75.28 75.26 75.45 
 581 75.28 75.26 75.45 
 582 75.28 75.26 75.45 
 583 75.30 75.26 75.45 
 584 75.26 75.26 75.45 
 585 75.27 75.26 75.45 
 586 75.28 75.26 75.45 
 587 75.27 75.26 75.45 
 588 75.27 75.26 75.45 
 589 75.29 75.26 75.45 
 590 75.28 75.26 75.45 
 591 75.27 75.26 75.45 
 592 75.27 75.26 75.45 
 593 75.23 75.26 75.45 
 594 75.28 75.26 75.45 
 595 75.27 75.26 75.45 
 596 75.29 75.26 75.45 
 597 75.29 75.26 75.45 
 598 75.27 75.26 75.45 
 599 75.27 75.26 75.45 
 600 75.30 75.26 75.45 
 601 75.27 75.26 75.45 
 602 75.27 75.26 75.45 
 603 75.28 75.26 75.45 
 604 75.26 75.26 75.45 
 605 75.27 75.26 75.45 
 606 75.27 75.27 75.45 
 607 75.27 75.26 75.45 
 608 75.28 75.27 75.45 
 609 75.30 75.27 75.45 
 610 75.27 75.27 75.45 
 611 75.27 75.27 75.45 
 612 75.26 75.28 75.45 
 613 75.28 75.28 75.45 
 614 75.22 75.27 75.45 
 615 75.27 75.27 75.45 
 616 75.26 75.27 75.45 
 617 75.30 75.27 75.45 
 618 75.27 75.27 75.45 
 619 75.28 75.27 75.45 
 620 75.29 75.27 75.45 
 621 75.29 75.27 75.45 
 622 75.29 75.27 75.45 
 623 75.27 75.27 75.45 
 624 75.28 75.27 75.45 
 625 75.27 75.27 75.45 
 626 75.17 75.27 75.45 
 627 75.27 75.27 75.45 
 628 75.28 75.27 75.45 
 629 75.27 75.27 75.45 
 630 75.29 75.27 75.45 
 631 75.27 75.27 75.45 
 632 75.27 75.27 75.45 
 633 75.16 75.27 75.45 
 634 75.27 75.28 75.45 
 635 75.26 75.28 75.45 
 636 75.27 75.28 75.45 
 637 75.23 75.28 75.45 
 638 75.28 75.28 75.45 
 639 75.27 75.28 75.45 
 640 75.29 75.27 75.45 
 641 75.30 75.27 75.45 
 642 75.26 75.27 75.45 
 643 75.27 75.26 75.45 
 644 75.29 75.28 75.45 
 645 75.26 75.27 75.45 
 646 75.26 75.27 75.45 
 647 75.27 75.27 75.45 
 648 75.27 75.27 75.45 
 649 75.27 75.27 75.45 
 650 75.27 75.27 75.45 
 651 75.27 75.28 75.45 
 652 75.26 75.28 75.45 
 653 75.27 75.28 75.45 
 654 75.27 75.28 75.45 
 655 75.27 75.28 75.45 
 656 75.27 75.28 75.45 
 657 75.27 75.27 75.45 
 658 75.28 75.28 75.45 
 659 75.26 75.28 75.45 
 660 75.27 75.29 75.45 
 661 75.27 75.28 75.45 
 662 75.27 75.28 75.45 
 663 75.18 75.29 75.45 
 664 75.27 75.29 75.45 
 665 75.27 75.27 75.45 
 666 75.29 75.26 75.45 
 667 75.27 75.24 75.45 
 668 75.29 75.29 75.45 
 669 75.27 75.28 75.45 
 670 75.27 75.25 75.45 
 671 75.27 75.26 75.45 
 672 75.27 75.26 75.45 
 673 75.27 75.26 75.45 
 674 75.27 75.27 75.45 
 675 75.26 75.26 75.45 
 676 75.27 75.26 75.45 
 677 75.27 75.26 75.45 
 678 75.30 75.26 75.45 
 679 75.28 75.26 75.45 
 680 75.21 75.26 75.45 
 681 75.27 75.26 75.45 
 682 75.29 75.26 75.45 
 683 75.27 75.26 75.45 
 684 75.16 75.26 75.45 
 685 75.27 75.26 75.45 
 686 75.28 75.26 75.45 
 687 75.27 75.27 75.45 
 688 75.26 75.27 75.45 
 689 75.26 75.26 75.45 
 690 75.27 75.27 75.45 
 691 75.27 75.27 75.45 
 692 75.26 75.27 75.45 
 693 75.26 75.26 75.45 
 694 75.31 75.27 75.45 
 695 75.27 75.28 75.45 
 696 75.26 75.27 75.45 
 697 75.27 75.28 75.45 
 698 75.27 75.28 75.45 
 699 75.26 75.29 75.45 
 700 75.29 75.28 75.45 
 701 75.27 75.28 75.45 
 702 75.22 75.28 75.45 
 703 75.30 75.28 75.45 
 704 75.27 75.28 75.45 
 705 75.29 75.29 75.45 
 706 75.28 75.28 75.45 
 707 75.26 75.28 75.45 
 708 75.26 75.27 75.45 
 709 75.29 75.29 75.45 
 710 75.27 75.26 75.45 
 711 75.27 75.27 75.45 
 712 75.27 75.26 75.45 
 713 75.15 75.29 75.45 
 714 75.31 75.26 75.45 
 715 75.27 75.26 75.45 
 716 75.26 75.25 75.45 
 717 75.27 75.26 75.45 
 718 75.26 75.25 75.45 
 719 75.20 75.26 75.45 
 720 75.27 75.26 75.45 
 721 75.28 75.28 75.45 
 722 75.29 75.26 75.45 
 723 75.28 75.25 75.45 
 724 75.28 75.26 75.45 
 725 75.27 75.26 75.45 
 726 75.27 75.28 75.45 
 727 75.28 75.27 75.45 
 728 75.24 75.25 75.45 
 729 75.24 75.27 75.45 
 730 75.18 75.26 75.45 
 731 75.29 75.27 75.45 
 732 75.25 75.27 75.45 
 733 75.28 75.25 75.45 
 734 75.27 75.24 75.45 
 735 75.21 75.25 75.45 
 736 75.29 75.26 75.45 
 737 75.24 75.27 75.45 
 738 75.31 75.27 75.45 
 739 75.26 75.28 75.45 
 740 75.06 75.28 75.45 
 741 75.29 75.27 75.45 
 742 75.27 75.27 75.45 
 743 75.29 75.28 75.45 
 744 75.16 75.27 75.45 
 745 75.28 75.27 75.45 
 746 75.25 75.26 75.45 
 747 75.24 75.26 75.45 
 748 75.27 75.26 75.45 
 749 75.28 75.26 75.45 
 750 75.26 75.24 75.45 
 751 75.27 75.24 75.45 
 752 75.21 75.24 75.45 
 753 75.20 75.24 75.45 
 754 75.28 75.25 75.45 
 755 75.16 75.26 75.45 
 756 75.26 75.25 75.45 
 757 75.28 75.26 75.45 
 758 75.31 75.25 75.45 
 759 75.27 75.25 75.45 
 760 75.27 75.25 75.45 
 761 75.15 75.25 75.45 
 762 75.24 75.25 75.45 
 763 75.26 75.25 75.45 
 764 75.27 75.25 75.45 
 765 75.27 75.24 75.45 
 766 75.33 75.25 75.45 
 767 75.31 75.24 75.45 
 768 75.27 75.24 75.45 
 769 75.26 75.24 75.45 
 770 75.30 75.26 75.45 
 771 75.25 75.26 75.45 
 772 75.26 75.26 75.45 
 773 75.31 75.25 75.45 
 774 75.25 75.26 75.45 
 775 75.28 75.26 75.45 
 776 75.27 75.25 75.45 
 777 75.16 75.26 75.45 
 778 75.27 75.27 75.45 
 779 75.21 75.27 75.45 
 780 75.27 75.27 75.45 
 781 75.17 75.27 75.45 
 782 75.27 75.27 75.45 
 783 75.26 75.26 75.45 
 784 75.14 75.25 75.45 
 785 75.18 75.26 75.45 
 786 75.16 75.25 75.45 
 787 75.24 75.25 75.45 
 788 75.08 75.25 75.45 
 789 75.26 75.25 75.45 
 790 75.27 75.24 75.45 
 791 75.23 75.21 75.45 
 792 75.25 75.22 75.45 
 793 75.27 75.24 75.45 
 794 75.28 75.24 75.45 
 795 75.28 75.24 75.45 
 796 75.26 75.25 75.45 
 797 75.29 75.24 75.45 
 798 75.27 75.24 75.45 
 799 75.28 75.23 75.45 
 800 75.27 75.23 75.45 
 801 75.27 75.23 75.45 
 802 75.27 75.22 75.45 
 803 75.28 75.22 75.45 
 804 75.17 75.24 75.45 
 805 75.29 75.23 75.45 
 806 75.27 75.24 75.45 
 807 75.27 75.24 75.45 
 808 75.26 75.24 75.45 
 809 75.26 75.24 75.45 
 810 75.28 75.24 75.45 
 811 75.28 75.24 75.45 
 812 75.30 75.24 75.45 
 813 75.27 75.22 75.45 
 814 75.27 75.23 75.45 
 815 75.27 75.24 75.45 
 816 75.28 75.24 75.45 
 817 75.27 75.23 75.45 
 818 75.28 75.24 75.45 
 819 75.29 75.23 75.45 
 820 75.28 75.23 75.45 
 821 75.19 75.23 75.45 
 822 75.26 75.22 75.45 
 823 75.24 75.24 75.45 
 824 75.30 75.23 75.45 
 825 75.30 75.24 75.45 
 826 75.17 75.25 75.45 
 827 75.27 75.25 75.45 
 828 75.27 75.24 75.45 
 829 75.26 75.25 75.45 
 830 75.17 75.25 75.45 
 831 75.27 75.25 75.45 
 832 75.28 75.24 75.45 
 833 75.22 75.25 75.45 
 834 75.29 75.24 75.45 
 835 75.26 75.22 75.45 
 836 75.30 75.23 75.45 
 837 75.30 75.22 75.45 
 838 75.27 75.21 75.45 
 839 75.28 75.23 75.45 
 840 75.29 75.23 75.45 
 841 75.28 74.86 75.45 
 842 75.27 75.21 75.45 
 843 75.27 75.22 75.45 
 844 75.17 75.22 75.45 
 845 75.26 75.23 75.45 
 846 75.26 75.24 75.45 
 847 75.26 75.22 75.45 
 848 75.20 75.24 75.45 
 849 75.26 75.23 75.45 
 850 75.29 74.86 75.45 
 851 75.28 75.24 75.45 
 852 75.19 75.22 75.45 
 853 75.16 75.26 75.45 
 854 75.27 75.24 75.45 
 855 75.31 75.26 75.45 
 856 75.28 75.26 75.45 
 857 75.19 75.26 75.45 
 858 75.27 75.26 75.45 
 859 75.30 75.25 75.45 
 860 75.14 75.26 75.45 
 861 75.28 75.26 75.45 
 862 75.27 75.26 75.45 
 863 75.27 75.26 75.45 
 864 75.26 75.26 75.45 
 865 75.19 75.26 75.45 
 866 75.28 75.26 75.45 
 867 75.07 75.26 75.45 
 868 75.26 75.26 75.45 
 869 75.26 75.26 75.45 
 870 75.26 75.26 75.45 
 871 75.26 75.26 75.45 
 872 75.26 75.26 75.45 
 873 75.29 75.26 75.45 
 874 75.28 75.26 75.45 
 875 75.27 75.26 75.45 
 876 75.09 75.26 75.45 
 877 75.26 75.26 75.45 
 878 75.26 75.26 75.45 
 879 75.07 75.26 75.45 
 880 75.28 75.26 75.45 
 881 75.17 75.26 75.45 
 882 75.28 75.26 75.45 
 883 75.25 75.26 75.45 
 884 75.21 75.26 75.45 
 885 75.30 75.26 75.45 
 886 75.25 75.26 75.45 
 887 75.09 75.26 75.45 
 888 75.26 75.26 75.45 
 889 75.32 75.26 75.45 
 890 75.27 75.26 75.45 
 891 75.06 75.26 75.45 
 892 75.23 75.26 75.45 
 893 75.25 75.26 75.45 
 894 75.28 75.26 75.45 
 895 75.26 75.26 75.45 
 896 75.28 75.26 75.45 
 897 75.16 75.26 75.45 
 898 75.26 75.26 75.45 
 899 75.28 75.26 75.45 
 900 75.29 75.26 75.45 
 901 75.22 75.26 75.45 
 902 75.29 75.26 75.45 
 903 75.27 75.26 75.45 
 904 75.24 75.26 75.45 
 905 75.24 75.26 75.45 
 906 75.28 75.26 75.45 
 907 75.28 75.26 75.45 
 908 75.27 75.26 75.45 
 909 75.20 75.26 75.45 
 910 75.17 75.26 75.45 
 911 75.27 75.26 75.45 
 912 75.28 75.26 75.45 
 913 75.15 75.26 75.45 
 914 75.28 75.26 75.45 
 915 75.15 75.26 75.45 
 916 75.34 75.26 75.45 
 917 75.16 75.26 75.45 
 918 75.17 75.26 75.45 
 919 75.21 75.23 75.45 
 920 75.25 75.26 75.45 
 921 75.21 75.26 75.45 
 922 75.14 75.26 75.45 
 923 75.26 75.26 75.45 
 924 75.18 75.26 75.45 
 925 75.09 75.26 75.45 
 926 75.20 75.26 75.45 
 927 75.27 75.26 75.45 
 928 75.18 75.26 75.45 
 929 75.12 75.26 75.45 
 930 75.24 75.26 75.45 
 931 75.28 75.26 75.45 
 932 75.29 75.26 75.45 
 933 75.25 75.26 75.45 
 934 75.22 75.26 75.45 
 935 75.27 75.26 75.45 
 936 75.27 75.26 75.45 
 937 75.32 75.26 75.45 
 938 75.21 75.26 75.45 
 939 75.26 74.86 75.45 
 940 75.27 75.26 75.45 
 941 75.25 75.29 75.45 
 942 75.27 75.15 75.45 
 943 75.30 75.27 75.45 
 944 75.18 75.26 75.45 
 945 75.19 74.86 75.45 
 946 75.26 74.86 75.45 
 947 75.26 74.86 75.45 
 948 75.05 74.87 75.45 
 949 75.26 74.87 75.45 
 950 75.26 74.87 75.45 
 951 75.30 74.87 75.45 
 952 75.22 74.86 75.45 
 953 75.21 74.86 75.45 
 954 75.25 74.86 75.45 
 955 75.29 74.86 75.45 
 956 75.25 74.86 75.45 
 957 75.27 74.86 75.45 
 958 75.18 74.88 75.45 
 959 75.17 75.26 75.45 
 960 75.02 74.86 75.45 
 961 75.13 74.86 75.45 
 962 75.00 74.87 75.45 
 963 75.29 74.86 75.45 
 964 75.28 74.87 75.45 
 965 75.16 74.91 75.45 
 966 75.16 75.26 75.45 
 967 75.25 75.25 75.45 
 968 75.14 74.87 75.45 
 969 75.26 74.86 75.45 
 970 75.23 74.86 75.45 
 971 75.26 74.86 75.45 
 972 75.26 74.90 75.45 
 973 75.28 74.87 75.45 
 974 75.26 75.26 75.45 
 975 75.26 75.26 75.45 
 976 75.27 75.26 75.45 
 977 75.26 75.26 75.45 
 978 75.21 75.26 75.45 
 979 75.16 74.87 75.45 
 980 75.16 75.25 75.45 
 981 75.13 74.87 75.45 
 982 75.26 75.26 75.45 
 983 75.26 75.13 75.45 
 984 75.26 74.87 75.45 
 985 75.06 74.87 75.45 
 986 75.26 74.96 75.45 
 987 75.28 74.86 75.45 
 988 75.27 74.86 75.45 
 989 75.18 74.86 75.45 
 990 75.32 75.26 75.45 
 991 75.25 75.26 75.45 
 992 75.16 75.26 75.45 
 993 75.26 75.26 75.45 
 994 75.26 75.26 75.45 
 995 75.27 75.26 75.45 
 996 75.26 75.26 75.45 
 997 75.26 75.26 75.45 
 998 75.19 75.26 75.45 
 999 75.26 75.26 75.45 
1000 75.13 75.26 75.45 
1001 75.27 75.26 75.45 
1002 75.06 75.26 75.45 
1003 75.25 75.26 75.45 
1004 75.26 75.26 75.45 
1005 75.26 75.26 75.45 
1006 75.17 75.26 75.45 
1007 75.05 75.26 75.45 
1008 75.26 75.26 75.45 
1009 75.08 75.26 75.45 
1010 75.26 75.26 75.45 
1011 75.26 75.26 75.45 
1012 75.25 75.26 75.45 
1013 75.14 75.26 75.45 
1014 72.32 75.26 75.45 
1015 75.17 75.26 75.45 
1016 75.29 75.26 75.45 
1017 75.27 75.26 75.45 
1018 75.26 75.26 75.45 
1019 75.26 75.26 75.45 
1020 75.28 75.26 75.45 
1021 75.26 75.26 75.45 
1022 75.26 75.26 75.45 
1023 75.17 75.26 75.45 
1024 75.27 75.26 75.45 
1025 75.26 75.26 75.45 
1026 75.21 75.26 75.45 
1027 75.26 75.26 75.45 
1028 75.26 75.26 75.45 
1029 75.19 75.26 75.45 
1030 75.26 75.26 75.45 
1031 75.26 75.26 75.45 
1032 75.26 75.26 75.45 
1033 75.26 75.26 75.45 
1034 75.26 75.26 75.45 
1035 75.27 75.26 75.45 
1036 75.27 75.26 75.45 
1037 75.29 75.26 75.45 
1038 75.26 75.26 75.45 
1039 75.10 75.26 75.45 
1040 75.28 75.26 75.45 
1041 75.25 75.26 75.45 
1042 75.26 75.26 75.45 
1043 75.26 75.26 75.45 
1044 75.20 75.26 75.45 
1045 75.26 75.26 75.45 
1046 75.26 75.26 75.45 
1047 75.26 75.26 75.45 
1048 75.26 75.26 75.45 
1049 75.27 75.26 75.45 
1050 75.17 75.26 75.45 
1051 75.07 75.26 75.45 
1052 75.26 75.26 75.45 
1053 75.16 75.26 75.45 
1054 75.27 75.26 75.45 
1055 75.26 75.26 75.45 
1056 75.26 75.26 75.45 
1057 75.27 75.26 75.45 
1058 75.26 75.26 75.45 
1059 75.16 75.26 75.45 
1060 73.12 75.26 75.45 
1061 75.27 75.26 75.45 
1062 75.15 75.26 75.45 
1063 75.27 75.26 75.45 
1064 75.25 75.26 75.45 
1065 75.18 75.26 75.45 
1066 75.26 75.26 75.45 
1067 75.26 75.26 75.45 
1068 75.27 75.26 75.45 
1069 75.17 75.26 75.45 
1070 75.19 75.26 75.45 
1071 75.29 75.26 75.45 
1072 75.23 75.26 75.45 
1073 75.24 75.26 75.45 
1074 75.24 75.26 75.45 
1075 75.10 75.26 75.45 
1076 74.86 75.26 75.45 
1077 75.27 75.26 75.45 
1078 75.06 75.26 75.45 
1079 75.25 75.26 75.45 
1080 75.18 75.26 75.45 
1081 75.19 75.26 75.45 
1082 75.16 75.26 75.45 
1083 75.26 75.26 75.45 
1084 75.26 75.26 75.45 
1085 75.21 75.26 75.45 
1086 75.16 75.26 75.45 
1087 75.26 75.26 75.45 
1088 75.27 75.26 75.45 
1089 75.26 75.26 75.45 
1090 75.25 75.26 75.45 
1091 75.26 75.26 75.45 
1092 75.27 75.26 75.45 
1093 75.26 75.26 75.45 
1094 75.05 75.26 75.45 
1095 75.26 75.26 75.45 
1096 75.26 75.26 75.45 
1097 75.26 75.26 75.45 
1098 75.26 75.26 75.45 
1099 75.23 75.26 75.45 
1100 75.28 75.26 75.45 
1101 75.26 75.26 75.45 
1102 74.99 75.26 75.45 
1103 75.26 75.26 75.45 
1104 75.27 75.26 75.45 
1105 75.26 75.26 75.45 
1106 75.26 75.26 75.45 
1107 75.27 75.26 75.45 
1108 75.23 75.26 75.45 
1109 75.18 75.26 75.45 
1110 75.27 75.26 75.45 
1111 75.27 75.26 75.45 
1112 74.97 75.29 75.45 
1113 75.26 75.28 75.45 
1114 75.26 75.26 75.45 
1115 75.26 75.26 75.45 
1116 75.26 75.26 75.45 
1117 75.05 75.26 75.45 
1118 75.25 75.26 75.45 
1119 75.26 75.26 75.45 
1120 75.26 75.26 75.45 
1121 75.27 75.26 75.45 
1122 75.26 75.26 75.45 
1123 75.23 75.27 75.45 
1124 75.26 75.26 75.45 
1125 75.26 75.26 75.45 
1126 75.25 75.26 75.45 
1127 75.20 75.26 75.45 
1128 75.26 75.26 75.45 
1129 75.30 75.26 75.45 
1130 75.20 75.26 75.45 
1131 75.26 75.32 75.45 
1132 75.26 75.26 75.45 
1133 75.25 75.26 75.45 
1134 75.26 75.26 75.45 
1135 75.18 75.26 75.45 
1136 75.06 75.26 75.45 
1137 75.26 75.26 75.45 
1138 75.26 75.26 75.45 
1139 75.26 75.26 75.45 
1140 75.26 75.26 75.45 
1141 75.26 75.26 75.45 
1142 75.25 75.26 75.45 
1143 75.26 75.26 75.45 
1144 75.28 75.27 75.45 
1145 75.26 75.26 75.45 
1146 75.24 75.26 75.45 
1147 75.26 75.27 75.45 
1148 75.26 75.26 75.45 
1149 75.26 75.26 75.45 
1150 75.26 75.26 75.45 
1151 75.26 75.26 75.45 
1152 75.26 75.26 75.45 
1153 75.26 75.26 75.45 
1154 75.28 75.26 75.45 
1155 75.27 75.26 75.45 
1156 75.06 75.26 75.45 
1157 75.26 75.26 75.45 
1158 75.28 75.26 75.45 
1159 75.26 75.26 75.45 
1160 75.25 75.07 75.45 
1161 75.25 75.26 75.45 
1162 75.26 75.26 75.45 
1163 75.26 75.26 75.45 
1164 75.26 75.26 75.45 
1165 75.24 75.26 75.45 
1166 75.19 75.26 75.45 
1167 75.25 75.26 75.45 
1168 75.26 75.26 75.45 
1169 75.26 75.26 75.45 
1170 75.26 75.26 75.45 
1171 75.25 75.26 75.45 
1172 75.26 75.26 75.45 
1173 75.29 75.26 75.45 
1174 75.26 75.26 75.45 
1175 75.25 75.26 75.45 
1176 75.26 75.26 75.45 
1177 75.26 75.30 75.45 
1178 75.26 75.26 75.45 
1179 75.26 75.26 75.45 
1180 75.05 75.21 75.45 
1181 75.24 75.26 75.45 
1182 75.26 75.30 75.45 
1183 75.26 75.26 75.45 
1184 75.23 75.26 75.45 
1185 75.18 75.26 75.45 
1186 75.26 75.26 75.45 
1187 75.27 75.27 75.45 
1188 75.26 75.26 75.45 
1189 75.26 75.26 75.45 
1190 75.26 75.26 75.45 
1191 75.27 75.26 75.45 
1192 75.26 75.26 75.45 
1193 75.25 75.26 75.45 
1194 75.25 75.26 75.45 
1195 75.26 75.26 75.45 
1196 75.26 75.26 75.45 
1197 75.19 75.26 75.45 
1198 75.25 75.26 75.45 
1199 75.27 75.26 75.45 
1200 75.22 75.26 75.45 
1201 75.26 75.26 75.45 
1202 75.23 75.26 75.45 
1203 75.24 75.26 75.45 
1204 75.26 75.26 75.45 
1205 75.26 75.26 75.45 
1206 75.26 75.26 75.45 
1207 75.26 75.26 75.45 
1208 75.26 75.26 75.45 
1209 75.26 75.26 75.45 
1210 75.26 75.26 75.45 
1211 75.26 75.26 75.45 
1212 75.26 75.26 75.45 
1213 75.26 75.26 75.45 
1214 75.27 75.26 75.45 
1215 75.21 75.26 75.45 
1216 75.25 75.26 75.45 
1217 74.81 75.26 75.45 
1218 75.26 75.26 75.45 
1219 75.27 75.26 75.45 
1220 75.25 75.26 75.45 
1221 75.26 75.26 75.45 
1222 75.26 75.26 75.45 
1223 75.26 75.26 75.45 
1224 75.26 75.26 75.45 
1225 75.26 75.26 75.45 
1226 75.25 75.26 75.45 
1227 75.26 75.26 75.45 
1228 75.26 75.26 75.45 
1229 75.19 75.26 75.45 
1230 75.15 75.26 75.45 
1231 75.27 75.26 75.45 
1232 75.26 75.26 75.45 
1233 75.05 75.26 75.45 
1234 75.24 75.26 75.45 
1235 75.25 75.26 75.45 
1236 75.26 75.26 75.45 
1237 75.26 75.26 75.45 
1238 75.26 75.26 75.45 
1239 75.27 75.26 75.45 
1240 75.21 75.26 75.45 
1241 75.21 75.26 75.45 
1242 75.26 75.26 75.45 
1243 75.26 75.26 75.45 
1244 75.26 75.26 75.45 
1245 74.96 75.26 75.45 
1246 75.25 75.26 75.45 
1247 75.26 75.26 75.45 
1248 75.26 75.26 75.45 
1249 75.01 75.26 75.45 
1250 75.26 75.26 75.45 
1251 75.26 75.26 75.45 
1252 75.07 75.26 75.45 
1253 75.26 75.26 75.45 
1254 75.26 75.26 75.45 
1255 75.27 75.26 75.45 
1256 75.26 75.26 75.45 
1257 75.17 75.26 75.45 
1258 75.26 75.26 75.45 
1259 75.26 75.26 75.45 
1260 75.26 75.26 75.45 
1261 75.20 75.26 75.45 
1262 75.25 75.26 75.45 
1263 75.26 75.26 75.45 
1264 75.26 75.26 75.45 
1265 75.26 75.26 75.45 
1266 75.26 75.26 75.45 
1267 75.21 75.26 75.45 
1268 75.26 75.26 75.45 
1269 75.14 75.26 75.45 
1270 75.15 75.16 75.45 
1271 75.26 75.26 75.45 
1272 75.25 75.26 75.45 
1273 75.26 75.26 75.45 
1274 75.26 75.21 75.45 
1275 75.26 74.94 75.45 
1276 75.26 75.14 75.45 
1277 75.26 75.26 75.45 
1278 75.26 75.26 75.45 
1279 75.31 75.26 75.45 
1280 75.26 75.26 75.45 
1281 75.26 75.26 75.45 
1282 75.26 75.26 75.45 
1283 75.26 75.26 75.45 
1284 75.26 75.09 75.45 
1285 75.26 75.26 75.45 
1286 75.17 75.26 75.45 
1287 75.26 75.26 75.45 
1288 75.26 75.26 75.45 
1289 75.23 75.26 75.45 
1290 75.17 75.26 75.45 
1291 75.27 75.13 75.45 
1292 75.04 75.27 75.45 
1293 75.26 75.19 75.45 
1294 75.24 75.26 75.45 
1295 75.26 75.26 75.45 
1296 75.26 75.18 75.45 
1297 75.26 75.26 75.45 
1298 75.26 75.26 75.45 
1299 75.21 75.26 75.45 
1300 75.26 75.26 75.45 
1301 75.26 75.26 75.45 
1302 75.26 75.26 75.45 
1303 75.26 75.26 75.45 
1304 75.26 75.26 75.45 
1305 75.26 75.26 75.45 
1306 75.26 75.26 75.45 
1307 75.26 75.26 75.45 
1308 75.26 75.26 75.45 
1309 75.26 75.26 75.45 
1310 75.26 75.26 75.45 
1311 75.26 75.26 75.45 
1312 75.26 75.26 75.45 
1313 75.26 75.26 75.45 
1314 75.26 75.26 75.45 
1315 75.26 75.26 75.45 
1316 75.26 75.26 75.45 
1317 75.26 75.26 75.45 
1318 75.26 75.26 75.45 
1319 75.26 75.26 75.45 
1320 75.26 75.26 75.45 
1321 75.26 75.26 75.45 
1322 75.26 75.26 75.45 
1323 75.26 75.26 75.45 
1324 75.26 75.26 75.45 
1325 75.26 75.26 75.45 
1326 75.25 75.26 75.45 
1327 75.26 75.26 75.45 
1328 75.26 75.26 75.45 
1329 75.26 75.26 75.45 
1330 75.06 75.26 75.45 
1331 75.26 75.26 75.45 
1332 75.26 75.26 75.45 
1333 75.26 75.26 75.45 
1334 75.26 75.26 75.45 
1335 75.26 75.26 75.45 
1336 75.26 75.26 75.45 
1337 75.25 75.26 75.45 
1338 75.26 75.26 75.45 
1339 75.23 75.26 75.45 
1340 75.26 75.26 75.45 
1341 75.26 75.26 75.45 
1342 75.26 75.26 75.45 
1343 75.26 75.26 75.45 
1344 75.26 75.26 75.45 
1345 75.26 75.26 75.45 
1346 75.26 75.26 75.45 
1347 75.26 75.26 75.45 
1348 75.26 75.26 75.45 
1349 75.26 75.26 75.45 
1350 75.26 75.26 75.45 
1351 75.26 75.26 75.45 
1352 75.26 75.26 75.45 
1353 75.26 75.26 75.45 
1354 75.26 75.26 75.45 
1355 75.26 75.26 75.45 
1356 75.26 75.26 75.45 
1357 75.26 75.26 75.45 
1358 75.26 75.26 75.45 
1359 75.26 75.26 75.45 
1360 75.26 75.26 75.45 
1361 75.26 75.26 75.45 
1362 75.26 75.26 75.45 
1363 75.26 75.26 75.45 
1364 75.19 75.26 75.45 
1365 75.26 75.26 75.45 
1366 75.26 75.26 75.45 
1367 75.26 75.26 75.45 
1368 75.28 75.26 75.45 
1369 75.21 75.26 75.45 
1370 75.26 75.26 75.45 
1371 75.26 75.26 75.45 
1372 75.26 75.26 75.45 
1373 75.26 75.26 75.45 
1374 75.26 75.26 75.45 
1375 75.26 75.26 75.45 
1376 75.26 75.28 75.45 
1377 75.25 75.26 75.45 
1378 75.26 75.26 75.45 
1379 75.26 75.26 75.45 
1380 75.16 75.32 75.45 
1381 75.26 75.26 75.45 
1382 75.26 75.27 75.45 
1383 75.26 75.26 75.45 
1384 75.18 75.26 75.45 
1385 75.26 75.26 75.45 
1386 75.26 75.37 75.45 
1387 75.26 75.26 75.45 
1388 75.27 75.26 75.45 
1389 75.26 75.26 75.45 
1390 75.27 75.26 75.45 
1391 75.26 75.26 75.45 
1392 75.26 75.26 75.45 
1393 75.17 75.26 75.45 
1394 75.29 74.99 75.45 
1395 75.26 75.26 75.45 
1396 75.26 75.26 75.45 
1397 75.26 75.26 75.45 
1398 75.20 75.26 75.45 
1399 75.26 75.26 75.45 
1400 75.26 75.26 75.45 
1401 75.22 75.26 75.45 
1402 75.26 75.26 75.45 
1403 75.26 75.26 75.45 
1404 75.26 75.26 75.45 
1405 75.26 75.26 75.45 
1406 75.26 74.96 75.45 
1407 75.26 75.26 75.45 
1408 75.26 75.26 75.45 
1409 75.06 75.26 75.45 
1410 75.26 75.26 75.45 
1411 75.26 75.26 75.45 
1412 75.26 75.26 75.45 
1413 75.26 75.26 75.45 
1414 75.26 75.26 75.45 
1415 75.26 75.26 75.45 
1416 75.26 75.26 75.45 
1417 75.26 75.26 75.45 
1418 75.26 75.27 75.45 
1419 75.26 75.26 75.45 
1420 75.26 75.26 75.45 
1421 75.26 75.06 75.45 
1422 75.24 75.26 75.45 
1423 75.26 75.26 75.45 
1424 75.26 75.26 75.45 
1425 75.26 75.26 75.45 
1426 75.26 75.27 75.45 
1427 75.26 75.27 75.45 
1428 75.26 75.26 75.45 
1429 75.26 75.26 75.45 
1430 75.26 75.26 75.45 
1431 75.26 75.26 75.45 
1432 75.26 75.26 75.45 
1433 75.26 75.00 75.45 
1434 75.26 75.26 75.45 
1435 75.26 75.08 75.45 
1436 75.26 75.26 75.45 
1437 75.16 75.26 75.45 
1438 75.26 75.18 75.45 
1439 75.16 75.26 75.45 
1440 75.26 75.27 75.45 
1441 75.26 75.26 75.45 
1442 75.26 75.26 75.45 
1443 75.26 75.26 75.45 
1444 75.26 75.26 75.45 
1445 75.26 75.26 75.45 
1446 75.21 75.26 75.45 
1447 75.26 75.26 75.45 
1448 75.26 75.26 75.45 
1449 75.26 75.26 75.45 
1450 75.26 75.26 75.45 
1451 75.26 75.26 75.45 
1452 75.23 75.26 75.45 
1453 75.26 75.26 75.45 
1454 75.16 75.26 75.45 
1455 75.26 75.26 75.45 
1456 75.26 75.26 75.45 
1457 75.26 75.20 75.45 
1458 75.26 75.26 75.45 
1459 75.26 75.26 75.45 
1460 75.26 75.26 75.45 
1461 75.26 75.26 75.45 
1462 75.26 75.26 75.45 
1463 75.26 75.26 75.45 
1464 75.26 75.26 75.45 
1465 75.26 75.26 75.45 
1466 75.26 75.26 75.45 
1467 75.26 75.26 75.45 
1468 75.26 75.26 75.45 
1469 75.26 75.26 75.45 
1470 75.26 75.26 75.45 
1471 75.26 75.26 75.45 
1472 75.26 75.26 75.45 
1473 75.26 75.26 75.45 
1474 75.26 75.26 75.45 
1475 75.26 75.26 75.45 
1476 75.26 75.26 75.45 
1477 75.26 75.26 75.45 
1478 75.26 75.26 75.45 
1479 75.24 75.26 75.45 
1480 75.26 75.26 75.45 
1481 75.26 75.26 75.45 
1482 75.26 75.26 75.45 
1483 75.26 75.26 75.45 
1484 75.19 75.26 75.45 
1485 75.26 75.26 75.45 
1486 75.26 75.26 75.45 
1487 75.26 75.26 75.45 
1488 75.26 75.26 75.45 
1489 75.26 75.26 75.45 
1490 75.26 75.26 75.45 
1491 75.26 75.26 75.45 
1492 75.26 75.26 75.45 
1493 75.26 75.26 75.45 
1494 75.26 75.26 75.45 
1495 75.26 75.26 75.45 
1496 75.26 75.26 75.45 
1497 75.26 75.26 75.45 
1498 75.25 75.26 75.45 
1499 75.10 75.26 75.45 
1500 75.26 74.88 75.45 
1501 75.26 75.26 75.45 
1502 75.26 75.26 75.45 
1503 75.26 75.26 75.45 
1504 75.26 75.26 75.45 
1505 75.26 75.26 75.45 
1506 75.26 75.26 75.45 
1507 75.26 75.26 75.45 
1508 75.28 75.26 75.45 
1509 75.26 75.26 75.45 
1510 75.26 75.26 75.45 
1511 75.26 75.26 75.45 
1512 75.26 75.26 75.45 
1513 75.26 75.26 75.45 
1514 75.26 75.26 75.45 
1515 75.26 75.26 75.45 
1516 75.16 75.26 75.45 
1517 75.26 75.26 75.45 
1518 75.26 75.26 75.45 
1519 75.26 75.26 75.45 
1520 75.16 75.26 75.45 
1521 75.26 75.26 75.45 
1522 75.26 75.26 75.45 
1523 75.21 75.26 75.45 
1524 75.24 75.26 75.45 
1525 75.26 75.26 75.45 
1526 75.26 75.26 75.45 
1527 75.26 75.26 75.45 
1528 75.26 75.26 75.45 
1529 75.17 75.26 75.45 
1530 75.16 75.26 75.45 
1531 75.16 75.26 75.45 
1532 75.26 75.26 75.45 
1533 75.26 75.26 75.45 
1534 75.26 75.26 75.45 
1535 75.26 75.26 75.45 
1536 75.26 75.26 75.45 
1537 75.26 75.26 75.45 
1538 75.26 75.26 75.45 
1539 75.26 75.26 75.45 
1540 75.26 75.26 75.45 
1541 75.26 75.26 75.45 
1542 75.26 75.26 75.45 
1543 75.26 75.26 75.45 
1544 75.26 75.26 75.45 
1545 75.26 75.26 75.45 
1546 75.26 75.26 75.45 
1547 75.26 75.26 75.45 
1548 75.26 75.26 75.45 
1549 75.26 75.26 75.45 
1550 75.26 75.26 75.45 
1551 75.26 75.26 75.45 
1552 75.21 75.26 75.45 
1553 75.26 75.24 75.45 
1554 75.26 75.23 75.45 
1555 75.26 75.26 75.45 
1556 75.26 75.26 75.45 
1557 75.26 75.29 75.45 
1558 75.26 75.26 75.45 
1559 75.26 75.26 75.45 
1560 75.26 75.26 75.45 
1561 75.26 75.26 75.45 
1562 75.22 75.26 75.45 
1563 75.26 75.26 75.45 
1564 75.26 75.26 75.45 
1565 75.26 75.26 75.45 
1566 75.26 75.26 75.45 
1567 75.26 75.26 75.45 
1568 75.26 75.26 75.45 
1569 75.26 75.26 75.45 
1570 75.26 75.26 75.45 
1571 75.26 75.26 75.45 
1572 75.26 75.26 75.45 
1573 75.26 75.26 75.45 
1574 75.26 75.26 75.45 
1575 75.26 75.26 75.45 
1576 75.26 75.26 75.45 
1577 75.26 75.26 75.45 
1578 75.26 75.26 75.45 
1579 75.26 75.26 75.45 
1580 75.26 75.26 75.45 
1581 75.26 75.26 75.45 
1582 75.26 75.26 75.45 
1583 75.26 75.26 75.45 
1584 75.05 75.26 75.45 
1585 75.26 75.26 75.45 
1586 75.26 75.26 75.45 
1587 75.26 75.26 75.45 
1588 75.26 75.26 75.45 
1589 75.26 75.26 75.45 
1590 75.26 75.26 75.45 
1591 75.26 75.26 75.45 
1592 75.26 75.26 75.45 
1593 75.26 75.26 75.45 
1594 75.26 75.26 75.45 
1595 75.26 75.26 75.45 
1596 75.26 75.26 75.45 
1597 75.26 75.26 75.45 
1598 75.26 75.26 75.45 
1599 75.26 75.26 75.45 
1600 75.26 75.26 75.45 
1601 75.26 75.26 75.45 
1602 75.26 75.26 75.45 
1603 75.26 75.26 75.45 
1604 75.26 75.26 75.45 
1605 75.27 75.26 75.45 
1606 75.26 75.26 75.45 
1607 75.26 75.26 75.45 
1608 75.26 75.26 75.45 
1609 75.26 75.26 75.45 
1610 75.26 75.26 75.45 
1611 75.26 75.26 75.45 
1612 75.26 75.26 75.45 
1613 75.26 75.26 75.45 
1614 75.26 75.26 75.45 
1615 75.26 75.26 75.45 
1616 75.26 75.26 75.45 
1617 75.26 75.26 75.45 
1618 75.26 75.26 75.45 
1619 75.26 75.26 75.45 
1620 75.26 75.26 75.45 
1621 75.26 75.26 75.45 
1622 75.26 75.26 75.45 
1623 75.26 75.26 75.45 
1624 75.26 75.26 75.45 
1625 75.26 75.26 75.45 
1626 75.10 75.26 75.45 
1627 75.26 75.26 75.45 
1628 75.26 75.26 75.45 
1629 75.26 75.26 75.45 
1630 75.26 75.26 75.45 
1631 75.25 75.26 75.45 
1632 75.26 75.26 75.45 
1633 75.26 75.26 75.45 
1634 75.26 75.26 75.45 
1635 75.26 75.26 75.45 
1636 75.26 75.26 75.45 
1637 75.05 75.26 75.45 
1638 75.26 75.26 75.45 
1639 75.26 75.26 75.45 
1640 75.26 75.26 75.45 
1641 75.26 75.26 75.45 
1642 75.26 75.26 75.45 
1643 75.26 75.26 75.45 
1644 75.26 75.26 75.45 
1645 75.26 75.26 75.45 
1646 75.26 75.26 75.45 
1647 75.26 75.26 75.45 
1648 75.26 75.26 75.45 
1649 75.26 75.26 75.45 
1650 75.26 75.26 75.45 
1651 75.26 75.26 75.45 
1652 75.26 75.26 75.45 
1653 75.26 75.26 75.45 
1654 75.27 75.26 75.45 
1655 75.05 75.26 75.45 
1656 75.25 75.26 75.45 
1657 75.26 75.26 75.45 
1658 75.26 75.26 75.45 
1659 75.26 75.26 75.45 
1660 75.26 75.26 75.45 
1661 75.26 75.26 75.45 
1662 75.26 75.26 75.45 
1663 75.26 75.26 75.45 
1664 75.26 75.26 75.45 
1665 75.26 75.26 75.45 
1666 75.26 75.26 75.45 
1667 75.26 75.26 75.45 
1668 75.26 75.26 75.45 
1669 75.26 75.26 75.45 
1670 75.26 75.26 75.45 
1671 75.26 75.26 75.45 
1672 75.26 75.26 75.45 
1673 75.26 75.26 75.45 
1674 75.26 75.26 75.45 
1675 75.16 75.26 75.45 
1676 75.26 75.26 75.45 
1677 75.26 75.26 75.45 
1678 75.26 75.26 75.45 
1679 75.26 75.26 75.45 
1680 75.26 75.26 75.45 
1681 75.26 75.26 75.45 
1682 75.26 75.26 75.45 
1683 75.26 75.26 75.45 
1684 75.26 75.26 75.45 
1685 75.26 75.26 75.45 
1686 75.26 75.26 75.45 
1687 75.26 75.26 75.45 
1688 75.07 75.26 75.45 
1689 75.26 75.22 75.45 
1690 75.26 75.26 75.45 
1691 75.26 75.26 75.45 
1692 75.26 75.26 75.45 
1693 75.26 75.26 75.45 
1694 75.26 75.26 75.45 
1695 75.26 75.26 75.45 
1696 75.26 75.26 75.45 
1697 75.26 75.26 75.45 
1698 75.26 75.26 75.45 
1699 75.26 75.26 75.45 
1700 75.26 75.26 75.45 
1701 75.26 75.26 75.45 
1702 75.26 75.26 75.45 
1703 75.26 75.31 75.45 
1704 75.26 75.26 75.45 
1705 75.26 75.26 75.45 
1706 75.26 75.26 75.45 
1707 75.26 75.26 75.45 
1708 75.26 75.26 75.45 
1709 75.26 75.26 75.45 
1710 75.26 75.26 75.45 
1711 75.26 75.26 75.45 
1712 75.24 75.26 75.45 
1713 75.26 75.26 75.45 
1714 75.26 75.26 75.45 
1715 75.26 75.26 75.45 
1716 75.26 75.26 75.45 
1717 75.26 75.26 75.45 
1718 75.26 75.26 75.45 
1719 75.26 75.26 75.45 
1720 75.26 75.26 75.45 
1721 75.26 75.26 75.45 
1722 75.26 75.26 75.45 
1723 75.26 75.26 75.45 
1724 75.26 75.26 75.45 
1725 75.26 75.26 75.45 
1726 75.26 75.26 75.45 
1727 75.26 75.26 75.45 
1728 75.26 75.26 75.45 
1729 75.26 75.26 75.45 
1730 75.26 75.26 75.45 
1731 75.26 75.26 75.45 
1732 75.26 75.26 75.45 
1733 75.26 75.26 75.45 
1734 75.26 75.26 75.45 
1735 75.26 75.26 75.45 
1736 75.26 75.26 75.45 
1737 75.26 75.26 75.45 
1738 75.26 75.26 75.45 
1739 75.26 75.26 75.45 
1740 75.26 75.26 75.45 
1741 75.26 75.26 75.45 
1742 75.26 75.26 75.45 
1743 75.26 75.26 75.45 
1744 75.26 75.26 75.45 
1745 75.26 75.26 75.45 
1746 75.26 75.26 75.45 
1747 75.26 75.26 75.45 
1748 75.26 75.26 75.45 
1749 75.26 75.26 75.45 
1750 75.26 75.26 75.45 
1751 75.26 75.26 75.45 
1752 75.26 75.26 75.45 
1753 75.26 75.26 75.45 
1754 75.26 75.23 75.45 
1755 75.26 75.26 75.45 
1756 75.26 75.26 75.45 
1757 75.26 75.26 75.45 
1758 75.26 75.26 75.45 
1759 75.26 75.26 75.45 
1760 75.26 75.26 75.45 
1761 75.26 75.26 75.45 
1762 75.07 75.26 75.45 
1763 75.26 75.26 75.45 
1764 75.26 75.26 75.45 
1765 75.26 75.26 75.45 
1766 75.26 75.26 75.45 
1767 75.26 75.26 75.45 
1768 75.26 75.26 75.45 
1769 75.26 75.26 75.45 
1770 75.26 75.26 75.45 
1771 75.26 75.26 75.45 
1772 75.26 75.26 75.45 
1773 75.26 75.26 75.45 
1774 75.26 75.26 75.45 
1775 75.26 75.26 75.45 
1776 75.26 75.26 75.45 
1777 75.17 75.26 75.45 
1778 75.26 75.26 75.45 
1779 75.26 75.26 75.45 
1780 75.28 75.26 75.45 
1781 75.26 75.26 75.45 
1782 75.26 75.26 75.45 
1783 75.26 75.26 75.45 
1784 75.26 75.26 75.45 
1785 75.26 75.26 75.45 
1786 75.26 75.26 75.45 
1787 75.26 75.26 75.45 
1788 75.26 75.26 75.45 
1789 75.26 75.26 75.45 
1790 75.26 75.26 75.45 
1791 75.26 75.26 75.45 
1792 75.26 75.26 75.45 
1793 75.26 75.26 75.45 
1794 75.26 75.26 75.45 
1795 75.26 75.26 75.45 
1796 75.26 75.26 75.45 
1797 75.26 75.26 75.45 
1798 75.26 75.26 75.45 
1799 75.26 75.26 75.45 
1800 75.26 75.26 75.45 
1801 75.26 75.26 75.45 
1802 75.30 75.26 75.45 
1803 75.26 75.26 75.45 
1804 75.26 75.26 75.45 
1805 75.26 75.26 75.45 
1806 75.26 75.26 75.45 
1807 75.26 75.26 75.45 
1808 75.26 75.26 75.45 
1809 75.26 75.26 75.45 
1810 75.26 75.26 75.45 
1811 75.29 75.26 75.45 
1812 75.26 75.26 75.45 
1813 75.26 75.26 75.45 
1814 75.26 75.26 75.45 
1815 75.26 75.26 75.45 
1816 75.26 75.26 75.45 
1817 75.26 75.26 75.45 
1818 75.26 75.26 75.45 
1819 75.26 75.26 75.45 
1820 75.26 75.26 75.45 
1821 75.26 75.26 75.45 
1822 75.26 75.26 75.45 
1823 75.26 75.26 75.45 
1824 75.26 75.26 75.45 
1825 75.26 75.26 75.45 
1826 75.26 75.26 75.45 
1827 75.26 75.26 75.45 
1828 75.26 75.26 75.45 
1829 75.26 75.26 75.45 
1830 75.26 75.26 75.45 
1831 75.26 75.26 75.45 
1832 75.26 75.26 75.45 
1833 75.26 75.26 75.45 
1834 75.26 75.26 75.45 
1835 75.26 75.26 75.45 
1836 75.26 75.26 75.45 
1837 75.26 75.26 75.45 
1838 75.26 75.26 75.45 
1839 75.26 75.26 75.45 
1840 75.26 75.26 75.45 
1841 75.21 75.26 75.45 
1842 75.26 75.26 75.45 
1843 75.26 75.26 75.45 
1844 75.26 75.26 75.45 
1845 75.26 75.26 75.45 
1846 75.26 75.26 75.45 
1847 75.26 75.26 75.45 
1848 75.26 75.26 75.45 
1849 75.26 75.26 75.45 
1850 75.26 75.26 75.45 
1851 75.26 75.26 75.45 
1852 75.26 75.26 75.45 
1853 75.26 75.26 75.45 
1854 75.26 75.26 75.45 
1855 75.26 75.26 75.45 
1856 75.26 75.26 75.45 
1857 75.26 75.26 75.45 
1858 75.26 75.26 75.45 
1859 75.26 75.26 75.45 
1860 75.26 75.26 75.45 
1861 75.26 75.26 75.45 
1862 75.26 75.26 75.45 
1863 75.26 75.26 75.45 
1864 75.26 75.26 75.45 
1865 75.26 75.26 75.45 
1866 75.26 75.26 75.45 
1867 75.26 75.26 75.45 
1868 75.26 75.26 75.45 
1869 75.26 75.26 75.45 
1870 75.26 75.26 75.45 
1871 75.26 75.26 75.45 
1872 75.26 75.26 75.45 
1873 75.26 75.26 75.45 
1874 75.26 75.26 75.45 
1875 75.26 75.26 75.45 
1876 75.26 75.26 75.45 
1877 75.26 75.26 75.45 
1878 75.26 75.26 75.45 
1879 75.26 75.26 75.45 
1880 75.26 75.26 75.45 
1881 75.26 75.26 75.45 
1882 75.26 75.26 75.45 
1883 75.26 75.26 75.45 
1884 75.26 75.26 75.45 
1885 75.26 75.26 75.45 
1886 75.26 75.26 75.45 
1887 75.26 75.26 75.45 
1888 75.26 75.26 75.45 
1889 75.26 75.26 75.45 
1890 75.26 75.26 75.45 
1891 75.26 75.26 75.45 
1892 75.26 75.26 75.45 
1893 75.26 75.26 75.45 
1894 75.26 75.26 75.45 
1895 75.26 75.26 75.45 
1896 75.26 75.26 75.45 
1897 75.26 75.26 75.45 
1898 75.26 75.26 75.45 
1899 75.26 75.26 75.45 
1900 75.26 75.26 75.45 
1901 75.26 75.26 75.45 
1902 75.26 75.26 75.45 
1903 75.26 75.26 75.45 
1904 75.26 75.26 75.45 
1905 75.26 75.26 75.45 
1906 75.26 75.26 75.45 
1907 75.26 75.26 75.45 
1908 75.26 75.26 75.45 
1909 75.26 75.26 75.45 
1910 75.26 75.26 75.45 
1911 75.26 75.26 75.45 
1912 75.26 75.26 75.45 
1913 75.26 75.26 75.45 
1914 75.26 75.26 75.45 
1915 75.26 75.26 75.45 
1916 75.26 75.26 75.45 
1917 75.26 75.26 75.45 
1918 75.26 75.26 75.45 
1919 75.26 75.26 75.45 
1920 75.26 75.26 75.45 
1921 75.26 75.26 75.45 
1922 75.26 75.26 75.45 
1923 75.26 75.26 75.45 
1924 75.26 75.26 75.45 
1925 75.26 75.26 75.45 
1926 75.26 75.26 75.45 
1927 75.26 75.26 75.45 
1928 75.26 75.26 75.45 
1929 75.26 75.26 75.45 
1930 75.26 75.26 75.45 
1931 75.26 75.26 75.45 
1932 75.26 75.26 75.45 
1933 75.26 75.26 75.45 
1934 75.26 75.26 75.45 
1935 75.26 75.26 75.45 
1936 75.26 75.26 75.45 
1937 75.26 75.26 75.45 
1938 75.26 75.26 75.45 
1939 75.26 75.26 75.45 
1940 75.26 75.26 75.45 
1941 75.24 75.26 75.45 
1942 75.26 75.26 75.45 
1943 75.26 75.26 75.45 
1944 75.26 75.26 75.45 
1945 75.26 75.26 75.45 
1946 75.26 75.26 75.45 
1947 75.26 75.26 75.45 
1948 75.26 75.26 75.45 
1949 75.26 75.26 75.45 
1950 75.26 75.26 75.45 
1951 75.25 75.26 75.45 
1952 75.26 75.26 75.45 
1953 75.26 75.26 75.45 
1954 75.26 75.26 75.45 
1955 75.26 75.26 75.45 
1956 75.26 75.26 75.45 
1957 75.26 75.26 75.45 
1958 75.26 75.26 75.45 
1959 75.26 75.26 75.45 
1960 75.26 75.26 75.45 
1961 75.26 75.26 75.45 
1962 75.26 75.26 75.45 
1963 75.26 75.26 75.45 
1964 75.26 75.26 75.45 
1965 75.26 75.26 75.45 
1966 75.26 75.26 75.45 
1967 75.26 75.26 75.45 
1968 75.26 75.26 75.45 
1969 75.26 75.26 75.45 
1970 75.26 75.26 75.45 
1971 75.26 75.26 75.45 
1972 75.26 75.26 75.45 
1973 75.26 75.26 75.45 
1974 75.26 75.26 75.45 
1975 75.26 75.26 75.45 
1976 75.26 75.26 75.45 
1977 75.26 75.26 75.45 
1978 75.26 75.26 75.45 
1979 75.26 75.26 75.45 
1980 75.26 75.26 75.45 
1981 75.26 75.26 75.45 
1982 75.26 75.26 75.45 
1983 75.26 75.26 75.45 
1984 75.26 75.26 75.45 
1985 75.26 75.26 75.45 
1986 75.26 75.26 75.45 
1987 75.26 75.26 75.45 
1988 75.26 75.26 75.45 
1989 75.26 75.26 75.45 
1990 75.26 75.26 75.45 
1991 75.26 75.26 75.45 
1992 75.26 75.26 75.45 
1993 75.23 75.26 75.45 
1994 75.26 75.26 75.45 
1995 75.26 75.26 75.45 
1996 75.26 75.26 75.45 
1997 75.26 75.26 75.45 
1998 75.26 75.26 75.45 
1999 75.26 75.26 75.45 
2000 75.26 75.26 75.45 
2001 75.26 75.26 75.45 
2002 75.26 75.26 75.45 
2003 75.26 75.26 75.45 
2004 75.26 75.26 75.45 
2005 75.26 75.26 75.45 
2006 75.27 75.26 75.45 
2007 75.26 75.26 75.45 
2008 75.26 75.26 75.45 
2009 75.26 75.26 75.45 
2010 75.26 75.26 75.45 
2011 75.26 75.26 75.45 
2012 75.26 75.26 75.45 
2013 75.26 75.26 75.45 
2014 75.26 75.26 75.45 
2015 75.26 75.26 75.45 
2016 75.26 75.26 75.45 
2017 75.26 75.26 75.45 
2018 75.26 75.26 75.45 
2019 75.26 75.26 75.45 
2020 75.26 75.26 75.45 
2021 75.26 75.26 75.45 
2022 75.26 75.26 75.45 
2023 75.26 75.26 75.45 
2024 75.26 75.26 75.45 
2025 75.26 75.26 75.45 
2026 75.26 75.26 75.45 
2027 75.26 75.26 75.45 
2028 75.26 75.26 75.45 
2029 75.26 75.26 75.45 
2030 75.26 75.26 75.45 
2031 75.26 75.26 75.45 
2032 75.26 75.26 75.45 
2033 75.26 75.26 75.45 
2034 75.28 75.26 75.45 
2035 75.26 75.26 75.45 
2036 75.26 75.26 75.45 
2037 75.06 75.26 75.45 
2038 75.26 75.26 75.45 
2039 75.26 75.26 75.45 
2040 75.26 75.26 75.45 
2041 75.26 75.26 75.45 
2042 75.26 75.26 75.45 
2043 75.26 75.26 75.45 
2044 75.26 75.26 75.45 
2045 75.26 75.26 75.45 
2046 75.26 75.26 75.45 
2047 75.26 75.26 75.45 
2048 75.26 75.26 75.45 
2049 75.26 75.26 75.45 
2050 75.26 75.26 75.45 
2051 75.26 75.26 75.45 
2052 75.26 75.26 75.45 
2053 75.26 75.26 75.45 
2054 75.23 75.26 75.45 
2055 75.26 75.26 75.45 
2056 75.26 75.26 75.45 
2057 75.26 75.26 75.45 
2058 75.26 75.26 75.45 
2059 75.26 75.26 75.45 
2060 75.26 75.26 75.45 
2061 75.26 75.26 75.45 
2062 75.26 75.26 75.45 
2063 75.26 75.26 75.45 
2064 75.26 75.26 75.45 
2065 75.26 75.26 75.45 
2066 75.26 75.26 75.45 
2067 75.26 75.26 75.45 
2068 75.26 75.26 75.45 
2069 75.26 75.26 75.45 
2070 75.26 75.26 75.45 
2071 75.26 75.26 75.45 
2072 75.26 75.26 75.45 
2073 75.26 75.26 75.45 
2074 75.26 75.26 75.45 
2075 75.26 75.26 75.45 
2076 75.26 75.26 75.45 
2077 75.26 75.26 75.45 
2078 75.26 75.26 75.45 
2079 75.26 75.26 75.45 
2080 75.26 75.26 75.45 
2081 75.26 75.26 75.45 
2082 75.26 75.26 75.45 
2083 75.26 75.26 75.45 
2084 75.26 75.26 75.45 
2085 75.26 75.26 75.45 
2086 75.26 75.26 75.45 
2087 75.26 75.26 75.45 
2088 75.26 75.26 75.45 
2089 75.26 75.26 75.45 
2090 75.26 75.26 75.45 
2091 75.26 75.26 75.45 
2092 75.26 75.26 75.45 
2093 75.26 75.26 75.45 
2094 75.26 75.26 75.45 
2095 75.26 75.26 75.45 
2096 75.26 75.26 75.45 
2097 75.26 75.26 75.45 
2098 75.26 75.26 75.45 
2099 75.26 75.26 75.45 
2100 75.26 75.26 75.45 
2101 75.27 75.26 75.45 
2102 75.26 75.26 75.45 
2103 75.26 75.26 75.45 
2104 75.26 75.26 75.45 
2105 75.26 75.26 75.45 
2106 75.26 75.26 75.45 
2107 75.26 75.26 75.45 
2108 75.26 75.26 75.45 
2109 75.26 75.26 75.45 
2110 75.26 75.26 75.45 
2111 75.26 75.26 75.45 
2112 75.26 75.26 75.45 
2113 75.26 75.26 75.45 
2114 75.26 75.26 75.45 
2115 75.17 75.26 75.45 
2116 75.26 75.26 75.45 
2117 75.26 75.26 75.45 
2118 75.26 75.26 75.45 
2119 75.26 75.26 75.45 
2120 75.26 75.26 75.45 
2121 75.26 75.26 75.45 
2122 75.26 75.26 75.45 
2123 75.26 75.26 75.45 
2124 75.26 75.26 75.45 
2125 75.26 75.26 75.45 
2126 75.26 75.26 75.45 
2127 75.26 75.26 75.45 
2128 75.26 75.26 75.45 
2129 75.26 75.26 75.45 
2130 75.26 75.26 75.45 
2131 75.26 75.26 75.45 
2132 75.26 75.26 75.45 
2133 75.26 75.26 75.45 
2134 75.26 75.26 75.45 
2135 75.26 75.26 75.45 
2136 75.26 75.26 75.45 
2137 75.26 75.26 75.45 
2138 75.26 75.26 75.45 
2139 75.26 75.26 75.45 
2140 75.26 75.26 75.45 
2141 75.26 75.26 75.45 
2142 75.26 75.26 75.45 
2143 75.26 75.26 75.45 
2144 75.26 75.26 75.45 
2145 75.26 75.26 75.45 
2146 75.26 75.26 75.45 
2147 75.26 75.26 75.45 
2148 75.26 75.26 75.45 
2149 75.26 75.26 75.45 
2150 75.26 75.26 75.45 
2151 75.26 75.26 75.45 
2152 75.26 75.26 75.45 
2153 75.26 75.26 75.45 
2154 75.26 75.26 75.45 
2155 75.26 75.26 75.45 
2156 75.26 75.26 75.45 
2157 75.25 75.26 75.45 
2158 75.26 75.26 75.45 
2159 75.26 75.26 75.45 
2160 75.26 75.26 75.45 
2161 75.26 75.26 75.45 
2162 75.26 75.26 75.45 
2163 75.26 75.26 75.45 
2164 75.26 75.26 75.45 
2165 75.26 75.26 75.45 
2166 75.26 75.26 75.45 
2167 75.26 75.26 75.45 
2168 75.26 75.26 75.45 
2169 75.26 75.26 75.45 
2170 75.26 75.26 75.45 
2171 75.26 75.26 75.45 
2172 75.26 75.26 75.45 
2173 75.26 75.26 75.45 
2174 75.26 75.26 75.45 
2175 75.26 75.26 75.45 
2176 75.26 75.26 75.45 
2177 75.26 75.26 75.45 
2178 75.26 75.26 75.45 
2179 75.26 75.26 75.45 
2180 75.26 75.26 75.45 
2181 75.26 75.26 75.45 
2182 75.26 75.26 75.45 
2183 75.26 75.26 75.45 
2184 75.26 75.26 75.45 
2185 75.26 75.26 75.45 
2186 75.26 75.26 75.45 
2187 75.26 75.26 75.45 
2188 75.26 75.26 75.45 
2189 75.26 75.26 75.45 
2190 75.26 75.26 75.45 
2191 75.26 75.26 75.45 
2192 75.26 75.26 75.45 
2193 75.26 75.26 75.45 
2194 75.26 75.26 75.45 
2195 75.26 75.26 75.45 
2196 75.26 75.26 75.45 
2197 75.26 75.26 75.45 
2198 75.26 75.26 75.45 
2199 75.26 75.26 75.45 
2200 75.26 75.26 75.45 
2201 75.26 75.26 75.45 
2202 75.26 75.26 75.45 
2203 75.26 75.26 75.45 
2204 75.26 75.26 75.45 
2205 75.26 75.26 75.45 
2206 75.26 75.26 75.45 
2207 75.26 75.26 75.45 
2208 75.26 75.26 75.45 
2209 75.26 75.26 75.45 
2210 75.24 75.26 75.45 
2211 75.26 75.26 75.45 
2212 75.22 75.26 75.45 
2213 75.26 75.26 75.45 
2214 75.26 75.26 75.45 
2215 75.26 75.26 75.45 
2216 75.26 75.26 75.45 
2217 75.26 75.26 75.45 
2218 75.26 75.26 75.45 
2219 75.26 75.26 75.45 
2220 75.26 75.26 75.45 
2221 75.26 75.26 75.45 
2222 75.26 75.26 75.45 
2223 75.26 75.26 75.45 
2224 75.26 75.26 75.45 
2225 75.26 75.26 75.45 
2226 75.26 75.26 75.45 
2227 75.26 75.26 75.45 
2228 75.26 75.26 75.45 
2229 75.26 75.26 75.45 
2230 75.26 75.26 75.45 
2231 75.26 75.26 75.45 
2232 75.26 75.26 75.45 
2233 75.26 75.26 75.45 
2234 75.26 75.26 75.45 
2235 75.26 75.26 75.45 
2236 75.26 75.26 75.45 
2237 75.26 75.26 75.45 
2238 75.26 75.26 75.45 
2239 75.26 75.26 75.45 
2240 75.26 75.26 75.45 
2241 75.26 75.26 75.45 
2242 75.26 75.26 75.45 
2243 75.26 75.26 75.45 
2244 75.26 75.26 75.45 
2245 75.26 75.26 75.45 
2246 75.26 75.26 75.45 
2247 75.26 75.26 75.45 
2248 75.26 75.26 75.45 
2249 75.26 75.26 75.45 
2250 75.26 75.26 75.45 
2251 75.26 75.26 75.45 
2252 75.28 75.26 75.45 
2253 75.26 75.26 75.45 
2254 75.26 75.26 75.45 
2255 75.26 75.26 75.45 
2256 75.26 75.26 75.45 
2257 75.26 75.26 75.45 
2258 75.26 75.26 75.45 
2259 75.26 75.26 75.45 
2260 75.27 75.26 75.45 
2261 75.26 75.26 75.45 
2262 75.26 75.26 75.45 
2263 75.26 75.26 75.45 
2264 75.26 75.26 75.45 
2265 75.26 75.26 75.45 
2266 75.26 75.26 75.45 
2267 75.29 75.26 75.45 
2268 75.26 75.26 75.45 
2269 75.26 75.26 75.45 
2270 75.26 75.26 75.45 
2271 75.26 75.26 75.45 
2272 75.26 75.26 75.45 
2273 75.26 75.26 75.45 
2274 75.26 75.26 75.45 
2275 75.18 75.26 75.45 
2276 75.26 75.26 75.45 
2277 75.16 75.26 75.45 
2278 75.16 75.26 75.45 
2279 75.26 75.26 75.45 
2280 75.26 75.26 75.45 
2281 75.26 75.26 75.45 
2282 75.26 75.26 75.45 
2283 75.26 75.26 75.45 
2284 75.26 75.26 75.45 
2285 75.26 75.26 75.45 
2286 75.26 75.26 75.45 
2287 75.26 75.26 75.45 
2288 75.26 75.26 75.45 
2289 75.26 75.26 75.45 
2290 75.27 75.26 75.45 
2291 75.26 75.26 75.45 
2292 75.26 75.26 75.45 
2293 75.26 75.28 75.45 
2294 75.27 75.29 75.45 
2295 75.26 75.26 75.45 
2296 75.25 75.26 75.45 
2297 75.26 75.26 75.45 
2298 75.22 75.26 75.45 
2299 75.26 75.26 75.45 
2300 75.26 75.27 75.45 
2301 75.26 75.26 75.45 
2302 75.26 75.28 75.45 
2303 75.27 75.26 75.45 
2304 75.26 75.26 75.45 
2305 75.26 75.26 75.45 
2306 75.26 75.28 75.45 
2307 75.16 75.26 75.45 
2308 75.18 75.26 75.45 
2309 75.26 75.26 75.45 
2310 75.26 75.26 75.45 
2311 75.23 75.26 75.45 
2312 75.28 75.26 75.45 
2313 75.26 75.26 75.45 
2314 75.26 75.26 75.45 
2315 75.26 75.26 75.45 
2316 75.26 75.26 75.45 
2317 75.26 75.26 75.45 
2318 75.26 75.26 75.45 
2319 75.28 75.26 75.45 
2320 75.26 75.26 75.45 
2321 75.27 75.26 75.45 
2322 75.26 75.26 75.45 
2323 75.27 75.26 75.45 
2324 75.29 75.26 75.45 
2325 75.24 75.26 75.45 
2326 75.27 75.26 75.45 
2327 75.22 75.26 75.45 
2328 75.28 75.26 75.45 
2329 75.27 75.26 75.45 
2330 75.24 75.26 75.45 
2331 75.26 75.26 75.45 
2332 75.27 75.26 75.45 
2333 75.26 75.26 75.45 
2334 75.29 75.26 75.45 
2335 75.27 75.26 75.45 
2336 75.27 75.26 75.45 
2337 75.26 75.26 75.45 
2338 75.26 75.26 75.45 
2339 75.27 75.26 75.45 
2340 75.26 75.26 75.45 
2341 75.26 75.26 75.45 
2342 75.28 75.29 75.45 
2343 75.28 75.26 75.45 
2344 75.26 75.28 75.45 
2345 75.26 75.26 75.45 
2346 75.28 75.26 75.45 
2347 75.25 75.26 75.45 
2348 75.16 75.26 75.45 
2349 75.26 75.28 75.45 
2350 75.26 75.28 75.45 
2351 75.21 75.26 75.45 
2352 75.26 75.26 75.45 
2353 75.28 75.26 75.45 
2354 75.26 75.26 75.45 
2355 75.26 75.26 75.45 
2356 75.26 75.28 75.45 
2357 75.26 75.26 75.45 
2358 75.26 75.26 75.45 
2359 75.26 75.26 75.45 
2360 75.26 75.26 75.45 
2361 75.26 75.26 75.45 
2362 75.26 75.26 75.45 
2363 75.16 75.26 75.45 
2364 75.26 75.26 75.45 
2365 75.19 75.26 75.45 
2366 75.27 75.26 75.45 
2367 75.25 75.26 75.45 
2368 75.26 75.27 75.45 
2369 75.26 75.31 75.45 
2370 75.28 75.26 75.45 
2371 75.26 75.26 75.45 
2372 75.26 75.26 75.45 
2373 75.26 75.26 75.45 
2374 75.25 75.26 75.45 
2375 75.26 75.26 75.45 
2376 75.21 75.26 75.45 
2377 75.26 75.26 75.45 
2378 75.26 75.26 75.45 
2379 75.26 75.26 75.45 
2380 75.26 75.26 75.45 
2381 75.26 75.26 75.45 
2382 75.27 75.26 75.45 
2383 75.26 75.26 75.45 
2384 75.20 75.26 75.45 
2385 75.26 75.26 75.45 
2386 75.26 75.26 75.45 
2387 75.26 75.26 75.45 
2388 75.26 75.26 75.45 
2389 75.21 75.26 75.45 
2390 75.26 75.26 75.45 
2391 75.26 75.26 75.45 
2392 75.26 75.26 75.45 
2393 75.26 75.26 75.45 
2394 75.26 75.26 75.45 
2395 75.26 75.26 75.45 
2396 75.26 75.26 75.45 
2397 75.26 75.26 75.45 
2398 75.26 75.26 75.45 
2399 75.26 75.26 75.45 
2400 75.19 75.26 75.45 
2401 75.25 75.26 75.45 
2402 75.26 75.26 75.45 
2403 75.20 75.26 75.45 
2404 75.26 75.26 75.45 
2405 75.21 75.26 75.45 
2406 75.27 75.26 75.45 
2407 75.29 75.26 75.45 
2408 75.26 75.26 75.45 
2409 75.26 75.26 75.45 
2410 75.26 75.26 75.45 
2411 75.26 75.26 75.45 
2412 75.21 75.26 75.45 
2413 75.27 75.26 75.45 
2414 75.27 75.26 75.45 
2415 75.26 75.26 75.45 
2416 75.32 75.26 75.45 
2417 75.26 75.26 75.45 
2418 75.26 75.26 75.45 
2419 75.28 75.26 75.45 
2420 75.25 75.26 75.45 
2421 75.25 75.26 75.45 
2422 75.26 75.26 75.45 
2423 75.33 75.26 75.45 
2424 75.26 75.26 75.45 
2425 75.29 75.26 75.45 
2426 75.18 75.26 75.45 
2427 75.26 75.26 75.45 
2428 75.26 75.26 75.45 
2429 75.26 75.26 75.45 
2430 75.27 75.26 75.45 
2431 75.30 75.26 75.45 
2432 75.18 75.26 75.45 
2433 75.21 75.26 75.45 
2434 75.11 75.26 75.45 
2435 75.26 75.26 75.45 
2436 75.26 75.26 75.45 
2437 75.26 75.26 75.45 
2438 75.26 75.26 75.45 
2439 75.26 75.26 75.45 
2440 75.26 75.26 75.45 
2441 75.27 75.26 75.45 
2442 75.27 75.26 75.45 
2443 75.26 75.26 75.45 
2444 75.17 75.26 75.45 
2445 75.19 75.26 75.45 
2446 75.26 75.26 75.45 
2447 75.26 75.26 75.45 
2448 75.20 75.26 75.45 
2449 75.28 75.26 75.45 
2450 75.20 75.26 75.45 
2451 75.26 75.26 75.45 
2452 75.21 75.26 75.45 
2453 75.23 75.26 75.45 
2454 75.26 75.26 75.45 
2455 75.26 75.26 75.45 
2456 75.24 75.26 75.45 
2457 75.23 75.26 75.45 
2458 75.21 75.26 75.45 
2459 75.27 75.26 75.45 
2460 75.27 75.26 75.45 
2461 75.20 75.26 75.45 
2462 75.26 75.26 75.45 
2463 75.26 75.26 75.45 
2464 75.26 75.26 75.45 
2465 75.26 75.26 75.45 
2466 75.27 75.26 75.45 
2467 75.26 75.26 75.45 
2468 75.28 75.26 75.45 
2469 75.26 75.26 75.45 
2470 75.28 75.26 75.45 
2471 75.21 75.35 75.45 
2472 75.26 75.26 75.45 
2473 75.18 75.24 75.45 
2474 75.26 75.26 75.45 
2475 75.26 75.30 75.45 
2476 75.16 75.26 75.45 
2477 75.22 75.26 75.45 
2478 75.26 75.26 75.45 
2479 75.23 75.26 75.45 
2480 75.24 75.27 75.45 
2481 75.29 75.27 75.45 
2482 75.26 75.27 75.45 
2483 75.26 75.27 75.45 
2484 75.26 75.26 75.45 
2485 75.25 75.26 75.45 
2486 75.26 75.26 75.45 
2487 75.26 75.26 75.45 
2488 75.26 75.27 75.45 
2489 75.26 75.26 75.45 
2490 75.26 75.26 75.45 
2491 75.29 75.26 75.45 
2492 75.26 75.39 75.45 
2493 75.26 75.26 75.45 
2494 75.26 75.26 75.45 
2495 75.26 75.26 75.45 
2496 75.26 75.26 75.45 
2497 75.26 75.26 75.45 
2498 75.27 75.26 75.45 
2499 75.26 75.26 75.45 
2500 75.26 75.26 75.45 
2501 75.26 75.26 75.45 
2502 75.26 75.27 75.45 
2503 75.23 75.26 75.45 
2504 75.26 75.26 75.45 
2505 75.26 75.26 75.45 
2506 75.28 75.26 75.45 
2507 75.26 75.26 75.45 
2508 75.26 75.26 75.45 
2509 75.26 75.26 75.45 
2510 75.26 75.26 75.45 
2511 75.26 75.26 75.45 
2512 75.26 75.26 75.45 
2513 75.27 75.26 75.45 
2514 75.26 75.26 75.45 
2515 75.23 75.26 75.45 
2516 75.26 75.26 75.45 
2517 75.26 75.26 75.45 
2518 75.18 75.26 75.45 
2519 75.26 75.26 75.45 
2520 75.16 75.26 75.45 
2521 75.26 75.26 75.45 
2522 75.29 75.26 75.45 
2523 75.27 75.26 75.45 
2524 75.26 75.26 75.45 
2525 75.21 75.26 75.45 
2526 75.26 75.26 75.45 
2527 75.26 75.26 75.45 
2528 75.26 75.35 75.45 
2529 75.26 75.33 75.45 
2530 75.26 75.26 75.45 
2531 75.29 75.26 75.45 
2532 75.17 75.26 75.45 
2533 75.26 75.26 75.45 
2534 75.20 75.26 75.45 
2535 75.26 75.26 75.45 
2536 75.26 75.26 75.45 
2537 75.27 75.26 75.45 
2538 75.22 75.26 75.45 
2539 75.26 75.42 75.45 
2540 75.20 75.26 75.45 
2541 75.26 75.26 75.45 
2542 75.25 75.26 75.45 
2543 75.32 75.26 75.45 
2544 75.24 75.26 75.45 
2545 75.26 75.26 75.45 
2546 75.26 75.26 75.45 
2547 75.26 75.26 75.45 
2548 75.26 75.26 75.45 
2549 75.26 75.26 75.45 
2550 75.22 75.26 75.45 
2551 75.26 75.26 75.45 
2552 75.27 75.26 75.45 
2553 75.26 75.26 75.45 
2554 75.26 75.26 75.45 
2555 75.26 75.26 75.45 
2556 75.26 75.26 75.45 
2557 75.26 75.26 75.45 
2558 75.26 75.28 75.45 
2559 75.26 75.26 75.45 
2560 75.26 75.26 75.45 
2561 75.23 75.26 75.45 
2562 75.26 75.27 75.45 
2563 75.26 75.26 75.45 
2564 75.17 75.27 75.45 
2565 75.28 75.26 75.45 
2566 75.26 75.26 75.45 
2567 75.26 75.26 75.45 
2568 75.26 75.26 75.45 
2569 75.16 75.26 75.45 
2570 75.26 75.26 75.45 
2571 75.26 75.26 75.45 
2572 75.26 75.26 75.45 
2573 75.29 75.26 75.45 
2574 75.26 75.26 75.45 
2575 75.26 75.26 75.45 
2576 75.26 75.00 75.45 
2577 75.17 75.26 75.45 
2578 75.18 75.26 75.45 
2579 75.26 75.26 75.45 
2580 75.28 75.31 75.45 
2581 75.26 75.26 75.45 
2582 75.26 75.26 75.45 
2583 75.26 75.26 75.45 
2584 75.26 75.26 75.45 
2585 75.26 75.26 75.45 
2586 75.26 75.26 75.45 
2587 75.26 75.26 75.45 
2588 75.29 38.57 75.45 
2589 38.57 38.57 75.45 
2590 38.57 38.57 75.45 
2591 38.57 38.57 75.45 
2592 38.57 38.57 75.45 
2593 38.58 38.57 75.45 
2594 38.57 38.57 75.45 
2595 38.57 38.57 75.45 
2596 38.57 38.57 75.45 
2597 38.58 38.57 75.45 
2598 38.57 38.57 75.45 
2599 38.58 38.57 75.45 
2600 38.58 38.57 75.45 
2601 38.57 38.58 75.45 
2602 38.59 38.57 75.45 
2603 38.57 38.57 75.45 
2604 38.58 38.57 75.45 
2605 38.58 38.57 75.45 
2606 38.59 38.57 75.45 
2607 38.57 38.57 75.45 
2608 38.57 38.57 75.45 
2609 38.71 38.57 75.45 
2610 38.57 38.57 75.45 
2611 38.58 38.57 75.45 
2612 38.58 38.57 75.45 
2613 38.58 38.57 75.45 
2614 38.58 38.57 75.45 
2615 38.58 38.57 75.45 
2616 38.57 38.57 75.45 
2617 38.69 38.57 75.45 
2618 38.57 38.57 75.45 
2619 38.57 38.57 75.45 
2620 38.57 38.57 75.45 
2621 38.57 38.57 75.45 
2622 38.59 38.57 75.45 
2623 38.73 38.57 75.45 
2624 38.57 38.57 75.45 
2625 38.57 38.57 75.45 
2626 38.65 38.57 75.45 
2627 38.58 38.57 75.45 
2628 38.57 38.57 75.45 
2629 38.57 38.57 75.45 
2630 38.58 38.57 75.45 
2631 38.57 38.57 75.45 
2632 38.74 38.57 75.45 
2633 38.58 38.57 75.45 
2634 38.57 38.57 75.45 
2635 38.57 38.57 75.45 
2636 38.57 38.57 75.45 
2637 38.67 38.57 75.45 
2638 38.57 38.57 75.45 
2639 38.57 38.57 75.45 
2640 38.57 38.57 75.45 
2641 38.58 38.57 75.45 
2642 38.57 38.57 75.45 
2643 38.58 38.57 75.45 
2644 38.57 38.57 75.45 
2645 38.57 38.57 75.45 
2646 38.58 38.57 75.45 
2647 38.58 38.57 75.45 
2648 38.57 38.57 75.45 
2649 38.57 38.57 75.45 
2650 38.57 38.57 75.45 
2651 38.57 38.57 75.45 
2652 38.57 38.57 75.45 
2653 38.57 38.57 75.45 
2654 38.57 38.57 75.45 
2655 38.57 38.57 75.45 
2656 38.59 38.57 75.45 
2657 38.57 38.57 75.45 
2658 38.57 38.57 75.45 
2659 38.57 38.57 75.45 
2660 38.60 38.57 75.45 
2661 38.57 38.57 75.45 
2662 38.58 38.57 75.45 
2663 38.57 38.57 75.45 
2664 38.58 38.57 75.45 
2665 38.57 38.57 75.45 
2666 38.57 38.57 75.45 
2667 38.58 38.57 75.45 
2668 38.57 38.57 75.45 
2669 38.57 38.57 75.45 
2670 38.57 38.57 75.45 
2671 38.57 38.57 75.45 
2672 38.57 38.57 75.45 
2673 38.57 38.57 75.45 
2674 38.57 38.57 75.45 
2675 38.57 38.57 75.45 
2676 38.60 38.57 75.45 
2677 38.60 38.57 75.45 
2678 38.57 38.57 75.45 
2679 38.57 38.57 75.45 
2680 38.57 38.57 75.45 
2681 38.57 38.57 75.45 
2682 38.57 38.57 75.45 
2683 38.57 38.57 75.45 
2684 38.57 38.57 75.45 
2685 38.58 38.57 75.45 
2686 38.57 38.57 75.45 
2687 38.58 38.57 75.45 
2688 38.57 38.57 75.45 
2689 38.57 38.57 75.45 
2690 38.57 38.57 75.45 
2691 38.57 38.57 75.45 
2692 38.57 38.57 75.45 
2693 38.57 38.57 75.45 
2694 38.57 38.57 75.45 
2695 38.60 38.57 75.45 
2696 38.58 38.57 75.45 
2697 38.57 38.57 75.45 
2698 38.57 38.57 75.45 
2699 38.57 38.57 75.45 
2700 38.58 38.57 75.45 
2701 38.57 38.57 75.45 
2702 38.59 38.57 75.45 
2703 38.58 38.57 75.45 
2704 38.58 38.57 75.45 
2705 38.57 38.57 75.45 
2706 38.57 38.57 75.45 
2707 38.57 38.57 75.45 
2708 38.57 38.57 75.45 
2709 38.57 38.57 75.45 
2710 38.58 38.57 75.45 
2711 38.57 38.57 75.45 
2712 38.63 38.60 75.45 
2713 38.57 38.57 75.45 
2714 38.59 38.59 75.45 
2715 38.57 38.57 75.45 
2716 38.57 38.57 75.45 
2717 38.66 38.57 75.45 
2718 38.58 38.57 75.45 
2719 38.57 38.57 75.45 
2720 38.58 38.57 75.45 
2721 38.61 38.57 75.45 
2722 38.57 38.57 75.45 
2723 38.58 38.57 75.45 
2724 38.58 38.57 75.45 
2725 38.57 38.57 75.45 
2726 38.60 38.57 75.45 
2727 38.61 38.57 75.45 
2728 38.57 38.57 75.45 
2729 38.57 38.57 75.45 
2730 38.57 38.57 75.45 
2731 38.57 38.57 75.45 
2732 38.57 38.57 75.45 
2733 38.57 38.57 75.45 
2734 38.58 38.57 75.45 
2735 38.57 38.57 75.45 
2736 38.58 38.57 75.45 
2737 38.60 38.57 75.45 
2738 38.58 38.57 75.45 
2739 38.60 38.57 75.45 
2740 38.57 38.57 75.45 
2741 38.58 38.57 75.45 
2742 38.57 38.57 75.45 
2743 38.57 38.57 75.45 
2744 38.57 38.57 75.45 
2745 38.68 38.57 75.45 
2746 38.58 38.57 75.45 
2747 38.74 38.57 75.45 
2748 38.58 38.57 75.45 
2749 38.58 38.57 75.45 
2750 38.57 38.57 75.45 
2751 38.62 38.57 75.45 
2752 38.58 38.57 75.45 
2753 38.61 38.57 75.45 
2754 38.57 38.57 75.45 
2755 38.57 38.57 75.45 
2756 38.57 38.57 75.45 
2757 38.58 38.57 75.45 
2758 38.57 38.57 75.45 
2759 38.61 38.57 75.45 
2760 38.57 38.57 75.45 
2761 38.57 38.57 75.45 
2762 38.59 38.57 75.45 
2763 38.57 38.58 75.45 
2764 38.74 38.57 75.45 
2765 38.66 38.57 75.45 
2766 38.61 38.57 75.45 
2767 38.57 38.57 75.45 
2768 38.58 38.57 75.45 
2769 38.64 38.57 75.45 
2770 38.59 38.57 75.45 
2771 38.57 38.57 75.45 
2772 38.58 38.57 75.45 
2773 38.58 38.57 75.45 
2774 38.71 38.57 75.45 
2775 38.58 38.57 75.45 
2776 38.60 38.57 75.45 
2777 38.59 38.57 75.45 
2778 38.59 38.58 75.45 
2779 38.57 38.57 75.45 
2780 38.57 38.58 75.45 
2781 38.66 38.57 75.45 
2782 38.58 38.57 75.45 
2783 38.57 38.57 75.45 
2784 38.57 38.57 75.45 
2785 38.59 38.57 75.45 
2786 38.59 38.57 75.45 
2787 38.59 38.57 75.45 
2788 38.61 38.57 75.45 
2789 38.58 38.57 75.45 
2790 38.59 38.57 75.45 
2791 38.61 38.57 75.45 
2792 38.57 38.57 75.45 
2793 38.57 38.57 75.45 
2794 38.70 38.57 75.45 
2795 38.62 38.57 75.45 
2796 38.59 38.57 75.45 
2797 38.67 38.57 75.45 
2798 38.58 38.57 75.45 
2799 38.59 38.57 75.45 
2800 38.57 38.57 75.45 
2801 38.58 38.57 75.45 
2802 38.58 38.57 75.45 
2803 38.57 38.57 75.45 
2804 38.63 38.57 75.45 
2805 38.62 38.57 75.45 
2806 38.57 38.57 75.45 
2807 38.57 38.57 75.45 
2808 38.58 38.57 75.45 
2809 38.60 38.58 75.45 
2810 38.58 38.57 75.45 
2811 38.57 38.57 75.45 
2812 38.61 38.57 75.45 
2813 38.57 38.57 75.45 
2814 38.58 38.57 75.45 
2815 38.57 38.57 75.45 
2816 38.60 38.57 75.45 
2817 38.63 38.57 75.45 
2818 38.63 38.57 75.45 
2819 38.57 38.57 75.45 
2820 38.57 38.57 75.45 
2821 38.58 38.57 75.45 
2822 38.60 38.57 75.45 
2823 38.69 38.57 75.45 
2824 38.57 38.57 75.45 
2825 38.72 38.61 75.45 
2826 38.65 39.08 75.45 
2827 38.57 38.57 75.45 
2828 38.58 38.57 75.45 
2829 38.57 38.57 75.45 
2830 38.57 38.57 75.45 
2831 38.58 38.57 75.45 
2832 38.59 38.57 75.45 
2833 38.68 38.57 75.45 
2834 38.58 38.57 75.45 
2835 38.61 38.64 75.45 
2836 38.57 38.57 75.45 
2837 38.57 38.57 75.45 
2838 38.57 38.57 75.45 
2839 38.59 38.92 75.45 
2840 38.57 38.59 75.45 
2841 38.57 38.57 75.45 
2842 38.57 38.57 75.45 
2843 38.58 38.57 75.45 
2844 38.58 38.57 75.45 
2845 38.58 38.57 75.45 
2846 38.58 38.57 75.45 
2847 38.57 38.57 75.45 
2848 38.59 38.57 75.45 
2849 38.60 38.57 75.45 
2850 38.58 38.57 75.45 
2851 38.58 38.57 75.45 
2852 38.59 38.57 75.45 
2853 38.57 38.58 75.45 
2854 38.59 38.57 75.45 
2855 38.57 38.57 75.45 
2856 38.57 38.57 75.45 
2857 38.57 38.57 75.45 
2858 38.57 38.57 75.45 
2859 38.57 38.58 75.45 
2860 38.58 38.57 75.45 
2861 38.60 38.57 75.45 
2862 38.57 38.57 75.45 
2863 38.57 38.57 75.45 
2864 38.59 38.57 75.45 
2865 38.57 38.57 75.45 
2866 38.57 38.57 75.45 
2867 38.57 38.57 75.45 
2868 38.64 38.57 75.45 
2869 38.57 38.58 75.45 
2870 38.57 38.57 75.45 
2871 38.58 38.57 75.45 
2872 38.57 38.57 75.45 
2873 38.58 38.57 75.45 
2874 38.57 38.57 75.45 
2875 38.57 38.57 75.45 
2876 38.57 38.57 75.45 
2877 38.57 38.57 75.45 
2878 38.61 38.57 75.45 
2879 38.58 38.57 75.45 
2880 38.57 38.57 75.45 
2881 38.57 38.57 75.45 
2882 38.62 38.57 75.45 
2883 38.58 38.57 75.45 
2884 38.64 38.57 75.45 
2885 38.57 39.04 75.45 
2886 38.57 38.89 75.45 
2887 38.58 38.73 75.45 
2888 38.57 38.65 75.45 
2889 38.58 38.57 75.45 
2890 38.57 38.76 75.45 
2891 38.62 38.57 75.45 
2892 38.58 38.57 75.45 
2893 38.58 38.57 75.45 
2894 38.60 38.57 75.45 
2895 38.57 38.57 75.45 
2896 38.57 38.57 75.45 
2897 38.57 38.57 75.45 
2898 38.67 38.57 75.45 
2899 38.58 38.57 75.45 
2900 38.57 38.57 75.45 
2901 38.57 38.57 75.45 
2902 38.58 38.57 75.45 
2903 38.57 38.57 75.45 
2904 38.57 38.57 75.45 
2905 38.57 38.58 75.45 
2906 38.58 38.57 75.45 
2907 38.57 38.57 75.45 
2908 38.57 38.57 75.45 
2909 38.59 38.57 75.45 
2910 38.59 38.57 75.45 
2911 38.57 38.57 75.45 
2912 38.57 38.57 75.45 
2913 38.57 38.60 75.45 
2914 38.59 38.57 75.45 
2915 38.57 38.57 75.45 
2916 38.57 38.61 75.45 
2917 38.57 38.58 75.45 
2918 38.57 38.57 75.45 
2919 38.62 38.57 75.45 
2920 38.57 38.57 75.45 
2921 38.59 38.57 75.45 
2922 38.57 38.57 75.45 
2923 38.57 38.57 75.45 
2924 38.57 38.57 75.45 
2925 38.58 38.57 75.45 
2926 38.58 38.57 75.45 
2927 38.68 38.57 75.45 
2928 38.59 38.57 75.45 
2929 38.61 38.57 75.45 
2930 38.61 38.58 75.45 
2931 38.69 38.57 75.45 
2932 38.57 38.57 75.45 
2933 38.57 38.57 75.45 
2934 38.57 38.57 75.45 
2935 38.57 38.57 75.45 
2936 38.58 38.57 75.45 
2937 38.57 38.57 75.45 
2938 38.57 38.57 75.45 
2939 38.63 38.58 75.45 
2940 38.57 38.57 75.45 
2941 38.63 38.57 75.45 
2942 38.57 38.57 75.45 
2943 38.58 38.57 75.45 
2944 38.57 38.57 75.45 
2945 38.58 38.57 75.45 
2946 38.58 38.57 75.45 
2947 38.57 38.57 75.45 
2948 38.59 38.57 75.45 
2949 38.57 38.57 75.45 
2950 38.57 38.57 75.45 
2951 38.72 38.57 75.45 
2952 38.57 38.57 75.45 
2953 38.59 38.57 75.45 
2954 38.58 38.57 75.45 
2955 38.57 38.57 75.45 
2956 38.57 38.57 75.45 
2957 38.57 38.57 75.45 
2958 38.66 38.57 75.45 
2959 38.58 38.57 75.45 
2960 38.57 38.57 75.45 
2961 38.57 38.57 75.45 
2962 38.58 38.57 75.45 
2963 38.57 38.57 75.45 
2964 38.57 38.57 75.45 
2965 38.59 38.57 75.45 
2966 38.57 38.57 75.45 
2967 38.58 38.59 75.45 
2968 38.57 38.57 75.45 
2969 38.59 38.57 75.45 
2970 38.67 38.57 75.45 
2971 38.58 38.57 75.45 
2972 38.58 38.57 75.45 
2973 38.58 38.57 75.45 
2974 38.61 38.57 75.45 
2975 38.57 38.57 75.45 
2976 38.58 38.57 75.45 
2977 38.58 38.57 75.45 
2978 38.57 38.57 75.45 
2979 38.57 38.57 75.45 
2980 38.57 38.57 75.45 
2981 38.58 38.57 75.45 
2982 38.57 38.57 75.45 
2983 38.58 38.57 75.45 
2984 38.57 38.57 75.45 
2985 38.58 38.57 75.45 
2986 38.57 38.57 75.45 
2987 38.60 38.57 75.45 
2988 38.57 38.57 75.45 
2989 38.72 38.57 75.45 
2990 38.57 38.57 75.45 
2991 38.57 38.57 75.45 
2992 38.57 38.57 75.45 
2993 38.58 38.57 75.45 
2994 38.60 38.57 75.45 
