iteration,time_sampling,stoc_pol_mean,stoc_pol_std,stoc_pol_max,stoc_pol_min,rollout_success,alpha,delta,time_vpg,time_npg,kl_dist,surr_improvement,running_score,rwd_sparse,rwd_dense,success_percentage,num_samples,time_VF,VF_error_before,VF_error_after,env_samples,eval_score,eval_success
0,1.4633681774139404,0.04510611194968551,0.006835992030235635,0.0563393757994937,0.03856329798120637,0.0,0.13945655394913137,0.1,0.03548836708068848,0.0519871711730957,0.048534468,1.7566341,0.04510611194968551,0.0,0.0008734470124851118,0.0,200,0.09007000923156738,4.194827177969195,0.9735027634012621,200,0.0424915248477813,0.0
1,1.2776329517364502,0.04169198842350303,0.008961250753013097,0.0524405250346204,0.032067777946566955,0.0,0.14299305303740661,0.1,0.0785980224609375,0.5851864814758301,0.04976289,1.1815168,0.04476469959706726,0.0,0.0008466260108363696,0.0,200,0.24554753303527832,1.2183600009255677,0.3272958130377663,400,0.04414694805320604,0.0
2,1.3416969776153564,0.03576683577402932,0.011791584320025325,0.04716788118649822,0.016592209283079456,0.0,0.159648616984959,0.1,0.08091402053833008,0.8881516456604004,0.05289388,1.1281756,0.04386491321476346,0.0,0.000695307141047424,0.0,200,0.16263151168823242,0.8374386651926576,0.5427022901966615,600,0.04022685876053195,0.0
3,1.4065799713134766,0.04941840679702705,0.029228858307740864,0.0875289814692296,0.010311522304354089,0.0,0.15165947301999683,0.1,0.08202052116394043,1.3798480033874512,0.049906254,0.825556,0.044420262572989824,0.0,0.0009808518881605397,0.0,200,0.16030216217041016,0.8002473613443893,0.6222171607795326,800,0.05299872901658129,0.0
4,1.51692533493042,0.06099834645571593,0.02636712000634039,0.09644832347965239,0.02782195016919136,0.0,0.1519810082682451,0.1,0.157515287399292,1.4476284980773926,0.04961136,0.9780151,0.046078070961262436,0.0,0.0012346178950051838,0.0,200,0.21565628051757812,0.5619218429138803,0.3086878024762543,1000,0.05710639910742136,0.0
5,1.3640706539154053,0.07282200598744229,0.02242265695407994,0.09224211406622042,0.03586087739326241,0.0,0.1440406265223298,0.1,0.08279299736022949,1.4271578788757324,0.049112543,0.831582,0.04875246446388042,0.0,0.001438237170034608,0.0,200,0.2883749008178711,0.2899747374685532,0.29006856512071255,1200,0.0559676593413962,0.0
6,1.45662260055542,0.06584664076187159,0.03258683807900707,0.10451304558295704,0.03328989450036623,0.0,0.15406076163336843,0.1,0.0825045108795166,1.3550844192504883,0.051529694,0.858001,0.050461882093679536,0.0,0.0013144023116148178,0.0,200,0.21054410934448242,0.4355456874609544,0.41871782628919313,1400,0.08337183741473914,0.0
7,1.477501630783081,0.07502808109451564,0.07224683569481431,0.19919095964263592,0.0250995672981061,0.0,0.15949139055637765,0.1,0.08363914489746094,0.29229307174682617,0.05131056,1.1266307,0.05291850199376315,0.0,0.00151844046748605,0.0,200,0.22424101829528809,0.6036259185780295,0.5826379538116214,1600,0.0847210015793144,0.0
8,1.4606199264526367,0.14597179425839085,0.18708265983569447,0.46964401557604,0.024823224374011806,0.0,0.14669583841744516,0.1,0.07904815673828125,1.4482996463775635,0.051442713,1.6177666,0.06222383122022592,0.0,0.0029046588957419802,0.0,200,0.1897261142730713,0.7764587325629577,0.7079593299068788,1800,0.14593612445143955,0.0
9,1.3730735778808594,0.10891289186220926,0.04963565937039605,0.1737564415821602,0.050963688637743546,0.0,0.15287696596788988,0.1,0.0047910213470458984,0.05244255065917969,0.05219802,0.93477994,0.06689273728442426,0.0,0.0021814707782937606,0.0,200,0.17383480072021484,0.27634580694460437,0.31195921142672023,2000,0.1370065483973478,0.0
10,1.5051193237304688,0.13211163009750024,0.1485818589488904,0.3880248639881558,0.02561728038603867,0.0,0.14805653781574332,0.1,0.08534550666809082,1.373565435409546,0.05045168,1.4140675,0.07341462656573186,0.0,0.00265268797435711,0.0,200,0.21185636520385742,0.6479296758767619,0.63412519925068,2200,0.1343793454676143,0.0
11,1.3973233699798584,0.12324293589300805,0.06989884951864914,0.19683664396882375,0.04339707643785164,0.0,0.14342305704413327,0.1,0.08002948760986328,1.1294667720794678,0.04837935,1.1064512,0.07839745749845949,0.0,0.0024661756236783053,0.0,200,0.1604154109954834,0.3412353537422532,0.321981031775162,2400,0.15839930695185075,0.0
12,1.4572856426239014,0.09383668813324117,0.05401680309715098,0.16367593873333097,0.03190655324695631,0.0,0.1562722654778714,0.1,0.08557510375976562,1.4318861961364746,0.050613746,0.87876236,0.07994138056193766,0.0,0.0018682551389270104,0.0,200,0.15258073806762695,0.4092523786618077,0.33582156864078533,2600,0.22427360019052192,0.0
13,1.5378508567810059,0.21948569785446181,0.29163857540610144,0.7217973966460124,0.022210289071172073,0.0,0.14576399479212387,0.1,0.08984899520874023,1.4291446208953857,0.04941463,1.387011,0.09389581229119007,0.0,0.004404113693541866,0.0,200,0.13753008842468262,0.8144357700621532,0.7279234311495107,2800,0.256713572757819,0.0
14,1.5402374267578125,0.28635059832286475,0.3526025126703147,0.896503510733296,0.06271331556929387,0.0,0.14225267095518276,0.1,0.09365057945251465,1.1005096435546875,0.05101204,1.5723492,0.11314129089435754,0.0,0.005693397062717358,0.0,200,0.19016456604003906,0.7409697797246552,0.6427807466964949,3000,0.3192186458810502,0.0
15,1.5122342109680176,0.08105000116849521,0.017634155603556138,0.10802147551138036,0.05943370886078906,0.0,0.13360893411259808,0.1,0.08423352241516113,0.749932050704956,0.049805764,1.3395604,0.1099321619217713,0.0,0.0016120288980228,0.0,200,0.1601114273071289,7.417182750996568,4.956808492304942,3200,0.2969016431180051,0.0
16,1.374051570892334,0.10043993386944458,0.03780030483075487,0.15431985748034593,0.05994914794741047,0.0,0.14160536034856364,0.1,0.08092761039733887,0.6375150680541992,0.049852155,0.8829912,0.10898293911653864,0.0,0.001947891775438121,0.0,200,0.176896333694458,1.5778527954827863,0.3179839223988507,3400,0.48628575533851653,0.0
17,1.3960990905761719,0.11918667896038597,0.03482239724646608,0.15991073839497028,0.07195192519531403,0.0,0.1430897878203753,0.1,0.08631205558776855,0.6349320411682129,0.04951009,0.9390042,0.11000331310092337,0.0,0.00236922687123556,0.0,200,0.16984224319458008,0.20628211856722484,0.22435608249153643,3600,0.5192572757212098,0.0
18,1.5639030933380127,0.36504200380471685,0.26222366627897886,0.7373577072590174,0.03655261867643127,0.0,0.1326885866522695,0.1,0.0030896663665771484,0.05189251899719238,0.05072118,1.3910397,0.13550718217130273,0.0,0.007308049741850956,0.0,200,0.20483613014221191,0.7583813329627412,0.7183479207986653,3800,0.4082475286328749,0.0
19,1.51104736328125,0.22280266554023923,0.20150869315141245,0.5564615986728997,0.052542386995427535,0.0,0.14360546321479734,0.1,0.17266559600830078,2.315558910369873,0.05034937,1.2206473,0.14423673050819638,0.0,0.004390054832884809,0.0,200,0.19799375534057617,0.6307370944570383,0.5404300306294303,4000,0.3540731106644703,0.0
20,1.5612316131591797,0.1800831143859254,0.14554598621144307,0.4290157187805168,0.07688859004227627,0.0,0.14582712455913682,0.1,0.07850456237792969,0.04980182647705078,0.050271206,1.3938403,0.1478213688959693,0.0,0.003587380643638105,0.0,200,0.17215585708618164,0.5261399181086047,0.5127073321952782,4200,0.40912804971057626,0.0
21,1.6191651821136475,0.14741372546492926,0.07678577773870496,0.26643852294832077,0.0521869559871971,0.0,0.12600007249317705,0.1,0.08154654502868652,1.3751611709594727,0.050366916,1.998934,0.14778060455286532,0.0,0.0029172526337439037,0.0,200,0.16796278953552246,0.40299464536098706,0.46609324889878995,4400,0.3896806802145591,0.0
22,1.5429434776306152,0.4464158336852958,0.3613922533579479,0.9305845947582166,0.05919083700495302,0.0,0.1359437339749924,0.1,0.08576464653015137,0.05709576606750488,0.05015877,1.2417083,0.17764412746610836,0.0,0.008931442325958805,0.0,200,0.20202422142028809,0.6331444990314267,0.5670385057575558,4600,0.43687973195561386,0.0
23,1.5401341915130615,0.17507209868153903,0.07640090622401242,0.26340330706430637,0.09353640057096267,0.0,0.14305974085962717,0.1,0.00278472900390625,0.8042600154876709,0.049550485,0.9450615,0.17738692458765143,0.0,0.0034898096443835265,0.0,200,0.1756892204284668,0.45671020808230717,0.6180618779239885,4800,0.37925072570999924,0.0
24,1.4771959781646729,0.7318242114164334,0.7794787901749165,2.059407373682582,0.05793611263427564,0.0,0.1317948697200467,0.1,0.0814061164855957,0.061248064041137695,0.050501842,1.944108,0.23283065327052965,0.0,0.014543403335384201,0.0,200,0.23240923881530762,0.7511616056351137,0.6852974511129722,5000,0.565207920455166,0.0
25,1.54571533203125,0.10063872009505095,0.023806470502402467,0.13922752410887398,0.07602469353713899,0.0,0.13950988636522388,0.1,0.07902669906616211,1.2046587467193604,0.04963781,5.282307,0.21961145995298179,0.0,0.0019655034920130457,0.0,200,0.27988433837890625,10.09987504408512,11.225652191808065,5200,0.5366486149861286,0.0
26,1.4810051918029785,0.16954661459962148,0.22905193028019138,0.5661468432725455,0.03003781615099573,0.0,0.13410582248616532,0.1,0.08730649948120117,0.22173213958740234,0.050134934,1.9907141,0.21460497541764578,0.0,0.0033877571237836265,0.0,200,0.16747426986694336,1.36275472707048,0.9291156440297663,5400,0.572078019800588,0.0
27,1.366711139678955,0.07705773261752734,0.03580569007071442,0.117981549596699,0.024185060390948747,0.0,0.14503373475509443,0.1,0.08666253089904785,0.17058181762695312,0.051543463,0.7254873,0.20085025113763394,0.0,0.0015244656182617144,0.0,200,0.174638032913208,8.155455825992536,3.1975536135014475,5600,0.7629434201384026,0.0
28,1.4236536026000977,0.18576053578911556,0.1620979324585625,0.4453803630380708,0.04025124614496931,0.0,0.13512603615837815,0.1,0.07987022399902344,1.3129007816314697,0.048963767,1.416095,0.1993412796027821,0.0,0.0036992590355844693,0.0,200,0.17232036590576172,0.5126837995440986,0.5160445910755235,5800,0.9227800697338767,0.0
29,1.4470951557159424,0.19910330630312997,0.16007537798327873,0.442904781703753,0.02128977933075942,0.0,0.140315297844011,0.1,0.07885575294494629,1.3223769664764404,0.050094265,1.3552991,0.1993174822728169,0.0,0.003969375728586054,0.0,200,0.17146921157836914,0.5017074523975973,0.5544550207514723,6000,0.8967007209249881,0.0
30,1.4492244720458984,0.42336197340709336,0.3783811403320274,1.0330509491250983,0.08921506216604072,0.0,0.14295416466738586,0.1,0.08899831771850586,1.4136528968811035,0.05135077,1.2788521,0.22172193138624455,0.0,0.008480232164888449,0.0,200,0.38975977897644043,0.7346978536158273,0.7090416866829045,6200,0.7465825195562369,0.0
31,1.3913500308990479,0.22456872883392145,0.14588914790724364,0.420769208169519,0.035450981156648534,0.0,0.14143330722652867,0.1,0.09517335891723633,1.4112701416015625,0.051623758,1.0251191,0.22200661113101225,0.0,0.004477707583586138,0.0,200,0.3128986358642578,0.44212519162589486,0.39073678009786533,6400,0.7758051108016324,0.0
32,1.5519518852233887,0.1818388692051212,0.1298893592940905,0.4051155514992681,0.09307920094288952,0.0,0.13279615348187268,0.1,0.08464241027832031,0.1382763385772705,0.050193384,1.4396634,0.21798983693842314,0.0,0.0035263525556703795,0.0,200,0.1514294147491455,0.4521955301941536,0.4438226494842112,6600,0.7699619717979597,0.0
33,1.5532832145690918,0.4350254471499131,0.22170567447588577,0.7226039949068557,0.1469033431388689,0.0,0.14094603391480398,0.1,0.1669318675994873,1.699204921722412,0.049221527,0.90575576,0.23969339795957215,0.0,0.008586549940105962,0.0,200,0.02470684051513672,0.5194055101738381,0.46585927771406804,6800,0.7477385317886643,0.0
34,1.5136573314666748,0.33531050358663866,0.26068622396640995,0.7295196475372442,0.04407718545697828,0.0,0.14066962615343515,0.1,0.08018136024475098,0.05309939384460449,0.04943703,1.2840637,0.24925510852227878,0.0,0.006652871512772339,0.0,200,0.034131526947021484,0.5115462505898584,0.47460539193465046,7000,0.9064125667328934,0.0
35,1.436612844467163,0.39011361210261547,0.36575089911556485,1.0138626801273622,0.0843071015859114,0.0,0.12526077290507942,0.1,0.017438888549804688,0.05763506889343262,0.049909078,2.7580066,0.26334095888031245,0.0,0.007760361040198826,0.0,200,0.01688694953918457,0.5984733074702664,0.5554474170317865,7200,0.8964265804428729,0.0
36,1.5140655040740967,0.2848391508592335,0.20941144306530546,0.5388877252307973,0.05576719017468567,0.0,0.134244156053083,0.1,0.0027403831481933594,0.05202460289001465,0.050407566,1.0582173,0.26549077807820454,0.0,0.005647035254320761,0.0,200,0.024002552032470703,0.4071113113439778,0.4309227712760158,7400,1.0528593980637468,0.0
37,1.5998804569244385,0.2274551349304254,0.17499570598869466,0.5285805587167354,0.10324897449843533,0.0,0.13947850580565038,0.1,0.09173822402954102,0.8350365161895752,0.049433433,1.2313588,0.26168721376342663,0.0,0.004351016427111595,0.0,200,0.17701196670532227,0.6476640190904551,0.6037958857999293,7600,0.6894737210041996,0.0
38,1.4652454853057861,0.24535034618008011,0.14203066135772852,0.46445353884164153,0.08349185559937622,0.0,0.1356931771300195,0.1,0.08179068565368652,0.5319180488586426,0.050028276,1.5145981,0.260053527005092,0.0,0.0049410491105669335,0.0,200,0.22672247886657715,0.481222676824799,0.3808319382285735,7800,0.4194311811404962,0.0
39,1.5583784580230713,0.3255485999358903,0.2743185367351915,0.7468010012808978,0.028419391859374265,0.0,0.14373226614420226,0.1,0.08202075958251953,0.7419369220733643,0.049885456,0.97097075,0.26660303429817184,0.0,0.006466282024071135,0.0,200,0.18159198760986328,0.4544379716954748,0.45867478955608926,8000,0.4130765778057659,0.0
40,1.451289176940918,0.33991946413293217,0.2611862679707475,0.7613102473523455,0.048660067491728735,0.0,0.1377705948608164,0.1,0.08196878433227539,0.962456464767456,0.050482262,1.4136943,0.2739346772816479,0.0,0.006741983340501191,0.0,200,0.2074134349822998,0.46865058188317343,0.4665366775235462,8200,0.5896450170644373,0.0
41,1.5496118068695068,0.5110803073218732,0.2641038026186326,0.842517944820666,0.10378270253743858,0.0,0.13613839090068755,0.1,0.08779501914978027,1.0732262134552002,0.050200347,1.1469634,0.2976492402856704,0.0,0.010190574677515135,0.0,200,0.23821759223937988,0.43812147031191356,0.3943570208445141,8400,0.5090801343512942,0.0
42,1.419003963470459,0.5217019490504307,0.18127532497314394,0.7834353719014274,0.32592676545770777,0.0,0.13036879533651813,0.1,0.0815744400024414,1.0291435718536377,0.049720917,1.0889412,0.32005451116214645,0.0,0.010313277008591259,0.0,200,0.16299676895141602,0.325123573258,0.23387012858357542,8600,0.5851661623345965,0.0
43,1.5527033805847168,0.6367320225434474,0.3229161001722478,1.1593930077912056,0.3182007891000189,0.0,0.13581744596290893,0.1,0.08020305633544922,0.5011811256408691,0.051189,1.4726121,0.3517222623002766,0.0,0.012639700640367398,0.0,200,0.21635127067565918,0.3791038877338127,0.3071356719664202,8800,0.6705418467088182,0.0
44,1.4427971839904785,0.8469836960141536,0.7477100898041997,2.0970240169688696,0.11874067008102737,0.0,0.12370553290840969,0.1,0.0896148681640625,0.5963873863220215,0.04950356,2.815618,0.4012484056716643,0.0,0.016819924457610186,0.0,200,0.2299666404724121,0.5841736202558528,0.5160715654654411,9000,0.7082517096374904,0.0
45,1.519200325012207,0.4683895168034742,0.3503684981123765,1.029309140612059,0.06576390540728923,0.0,0.12981333314728657,0.1,0.08458280563354492,1.4330511093139648,0.04980089,1.5411813,0.4079625167848453,0.0,0.00924908853642691,0.0,200,0.3751957416534424,0.5840879138411411,0.5792787704371292,9200,0.49011657547891185,0.0
46,1.6158678531646729,0.6323649855795488,0.6456949155587233,1.725128800964647,0.04422201942183795,0.0,0.14526645124775095,0.1,0.09284830093383789,0.46735119819641113,0.05086811,1.5064982,0.4304027636643157,0.0,0.012612697614190854,0.0,200,0.21783876419067383,0.5665356543548687,0.5602539586666615,9400,0.5727751132873818,0.0
