iteration,time_sampling,stoc_pol_mean,stoc_pol_std,stoc_pol_max,stoc_pol_min,rollout_success,alpha,delta,time_vpg,time_npg,kl_dist,surr_improvement,running_score,rwd_sparse,rwd_dense,success_percentage,num_samples,time_VF,VF_error_before,VF_error_after,env_samples,eval_score,eval_success
0,1.1470062732696533,-1.9115533639533102,0.036607768447225256,-1.86349598116575,-1.96630356813193,0.0,0.09895957499051504,0.1,0.03198599815368652,0.05193829536437988,0.052046437,1.8180587,-1.9115533639533102,0.0,-0.025340162178208878,0.0,97,0.004981040954589844,1.0516187547273728,1.0516187547273728,97,-1.8564289040527615,0.0
1,1.0756211280822754,-1.8499905830395678,0.06929990059403546,-1.7577425337926758,-1.9295565720737504,0.0,0.11349795790933231,0.1,0.0025968551635742188,0.05267190933227539,0.05462402,1.7067462,-1.905397085861936,0.0,-0.024515804426668716,0.0,104,0.013322591781616211,1.0543694025642183,1.0543694025642183,201,-1.8439700060725392,0.0
2,1.0972869396209717,-1.8894592798768186,0.028538827015974783,-1.858551871488933,-1.9360788748010773,0.0,0.1184259828134157,0.1,0.004897117614746094,0.051032066345214844,0.05147066,1.2896252,-1.9038033052634245,0.0,-0.0250341882828603,0.0,127,0.014111042022705078,1.0547416854700147,1.0547416854700147,328,-1.8875608264942294,0.0
3,1.139162540435791,-1.9013225556634872,0.03974615409446905,-1.8653405979338997,-1.9630613612062497,0.0,0.0999008225577693,0.1,0.0029327869415283203,0.05043148994445801,0.05091948,1.5574884,-1.9035552303034307,0.0,-0.02523223663828782,0.0,91,0.0028235912322998047,1.0534007441351034,1.0534007441351034,419,-1.886178181270197,0.0
4,1.1413745880126953,-1.9072668039318974,0.013685305410523789,-1.8884085070146308,-1.922861785511872,0.0,0.11638694915276533,0.1,0.003137826919555664,0.05204153060913086,0.051161338,1.1316042,-1.9039263876662773,0.0,-0.02527242915130697,0.0,130,0.06983447074890137,1.0548969723721597,1.0029036083865965,549,-1.8836810476776262,0.0
5,1.1176369190216064,-1.906475194749047,0.03071699796238641,-1.8682526815377778,-1.952456900473195,0.0,0.10472928192859242,0.1,0.02802276611328125,0.05035662651062012,0.050951503,1.885509,-1.9041812683745543,0.0,-0.025267257205660386,0.0,108,0.013820886611938477,1.0035395999428083,1.0035395999428083,657,-1.8766616277220762,0.0
6,1.181293249130249,-1.8731838513011494,0.03590304807523562,-1.8126423114115742,-1.9037958727865916,0.0,0.11580319968283663,0.1,0.00347900390625,0.051366329193115234,0.0500284,1.1762447,-1.9010815266672139,0.0,-0.024840738608023334,0.0,121,0.01438760757446289,1.0034657471996185,1.0034657471996185,778,-1.8671022670406774,0.0
7,1.196650743484497,-1.881030903079886,0.04725860306365139,-1.8159597134944998,-1.9448179461056043,0.0,0.11637602000811205,0.1,0.0038852691650390625,0.0521700382232666,0.051187843,1.43435,-1.899076464308481,0.0,-0.024933760454353558,0.0,122,0.01519918441772461,1.0033498682209987,1.0033498682209987,900,-1.8374295473964208,0.0
8,1.1902966499328613,-1.909587168535233,0.044947864121396126,-1.833349464410045,-1.9471743602848302,0.0,0.10033779783663915,0.1,0.038643836975097656,0.05044221878051758,0.050133035,4.746134,-1.9001275347311564,0.0,-0.02536523485501912,0.0,91,0.0027818679809570312,1.0012512543645151,1.0012512543645151,991,-1.8857036286878894,0.0
9,1.1694786548614502,-1.9157713847793252,0.022787680100598312,-1.8849872151550615,-1.939587117492307,0.0,0.09260154785197344,0.1,0.002460002899169922,0.05001258850097656,0.05062086,7.19135,-1.9016919197359734,0.0,-0.02541084033495065,0.0,92,0.011399269104003906,1.002250003624752,1.002250003624752,1083,-1.8930045059368947,0.0
10,1.2044990062713623,-1.8793864511834406,0.0531003203964328,-1.7914666526168923,-1.924456896788555,0.0,0.10908163118833471,0.1,0.04813218116760254,0.11262989044189453,0.04912692,1.5926543,-1.8994613728807201,0.0,-0.02491708415656941,0.0,124,0.013757467269897461,1.0013364075049398,1.0013364075049398,1207,-1.8613098191071842,0.0
11,1.2164547443389893,-1.8986437032598662,0.04436542705261895,-1.8359028767852126,-1.9520804678577148,0.0,0.10385656198123973,0.1,0.012093067169189453,0.05063486099243164,0.050770696,1.492375,-1.8993796059186348,0.0,-0.025169667151803365,0.0,104,0.015465736389160156,1.0026944809664708,1.0026944809664708,1311,-1.809092568240689,0.0
12,1.1532652378082275,-1.896134380045379,0.0306505653520768,-1.8594257486632872,-1.9421693087530894,0.0,0.11601106046903287,0.1,0.07316994667053223,0.06249237060546875,0.05120618,1.0173118,-1.8990550833313091,0.0,-0.025127431719226375,0.0,135,0.025618553161621094,1.0021344100590124,0.9504790215932135,1446,-1.845199180578061,0.0
13,1.1836903095245361,-1.912725456315394,0.03251741667463709,-1.857016174622244,-1.9379019276002154,0.0,0.10783992230568178,0.1,0.0027959346771240234,0.04997372627258301,0.049390405,1.3866804,-1.9004221206297176,0.0,-0.025351106188846666,0.0,116,0.014197826385498047,0.9518802870551718,0.9518802870551718,1562,-1.7741225453272051,0.0
14,1.237351894378662,-1.8050674495260906,0.07434872483312177,-1.7177146450806964,-1.9171231485702989,0.0,0.12336822913551303,0.1,0.00648188591003418,0.054219961166381836,0.05097433,1.3056782,-1.890886653519355,0.0,-0.023924841125336205,0.0,147,0.05395364761352539,0.9503978479765792,0.8959685430848696,1709,-1.773446799809071,0.0
15,1.2359304428100586,-1.9119490857149086,0.02292369004826128,-1.873566896075605,-1.9332495223172443,0.0,0.11207787027674455,0.1,0.004893064498901367,0.05538582801818848,0.0495788,1.1906366,-1.8929928967389102,0.0,-0.025333104593022758,0.0,129,0.04540729522705078,0.900311021440863,0.8427722625749289,1838,-1.8145058318397291,0.0
16,1.1947591304779053,-1.8876017641959528,0.055884606836865254,-1.7955233126735977,-1.944992639035058,0.0,0.09862783043450758,0.1,0.043283700942993164,0.05666375160217285,0.05022864,1.9080802,-1.8924537834846147,0.0,-0.025045926888586496,0.0,89,0.0031092166900634766,0.8376029918817155,0.8376029918817155,1927,-1.7903615664892636,0.0
17,1.2394616603851318,-1.8713576350672745,0.040293983806083844,-1.8050215571616401,-1.9110173298223239,0.0,0.12151795295404985,0.1,0.002844572067260742,0.05947732925415039,0.050833497,1.2233212,-1.8903441686428808,0.0,-0.024816826451729952,0.0,142,0.08544564247131348,0.838096134286618,0.7724286956461835,2069,-1.8142474382391933,0.0
18,1.2486729621887207,-1.9226236977309512,0.023994168527999404,-1.8836170696139118,-1.9452961314034993,0.0,0.12020080518842012,0.1,0.006018400192260742,0.055109500885009766,0.050132744,1.0929915,-1.8935721215516879,0.0,-0.025499761672002484,0.0,143,0.08863329887390137,0.7796893198295394,0.7065915222436862,2212,-1.879716271237868,0.0
19,1.1918613910675049,-1.9315169364533544,0.019365348126178288,-1.899587546180189,-1.9497790119990133,0.0,0.09943965974238321,0.1,0.015461921691894531,0.0490870475769043,0.050524063,1.646049,-1.8973666030418546,0.0,-0.025596338268770204,0.0,101,0.013815641403198242,0.7065073719196775,0.7065073719196775,2313,-1.8908732075738193,0.0
20,1.140181541442871,-1.9221436845967907,0.013008729048150296,-1.9085036653599512,-1.9424865213480604,0.0,0.09459390759715203,0.1,0.025667428970336914,0.050859928131103516,0.049345665,2.7646399,-1.8998443111973482,0.0,-0.02547914314646522,0.0,106,0.014470338821411133,0.6994126840548385,0.6994126840548385,2419,-1.8886770916512685,0.0
21,1.1474525928497314,-1.873846074124507,0.06215312370862047,-1.7828445968679498,-1.942912829431954,0.0,0.10581174331221312,0.1,0.014439105987548828,0.04980158805847168,0.049689982,1.3423874,-1.8972444874900642,0.0,-0.024834000459812225,0.0,115,0.01607370376586914,0.6943142291495361,0.6943142291495361,2534,-1.817988522494786,0.0
22,1.14426589012146,-1.8953404110383898,0.049596520846337595,-1.8433978396249167,-1.951844090630483,0.0,0.11388958505708247,0.1,0.0028543472290039062,0.051500797271728516,0.049383536,1.1736605,-1.8970540798448967,0.0,-0.025124401923375988,0.0,132,0.09130501747131348,0.7010514775726516,0.6159582808915972,2666,-1.8816219587835719,0.0
23,1.1566808223724365,-1.92768600210108,0.01718465321711863,-1.9045749914820345,-1.952078555674279,0.0,0.11162688850724739,0.1,0.05234789848327637,0.12045955657958984,0.049918123,1.2363218,-1.9001172720705153,0.0,-0.025543860284380854,0.0,115,0.01380300521850586,0.6149014689540913,0.6149014689540913,2781,-1.8260178067025132,0.0
24,1.2055139541625977,-1.899155123279031,0.035813155449287315,-1.8405662294525855,-1.9369004908290233,0.0,0.10503714947371777,0.1,0.0038700103759765625,0.04997849464416504,0.04948478,1.556507,-1.900021057191367,0.0,-0.0251640570340181,0.0,120,0.004629373550415039,0.6094712554446291,0.6094712554446291,2901,-1.816805718648457,0.0
25,1.179060697555542,-1.9184201169133186,0.026639625881291998,-1.8901274057976856,-1.9505612963762418,0.0,0.11528199109507614,0.1,0.0030927658081054688,0.05697441101074219,0.049441624,1.0856278,-1.9018609631635623,0.0,-0.025419462122550956,0.0,127,0.01866436004638672,0.610209438507749,0.610209438507749,3028,-1.7804066985728924,0.0
26,1.186732530593872,-1.8936986727209242,0.06178754405468716,-1.7941047867207585,-1.962230161242327,0.0,0.11062796961987427,0.1,0.05057168006896973,0.1720411777496338,0.050260596,1.3904179,-1.9010447341192986,0.0,-0.02508964050387811,0.0,121,0.015750646591186523,0.6154300570733413,0.6154300570733413,3149,-1.7926321459386039,0.0
27,1.1160051822662354,-1.89212501369417,0.050154414806770915,-1.815592472238686,-1.955435561735826,0.0,0.10508029422799682,0.1,0.04958200454711914,0.11907672882080078,0.050251476,1.3674649,-1.9001527620767857,0.0,-0.02507097506682797,0.0,112,0.014276504516601562,0.614801717157691,0.614801717157691,3261,-1.7647260388280275,0.0
28,1.1500558853149414,-1.8119479438852726,0.0680980970943969,-1.7159062930241502,-1.9063715106412533,0.0,0.10973329683522859,0.1,0.0030226707458496094,0.05309629440307617,0.04965407,1.4911432,-1.8913322802576344,0.0,-0.024019121097379213,0.0,123,0.011866569519042969,0.6063763761440119,0.6063763761440119,3384,-1.747754280087416,0.0
29,1.2274832725524902,-1.8822987785290595,0.0537881677513336,-1.8061624958120444,-1.9427827157417137,0.0,0.10935108937288542,0.1,0.0046312808990478516,0.05343317985534668,0.050557896,1.2945695,-1.890428930084777,0.0,-0.024951411017468478,0.0,131,0.08828377723693848,0.6077783608025786,0.5097983004549511,3515,-1.751249913772927,0.0
30,1.1916313171386719,-1.8825287540409172,0.05997598979800576,-1.8081207521153975,-1.9628324794079255,0.0,0.11328961073247515,0.1,0.002681255340576172,0.05129051208496094,0.048916377,1.5413208,-1.889638912480391,0.0,-0.024944139676944168,0.0,127,0.014107227325439453,0.5155887065129774,0.5155887065129774,3642,-1.766776070465114,0.0
31,1.1476585865020752,-1.8888329387601206,0.008667890154611566,-1.8805927227165924,-1.9029102512381844,0.0,0.11909813633802609,0.1,0.06852269172668457,0.17621469497680664,0.050346844,1.4003232,-1.889558315108364,0.0,-0.025029509060225105,0.0,134,0.03705549240112305,0.5181157194885597,0.41146885021736596,3776,-1.7315606367260312,0.0
32,1.1634628772735596,-1.8978148094275773,0.017381607965561936,-1.8682636579840546,-1.9104089811609812,0.0,0.11675626832163692,0.1,0.07239317893981934,0.057186126708984375,0.04966465,1.0969123,-1.8903839645402853,0.0,-0.025145474570570862,0.0,138,0.030903339385986328,0.4157568340213112,0.3052898667053803,3914,-1.7151115305440081,0.0
33,1.1935310363769531,-1.869463131496218,0.03593283904491574,-1.8149762225574002,-1.9136512990876164,0.0,0.11976929312898475,0.1,0.0027937889099121094,0.052889347076416016,0.04936495,1.2872882,-1.8882918812358787,0.0,-0.02477839298727291,0.0,135,0.08754110336303711,0.3124216943215607,0.2056047148304833,4049,-1.7195317077926762,0.0
34,1.2071197032928467,-1.905281707313258,0.019223495777324504,-1.8822632538265458,-1.9280403470788234,0.0,0.11142562077912659,0.1,0.06555604934692383,0.10548925399780273,0.04945252,1.2539976,-1.8899908638436167,0.0,-0.025246543896213548,0.0,126,0.015558004379272461,0.20273989571010612,0.20273989571010612,4175,-1.7321444837248772,0.0
35,1.51047682762146,-1.9018742131957604,0.01733665348493273,-1.874424054558019,-1.9224951811491624,0.0,0.10245612034145793,0.1,0.003262042999267578,0.06987619400024414,0.050240394,1.5880846,-1.8911791987788311,0.0,-0.025208960917776572,0.0,121,0.01490330696105957,0.18533355388076903,0.18533355388076903,4296,-1.755857971210833,0.0
36,1.4346818923950195,-1.8293372656767295,0.034908499942691726,-1.7749164524496925,-1.8605568672520025,0.0,0.11397813677786314,0.1,0.07127666473388672,0.06756210327148438,0.050265186,1.3025165,-1.8849950054686209,0.0,-0.024236114006425735,0.0,143,0.029541969299316406,0.1915624420063496,0.10113838488206957,4439,-1.7915061477804277,0.0
37,1.50697660446167,-1.8737960435710825,0.017512148188380948,-1.8576965642984986,-1.9013542858184758,0.0,0.11343469451324086,0.1,0.003139972686767578,0.06550383567810059,0.0493758,1.8147984,-1.883875109278867,0.0,-0.024824822175822492,0.0,134,0.0883636474609375,0.10547222089730841,0.04312797671180658,4573,-1.8122913445979705,0.0
38,1.4844205379486084,-1.8789920852512738,0.034733944028315346,-1.8564257546829348,-1.9390225495452706,0.0,0.11335184679751424,0.1,0.06985855102539062,0.1245870590209961,0.05040952,1.3517796,-1.8833868068761077,0.0,-0.02489794230027364,0.0,141,0.0811467170715332,0.04435191426472756,0.021885021072826773,4714,-1.808037944661219,0.0
39,1.4045944213867188,-1.8797469653947496,0.03242924968417718,-1.833337596625154,-1.9227339586388135,0.0,0.10742385492671956,0.1,0.004931211471557617,0.06505203247070312,0.051393766,1.0504652,-1.883022822727972,0.0,-0.02491230717983131,0.0,115,0.0161287784576416,0.02241075059358291,0.02241075059358291,4829,-1.8535659089996976,0.0
40,1.3126113414764404,-1.8993903572065816,0.0428762390642856,-1.8272406928061538,-1.9343034292413888,0.0,0.10977942776644661,0.1,0.006207466125488281,0.05565786361694336,0.0506948,1.6735108,-1.884659576175833,0.0,-0.025187579276839213,0.0,134,0.0912008285522461,0.025382711792999883,0.048674045739240994,4963,-1.9092830498863895,0.0
41,1.3425099849700928,-1.8127882713910408,0.14483527554781656,-1.6098782834613659,-1.9563689956158465,0.0,0.10108952850845078,0.1,0.029847383499145508,0.05462360382080078,0.049953863,1.8598179,-1.8774724456973537,0.0,-0.0240348778779137,0.0,98,0.002711772918701172,0.07542284399380315,0.07542284399380315,5061,-1.8830168437190453,0.0
42,1.3793015480041504,-1.8642196179694985,0.04852645024187088,-1.8124242289611663,-1.9198128483456993,0.0,0.11662502915093703,0.1,0.0030982494354248047,0.05435514450073242,0.04984446,1.139394,-1.8761471629245683,0.0,-0.02470045593313518,0.0,145,0.0854945182800293,0.055558364495864015,0.08903941327794375,5206,-1.8573796690955706,0.0
43,1.2914881706237793,-1.8464407195467722,0.05871794966519241,-1.7456295087333136,-1.8881592321570075,0.0,0.11969977229396417,0.1,0.0030870437622070312,0.05396866798400879,0.049578756,0.9869852,-1.8731765185867886,0.0,-0.02451280710198603,0.0,145,0.06876921653747559,0.10620731444290021,0.11109225650352207,5351,-1.8499130793716594,0.0
44,1.2852082252502441,-1.8744114455654282,0.01672916093608605,-1.8608775307285705,-1.902771053750476,0.0,0.1064926432344015,0.1,0.003163576126098633,0.05477142333984375,0.049377736,1.0688531,-1.8733000112846527,0.0,-0.02484637953467502,0.0,142,0.01698756217956543,0.07466822542252993,0.061323528801641776,5493,-1.890853690559024,0.0
45,1.2449662685394287,-1.883146470428805,0.04339440433621916,-1.8256804619183655,-1.9456110124044534,0.0,0.11155222196970153,0.1,0.004933595657348633,0.2049860954284668,0.05090603,0.92854273,-1.874284657199068,0.0,-0.024960612002234043,0.0,125,0.019784212112426758,0.06166694350038798,0.06166694350038798,5618,-1.760017650659641,0.0
46,1.2556793689727783,-1.639476632147327,0.448329196771821,-0.8643388252269444,-1.9406102471475757,0.0,0.10789630506007364,0.1,0.003069162368774414,0.05762934684753418,0.050574217,1.2610303,-1.8508038546938939,0.0,-0.021701320031774177,0.0,127,0.019190549850463867,0.20115021958753534,0.20115021958753534,5745,-1.7888977169565397,0.0
47,1.2891714572906494,-1.8659499553082364,0.04862862656187339,-1.806723665423306,-1.9376488426378353,0.0,0.10439812908037982,0.1,0.003851175308227539,0.058344364166259766,0.051934116,0.9937441,-1.8523184647553281,0.0,-0.024726845321568422,0.0,120,0.015426158905029297,0.06820287649084376,0.06820287649084376,5865,-1.8237486472474984,0.0
48,1.29685640335083,-1.8969741614196223,0.01908240295103449,-1.8700409605874337,-1.9225164623092297,0.0,0.10751295216566889,0.1,0.0032541751861572266,0.055452823638916016,0.04904625,0.8509512,-1.8567840344217577,0.0,-0.025134446875157288,0.0,142,0.0715029239654541,0.05712560217669803,0.03867670671311023,6007,-1.7742480170323696,0.0
49,1.2821321487426758,-1.894157484856971,0.05042390795576424,-1.8202313310792424,-1.955489739371094,0.0,0.10990141832501944,0.1,0.0028824806213378906,0.05193805694580078,0.049435772,0.67668474,-1.860521379465279,0.0,-0.02510125058166176,0.0,119,0.014240026473999023,0.046422213819325826,0.046422213819325826,6126,-1.8154577792015616,0.0
50,1.2802283763885498,-1.907617339426924,0.021706035768840184,-1.8764255147362296,-1.92890364386062,0.0,0.10941998306161856,0.1,0.0530698299407959,0.10942482948303223,0.05045265,1.0300412,-1.8652309754614436,0.0,-0.02527626394315139,0.0,123,0.013925790786743164,0.04090939051928371,0.04090939051928371,6249,-1.838995419533641,0.0
51,1.3178551197052002,-1.8407402987456907,0.06490466529275689,-1.7354279915292379,-1.9060754798674704,0.0,0.11683357534923898,0.1,0.03974342346191406,0.06068229675292969,0.049400445,0.9979679,-1.8627819077898684,0.0,-0.024388869813465743,0.0,136,0.08533310890197754,0.05588216559078696,0.032443331487785075,6385,-1.837098972792796,0.0
52,1.3315658569335938,-1.877076671093087,0.06652101255501744,-1.765754832861765,-1.9392052734390908,0.0,0.10969401448244381,0.1,0.002950429916381836,0.05467367172241211,0.050466344,1.7360123,-1.8642113841201904,0.0,-0.02487395688715367,0.0,136,0.08746838569641113,0.03217013093383215,0.01875888991538143,6521,-1.840247716966663,0.0
53,1.3310692310333252,-1.8811740466581575,0.030218368518187277,-1.8488847374880097,-1.9139304930664949,0.0,0.12523093959579626,0.1,0.005132913589477539,0.056958675384521484,0.04941908,1.0409617,-1.8659076503739873,0.0,-0.024928471820612332,0.0,142,0.045557498931884766,0.01238843997184923,0.014802928064028657,6663,-1.8245494159324525,0.0
54,1.3268730640411377,-1.9380211960622242,0.003989965503160903,-1.9322063162888905,-1.9425836846273545,0.0,0.10448642333730811,0.1,0.004578590393066406,0.09882831573486328,0.050531518,0.9399528,-1.873119004942811,0.0,-0.025702332043888266,0.0,106,0.013642072677612305,0.025262385094621607,0.025262385094621607,6769,-1.7233984745288453,0.0
55,1.3371326923370361,-1.8004787307944903,0.12064603087220928,-1.609135909547728,-1.9215428383242874,0.0,0.11010727226929133,0.1,0.0030095577239990234,0.06149172782897949,0.05051038,1.692981,-1.865854977527979,0.0,-0.023851299107867582,0.0,134,0.09118890762329102,0.024031373602203088,0.025299967520604993,6903,-1.733099592730537,0.0
56,1.324239730834961,-1.887399785971491,0.03636578477882403,-1.8274125526201852,-1.9254751810529154,0.0,0.10658667571783803,0.1,0.013472795486450195,0.10258841514587402,0.050764322,1.4802358,-1.8680094583723301,0.0,-0.025005965137333247,0.0,136,0.01460719108581543,0.024829024849158263,0.02871733487606145,7039,-1.718732961322716,0.0
57,1.362792730331421,-1.8727480253160635,0.03925885615129397,-1.8272716455077789,-1.9217730259242802,0.0,0.11260910666358286,0.1,0.004834175109863281,0.12036490440368652,0.049184587,1.4660994,-1.8684833150667035,0.0,-0.024810480484335432,0.0,130,0.09317946434020996,0.024357427430619603,0.024519594141338898,7169,-1.6584163004677261,0.0
58,1.2957887649536133,-1.9072159172905758,0.030427970478958268,-1.8664324510752168,-1.9454016649086414,0.0,0.09519247771137106,0.1,0.02152395248413086,0.048984527587890625,0.04923569,1.1367913,-1.872356575289091,0.0,-0.02527339816617423,0.0,105,0.01526498794555664,0.032640353180397694,0.032640353180397694,7274,-1.6414760039396474,0.0
59,1.2746233940124512,-1.7560273780124847,0.17996425773911132,-1.449355422208181,-1.904849558232369,0.0,0.11808598499002945,0.1,0.005120515823364258,0.10286855697631836,0.050749753,1.1668419,-1.8607236555614302,0.0,-0.023268027447583446,0.0,132,0.08015036582946777,0.028946567470246803,0.027103735300898043,7406,-1.70038920755166,0.0
60,1.2763080596923828,-1.7579465523294826,0.10517560031879557,-1.600531133008064,-1.8935778402170473,0.0,0.11383108709991417,0.1,0.005504131317138672,0.0539088249206543,0.050805748,1.3037735,-1.8504459452382356,0.0,-0.02333439111671216,0.0,134,0.07947087287902832,0.02352179217311757,0.020443457361950038,7540,-1.7028820954405184,0.0
61,1.3445181846618652,-1.8334964749132534,0.14445246353463156,-1.5851685203921244,-1.9349695129183773,0.0,0.10071425766442285,0.1,0.004847526550292969,0.06416010856628418,0.049842983,1.2556701,-1.8487509982057375,0.0,-0.0242898780722121,0.0,130,0.06783246994018555,0.01714934272887987,0.015166230714326857,7670,-1.6786898904477459,0.0
62,1.2595396041870117,-1.848635540107181,0.03220724540044847,-1.8049725938894468,-1.8959176539826699,0.0,0.1087292082644445,0.1,0.004874706268310547,0.20849204063415527,0.04954759,1.6692945,-1.848739452395882,0.0,-0.024501266888981098,0.0,142,0.045938968658447266,0.014628577870262076,0.011983306915001398,7812,-1.7585671050324165,0.0
63,1.2885446548461914,-1.846693820058336,0.036105762557150464,-1.8058111490286826,-1.900446612316459,0.0,0.10821560904641593,0.1,0.005364894866943359,0.0586090087890625,0.050239928,0.9598079,-1.8485348891621274,0.0,-0.024465195431195436,0.0,126,0.011369466781616211,0.014343241777239875,0.014343241777239875,7938,-1.7654584547007122,0.0
64,1.3300321102142334,-1.8707804466084639,0.07020652636057224,-1.7566466127030402,-1.9477980509788833,0.0,0.1114800304250437,0.1,0.005005598068237305,0.06061577796936035,0.049720865,1.0789723,-1.850759444906761,0.0,-0.024797069768340795,0.0,131,0.07222390174865723,0.015764077888353416,0.012970413629059274,8069,-1.7261421701820365,0.0
65,1.3062427043914795,-1.862666848355227,0.03531256342779092,-1.8361442249337536,-1.9232396521506117,0.0,0.11238322844293369,0.1,0.004849910736083984,0.10043978691101074,0.05094534,0.8068399,-1.8519501852516078,0.0,-0.024679518151512318,0.0,142,0.025510072708129883,0.011327795993689464,0.010287073680937378,8211,-1.7334769845233777,0.0
66,1.2700085639953613,-1.8275970840857827,0.059781257320306785,-1.7268531985279547,-1.8834622665078335,0.0,0.10295882234985596,0.1,0.04140162467956543,0.10834908485412598,0.051395424,1.2906142,-1.8495148751350254,0.0,-0.02421265220318526,0.0,138,0.025363922119140625,0.009512908636943651,0.009950325634799799,8349,-1.6755178811920939,0.0
67,1.2671325206756592,-1.8799407686592677,0.024645825409290688,-1.8428573801301016,-1.9044676961093225,0.0,0.1194125899005481,0.1,0.07248568534851074,0.09244966506958008,0.050055955,0.63939285,-1.8525574644874496,0.0,-0.02491144781458883,0.0,141,0.055970191955566406,0.007410159355639024,0.007672769754217059,8490,-1.6904888260013593,0.0
68,1.3131449222564697,-1.831843467572573,0.0411452951547083,-1.7810474862722274,-1.889184756771637,0.0,0.110120393474255,0.1,0.0072383880615234375,0.05548286437988281,0.051014114,0.81271,-1.850486064795962,0.0,-0.024269842185593225,0.0,144,0.01891946792602539,0.01095796275194747,0.010852180036227246,8634,-1.6663524868603228,0.0
69,1.2691552639007568,-1.8782868001698034,0.017642832779814772,-1.860134709907102,-1.9064176611772639,0.0,0.10493835426650934,0.1,0.05277204513549805,0.051316261291503906,0.04991224,0.8289094,-1.8532661383333462,0.0,-0.024888173928779216,0.0,121,0.006509065628051758,0.011338713174184143,0.011338713174184143,8755,-1.6774774858035892,0.0
70,1.3217206001281738,-1.873553961915613,0.0563173343973415,-1.7827163432985,-1.928414624960254,0.0,0.10482741585323313,0.1,0.0026018619537353516,0.057930707931518555,0.049847215,0.9374166,-1.855294920691573,0.0,-0.024828310851503253,0.0,124,0.013971567153930664,0.012522342000167455,0.012522342000167455,8879,-1.6531158554794885,0.0
71,1.6964874267578125,0.18587884966928714,3.571412662771987,6.371219382658287,-1.9393733158354054,0.0,0.12680420804742157,0.1,0.00351715087890625,0.06511712074279785,0.04980155,1.404762,-1.651177543655487,0.0,-0.0007313282065716893,0.0,137,0.06060791015625,1.3837480449462978,1.3143795742124578,9016,-1.5789041512857442,0.0
72,1.5772864818572998,-1.8399952851065406,0.0328162445431622,-1.8071135947415218,-1.8887267039596785,0.0,0.11760047700623841,0.1,0.0035398006439208984,0.07009220123291016,0.050519295,0.9612146,-1.6700593178005925,0.0,-0.024415766540380513,0.0,144,0.04839062690734863,0.01016868503742747,0.026079213422786306,9160,-1.6749056417516648,0.0
73,1.6915171146392822,-1.873682015271334,0.05492991909576342,-1.8052253017475768,-1.9508824759786931,0.0,0.1089615329871997,0.1,0.01583695411682129,0.06940126419067383,0.050881032,0.8741744,-1.6904215875476667,0.0,-0.02482503721652455,0.0,129,0.06794238090515137,0.0314510932927279,0.052248549825433144,9289,-1.6482482942899663,0.0
74,1.679410696029663,-1.8443824770750203,0.07352928904437096,-1.7201701729303707,-1.910957502427983,0.0,0.10706524962781937,0.1,0.0029435157775878906,0.06384134292602539,0.050266206,1.2320755,-1.705817676500402,0.0,-0.02443593436394067,0.0,118,0.01536703109741211,0.059101942516530566,0.059101942516530566,9407,-1.6791567134038916,0.0
75,1.3712992668151855,-1.8182686408183266,0.02323968471379438,-1.781359344649424,-1.8408128873914726,0.0,0.11317630007718528,0.1,0.004731416702270508,0.05471611022949219,0.049936965,1.6161402,-1.7170627729321946,0.0,-0.024084721862583827,0.0,139,0.08656001091003418,0.04804539620037987,0.06122276997053179,9546,-1.7166253492941117,0.0
76,1.3341617584228516,-1.81662643877785,0.053693137097688776,-1.7292065771347198,-1.870254017566937,0.0,0.12130279306429015,0.1,0.0679013729095459,0.19891023635864258,0.049932282,1.3296994,-1.7270191395167602,0.0,-0.02407376809087434,0.0,137,0.025237560272216797,0.05665437164270134,0.059490814949569565,9683,-1.7215620838020225,0.0
77,1.3865513801574707,-1.8723862771337094,0.041644856007805146,-1.8193682202151977,-1.936005340315558,0.0,0.10976741185688521,0.1,0.004995584487915039,0.0547337532043457,0.04988105,1.6850804,-1.7415558532784554,0.0,-0.024810911722225198,0.0,133,0.05907726287841797,0.07522473486171975,0.06793226127913177,9816,-1.7156824331616118,0.0
78,1.3652770519256592,-1.7957848397082485,0.058155521943771736,-1.713880181980379,-1.8671344610437173,0.0,0.10823802279270807,0.1,0.005108356475830078,0.053192138671875,0.0494715,1.7071136,-1.7469787519214348,0.0,-0.023790644764003974,0.0,137,0.06358742713928223,0.05518618512662553,0.0431893433497647,9953,-1.6981533277847571,0.0
79,1.4187631607055664,-1.8409748033906257,0.05079761699897698,-1.7618464849199387,-1.9029534627243796,0.0,0.11706736585853142,0.1,0.0051233768463134766,0.05486011505126953,0.049663093,1.3712605,-1.7563783570683538,0.0,-0.02439911364193367,0.0,132,0.026268959045410156,0.05306551041455745,0.03691948766341876,10085,-1.6874722792611252,0.0
80,1.3886992931365967,-1.8562083201218638,0.04204401885551709,-1.827907563104785,-1.9288685014051579,0.0,0.10758023839972465,0.1,0.002888202667236328,0.05340290069580078,0.050193176,1.3295506,-1.7663613533737048,0.0,-0.024590767465991977,0.0,129,0.08347916603088379,0.042872858207959115,0.02611327206621092,10214,-1.6354213897239134,0.0
81,1.3611011505126953,-1.834173629486463,0.04818599513722481,-1.75384820438873,-1.8729241063429325,0.0,0.1117172796241562,0.1,0.002994060516357422,0.05819439888000488,0.050143957,0.9584414,-1.7731425809849806,0.0,-0.024311270883543425,0.0,135,0.021121501922607422,0.016777885421564793,0.010749246825015657,10349,-1.6585614270653608,0.0
82,1.400298833847046,-1.8502713476587582,0.01720315987526492,-1.8305388252362575,-1.8745966310744384,0.0,0.10762460340022442,0.1,0.029085636138916016,0.05139350891113281,0.050124627,0.87425363,-1.7808554576523583,0.0,-0.0245126555658852,0.0,134,0.032767295837402344,0.008217100761647118,0.006861857425309318,10483,-1.690337301816598,0.0
83,1.4528930187225342,-1.8023497745049322,0.03335389233619599,-1.745146969512099,-1.827314526281366,0.0,0.11022938949853638,0.1,0.002825021743774414,0.055283308029174805,0.049817745,0.86466193,-1.7830048893376158,0.0,-0.023879705680040685,0.0,145,0.06406664848327637,0.0069787698173787525,0.010012679581830237,10628,-1.7188144753285506,0.0
84,1.43019437789917,-1.8033850127250832,0.08877306027587674,-1.663323919239715,-1.897227051955515,0.0,0.1040385147780162,0.1,0.0065746307373046875,0.060303688049316406,0.050586287,0.83725256,-1.7850429016763625,0.0,-0.02389078365207403,0.0,140,0.08981537818908691,0.01312494587920479,0.0167087532660141,10768,-1.6405869151465777,0.0
85,1.4359076023101807,-1.8271028913129035,0.07170541345033844,-1.7302833660940107,-1.9089174157359516,0.0,0.11909658973891206,0.1,0.07108712196350098,0.09334850311279297,0.050393153,0.66708654,-1.7892489006400167,0.0,-0.024207414264698433,0.0,142,0.059220075607299805,0.015087673989909359,0.016729356238256225,10910,-1.717459269166351,0.0
86,1.4839892387390137,-1.5328751922894492,0.44812411932104185,-0.7567878235632497,-1.8017119291036867,0.0,0.11955067505287643,0.1,0.003013134002685547,0.05411362648010254,0.05017946,1.4706601,-1.76361152980496,0.0,-0.0202864749012918,0.0,139,0.08420562744140625,0.11617783174755572,0.10514297743041937,11049,-1.6701593374847779,0.0
87,1.4520540237426758,-1.9029285200343693,0.04920887956200344,-1.8200362353449784,-1.9492577335236134,0.0,0.11522648690704736,0.1,0.0047719478607177734,0.05444526672363281,0.049967814,1.3789763,-1.7775432288279007,0.0,-0.02522296401199815,0.0,120,0.011738061904907227,0.009298454033750287,0.009298454033750287,11169,-1.6930754487109365,0.0
88,1.4288949966430664,-1.8322607338881665,0.04216248156581971,-1.7822999562169555,-1.874769062243408,0.0,0.10418684803835375,0.1,0.0028493404388427734,0.05248236656188965,0.049979627,1.1074767,-1.7830149793339274,0.0,-0.024276140192171555,0.0,139,0.050147056579589844,0.013737078443892246,0.009813643505453402,11308,-1.7598401927413214,0.0
89,1.4866375923156738,-1.8187993069771613,0.03391951869614821,-1.7844329652918216,-1.8654869394790214,0.0,0.11142313391482155,0.1,0.004441022872924805,0.06770634651184082,0.05031509,1.5560918,-1.7865934120982507,0.0,-0.024094613571453025,0.0,142,0.08248376846313477,0.008672245048601151,0.006377235428013031,11450,-1.7791168733880527,0.0
90,1.5280232429504395,-1.8284332344556962,0.05036137349271218,-1.7725810688600214,-1.8973753470871113,0.0,0.11321727555962677,0.1,0.06237912178039551,0.05671858787536621,0.05025542,0.7595985,-1.7907773943339955,0.0,-0.024264861173934095,0.0,127,0.013960838317871094,0.007141172319632837,0.007141172319632837,11577,-1.654889163916508,0.0
91,1.645613670349121,-1.8367374627690034,0.046663502761887424,-1.7889622373053269,-1.8884575673074186,0.0,0.1092587719022032,0.1,0.00397491455078125,0.053902626037597656,0.050661836,0.7737984,-1.7953734011774962,0.0,-0.024330910504711603,0.0,139,0.08978605270385742,0.007215830655451938,0.008933392319726424,11716,-1.7494409976806617,0.0
92,1.577078104019165,-1.8548727099218285,0.038585596859327186,-1.790505822121135,-1.887484025227246,0.0,0.11450167041348612,0.1,0.00467371940612793,0.08332538604736328,0.04978698,1.011329,-1.8013233320519295,0.0,-0.024591127281025655,0.0,119,0.015912294387817383,0.00999084307242339,0.00999084307242339,11835,-1.7413851302613221,0.0
93,1.3508081436157227,-1.8712458037110427,0.05272281671085708,-1.8026690096975289,-1.9482485530714015,0.0,0.10614234630296043,0.1,0.0028917789459228516,0.07084202766418457,0.05072271,0.790423,-1.808315579217841,0.0,-0.024792033455604368,0.0,120,0.027676105499267578,0.011042900754426278,0.011042900754426278,11955,-1.767364032439314,0.0
94,1.321774959564209,-1.797722720255881,0.032046027845553014,-1.7451378137662152,-1.8310738933832167,0.0,0.1117978881528962,0.1,0.004820346832275391,0.05530714988708496,0.050275546,1.2290108,-1.807256293321645,0.0,-0.02381671816548999,0.0,143,0.08647775650024414,0.005621874394085531,0.006482491115613031,12098,-1.7619097992632433,0.0
95,1.385601282119751,-1.8226544876446082,0.03703718900660794,-1.7642368609009176,-1.8669768643347286,0.0,0.10888322635470847,0.1,0.010189294815063477,0.055013179779052734,0.048845813,1.3758047,-1.8087961127539414,0.0,-0.024143797667332587,0.0,136,0.04568338394165039,0.0062297741070535045,0.006680905881944352,12234,-1.7567145928352346,0.0
96,1.3217995166778564,-1.8350470351864965,0.09881023315903528,-1.6665074713984884,-1.9127422199272486,0.0,0.10917013098373846,0.1,0.0032219886779785156,0.05355334281921387,0.049864784,0.9931712,-1.811421204997197,0.0,-0.024313794633440765,0.0,137,0.04614710807800293,0.009463616862451724,0.009529125568643576,12371,-1.743688679357892,0.0
97,1.3423421382904053,-0.07968844530740238,2.9744751263957374,5.071720202778365,-1.8574680978000395,0.0,0.11693284976282556,0.1,0.0029544830322265625,0.0535275936126709,0.04984156,1.922117,-1.6382479290282175,0.0,-0.004236888535992563,0.0,139,0.026013612747192383,1.2679143536186896,1.2158888372627756,12510,-1.7434261465500185,0.0
98,1.3781368732452393,0.18343194573584176,3.430117179525532,6.124047025403801,-1.8495177094591937,0.0,0.12406364354211633,0.1,0.002887248992919922,0.06075739860534668,0.04920937,1.7883868,-1.4560799415518115,0.0,-0.0007463973288122268,0.0,144,0.041501760482788086,1.2370959356501192,1.167065336054278,12654,-1.725582134049133,0.0
99,1.3557615280151367,-1.6762561572392753,0.2435733028484813,-1.293779201518246,-1.8918479758636555,0.0,0.1214940020977484,0.1,0.06777143478393555,0.1418442726135254,0.0498137,1.7075913,-1.478097563120558,0.0,-0.022204931299709255,0.0,143,0.09310722351074219,0.05648581093113828,0.10293549160663439,12797,-1.7264214243325273,0.0
100,1.348846435546875,-1.2832415997424356,0.9337356285050014,0.32904113057529183,-1.9390084706485091,0.0,0.11325463800652538,0.1,0.005011081695556641,0.056610822677612305,0.04934133,1.4493705,-1.4586119667827457,0.0,-0.020313645973486758,0.0,123,0.01594400405883789,0.3429969465348241,0.3429969465348241,12920,-1.7493609418990486,0.0
101,1.283933162689209,-1.85484137288543,0.0446146208897761,-1.7828568416953245,-1.9043629347566318,0.0,0.10825081357158405,0.1,0.07028055191040039,0.13644647598266602,0.049807947,1.2881184,-1.4982349073930141,0.0,-0.024583046297800844,0.0,126,0.014154672622680664,0.1255244455272423,0.1255244455272423,13046,-1.7369620937851886,0.0
102,1.6907172203063965,-1.842926533908623,0.04263570929375636,-1.7795694850698554,-1.8927163457791494,0.0,0.12262773512274067,0.1,0.014801025390625,0.12439584732055664,0.05033329,1.1709855,-1.5327040700445749,0.0,-0.024413633052462358,0.0,142,0.05058622360229492,0.11512097492432315,0.15017669002479073,13188,-1.7390795224584474,0.0
103,1.5964369773864746,-1.8214354987852004,0.08195655893911351,-1.6982025158550478,-1.9235001763195883,0.0,0.11591694669841379,0.1,0.0031664371490478516,0.06944584846496582,0.050167423,1.1339324,-1.5615772129186374,0.0,-0.02412712358917502,0.0,132,0.03988146781921387,0.14883396952978412,0.16216739937525354,13320,-1.7451018895900237,0.0
104,1.6111040115356445,-1.8062402419043,0.04429139730444729,-1.7317993198766237,-1.8401493093479386,0.0,0.11822027409388783,0.1,0.005232572555541992,0.06799840927124023,0.05038683,1.2615575,-1.5860435158172037,0.0,-0.023927246405123434,0.0,145,0.08594846725463867,0.1628996261180906,0.15791191747043506,13465,-1.7874939388993676,0.0
105,1.5607614517211914,-1.7941661521878842,0.0473662735758585,-1.718593580790587,-1.8437984905248674,0.0,0.11705279478596602,0.1,0.007168769836425781,0.08289909362792969,0.05065088,2.6728766,-1.6068557794542717,0.0,-0.023765641941385106,0.0,147,0.08715486526489258,0.1611991289195122,0.1410999287427766,13612,-1.782629576660599,0.0
106,1.5594606399536133,-1.8158900914069327,0.02978814262453532,-1.786138264546854,-1.8497188912193823,0.0,0.11322808619999693,0.1,0.005031585693359375,0.06497359275817871,0.049408577,1.3847764,-1.627759210649538,0.0,-0.024060377765327337,0.0,133,0.03732132911682129,0.14125711804283567,0.1107195722856392,13745,-1.7919185619475089,0.0
107,1.5001068115234375,-1.8453808782043146,0.06113737567170945,-1.7557433442691357,-1.9265597021605638,0.0,0.12042952834900435,0.1,0.0029141902923583984,0.052252769470214844,0.05025094,1.0287536,-1.6495213774050157,0.0,-0.024448964184381708,0.0,144,0.04476737976074219,0.12422978211974,0.0883936213668814,13889,-1.7969546216760361,0.0
108,1.4599084854125977,-1.8046796776962837,0.05651394968128578,-1.7315831803458905,-1.870618386981426,0.0,0.1158378674768423,0.1,0.0028433799743652344,0.053699493408203125,0.04969222,1.3292522,-1.6650372074341426,0.0,-0.023906030341640648,0.0,144,0.08400821685791016,0.07955881235142007,0.04645065516589373,14033,-1.7924515623361839,0.0
109,1.4802472591400146,-1.8346986367656024,0.08582462692412741,-1.7025869520180121,-1.93681363482528,0.0,0.10884584568236676,0.1,0.04896187782287598,0.1371307373046875,0.04947715,0.9229812,-1.6820033503672889,0.0,-0.02434807101633937,0.0,122,0.01514577865600586,0.05478897370490095,0.05478897370490095,14155,-1.7086519759863918,0.0
110,1.3957877159118652,-1.5368845005424046,0.522173844520361,-0.6327441014246995,-1.8576931428929786,0.0,0.10660282934405733,0.1,0.02556610107421875,0.06709432601928711,0.049927406,3.0272663,-1.6674914653848005,0.0,-0.020354986848692823,0.0,142,0.02107071876525879,0.06787521896975916,0.05204432875844818,14297,-1.5790916711578655,0.0
111,1.4075307846069336,-1.8143001042229414,0.055808944908932935,-1.7438609195418369,-1.8775017418108644,0.0,0.11677635900420724,0.1,0.0029554367065429688,0.05734992027282715,0.050381713,0.95282835,-1.6821723292686146,0.0,-0.024037361503791738,0.0,143,0.0531458854675293,0.018730906105458352,0.009053895196530982,14440,-1.7571949041323964,0.0
112,1.424985408782959,-1.8296796766112597,0.027478572858173882,-1.8074438008909972,-1.8764961871828645,0.0,0.10670235586664902,0.1,0.0056765079498291016,0.054352760314941406,0.04944434,0.84036756,-1.6969230640028792,0.0,-0.02423704556331085,0.0,134,0.06762385368347168,0.01008883719099598,0.006949711558964815,14574,-1.797950279889463,0.0
113,1.4375183582305908,-1.7929374773775466,0.0333763525250046,-1.7578619718281367,-1.8395990730356935,0.0,0.12001083078133191,0.1,0.005079030990600586,0.11062121391296387,0.04965518,0.8563361,-1.706524505340346,0.0,-0.023751142702989097,0.0,146,0.03794384002685547,0.010650762187318676,0.01861196636607952,14720,-1.7544754794558415,0.0
114,1.4548397064208984,-0.9920962417320458,1.3259102531466358,1.2981388341891222,-1.8490849482312413,0.0,0.1166207028447818,0.1,0.0048923492431640625,0.37886595726013184,0.05006006,2.8613083,-1.635081678979516,0.0,-0.0164252384485321,0.0,145,0.04096865653991699,0.8333153471416687,0.8169796028451445,14865,-1.7617885327729297,0.0
115,1.4436101913452148,-1.8086022275773757,0.03117524362113822,-1.763409558927834,-1.8503132250511294,0.0,0.11236723516461261,0.1,0.005350351333618164,0.09898757934570312,0.04932846,0.802471,-1.652433733839302,0.0,-0.023958974778851998,0.0,147,0.05840301513671875,0.008388679651867523,0.006045210710637445,15012,-1.722754485234768,0.0
116,1.4747796058654785,-1.8052052031335557,0.07819168933438728,-1.7172723845351427,-1.8911912685639964,0.0,0.11314522381078472,0.1,0.01737666130065918,0.12363910675048828,0.049884785,0.9233695,-1.6677108807687273,0.0,-0.023915242978332137,0.0,148,0.05417943000793457,0.007930293088649672,0.0066099466391038985,15160,-1.719859354091299,0.0
117,1.491868495941162,-1.7651610271597917,0.05809388947983567,-1.684418012407023,-1.8448552793739013,0.0,0.11578562764433983,0.1,0.004898548126220703,0.05348706245422363,0.05054677,0.9135544,-1.6774558954078338,0.0,-0.023383763584411063,0.0,146,0.08974885940551758,0.006873054961032272,0.005509000437353761,15306,-1.78540870942384,0.0
118,1.485337734222412,-1.8879661106415635,0.01565181974302899,-1.8689033212499915,-1.9123486116451898,0.0,0.11717651192447737,0.1,0.003115415573120117,0.05339312553405762,0.050003067,1.1348689,-1.6985069169312068,0.0,-0.02502245400675543,0.0,146,0.024531126022338867,0.009632966707424093,0.010894138105821056,15452,-1.7734437633268751,0.0
119,1.4993956089019775,-1.810899047449743,0.05158778352060724,-1.7726498702230273,-1.8996400447663735,0.0,0.10593977266992381,0.1,0.005282402038574219,0.08321905136108398,0.049915615,1.0485274,-1.7097461299830605,0.0,-0.02401309804610345,0.0,121,0.018056869506835938,0.012508571141350868,0.012508571141350868,15573,-1.7513679264247208,0.0
120,1.5188896656036377,-1.8055513847230844,0.04978905621840814,-1.7407388382847941,-1.8691664386472882,0.0,0.10340072599193464,0.1,0.06684374809265137,0.10356330871582031,0.050260827,1.1976703,-1.719326655457063,0.0,-0.023938464297259696,0.0,133,0.08820962905883789,0.009869443223875044,0.01030466313659654,15706,-1.7373752172876131,0.0
121,1.558995246887207,-1.7830131494750174,0.05842846390067453,-1.7439909723953557,-1.8837489940941081,0.0,0.1109302613009469,0.1,0.002988100051879883,0.05361175537109375,0.050140318,0.8111604,-1.7256953048588584,0.0,-0.023650970139634974,0.0,128,0.08746218681335449,0.01260894540168319,0.01271287619466795,15834,-1.761573814065972,0.0
122,1.5393431186676025,-1.7354873961177155,0.12591174333202546,-1.6115940914874862,-1.8949846041606508,0.0,0.11606878413571496,0.1,0.018989086151123047,0.06877517700195312,0.050098907,1.8932828,-1.7266745139847441,0.0,-0.022988475839737586,0.0,143,0.0821385383605957,0.010495753194262221,0.010398010834678935,15977,-1.7305854397071903,0.0
123,1.5765423774719238,-1.739032899905004,0.03475815719433101,-1.6928625095460077,-1.7871043985493211,0.0,0.11004284848097995,0.1,0.0051991939544677734,0.05277657508850098,0.04985975,0.9632949,-1.7279103525767703,0.0,-0.02303037018272192,0.0,139,0.08583593368530273,0.007828335861898947,0.007501832288964855,16116,-1.6978866821746863,0.0
124,1.5222251415252686,-1.7501936509452274,0.022860815623700802,-1.7109843712258717,-1.7676244574752318,0.0,0.11345813950251353,0.1,0.005007505416870117,0.05458259582519531,0.049503706,1.1754832,-1.730138682413616,0.0,-0.023192166948766725,0.0,142,0.08807635307312012,0.005143063803360618,0.004993975980980277,16258,-1.7597841552382942,0.0
125,1.5280227661132812,-1.8300606615748425,0.04544676161826362,-1.7749314023405391,-1.8833854927848956,0.0,0.11448065963912063,0.1,0.005024433135986328,0.12001800537109375,0.049790442,1.3060268,-1.7401308803297386,0.0,-0.024268001766222833,0.0,144,0.0751805305480957,0.008704241101781994,0.00795853410976618,16402,-1.7609888745977766,0.0
126,1.5801644325256348,-1.7762744623574247,0.10151523971807164,-1.679616728774414,-1.9450040654321135,0.0,0.10497899957531276,0.1,0.008008003234863281,0.05182313919067383,0.04985789,0.7508839,-1.7437452385325074,0.0,-0.02354569429562299,0.0,125,0.011477470397949219,0.011088323508437097,0.011088323508437097,16527,-1.751084271619754,0.0
127,1.404266119003296,-1.7791851703684691,0.09497040914119084,-1.627358857759553,-1.8875169349988865,0.0,0.11511229998379295,0.1,0.004995822906494141,0.05753612518310547,0.050205436,0.868589,-1.7472892317161035,0.0,-0.023580718982905015,0.0,143,0.06453156471252441,0.00537603473102386,0.005007903496750484,16670,-1.8669285009701226,0.0
128,1.400775671005249,-1.8058229680021083,0.07195749091700407,-1.7111779052763931,-1.8845080371824054,0.0,0.12444846762157334,0.1,0.005460262298583984,0.06322932243347168,0.050186686,1.0746256,-1.7531426053447041,0.0,-0.023936486394473343,0.0,144,0.044754743576049805,0.006018790869564739,0.005409815757710079,16814,-1.8907524055857425,0.0
129,1.403017282485962,-1.8184724296041068,0.1376545127917002,-1.587879041576595,-1.9523467488698274,0.0,0.10631663218595173,0.1,0.0031518936157226562,0.05594062805175781,0.049544014,1.1243926,-1.7596755877706445,0.0,-0.02408692010115867,0.0,128,0.08178949356079102,0.015571121441319993,0.014641952579041868,16942,-1.870172564136861,0.0
130,1.3706190586090088,-1.3177320163937936,0.8589064285045185,0.165655077584429,-1.8676137558141535,0.0,0.11134461623698888,0.1,0.008357763290405273,0.07285380363464355,0.048923332,2.4451873,-1.7154812306329594,0.0,-0.017418085765072693,0.0,144,0.04210042953491211,0.3002660238579425,0.2928731462168236,17086,-1.8862124694541782,0.0
131,1.359170913696289,-1.7852530731849043,0.05993195683130049,-1.7166425901189142,-1.8486900446482075,0.0,0.11705609479112658,0.1,0.0049397945404052734,0.05807781219482422,0.050082758,1.0163188,-1.722458414888154,0.0,-0.023651826539834886,0.0,142,0.07405400276184082,0.004545998708490951,0.004830739470804989,17228,-1.8475546906847853,0.0
132,1.336951732635498,-0.059907643709954383,3.065012401502511,5.24863789236047,-1.8598899699065332,0.0,0.11699000260100086,0.1,0.002948760986328125,0.05471324920654297,0.050053164,2.2825139,-1.5562033377703344,0.0,-0.0039780093685664345,0.0,145,0.08514523506164551,1.2777206063909599,1.217467799463342,17373,-1.8538388007013504,0.0
133,1.3661258220672607,-1.768561951986194,0.1818286877657553,-1.454230247842716,-1.8917261591735384,0.0,0.1138366613174334,0.1,0.005097627639770508,0.14071369171142578,0.049965348,3.361291,-1.5774391991919203,0.0,-0.023446133085613483,0.0,144,0.03451180458068848,0.017847921449903888,0.03807749306034091,17517,-1.833541423642228,0.0
134,1.8190462589263916,-1.7317582050661802,0.15781876385594767,-1.4714882774113724,-1.882318128864918,0.0,0.11378658253085154,0.1,0.0042324066162109375,0.09495091438293457,0.049844556,1.7665038,-1.5928710997793465,0.0,-0.02294822188129032,0.0,137,0.09257221221923828,0.03803084148964047,0.05475701369264691,17654,-1.874861628220182,0.0
135,1.9979026317596436,0.48574553837041873,3.369120570281755,6.262661127271368,-1.8780817725930075,0.0,0.11466581370598727,0.1,0.005437374114990234,0.06803202629089355,0.050103012,2.4256134,-1.3850094359643699,0.0,-5.018610002429161e-05,0.0,143,0.03899788856506348,1.2932066647492533,1.2428877356318977,17797,-1.8691577732177052,0.0
136,2.0466859340667725,-1.6807524556351336,0.20610895100981558,-1.3645650981995,-1.9356621519864508,0.0,0.11322086030717507,0.1,0.01511383056640625,0.08978867530822754,0.049259424,1.3951242,-1.414583737931446,0.0,-0.022254586584762332,0.0,138,0.0643913745880127,0.08146784907934673,0.11470819584261568,17935,-1.8584801612936215,0.0
137,1.9328291416168213,-1.583593051693591,0.4605838533128685,-0.7866649043649898,-1.8810099569499905,0.0,0.11324939471748548,0.1,0.004815101623535156,0.19027400016784668,0.049710225,1.7121964,-1.4314846693076606,0.0,-0.02095661763730142,0.0,142,0.09142851829528809,0.14864711885647433,0.16625219955867562,18077,-1.8647162194112648,0.0
138,1.841797113418579,-1.7790658217621091,0.05153073508638941,-1.7257278183598244,-1.8495400102733628,0.0,0.10910754164943696,0.1,0.003876924514770508,0.06693744659423828,0.049740087,1.0889801,-1.4662427845531054,0.0,-0.023570649069217915,0.0,137,0.06121492385864258,0.1610681667695687,0.16357298733079306,18214,-1.849981221266563,0.0
139,1.6908009052276611,-1.7858853008682989,0.0762101990337132,-1.6556541752447445,-1.848280771076885,0.0,0.11428213419929818,0.1,0.003366708755493164,0.060312509536743164,0.050245732,1.6183331,-1.498207036184625,0.0,-0.023661134295348205,0.0,143,0.050199031829833984,0.1643005698612727,0.15082762493786414,18357,-1.8978158075429576,0.0
140,1.5350513458251953,-1.9101651364222325,0.02640040053633671,-1.8713754612213869,-1.942764201989126,0.0,0.1067400525157922,0.1,0.05122232437133789,0.053429365158081055,0.049897008,1.2129768,-1.5394028462083857,0.0,-0.025309993278472588,0.0,112,0.013881921768188477,0.1814236737394436,0.1814236737394436,18469,-1.9079215943130372,0.0
141,1.5523707866668701,-1.785347752030569,0.023718196876622473,-1.747392925119142,-1.8119436179145214,0.0,0.11409099310205281,0.1,0.0051190853118896484,0.05731916427612305,0.04999342,1.1916865,-1.563997336790604,0.0,-0.02366914158780526,0.0,145,0.039571523666381836,0.1455508807184558,0.12064416544424011,18614,-1.9112773298908428,0.0
142,1.5127286911010742,-1.7713156227204787,0.034902121003951986,-1.7260348781021422,-1.8069233163023957,0.0,0.11765298435866604,0.1,0.004930734634399414,0.055121421813964844,0.050083466,0.9637108,-1.5847291653835915,0.0,-0.02346956455939686,0.0,149,0.046988725662231445,0.11681206012241721,0.08610835014081335,18763,-1.9058561211144525,0.0
143,1.559201955795288,-0.2785591665962095,2.559888128798827,4.151391361978225,-1.8454522451375857,0.0,0.11351312424062039,0.1,0.0027337074279785156,0.0513455867767334,0.049261957,2.4474945,-1.4541121655048532,0.0,-0.0035758492394074486,0.0,137,0.06410074234008789,1.0907478642826873,1.09994685668758,18900,-1.8946733822461033,0.0
144,1.441955804824829,-1.4919365150946904,0.39762951498429117,-0.8154590751173063,-1.805366333392467,0.0,0.11669771799005166,0.1,0.0061414241790771484,0.07839798927307129,0.04964164,1.9796616,-1.457894600463837,0.0,-0.019761135386404165,0.0,147,0.08868646621704102,0.06795214740009149,0.060048852153266497,19047,-1.8910062718650946,0.0
145,1.4468083381652832,-1.476256297118363,0.3902699352686509,-0.8070174161369774,-1.7653203376740936,0.0,0.12002659666926271,0.1,0.028676271438598633,0.15182042121887207,0.050161537,1.3543068,-1.4597307701292896,0.0,-0.0228861764831788,0.0,143,0.048998355865478516,0.06607605702690683,0.059751764035307096,19190,-1.8944765244870616,0.0
146,1.4397337436676025,-1.863896646774175,0.027139435916260928,-1.8213056554989895,-1.8960610828249178,0.0,0.10988146635996562,0.1,0.06836247444152832,0.091278076171875,0.04992181,1.3763127,-1.5001473577937783,0.0,-0.024693834983750745,0.0,145,0.07544136047363281,0.06673339812384843,0.05068019342872155,19335,-1.8682217326710273,0.0
147,1.475933313369751,-1.763364742341768,0.039389970034040954,-1.7104625382211447,-1.8211333270294086,0.0,0.12717447054934178,0.1,0.0027856826782226562,0.05478930473327637,0.049279466,1.0242522,-1.5264690962485774,0.0,-0.023362022239277587,0.0,143,0.07619452476501465,0.03559585684912629,0.021675457013133403,19478,-1.8423981520734634,0.0
148,1.4735159873962402,-1.7440455402927708,0.10561002467538579,-1.598008725380986,-1.8932963223483879,0.0,0.10627736734067086,0.1,0.0034666061401367188,0.05508780479431152,0.050481442,1.4510868,-1.5482267406529968,0.0,-0.023112633237904814,0.0,132,0.05609726905822754,0.026402986143487385,0.015627486531652437,19610,-1.8378958658492348,0.0
149,1.5091166496276855,-1.840299618288073,0.05816496489500224,-1.7446325763348962,-1.900873065219382,0.0,0.11335470813808096,0.1,0.0032241344451904297,0.05515170097351074,0.050328963,1.3090152,-1.5774340284165045,0.0,-0.024382869334985367,0.0,142,0.0727834701538086,0.017245161831782034,0.008872994697523269,19752,-1.7499232402704472,0.0
150,1.4642682075500488,-1.7164333613166953,0.10730542473616915,-1.5351607772302218,-1.800840204765014,0.0,0.11549081721241448,0.1,0.005304813385009766,0.06033754348754883,0.050124872,2.0342193,-1.5913339617065236,0.0,-0.022732938824980713,0.0,146,0.08827590942382812,0.004956263096481599,0.00401359700024342,19898,-1.8201289765260562,0.0
151,1.4720344543457031,-1.6725734439086066,0.04724028977555803,-1.6244628512870087,-1.7439024086450048,0.0,0.10670236165949724,0.1,0.004775285720825195,0.05600333213806152,0.05019397,0.87742865,-1.599457909926732,0.0,-0.022149471695282148,0.0,145,0.07973527908325195,0.0058020767610069985,0.010170447767983828,20043,-1.8607784000688667,0.0
152,1.4713163375854492,-1.7513354398604604,0.11277091598506106,-1.5574336383336962,-1.8322728841934774,0.0,0.11572728311716647,0.1,0.005089759826660156,0.08643794059753418,0.05044286,1.0647016,-1.614645662920105,0.0,-0.023202931142438876,0.0,144,0.050588130950927734,0.010401629821243336,0.013280850300426203,20187,-1.7827926319372371,0.0
153,1.4944288730621338,-1.8219217328569939,0.062442309065276584,-1.7232687299911822,-1.884393778225595,0.0,0.11689156891702991,0.1,0.036612510681152344,0.052262306213378906,0.0501627,0.90601724,-1.635373269913794,0.0,-0.02414056514141035,0.0,141,0.0871896743774414,0.009830781975098074,0.010617650984916523,20328,-1.7513941988887816,0.0
154,1.505758285522461,-1.1963718515246295,0.8178971862149125,0.21336369372801434,-1.7653529305537041,0.0,0.10979632609769296,0.1,0.004862546920776367,0.0627901554107666,0.04890215,3.5584748,-1.5914731280748775,0.0,-0.019126024853622855,0.0,134,0.08170366287231445,0.3702403386226678,0.35459857059167516,20462,-1.798538846678302,0.0
155,1.503570318222046,-1.7776198162613313,0.093835107826705,-1.6587652576324357,-1.8832959463379892,0.0,0.10548547528048273,0.1,0.04929757118225098,0.052147626876831055,0.050391264,0.9007384,-1.610087796893523,0.0,-0.023543062688428873,0.0,137,0.06123995780944824,0.006936457060460895,0.004952561289749034,20599,-1.800366421633864,0.0
156,1.5135283470153809,-1.7618974157609064,0.17298057234931694,-1.4641775241892931,-1.8904516820870563,0.0,0.10520181934030416,0.1,0.0027518272399902344,0.22126221656799316,0.05005848,2.8270636,-1.6252687587802614,0.0,-0.02334468739228025,0.0,142,0.043768882751464844,0.0078035320932085366,0.008088059758791004,20741,-1.730608129823654,0.0
157,1.5207271575927734,-0.2966681890117166,2.6412110902097377,4.276038789101063,-1.9338336653613606,0.0,0.10362921339301098,0.1,0.05088543891906738,0.8929922580718994,0.049899634,2.3776705,-1.4924087018034071,0.0,-0.007161041948372011,0.0,111,0.02262115478515625,1.4351784984545173,1.4351784984545173,20852,-1.7243941275744465,0.0
158,1.5466060638427734,-1.75529702787817,0.03464917319416535,-1.7042242978058373,-1.7939329977143257,0.0,0.11204875304494144,0.1,0.06810808181762695,1.3788275718688965,0.050671987,1.1186779,-1.5186975344108835,0.0,-0.023248148181456436,0.0,147,0.09827756881713867,0.004974714813924555,0.004501662711082671,20999,-1.7114414555812767,0.0
159,1.9812734127044678,-0.5222290320729777,2.1855549532836784,3.2617847388259635,-1.8358536484849424,0.0,0.11065479768583343,0.1,0.06917715072631836,1.3758835792541504,0.049951404,2.3759742,-1.4190506841770931,0.0,-0.010174150900352449,0.0,141,0.10008072853088379,1.0965127574540114,1.0451611860386734,21140,-1.7226875203210519,0.0
160,1.44283127784729,-1.7613615057860603,0.1380204917856885,-1.5230028976802754,-1.8575265545083242,0.0,0.11545571877644166,0.1,0.07124090194702148,1.3665666580200195,0.04985547,1.7366441,-1.45328176633799,0.0,-0.023340055023304468,0.0,141,0.09746122360229492,0.013247308132709678,0.024275892843842472,21281,-1.7488825543730737,0.0
161,1.4863502979278564,-1.7616651696603949,0.03301871470066662,-1.7091528780296847,-1.8005244258471516,0.0,0.10446331362655387,0.1,0.0683140754699707,1.3853154182434082,0.049370535,6.70571,-1.4841201066702305,0.0,-0.023333027255299833,0.0,132,0.09910917282104492,0.02813648863939687,0.03762159194841229,21413,-1.7436836457080684,0.0
162,1.439040184020996,-1.8026854489534312,0.0590332853379449,-1.7016457837459735,-1.8465876803782475,0.0,0.10460853364902088,0.1,0.04939985275268555,0.901604175567627,0.0500155,1.0053067,-1.5159766408985507,0.0,-0.023879856377823572,0.0,124,0.0230863094329834,0.04706472721133416,0.04706472721133416,21537,-1.8185714801327109,0.0
163,1.4534270763397217,-1.4387422227633615,0.6202090407904388,-0.36721566952105067,-1.8416430730950457,0.0,0.11075377933456454,0.1,0.06784415245056152,1.3762843608856201,0.04966666,2.3245196,-1.5082531990850316,0.0,-0.01904774592185551,0.0,130,0.09525585174560547,0.09651883425625166,0.09905687987675396,21667,-1.7854206756928805,0.0
164,1.46732497215271,-1.7606622440284423,0.08475682267401843,-1.657080113641476,-1.857852005073659,0.0,0.10545197137388504,0.1,0.07113027572631836,1.2138135433197021,0.04990445,3.848549,-1.5334941035793728,0.0,-0.023318490082579624,0.0,144,0.08698630332946777,0.04170796781959623,0.04185814176408726,21811,-1.731168836101946,0.0
165,1.5195319652557373,-0.4523840408856771,2.178842259205566,3.3175821125205025,-1.8222289560986873,0.0,0.1133480100243512,0.1,0.03891777992248535,0.05423569679260254,0.04930109,2.0208895,-1.4253830973100032,0.0,-0.005874396019744037,0.0,136,0.07983803749084473,1.0488077447307191,1.0325899222964192,21947,-1.7143439473615034,0.0
166,1.532949686050415,-1.7983674061946515,0.07118155550590013,-1.725347659396875,-1.901421416762567,0.0,0.11201403196273114,0.1,0.0028667449951171875,0.060302019119262695,0.049402688,1.1902112,-1.4626815281984682,0.0,-0.02382018332853869,0.0,141,0.042398929595947266,0.046071743996291326,0.050670550150384124,22088,-1.7808604972829578,0.0
167,1.3992774486541748,-1.265176240777586,0.8763097152753546,0.24737634055554802,-1.8765999214098825,0.0,0.11450817421818313,0.1,0.00447845458984375,0.05395317077636719,0.049687102,1.9878008,-1.44293099945638,0.0,-0.020049234335590378,0.0,132,0.0716705322265625,0.2685944872440702,0.26725754947233954,22220,-1.738093714193311,0.0
168,1.5130271911621094,-1.7652614598686176,0.07225256447780615,-1.651431572790739,-1.8450636598700085,0.0,0.111018943212215,0.1,0.004832744598388672,0.05195021629333496,0.050082657,1.6777562,-1.4751640454976038,0.0,-0.023379416802555467,0.0,140,0.05514407157897949,0.0536617313591979,0.04953066208788137,22360,-1.7667660401119172,0.0
169,1.4243905544281006,-1.394282353039194,0.8241310009808483,0.032733367291172266,-1.8991879013493276,0.0,0.10276799794505166,0.1,0.06998777389526367,0.08399271965026855,0.04977784,3.061444,-1.4670758762517628,0.0,-0.018445891674821097,0.0,126,0.013933420181274414,0.14003861477434915,0.14003861477434915,22486,-1.7984389172596271,0.0
170,1.5163273811340332,-1.6742555644147452,0.2351610634647707,-1.2775945746273107,-1.8719194685847391,0.0,0.1087524395125977,0.1,0.07103300094604492,0.09361934661865234,0.050365496,2.1868541,-1.4877938450680612,0.0,-0.02219334811942858,0.0,133,0.029122591018676758,0.04865097090670754,0.04012403235581236,22619,-1.7826671644163634,0.0
171,1.7793996334075928,-1.2412541306735243,0.8558280092319954,0.24092109443928922,-1.7559753854474702,0.0,0.1256060735654177,0.1,0.005183219909667969,0.07003641128540039,0.049998328,1.5762088,-1.4631398736286074,0.0,-0.016394613949034437,0.0,146,0.06605052947998047,0.2244628240518321,0.2254223624654769,22765,-1.7574080513604426,0.0
172,1.8608310222625732,-1.7787542667763172,0.07562044115818226,-1.6622887675258848,-1.8579079281591164,0.0,0.1040203376340306,0.1,0.0034308433532714844,0.07869076728820801,0.04940768,3.8804111,-1.4947013129433784,0.0,-0.023562846821386235,0.0,137,0.08846092224121094,0.03526352334478999,0.027120136207531727,22902,-1.7744003513124367,0.0
173,1.9285566806793213,-1.7857074044028045,0.03857822137859877,-1.7236574873749264,-1.828357683903057,0.0,0.10773036055703726,0.1,0.0049283504486083984,0.08170700073242188,0.049492065,3.9823596,-1.523801922089321,0.0,-0.023658034032313677,0.0,143,0.03927135467529297,0.02491207136464031,0.01627770248109396,23045,-1.7494028472940217,0.0
174,1.779761552810669,0.955226026010964,3.7856497317210938,7.344439333820926,-1.895023837162153,0.0,0.11452538225080797,0.1,0.0033228397369384766,0.08438277244567871,0.04923726,2.3066535,-1.2758991272792926,0.0,0.009551497666976012,0.0,139,0.044683218002319336,1.3720895490227127,1.33570028632208,23184,-1.7536404759325002,0.0
175,1.6361029148101807,-1.3060313968937445,0.7619558399947612,-0.008323326160678102,-1.9509642600659565,0.0,0.09980966686840277,0.1,0.0037364959716796875,0.05812525749206543,0.04985091,2.6152456,-1.278912354240738,0.0,-0.017286923487467257,0.0,119,0.0157620906829834,0.1275639341992291,0.1275639341992291,23303,-1.6952713806701363,0.0
176,1.4900238513946533,-1.6691201850168844,0.051994805899509694,-1.6111752645673956,-1.740884543994916,0.0,0.10559276353968954,0.1,0.004685163497924805,0.05528688430786133,0.050289363,3.5112276,-1.3179331373183527,0.0,-0.022095800739740972,0.0,136,0.05355429649353027,0.024341739284328087,0.041968833555896465,23439,-1.5778464871137825,0.0
177,1.616584062576294,0.5070147825612443,3.8535815323575475,7.179776692453822,-1.8518268832912321,0.0,0.11156201965973703,0.1,0.0050661563873291016,0.05734658241271973,0.049433645,3.9686985,-1.1354383453303931,0.0,0.003579594317887456,0.0,147,0.02496933937072754,1.2103539812774269,1.1724409680218342,23586,-1.6842324433395772,0.0
178,1.550133228302002,-1.6093338109812285,0.3215591638445438,-1.0653726029249118,-1.8907223939737168,0.0,0.11090576920429597,0.1,0.005368709564208984,0.06561088562011719,0.049647164,2.7298994,-1.1828278918954767,0.0,-0.02131826262568696,0.0,144,0.03963303565979004,0.08383807357227852,0.11426501760244849,23730,-1.6678243774027248,0.0
179,1.5261616706848145,-1.715093750224277,0.07402928107801479,-1.5941380105612772,-1.794017289953768,0.0,0.11465537302598922,0.1,0.002925872802734375,0.053558349609375,0.05000598,1.631616,-1.2360544777283566,0.0,-0.022717100363755096,0.0,146,0.047892093658447266,0.12301013895467582,0.13952327332413286,23876,-1.6799938365810292,0.0
180,1.5224473476409912,-1.5427544319796958,0.19106157614200284,-1.3561266213857643,-1.8158204201203427,0.0,0.11749113680067141,0.1,0.005106687545776367,0.06197762489318848,0.04971429,1.256834,-1.2667244731534906,0.0,-0.020440629029917903,0.0,144,0.03604936599731445,0.10107558806508869,0.1038321878736838,24020,-1.651924478873983,0.0
181,1.5320959091186523,-1.7224378955251474,0.14195005351088755,-1.518072873275652,-1.8771324073299582,0.0,0.11307213409664002,0.1,0.0029609203338623047,0.05579996109008789,0.049886245,1.586598,-1.312295815390656,0.0,-0.022808397200491822,0.0,140,0.058457374572753906,0.142323951497712,0.1320614844452989,24160,-1.6737467524542093,0.0
182,1.5717220306396484,-1.8150781393050694,0.07644970625627581,-1.7383486547312519,-1.900027839783727,0.0,0.11006356241236306,0.1,0.003020048141479492,0.0534055233001709,0.05042096,1.4297438,-1.3625740477820973,0.0,-0.02404312994719679,0.0,144,0.0675954818725586,0.13508023730775282,0.11449787524054993,24304,-1.4487070713594754,0.0
183,1.4947280883789062,-0.21019511598405294,2.5848606204960425,4.263338698105301,-1.7991531167580783,0.0,0.10987927755758478,0.1,0.0051114559173583984,0.06958460807800293,0.049548633,2.0432642,-1.247336154602293,0.0,-0.005977118621006701,0.0,138,0.07747960090637207,1.04890166918774,1.0506490851787886,24442,-1.4108320984831473,0.0
184,1.5310497283935547,-1.761975200880009,0.06613424768100108,-1.6736755108673125,-1.8599060513485013,0.0,0.11395575809157654,0.1,0.004845380783081055,0.05843710899353027,0.04999265,1.7477298,-1.2988000592300646,0.0,-0.02333792320396154,0.0,145,0.03554224967956543,0.09923649300676954,0.09146017274754752,24587,-1.6831083887071117,0.0
185,1.565199613571167,-1.7247068499821183,0.16389243255329264,-1.4634891495909348,-1.8688768806946963,0.0,0.1066285042862352,0.1,0.0028884410858154297,0.053322553634643555,0.049810488,1.5644846,-1.34139073830527,0.0,-0.022861881132371205,0.0,132,0.0651407241821289,0.10108361651187392,0.08456493337626297,24719,-1.1970969105923073,0.0
186,1.5477216243743896,-1.7613808899994723,0.046826443811473634,-1.7161406345315187,-1.8377211946055723,0.0,0.10242055786915358,0.1,0.002877473831176758,0.05574369430541992,0.04887233,2.9972017,-1.3833897534746902,0.0,-0.02336050157907901,0.0,138,0.05455350875854492,0.08593017137799065,0.06424261325461264,24857,-1.7087030556585823,0.0
187,1.5596437454223633,-0.014137498365781542,2.0403475363739694,3.316320049345374,-1.8301517093149855,0.0,0.11178594993976121,0.1,0.0049037933349609375,0.05540966987609863,0.049745686,3.1851602,-1.2464645279637991,0.0,-0.0033733626013687508,0.0,144,0.08279061317443848,1.1140602871502754,1.1125120415785101,25001,-1.725704827825439,0.0
188,1.580028772354126,-0.2525654818880889,2.5574634274137975,4.176841973715245,-1.7717805426226074,0.0,0.11445078787113905,0.1,0.0028836727142333984,0.0597381591796875,0.050236266,2.5608304,-1.1470746233562281,0.0,-0.006564352125350937,0.0,138,0.051792144775390625,1.0877665439723072,1.0686454357025732,25139,-1.6229579242237835,0.0
189,1.571512222290039,-1.7510938055895091,0.08989515294839848,-1.657531289549128,-1.886163459177512,0.0,0.10929637432115658,0.1,0.06679224967956543,0.14900660514831543,0.049286522,1.7227105,-1.2074765415795563,0.0,-0.023209378363761364,0.0,144,0.05772042274475098,0.07856829416922502,0.09013895703421612,25283,-1.6056189043168991,0.0
190,1.5727753639221191,-1.6375107228858976,0.11633699488960064,-1.4707848538303558,-1.7880516642326745,0.0,0.11319802201912084,0.1,0.002889394760131836,0.053266286849975586,0.050129667,1.6559987,-1.2504799597101905,0.0,-0.02173925633884646,0.0,145,0.06543898582458496,0.05744242387728158,0.058414355062951936,25428,-1.629441940333671,0.0
191,1.631648063659668,-1.062826165231864,0.7770103794398696,0.2007485420397166,-1.7269456479033696,0.0,0.11456920357516981,0.1,0.003055095672607422,0.05282950401306152,0.049700905,2.8506465,-1.231714580262358,0.0,-0.014014605175840675,0.0,147,0.0462956428527832,0.16898723960713138,0.16636899002377994,25575,-1.695803259353493,0.0
192,1.6265482902526855,0.20767098054651922,2.9450485231104766,5.267619281606528,-1.9091833955904627,0.0,0.11489842060865921,0.1,0.005247831344604492,0.07397580146789551,0.049981773,1.9467497,-1.0877760241814702,0.0,-0.00040631732653386137,0.0,138,0.011519432067871094,1.1747748476607736,1.1543417658702617,25713,-1.4397762846374322,0.0
193,1.6932013034820557,-1.1130172019747373,0.7223074834357588,0.002760780265935514,-1.8517500236046547,0.0,0.1114595167773634,0.1,0.0051305294036865234,0.06554818153381348,0.04927311,5.268912,-1.090300141960797,0.0,-0.014722933602689905,0.0,145,0.056758880615234375,0.12565736123343102,0.1345484793536584,25858,-0.11868967230388572,0.0
194,1.6034884452819824,-1.7320796176840612,0.1991580235722952,-1.4155321988367489,-1.910642130967944,0.0,0.10908723272254899,0.1,0.004726409912109375,0.051859140396118164,0.04971946,1.8037678,-1.1544780895331233,0.0,-0.022937192551801225,0.0,133,0.08475947380065918,0.1231155259998826,0.12744185205759687,25991,-1.5732254318191898,0.0
195,1.5144116878509521,-1.4525847389645121,0.3014025195961969,-1.0666256903488693,-1.7845354469285013,0.0,0.11041092592275527,0.1,0.04901242256164551,0.05481219291687012,0.049591195,2.1301403,-1.1842887544762624,0.0,-0.019211573242221884,0.0,133,0.07951569557189941,0.11123177155539272,0.10584354376323503,26124,-0.5517656037533206,0.0
196,1.4925758838653564,-0.2669970311412457,2.603030292937498,4.240978706973063,-1.8376355482243525,0.0,0.11607917944729823,0.1,0.00448918342590332,0.05334067344665527,0.049556438,1.8264505,-1.0925595821427607,0.0,-0.006759843086695192,0.0,138,0.06458830833435059,1.0539036203678296,1.0516124186316271,26262,-1.5241730865402054,0.0
197,1.5832879543304443,-1.7052985813194672,0.12255010791028235,-1.591174501745266,-1.8991199753162462,0.0,0.1143338824189889,0.1,0.006104230880737305,0.07425975799560547,0.05016182,1.5328616,-1.1538334820604315,0.0,-0.022602778622774693,0.0,144,0.06549692153930664,0.10715342900279728,0.10533523499976277,26406,-1.6804984346657426,0.0
198,1.5950214862823486,-1.6999486670573978,0.047302469379943424,-1.6418710083397117,-1.7486257420745102,0.0,0.11235926645012724,0.1,0.0030050277709960938,0.05742669105529785,0.049981594,1.4628006,-1.2084450005601282,0.0,-0.022507309865585492,0.0,142,0.06161952018737793,0.11571368005951775,0.10363506548601359,26548,-1.661489391765511,0.0
199,1.5190675258636475,-1.7080660868674795,0.08547382430423665,-1.5873842456017635,-1.824585283640062,0.0,0.11824558022256614,0.1,0.00569605827331543,0.06766724586486816,0.049804095,1.3745376,-1.2584071091908633,0.0,-0.022724423870431158,0.0,146,0.08589982986450195,0.10073041592458949,0.08207499420867963,26694,-1.6733208805684192,0.0
200,1.4899377822875977,-0.8470600207865127,1.0684061454816542,0.8637587051925419,-1.7644947834617046,0.0,0.11198976950737582,0.1,0.07194685935974121,0.11586809158325195,0.049198337,2.089326,-1.2172724003504283,0.0,-0.011231855129378389,0.0,146,0.05294299125671387,0.27145893275193045,0.2719996786511168,26840,-1.6702580885165934,0.0
201,1.488678216934204,-1.6683337662233695,0.16096813953397382,-1.425174701860473,-1.867058513370663,0.0,0.10710162173005632,0.1,0.0029675960540771484,0.05453824996948242,0.050540198,1.9121562,-1.2623785369377223,0.0,-0.0220861028570587,0.0,140,0.08413243293762207,0.06427694460859476,0.04904129839908655,26980,-1.691259378257378,0.0
202,1.5510656833648682,-1.7472966854131344,0.07508671715804248,-1.6515195448237003,-1.8599334669664795,0.0,0.11285831093447464,0.1,0.0050048828125,0.07751226425170898,0.05049067,1.6687928,-1.3108703517852636,0.0,-0.023140595497642073,0.0,144,0.07542085647583008,0.05728639215539163,0.039247960459629194,27124,-1.700069130638642,0.0
203,1.5008161067962646,-1.5995463716999891,0.09654823414764518,-1.4748531348078493,-1.7042285810129068,0.0,0.11817069017384134,0.1,0.07063961029052734,0.08563351631164551,0.05056296,1.3927794,-1.3397379537767362,0.0,-0.02117768106098941,0.0,149,0.06510734558105469,0.024982352664657155,0.015120319750562284,27273,-1.6920126880581068,0.0
204,1.4672565460205078,-0.4070893238823178,2.11484126918416,3.2491142782369695,-1.803615209893052,0.0,0.12411655299407197,0.1,0.0028388500213623047,0.05561542510986328,0.049684428,1.827912,-1.2464730907872943,0.0,-0.00860743441806015,0.0,145,0.017301321029663086,1.052588472466703,1.0582903003879889,27418,-1.6824312376350772,0.0
205,1.5069377422332764,-1.596911826089683,0.24841781306994765,-1.169232025555916,-1.7829525369977153,0.0,0.11201021216803392,0.1,0.005389690399169922,0.08682513236999512,0.049741067,1.7304362,-1.2815169643175333,0.0,-0.021283862872914828,0.0,147,0.08388161659240723,0.023084905427790594,0.023044914064188068,27565,6.2197399902585895,0.0
206,1.5634500980377197,-1.4600085368867277,0.4109577583148225,-0.8562356350270848,-1.8547931668365547,0.0,0.11166215689462873,0.1,0.0028204917907714844,0.05192899703979492,0.050219443,1.6926668,-1.2993661215744527,0.0,-0.019330727723021607,0.0,145,0.08566832542419434,0.029024625397341214,0.028699193361970157,27710,-1.7353669573056616,0.0
207,1.5137591361999512,-1.69632791157346,0.12281550029279446,-1.5149495792098882,-1.8597454329016576,0.0,0.10475528187111399,0.1,0.02333545684814453,0.05408930778503418,0.04929341,1.896335,-1.3390623005743536,0.0,-0.022461702643745432,0.0,134,0.0884857177734375,0.022477959147394026,0.02019498483794462,27844,-1.7522194263615096,0.0
208,1.5149359703063965,-1.6578873469951656,0.15724866607389118,-1.389523642845265,-1.7729457473265555,0.0,0.11182613005184701,0.1,0.030200719833374023,0.05438733100891113,0.04983861,1.129209,-1.3709448052164348,0.0,-0.02195376533405287,0.0,139,0.08885383605957031,0.017172295458616604,0.014215593142896325,27983,-1.7745793541277985,0.0
209,1.4533214569091797,-1.6293020948127266,0.16808041132669418,-1.3422959697297285,-1.7580691254537777,0.0,0.10790666836980085,0.1,0.06707024574279785,0.06798839569091797,0.049990654,1.8004043,-1.396780534176064,0.0,-0.02156845642129397,0.0,138,0.06392455101013184,0.013379161896227712,0.011294780691374056,28121,-1.7320086409138782,0.0
210,1.4745371341705322,-1.1650892802240378,0.6793803441918381,-0.031243722646566496,-1.7961707774104478,0.0,0.11212876749944198,0.1,0.0028831958770751953,0.055452585220336914,0.05029002,3.530157,-1.3736114087808615,0.0,-0.015399227055498173,0.0,135,0.05808734893798828,0.14856562837607445,0.15096081100314346,28256,-1.730389345615821,0.0
211,1.8914215564727783,-1.4631397257159289,0.5569264196906974,-0.4997059685650156,-1.8230784097785602,0.0,0.11465591565543946,0.1,0.005755901336669922,0.07665205001831055,0.0501448,2.174931,-1.3825642404743683,0.0,-0.019371748863727906,0.0,146,0.05265235900878906,0.04498069561849746,0.0448541935362941,28402,-1.767751946716281,0.0
212,1.8469278812408447,0.08461294849995565,1.6766066906541253,2.283517878084676,-1.7268953987424898,0.0,0.11100090677939044,0.1,0.030290842056274414,0.07825040817260742,0.050234154,2.5539567,-1.2358465215769359,0.0,-0.005394660234041001,0.0,137,0.08878087997436523,1.8773783694199757,1.779117337399133,28539,-1.7629596319703598,0.0
213,1.8055694103240967,-0.5138187475014991,2.2229791664028533,3.336143806975863,-1.8283537674059192,0.0,0.11411142158233295,0.1,0.005334377288818359,0.0699775218963623,0.050401624,2.1703348,-1.1636437441693923,0.0,-0.010064226846897357,0.0,134,0.04996132850646973,1.125781556927027,1.0677412922677028,28673,-1.6915136522204337,0.0
214,1.8245172500610352,-1.8236213780625325,0.06525348173151821,-1.7420645864202629,-1.9160621417334058,0.0,0.1091801830786268,0.1,0.0034728050231933594,0.07277369499206543,0.050150484,1.8263487,-1.2296415075587064,0.0,-0.024157741464187272,0.0,135,0.047768354415893555,0.04688038216467478,0.07029543370814173,28808,-1.8221016752567543,0.0
215,1.6313674449920654,-1.6908351637275545,0.08399469631518341,-1.6269700248360357,-1.8351324670377311,0.0,0.11606951857643687,0.1,0.005014896392822266,0.05987095832824707,0.050114304,1.8041074,-1.2757608731755914,0.0,-0.02238518891177845,0.0,140,0.053461551666259766,0.048339694180764975,0.06184632012781976,28948,-1.8058752110654688,0.0
216,1.5717079639434814,-0.9863434653405461,0.7931298290375757,-0.1062476818327569,-1.81032542532256,0.0,0.10693190619404934,0.1,0.004787445068359375,0.06409025192260742,0.05014152,1.921176,-1.246819132392087,0.0,-0.013046706355984775,0.0,137,0.06230354309082031,0.1725333916325062,0.17188943300827275,29085,-1.2305138739674408,0.0
217,1.5923078060150146,-0.7229846067623118,1.6463700679458548,2.126362555766493,-1.7789960793856434,0.0,0.11540944703718144,0.1,0.009235382080078125,0.051917314529418945,0.049281165,2.4491434,-1.1944356798291094,0.0,-0.012815093071520678,0.0,136,0.07683587074279785,0.7543986793657498,0.7429059995971087,29221,-1.1530066900415183,0.0
218,1.5671052932739258,-1.5642495825339673,0.24349089990135572,-1.1631542965785673,-1.8143213534982943,0.0,0.10503849780639976,0.1,0.005190134048461914,0.06181001663208008,0.05026615,2.2198806,-1.2314170700995952,0.0,-0.02071258529938463,0.0,137,0.012425422668457031,0.09100654205720068,0.0977260214064416,29358,-1.4094843392663365,0.0
219,1.6450929641723633,-1.4026598972698625,0.6172855300484139,-0.336291518106713,-1.8272884886695961,0.0,0.1069303845143237,0.1,0.003769397735595703,0.07814216613769531,0.049810212,2.811734,-1.248541352816622,0.0,-0.01854570671452566,0.0,143,0.061429500579833984,0.12481785516921312,0.12277706507355357,29501,-1.7458289814130563,0.0
220,1.666977882385254,-1.326366162699937,0.528969441015126,-0.43389385603884034,-1.79517566298356,0.0,0.11290537882197793,0.1,0.03578543663024902,0.056937217712402344,0.049515598,2.6008155,-1.2563238338049536,0.0,-0.01760884288313718,0.0,149,0.03972339630126953,0.105496751392652,0.09923645631416625,29650,-1.7504436185655663,0.0
221,1.7903058528900146,-1.1729358886782162,0.7541971215127782,0.020363539174117262,-1.8540837748282433,0.0,0.10569487296401028,0.1,0.0029795169830322266,0.0570378303527832,0.049205426,4.281416,-1.24798503929228,0.0,-0.015523249639068579,0.0,134,0.0757756233215332,0.12798543105382118,0.12175525604698412,29784,-1.7795963881969679,0.0
222,1.6197991371154785,-1.2869063444321256,0.8977004102003129,0.26132006516603545,-1.875813597435257,0.0,0.10819838507337304,0.1,0.0029134750366210938,0.053757667541503906,0.04960546,2.0216484,-1.2518771698062647,0.0,-0.020333481829795837,0.0,132,0.061087608337402344,0.24499237316590158,0.24210513907712375,29916,-1.7832151847634707,0.0
223,1.5802903175354004,0.05828375834333427,3.003241336444704,5.252568221820328,-1.9032138948493074,0.0,0.11894977248866845,0.1,0.0050394535064697266,0.06369304656982422,0.049995355,1.7396412,-1.120861076991305,0.0,-0.0024171183608069037,0.0,144,0.07619500160217285,1.1007779519036878,1.0908227155483197,30060,-1.8005364303543052,0.0
224,1.6130216121673584,0.5555001456021115,3.292287696811236,6.216862844968677,-1.8404103146379147,0.0,0.128512375165359,0.1,0.0726478099822998,0.07686448097229004,0.049755383,1.4765291,-0.9532249547319634,0.0,0.00421601235893484,0.0,147,0.01557016372680664,1.176173338052186,1.1461248673008841,30207,-1.7664771395030492,0.0
225,1.662914514541626,-0.9488303879118145,0.8113013295956873,0.45213274626964695,-1.5170443480469706,0.0,0.10907306653278645,0.1,0.007187366485595703,0.08696699142456055,0.049563237,3.2915254,-0.9527854980499485,0.0,-0.01259840424019279,0.0,146,0.0390009880065918,0.1655323584754215,0.17543838422823146,30353,-1.841120725114348,0.0
226,1.6613378524780273,-0.9473509736942115,0.9122119283261058,0.4028577488833669,-1.8228201370102814,0.0,0.10894378396756779,0.1,0.004912614822387695,0.07625365257263184,0.04990772,3.0442753,-0.9522420456143748,0.0,-0.012562807252687193,0.0,144,0.08804535865783691,0.21721427895084078,0.226287538794289,30497,-1.8427345477283377,0.0
227,1.5879039764404297,-1.6350239913185423,0.31069162732911976,-1.1086550018078143,-1.8632812410922885,0.0,0.10409186647708787,0.1,0.07307720184326172,0.07628035545349121,0.049640853,2.1193414,-1.0205202401847915,0.0,-0.021643668626394906,0.0,131,0.05333685874938965,0.16956304471060502,0.18077762750636492,30628,-1.8370407980882824,0.0
228,1.6576013565063477,-1.0811721330514599,0.4275554750746734,-0.4534142234156999,-1.642645378212887,0.0,0.11328580800581368,0.1,0.0028769969940185547,0.08817076683044434,0.049475357,1.8369364,-1.0265854294714583,0.0,-0.014430448813588872,0.0,145,0.04428267478942871,0.10831202516026552,0.10821059569251736,30773,-1.8376780694637669,0.0
229,1.6070303916931152,-0.619523381926113,1.0856614733633996,1.1541126698728972,-1.778191758797936,0.0,0.1182546395253963,0.1,0.0028688907623291016,0.05960845947265625,0.0490589,2.1742892,-0.9858792247169237,0.0,-0.011448394249207346,0.0,136,0.04660439491271973,0.6188429536914212,0.616229955171996,30909,-1.7000513351990996,0.0
230,1.591684341430664,-1.273237402504148,0.8682880593187008,0.22447576833403327,-1.8753189511391597,0.0,0.1037821213358213,0.1,0.002916097640991211,0.05399966239929199,0.050005116,3.3177547,-1.0146150424956462,0.0,-0.016824176973328477,0.0,135,0.058339834213256836,0.33876461733011004,0.335782672660087,31044,-1.4267168723494976,0.0
231,1.6615991592407227,-1.126424283079064,1.0961471117521757,0.7688335603261129,-1.848890501824888,0.0,0.1041431782074252,0.1,0.0030307769775390625,0.05392789840698242,0.049782135,5.1548095,-1.025795966553988,0.0,-0.014868178289405627,0.0,140,0.06306123733520508,0.25148990839875585,0.2442169580088885,31184,-1.5236724596428604,0.0
232,1.7476587295532227,-0.3241582531093068,2.1619320305814327,3.4201311011932694,-1.6157626159392702,0.0,0.11278514266998435,0.1,0.004355907440185547,0.05223488807678223,0.049700115,2.9529886,-0.9556321952095199,0.0,-0.007523768728250285,0.0,139,0.032980918884277344,0.871809611687268,0.8720880830505221,31323,-1.4463996594831265,0.0
233,1.6240241527557373,-1.490983861529888,0.12494902452890282,-1.317115169242601,-1.66882087886854,0.0,0.10792717615412156,0.1,0.005151271820068359,0.08064413070678711,0.05024107,1.4082979,-1.0091673618415569,0.0,-0.019875535892771055,0.0,140,0.03722739219665527,0.12097104030379449,0.1097678534753919,31463,-1.6272537791310873,0.0
234,1.6538541316986084,-1.6515172597913388,0.1615298465971622,-1.3842101564434497,-1.8176858483429126,0.0,0.11000419766610825,0.1,0.0050280094146728516,0.060821533203125,0.049971744,1.4510753,-1.0734023516365352,0.0,-0.021902196596200484,0.0,138,0.047417640686035156,0.161886056631751,0.140597838127923,31601,-0.29491744679186666,0.0
235,1.6182777881622314,-1.3035621300095661,0.42399482955033746,-0.6144549354834472,-1.7681733282353258,0.0,0.1147343904896916,0.1,0.002846240997314453,0.05255317687988281,0.049581964,1.4930118,-1.0964183294738383,0.0,-0.020561436654090208,0.0,145,0.07223820686340332,0.08564345153693206,0.07252249569010066,31746,-1.6076898538009952,0.0
236,1.6276097297668457,-0.8147605305670889,1.4801359526156326,1.7405425303346636,-1.8233346027222095,0.0,0.10879329123056003,0.1,0.07214951515197754,0.06094932556152344,0.049620662,3.4719787,-1.0682525495831634,0.0,-0.010753462797987817,0.0,130,0.030106544494628906,0.4565185405018547,0.4548363164431624,31876,-1.615102157994831,0.0
237,1.469193458557129,-1.645966143940153,0.14354838980717102,-1.4324769508910742,-1.80676373926723,0.0,0.10390860696042552,0.1,0.021564245223999023,0.13535714149475098,0.049648173,1.5375831,-1.1260239090188624,0.0,-0.02178687780529298,0.0,138,0.09015083312988281,0.08257370241554193,0.06356596779349928,32014,-0.7824235708053028,0.0
238,1.5039961338043213,-0.9736925984999925,0.7881559299856754,-0.14575796270406527,-1.7687241143357808,0.0,0.10268572004559959,0.1,0.06762194633483887,0.06906795501708984,0.049969167,6.23493,-1.1107907779669755,0.0,-0.012911905851803993,0.0,144,0.0860292911529541,0.16125198613698485,0.16390178356410476,32158,-1.5716042006311526,0.0
239,1.5688514709472656,-0.9524120761973317,0.500185304526986,-0.25470789641582825,-1.6275900584820695,0.0,0.11153150967885933,0.1,0.0648956298828125,0.1819455623626709,0.05008899,1.8923118,-1.094952907790011,0.0,-0.01257024276656506,0.0,147,0.04361104965209961,0.08916546128735425,0.09235525487202821,32305,-1.5808597573371337,0.0
240,1.482654094696045,-1.5316741277035182,0.38216310936322717,-0.9173131298316024,-1.8951293452863534,0.0,0.1100279002778619,0.1,0.06647205352783203,0.29456424713134766,0.05008815,2.1562362,-1.1386250297813618,0.0,-0.02026499480365558,0.0,146,0.08581948280334473,0.06127683811211215,0.05713730274200626,32451,-1.6938049667225528,0.0
241,1.8746528625488281,-1.730213178035791,0.14052008326429324,-1.498194042914426,-1.8762522753262811,0.0,0.1121281221592406,0.1,0.004074811935424805,0.08394193649291992,0.050079353,1.2004805,-1.1977838446068048,0.0,-0.02291622566109682,0.0,147,0.06470155715942383,0.03226944964409042,0.025880569443444426,32598,-1.667613007757942,0.0
242,1.8353397846221924,-1.4368598241992117,0.30132545457663895,-0.9884067667337018,-1.7287827510788862,0.0,0.11062968050505617,0.1,0.0051593780517578125,0.06520247459411621,0.049604148,1.7007837,-1.2216914425660457,0.0,-0.01900564078562205,0.0,145,0.04715466499328613,0.02736951860844046,0.023060924669407644,32743,-1.4833382921263194,0.0
243,1.9344818592071533,-1.5809048461602342,0.15534194511807148,-1.4202144293451142,-1.7998179276024209,0.0,0.11472947546529362,0.1,0.0037283897399902344,0.07222557067871094,0.049571794,1.2752179,-1.2576127829254644,0.0,-0.02093587229668368,0.0,142,0.05246567726135254,0.01697647152722112,0.014854329254812615,32885,-1.6900302088469192,0.0
244,1.8082234859466553,-1.7081701690205902,0.08447534869960757,-1.6456585069988092,-1.8535824321099534,0.0,0.11511000530626503,0.1,0.005674600601196289,0.08987236022949219,0.05020178,1.2055703,-1.3026685215349771,0.0,-0.022626507389942756,0.0,147,0.03542375564575195,0.013929227466140925,0.011344334949822819,33032,-1.7228718955906546,0.0
245,1.670673131942749,-0.7822058601852566,1.3234848343505723,1.4907830396006778,-1.7984762878117937,0.0,0.10478890500961771,0.1,0.005293607711791992,0.06953907012939453,0.04978974,3.0811744,-1.250622255400005,0.0,-0.010332335304705889,0.0,137,0.07327151298522949,0.5326458202293619,0.5340979841014458,33169,-1.7226208584696003,0.0
246,1.6540443897247314,-1.46665498621137,0.32618725077569616,-0.9213401379750203,-1.7219497263019599,0.0,0.10597054895577543,0.1,0.0072896480560302734,0.05787229537963867,0.049588893,1.569976,-1.2722255284811417,0.0,-0.019414056290695512,0.0,133,0.04511141777038574,0.023095565070943895,0.022907549898280533,33302,-1.6504925753788624,0.0
247,1.6380643844604492,-0.31035353646105174,1.7493346349516177,2.6236300747322288,-1.6557465535729858,0.0,0.1141520986981891,0.1,0.002800464630126953,0.051413536071777344,0.0496171,2.567313,-1.1760383292791328,0.0,-0.007378816644958246,0.0,141,0.07472681999206543,1.0759534079631234,1.0258522132852343,33443,-1.6707707269479928,0.0
248,1.6628422737121582,-1.4828088695136004,0.4558354145945292,-0.7461407706684084,-1.8838535217351402,0.0,0.09865303788563241,0.1,0.005031585693359375,0.0690765380859375,0.049764186,1.9630674,-1.2067153833025797,0.0,-0.019638344047286448,0.0,123,0.01408839225769043,0.029717412285851556,0.029717412285851556,33566,-1.649307950925093,0.0
249,1.6571035385131836,-0.8849171360619577,0.7410298186869934,0.26417790746222924,-1.6109980774630623,0.0,0.10682627186408317,0.1,0.002863645553588867,0.051985740661621094,0.049906373,2.350342,-1.1745355585785175,0.0,-0.01498568467168817,0.0,137,0.043866634368896484,0.28177131070060674,0.2545647677655892,33703,-1.6803566497168136,0.0
250,1.7779967784881592,-0.4746122640972504,0.7357777737528453,0.6940418241481936,-1.3339205563632661,0.0,0.11855623560852191,0.1,0.005261898040771484,0.0842132568359375,0.049554013,1.3755146,-1.1045432291303907,0.0,-0.009625096447187797,0.0,135,0.09315252304077148,0.48985481604338205,0.4241294143345881,33838,-1.7540884790564248,0.0
251,1.732895851135254,-0.5362246906601786,0.6158017459251178,0.3907491220708055,-1.3424206423312786,0.0,0.1147419280874513,0.1,0.005134105682373047,0.06177830696105957,0.049856815,1.2572937,-1.0477113752833696,0.0,-0.010464972414133022,0.0,139,0.03802347183227539,0.44176399237326236,0.3692390724586987,33977,-1.696124255608743,0.0
252,1.5867950916290283,-1.6305045841841292,0.17217019962403446,-1.3626595986181524,-1.837829060577796,0.0,0.11484590963336073,0.1,0.005068778991699219,0.057245492935180664,0.050049774,1.2742074,-1.1059906961734456,0.0,-0.021590554647756735,0.0,144,0.019170522689819336,0.08867881193365158,0.11260142212507791,34121,-1.5459212124174664,0.0
253,1.5891177654266357,-1.5936352317117006,0.17666609550833232,-1.2878084256521154,-1.7049780644796504,0.0,0.1024656246309845,0.1,0.005209684371948242,0.05557870864868164,0.04979989,2.7892752,-1.1547551497272712,0.0,-0.02110864088399178,0.0,133,0.01491236686706543,0.11543970342596883,0.12517382606835198,34254,-1.7206124925820168,0.0
254,1.6023049354553223,-1.7152012797906646,0.05867294415498779,-1.6160920042846163,-1.7615975880332293,0.0,0.10190226136242836,0.1,0.005076169967651367,0.14873218536376953,0.05013645,0.9796888,-1.2107997627336107,0.0,-0.02273787960684086,0.0,125,0.014417171478271484,0.12698947978468095,0.12698947978468095,34379,-1.6323029799068498,0.0
255,1.569058895111084,-1.5112304057030135,0.19615053350728232,-1.1745274552329503,-1.6491035513841419,0.0,0.10685310339769218,0.1,0.0028967857360839844,0.05363011360168457,0.049586203,2.5126607,-1.240842827030551,0.0,-0.020021485282197552,0.0,139,0.07441973686218262,0.09946461153629124,0.0968642077401441,34518,-1.7322207822876623,0.0
256,1.5797884464263916,-1.1408879855458929,0.5648609184763654,-0.4822366683586137,-1.7440253108684343,0.0,0.10699286174537494,0.1,0.0030426979064941406,0.054225921630859375,0.04978494,2.4613712,-1.2308473428820852,0.0,-0.018417491237116015,0.0,137,0.028833389282226562,0.09796098580792258,0.09361308328923587,34655,-1.6711596484808136,0.0
257,1.59275221824646,0.605641207467293,3.322204950790027,6.323359391696845,-1.605645595226357,0.0,0.11701555429159145,0.1,0.005066871643066406,0.0934605598449707,0.050271,1.7330521,-1.0471984878471474,0.0,0.0014314915252198754,0.0,125,0.0159451961517334,1.2383796701367702,1.2383796701367702,34780,-1.629729543195601,0.0
258,1.5978264808654785,-0.6147406725477134,1.1555095838470475,1.2998151577760668,-1.5732583260373898,0.0,0.10697309783722067,0.1,0.005013465881347656,0.09323978424072266,0.049542926,2.6626832,-1.003952706317204,0.0,-0.014715523515807669,0.0,140,0.021574020385742188,0.6597866154118117,0.6615858910809529,34920,-1.8005578608357566,0.0
259,1.5616075992584229,-1.734857215774295,0.09691936479070894,-1.6369679384127436,-1.8960538595893248,0.0,0.10610050611070235,0.1,0.008620023727416992,0.07544684410095215,0.050542492,1.477595,-1.077043157262913,0.0,-0.02297421921246497,0.0,131,0.07499074935913086,0.12339788179109475,0.11294599109565594,35051,-1.8006805180944323,0.0
260,1.5632569789886475,-1.6016290149643932,0.296099580812329,-1.102380389057641,-1.864044665516165,0.0,0.10904901707647692,0.1,0.002883434295654297,0.05278158187866211,0.049891192,2.4021354,-1.1295017430330612,0.0,-0.021226745866141202,0.0,134,0.012256383895874023,0.10487588874649012,0.08999261211764747,35185,-1.8003128470643732,0.0
261,1.6173667907714844,-0.9344623259479748,1.0622133090172956,0.9002638486063539,-1.6222207102383195,0.0,0.11310257063907002,0.1,0.022699594497680664,0.06810188293457031,0.05014541,2.5816517,-1.1099978013245526,0.0,-0.012320179896314388,0.0,138,0.016862869262695312,0.2754136631469139,0.2732950926893027,35323,-1.7542618630847573,0.0
262,1.640167236328125,-1.487957235921137,0.3121419676200158,-0.9488155784636567,-1.7034981007358727,0.0,0.10743193638639792,0.1,0.0051708221435546875,0.05558371543884277,0.049794115,2.85069,-1.147793744784211,0.0,-0.019730795523309044,0.0,139,0.03513979911804199,0.05450868493230454,0.04239894616552808,35462,-1.60151640295724,0.0
263,1.6578264236450195,-0.9257629860310181,1.0001356761480482,0.7920017891283126,-1.6180138746208934,0.0,0.11014540104857422,0.1,0.0028951168060302734,0.058510541915893555,0.049254782,2.7684278,-1.1255906689088917,0.0,-0.012235597283855489,0.0,146,0.029175996780395508,0.19912952212011908,0.2024150433870535,35608,-0.7427899455938896,0.0
264,1.612485408782959,-0.47446240786065563,2.0861168122655176,3.1366724568173376,-1.7762325862873218,0.0,0.11116974894438574,0.1,0.002847433090209961,0.0532376766204834,0.04987369,4.0117455,-1.0604778428040682,0.0,-0.009517885506543429,0.0,141,0.08356928825378418,0.9469076720196679,0.9477760017531132,35749,-0.47270035972749813,0.0
265,1.6534008979797363,-0.1900720061391179,2.538518273466606,4.204329352059138,-1.7927639862015385,0.0,0.11732082197538876,0.1,0.005003929138183594,0.07204031944274902,0.04992252,1.7841644,-0.9734372591375732,0.0,-0.005783784969330087,0.0,141,0.011417388916015625,1.1352960593948114,1.1120511462498974,35890,-0.694644697591028,0.0
266,1.6187496185302734,-1.722110433880975,0.10124689705879507,-1.616294873817315,-1.841649371626204,0.0,0.11026983823904718,0.1,0.002907276153564453,0.054546356201171875,0.04975844,1.1457515,-1.0483045766119135,0.0,-0.022806848435860116,0.0,143,0.01717066764831543,0.051152667040589885,0.06122506327039246,36033,-0.2876382963275277,0.0
267,1.6565783023834229,-1.3669046390057962,0.5144370759584265,-0.49685654044352123,-1.8379274084561952,0.0,0.1081013211723048,0.1,0.002938985824584961,0.056891441345214844,0.0493798,2.9835088,-1.0801645828513018,0.0,-0.018110717292388147,0.0,141,0.01386260986328125,0.07786328555522355,0.08041797504790414,36174,-1.2495618467465783,0.0
268,1.6212785243988037,-1.5081077317373148,0.5042957013004139,-0.6435299426196779,-1.9121946371349168,0.0,0.10594268692955258,0.1,0.0033385753631591797,0.05708432197570801,0.050204925,2.622688,-1.122958897739903,0.0,-0.019973240411916133,0.0,137,0.07381820678710938,0.07122944980457199,0.06973509604732292,36311,-0.9435605223184602,0.0
269,1.6030323505401611,-1.460509050551883,0.3737176141221119,-0.9011375791893645,-1.8776528599595543,0.0,0.10383415051390651,0.1,0.019583702087402344,0.05403876304626465,0.049231887,2.5529904,-1.156713913021101,0.0,-0.019322872759292523,0.0,130,0.09205079078674316,0.0469979672130244,0.0431967871276445,36441,-0.9011601110857069,0.0
270,1.6015746593475342,-0.9193884611565755,1.3536312736883973,1.423690214279304,-1.7683635219438487,0.0,0.10796717058088154,0.1,0.004981517791748047,0.05729055404663086,0.050201062,3.0563424,-1.1329813678346485,0.0,-0.012107651897495804,0.0,146,0.06347846984863281,0.32158132991991617,0.3223086948270319,36587,-1.2875057078936536,0.0
271,1.6727097034454346,-1.472844060100454,0.18772143433712182,-1.188960554494317,-1.6479159474866107,0.0,0.10997268353282875,0.1,0.003006458282470703,0.054993629455566406,0.049906366,1.3711542,-1.166967637061229,0.0,-0.019507526867949244,0.0,136,0.0855405330657959,0.034538263431855634,0.02984005288351433,36723,-0.18085562297267543,0.0
272,1.7186627388000488,-1.120789177290003,0.5876203653220615,-0.20312863442349616,-1.7413858787932102,0.0,0.10968537399776175,0.1,0.06664657592773438,0.09622621536254883,0.050012827,2.5277889,-1.1623497910841063,0.0,-0.014799092663065344,0.0,147,0.050922393798828125,0.06966732721030569,0.06862358373369827,36870,-1.408087527366239,0.0
273,1.6006758213043213,-1.6973266240143574,0.15675822191639846,-1.4521372706051547,-1.8865685169416295,0.0,0.10900193539104894,0.1,0.06593894958496094,0.12215995788574219,0.05019838,1.4680377,-1.2158474743771315,0.0,-0.022474259885619092,0.0,146,0.07927227020263672,0.032974383186104544,0.027276013498397998,37016,-1.470805119072385,0.0
274,1.6203160285949707,-1.2456940820236801,0.630794787588962,-0.23547206318662317,-1.7802442003117123,0.0,0.10333232663142264,0.1,0.0045473575592041016,0.054882049560546875,0.04963232,3.2820678,-1.2188321351417863,0.0,-0.016471221847107614,0.0,143,0.07036519050598145,0.08118626746708169,0.08130568256800569,37159,-1.376828424750915,0.0
275,1.5243468284606934,-1.6230498051313174,0.17268709440141752,-1.4600589196842073,-1.8796865245790786,0.0,0.10578901340681636,0.1,0.00510716438293457,0.0614018440246582,0.049777396,1.6254731,-1.2592539021407396,0.0,-0.021535163671137753,0.0,121,0.013227701187133789,0.029435219340766355,0.029435219340766355,37280,-1.5161346949187735,0.0
276,1.534926176071167,-1.2617005684475155,0.7343391345296979,0.009912978981474918,-1.7109506329751676,0.0,0.10444896070297996,0.1,0.032532453536987305,0.08261585235595703,0.049158264,3.4077413,-1.259498568771417,0.0,-0.01666966724729806,0.0,130,0.07878637313842773,0.0885971863516885,0.08637906655502219,37410,-1.5704229582237865,0.0
277,1.5604362487792969,-0.8941516982549377,1.3156324708375668,1.3814926289356904,-1.7222705500562694,0.0,0.11196115251579587,0.1,0.0052678585052490234,0.09210991859436035,0.04958164,2.2851999,-1.222963881719769,0.0,-0.015128443244042404,0.0,144,0.08288002014160156,0.5958091586943027,0.5961124217277164,37554,-1.5424624687887107,0.0
278,1.6033687591552734,-1.3960876047570525,0.1364936768418757,-1.1819237942906535,-1.5448333250139652,0.0,0.10909661180827415,0.1,0.06898212432861328,0.14227819442749023,0.049516216,1.4124718,-1.2402762540234973,0.0,-0.018460067986980626,0.0,145,0.08798766136169434,0.010585728028258742,0.010564213944972539,37699,-1.4525338306231708,0.0
279,1.5607175827026367,-1.4052565928075282,0.19217556834383262,-1.105129639407437,-1.5846733917142715,0.0,0.11391099089926866,0.1,0.06544756889343262,0.6796102523803711,0.04940368,1.7024876,-1.2567742879019004,0.0,-0.018587106706784363,0.0,140,0.0686652660369873,0.017478164450141234,0.017233733360680927,37839,-1.4477124078229122,0.0
280,1.5894386768341064,-1.5956025545031671,0.22273077766032057,-1.2515952268739676,-1.8216311548709414,0.0,0.10856832334711694,0.1,0.002845287322998047,0.053415536880493164,0.049692992,1.0753223,-1.290657114562027,0.0,-0.021282526569457803,0.0,145,0.044344186782836914,0.017166653493691984,0.016957080563509676,37984,-1.0530248766440387,0.0
281,1.5753793716430664,0.3639949709624736,3.3592609736888264,6.169666044722748,-1.8230737071681062,0.0,0.11698921619070884,0.1,0.005220890045166016,0.05913400650024414,0.049904104,1.901337,-1.125191906009577,0.0,0.001672279594025627,0.0,147,0.08429622650146484,1.2115745996538043,1.1794207571255655,38131,-1.477968269230157,0.0
282,1.5832734107971191,-0.9524410849506401,0.7898077821190258,0.34672882234168156,-1.5966241550458917,0.0,0.11827189264982615,0.1,0.005280256271362305,0.05835747718811035,0.04961009,1.8422034,-1.1079168239036832,0.0,-0.015900068958141087,0.0,147,0.06411409378051758,0.35790166173513543,0.326973496011472,38278,-1.4674530188049033,0.0
283,1.5518810749053955,-1.4469531507582305,0.36524856149566237,-0.8402196441971514,-1.7388243406012909,0.0,0.1132555973925144,0.1,0.012748956680297852,0.05316877365112305,0.0492605,1.9391288,-1.1418204565891379,0.0,-0.01916632572982492,0.0,138,0.049710750579833984,0.05504401687285102,0.07040501086008703,38416,-1.3473782625012607,0.0
284,1.5514576435089111,-0.3602893538701451,1.282756767147476,1.3350625101250502,-1.667279064912444,0.0,0.10398992056218254,0.1,0.005063772201538086,0.06050539016723633,0.050280415,2.0317435,-1.0636673463172386,0.0,-0.004646131315853208,0.0,139,0.08433985710144043,0.41562225595972224,0.4048185570942103,38555,-1.4208677335305124,0.0
285,1.5854525566101074,-1.3534101699877534,0.08825566851153278,-1.2738322736897074,-1.5026338792312106,0.0,0.10534477679335609,0.1,0.0686485767364502,0.0679483413696289,0.050070815,0.94513637,-1.0926416286842902,0.0,-0.017899436448837076,0.0,147,0.08255195617675781,0.04323543921318632,0.051586628205045656,38702,-0.6818937506008048,0.0
286,1.6316564083099365,-1.6715968962229528,0.1256939255246687,-1.4775674406220198,-1.8046244137515512,0.0,0.1115734425233513,0.1,0.002923727035522461,0.055608510971069336,0.05024635,1.1193888,-1.1505371554381565,0.0,-0.02219478704927625,0.0,141,0.05570173263549805,0.09530356316102713,0.09599602100247731,38843,-0.34094524811138927,0.0
287,1.6787652969360352,-1.1558994647257403,0.570966353606477,-0.4189898130978955,-1.7216278879775133,0.0,0.10456410813369804,0.1,0.005075693130493164,0.0744781494140625,0.049772974,3.281994,-1.151073386366915,0.0,-0.015268007348117878,0.0,148,0.03483772277832031,0.08701634211661817,0.08344135489655714,38991,-0.7291781713206335,0.0
288,1.622406244277954,-0.37867450679697084,2.0972128222443125,3.224073735621504,-1.8803666328868434,0.0,0.11479580770229005,0.1,0.005143165588378906,0.06980633735656738,0.050065193,1.7661483,-1.0738334984099205,0.0,-0.008258385063515197,0.0,139,0.05355334281921387,1.0620105977849301,1.0568745398408461,39130,-0.08323847766744308,0.0
289,1.6161563396453857,-0.48124758437377,2.1934270867321266,3.3161009475555234,-1.8223537804612238,0.0,0.11169854189535074,0.1,0.0027832984924316406,0.052816152572631836,0.0497151,5.7283034,-1.0145749070063055,0.0,-0.009608573145501884,0.0,138,0.056821584701538086,0.971799946803209,0.956698702446114,39268,-0.3522134881256969,0.0
290,1.6760363578796387,-1.5741450542638509,0.18566087147279264,-1.271252555503239,-1.7663246031520248,0.0,0.10939740149933128,0.1,0.002773761749267578,0.05617880821228027,0.050309118,2.3089833,-1.0705319217320601,0.0,-0.0208308060296929,0.0,146,0.08307456970214844,0.08589534487389688,0.09326685944546244,39414,-1.31404911312108,0.0
291,1.6213452816009521,-1.5717551515839496,0.08728723330833883,-1.4711877800180622,-1.7084941796005764,0.0,0.10599237972854926,0.1,0.0028121471405029297,0.0539400577545166,0.05014944,1.282121,-1.1206542447172492,0.0,-0.02079949238132294,0.0,141,0.04682326316833496,0.08675119708197297,0.08413710234834965,39555,-0.029149519231541632,0.0
292,1.6187474727630615,-1.7932344644940466,0.06024807265204051,-1.7208442312464234,-1.8686293102495886,0.0,0.10684946186977869,0.1,0.027874231338500977,0.07378625869750977,0.049412243,0.9391211,-1.1879122666949289,0.0,-0.023755164943335964,0.0,134,0.03931879997253418,0.13702663708999074,0.12239483184149876,39689,-0.6037803834270842,0.0
293,1.6108825206756592,-1.452376020724921,0.25289726925879513,-1.144329403075468,-1.8039053737336035,0.0,0.10393644697887183,0.1,0.004935741424560547,0.07218599319458008,0.049783304,1.4479533,-1.2143586420979282,0.0,-0.019208478361375392,0.0,134,0.07434821128845215,0.10449501531458005,0.08472114894433454,39823,-0.34049347671159574,0.0
294,1.5887525081634521,-0.7336926715749086,1.1339614550093913,1.2292933188298607,-1.4434731518670985,0.0,0.10916473378226049,0.1,0.004291057586669922,0.058312177658081055,0.049444064,3.1972091,-1.1662920450456262,0.0,-0.009628383218049211,0.0,138,0.07771658897399902,0.2572832395512544,0.2588138079155327,39961,0.2091858865189682,0.0
295,1.5468883514404297,-1.3649038097303068,0.453080986757152,-0.5819455538481484,-1.652543502694542,0.0,0.10567926921702504,0.1,0.003144502639770508,0.05396580696105957,0.049909987,2.0633733,-1.1861532215140944,0.0,-0.018107870606923593,0.0,136,0.04391169548034668,0.07842989572191642,0.06591399464145459,40097,-0.13003802607036996,0.0
296,1.6011807918548584,-1.1391714337583867,0.51539673834451,-0.48906430079338525,-1.6635156043425456,0.0,0.10829546865591516,0.1,0.01711893081665039,0.055007219314575195,0.04978394,1.9261984,-1.1814550427385235,0.0,-0.01507811226912498,0.0,142,0.07616591453552246,0.05476728573232373,0.04945393727375204,40239,-0.66053838934723,0.0
297,1.565948247909546,-1.5828257568026096,0.1786321122970769,-1.294996993143989,-1.741157390878035,0.0,0.10118531133255719,0.1,0.0030574798583984375,0.05421638488769531,0.05014057,1.4304298,-1.2215921141449322,0.0,-0.020950062781288387,0.0,141,0.013727426528930664,0.02356821814100253,0.017225895280737327,40380,-1.4690503193858337,0.0
298,1.507035493850708,-0.9228169515857516,1.1540715332798666,1.01232543039125,-1.8443424929735448,0.0,0.10657325941160894,0.1,0.002905130386352539,0.054581642150878906,0.05023993,2.8032622,-1.1917145978890142,0.0,-0.012154909577093458,0.0,139,0.021233558654785156,0.2819815635961843,0.28844847867870754,40519,-1.492582214441738,0.0
299,1.605311632156372,-1.4650037689713533,0.32474645463074087,-0.9928730597961783,-1.8456423427643092,0.0,0.11047227625955942,0.1,0.002985239028930664,0.05477571487426758,0.04978157,1.3273052,-1.2190435149972483,0.0,-0.019381693483730297,0.0,147,0.01305246353149414,0.02740331763371613,0.027168252670773024,40666,-1.5497085832148663,0.0
300,1.5397050380706787,-0.05359682666094201,2.4716132488216185,4.2229786392786535,-1.5790549560714908,0.0,0.10933600992431249,0.1,0.002771615982055664,0.061716556549072266,0.049322773,3.7314057,-1.1024988461636176,0.0,-0.0005828371939504799,0.0,143,0.014805793762207031,1.1491967942150556,1.1251027339059125,40809,-1.571289049457887,0.0
301,1.9626438617706299,-1.5079965967248514,0.17805439100317436,-1.2504410440070037,-1.689779189248796,0.0,0.10764970925168428,0.1,0.004973173141479492,0.07375812530517578,0.05054684,0.9927746,-1.143048621219741,0.0,-0.020004143411274426,0.0,134,0.040659189224243164,0.027558858468974958,0.03139558086155378,40943,-1.4886833896940648,0.0
302,1.9351191520690918,-1.57441149332755,0.14364295598141702,-1.3851959302942074,-1.7438137168462018,0.0,0.10886090159828703,0.1,0.0062978267669677734,0.07239818572998047,0.050321102,0.77824366,-1.186184908430522,0.0,-0.020834811305766133,0.0,146,0.05146455764770508,0.018068096339205652,0.021614697790870836,41089,-1.4810942456948617,0.0
303,2.094111204147339,0.22179619042815057,1.1156859868233713,1.2665820067218245,-1.4521683478629668,0.0,0.10919979886200715,0.1,0.004207134246826172,0.07829999923706055,0.049954943,1.4254935,-1.045386798544655,0.0,-0.00023871377696791513,0.0,141,0.04006052017211914,1.199861071113597,1.1229616146234738,41230,-1.507754576550145,0.0
304,1.9922206401824951,-0.47717101642446974,1.114116574621831,0.9043343563471158,-1.7566904334008444,0.0,0.1030258251689051,0.1,0.006802797317504883,0.0763237476348877,0.0495356,2.7767012,-0.9885652203326365,0.0,-0.006254008436320568,0.0,135,0.04993724822998047,0.33421488256964216,0.31819609542133065,41365,-1.5935568713181103,0.0
305,1.8863165378570557,-1.6625819297481605,0.13031563354356007,-1.5367282293402602,-1.8420926098619903,0.0,0.10477061145510944,0.1,0.010467290878295898,0.06642317771911621,0.050222628,0.8012291,-1.0559668912741889,0.0,-0.022056103097193955,0.0,144,0.0522313117980957,0.0759822514757749,0.09037044806923847,41509,-1.4670286140897577,0.0
306,1.647937536239624,-1.1330982382407706,0.8225931840881671,0.28992756910433704,-1.6544224061085342,0.0,0.10666811345536098,0.1,0.004582405090332031,0.05632138252258301,0.04898622,4.1554847,-1.063680025970847,0.0,-0.014953697045760175,0.0,138,0.03828549385070801,0.12551630608550948,0.12923561152208662,41647,-1.4031700228068507,0.0
307,1.668633222579956,-1.1215184247210868,0.6157906127539388,-0.3253965285451019,-1.7656249627602039,0.0,0.1045603740391426,0.1,0.0029282569885253906,0.05353522300720215,0.050402332,2.4082036,-1.069463865845871,0.0,-0.01815630630660408,0.0,136,0.05496406555175781,0.09932518537399859,0.09950812381679709,41783,-0.5858766326815673,0.0
308,1.6787796020507812,0.4874597247787741,1.9745972083460988,3.549366915047939,-1.7958850350009459,0.0,0.11518689531144419,0.1,0.046219825744628906,0.0937337875366211,0.05028067,1.7581296,-0.9137715067834066,0.0,0.0032968359359777143,0.0,138,0.09692263603210449,1.1756356920501028,1.1534690740993623,41921,0.04236911108197816,0.0
309,1.6387646198272705,0.8644973482990594,3.5693243082128623,7.024447851544572,-1.4947181646063967,0.0,0.10853167437994249,0.1,0.004746198654174805,0.05309581756591797,0.04965188,2.5099962,-0.73594462127516,0.0,0.00834201053161204,0.0,137,0.07193756103515625,1.2295383195348546,1.184922475647054,42058,0.0826184550553748,0.0
310,1.6647000312805176,-0.8931626030479364,0.7029642363033124,0.27432196878266324,-1.6000990380804567,0.0,0.11164262409819453,0.1,0.00287628173828125,0.06601381301879883,0.050290294,2.968167,-0.7516664194524377,0.0,-0.011760228634973911,0.0,148,0.04957461357116699,0.13562458537512048,0.16531377921325827,42206,-0.28094406869904986,0.0
311,1.6629750728607178,-0.45322546763841715,0.5865000587698675,0.36121911086960456,-1.1526008014512708,0.0,0.10701249636762654,0.1,0.004740238189697266,0.05405831336975098,0.050184328,1.7290341,-0.7218223242710357,0.0,-0.005897250907714662,0.0,143,0.013852357864379883,0.18984114379508257,0.20434002907869844,42349,2.0249463288782468,0.0
312,1.6718010902404785,-1.4859737559255197,0.26531825800034803,-1.0540331393635551,-1.7578341439494887,0.0,0.1152187987154535,0.1,0.002941131591796875,0.06336784362792969,0.050137714,1.4486641,-0.798237467436484,0.0,-0.019663979947091844,0.0,146,0.017565250396728516,0.21308405122932508,0.22464432090968586,42495,0.22098222821184144,0.0
313,1.676459550857544,-0.9543593443340193,0.2265709467791284,-0.7093840249053052,-1.320843493965531,0.0,0.10579555698839634,0.1,0.005075693130493164,0.07309198379516602,0.050373085,1.4905643,-0.8138496551262376,0.0,-0.012592272715888253,0.0,141,0.023296356201171875,0.14527731558117143,0.14098081136598298,42636,0.21215426667577741,0.0
314,1.7002015113830566,-0.5012641898291892,0.9393479121092811,0.7986127873566022,-1.4314302145893978,0.0,0.10604770384800215,0.1,0.004929780960083008,0.057593345642089844,0.05000986,2.471629,-0.7825911085965328,0.0,-0.006641784828631387,0.0,144,0.012122869491577148,0.2595639850992568,0.2523718267244635,42780,0.32280768030277757,0.0
315,1.666882038116455,0.4290839941675202,2.3154687422548834,4.404406468684894,-1.255175465933358,0.0,0.11482570866520281,0.1,0.002923727035522461,0.05269122123718262,0.0501563,2.0126255,-0.6614235983201274,0.0,0.0025250889390664383,0.0,141,0.06304383277893066,1.0321737686488448,1.0270004909032582,42921,0.5372683525558234,0.0
316,1.731999158859253,-0.7252073226256394,0.6741759331892878,-0.04593513052996778,-1.630917346935312,0.0,0.113236320836115,0.1,0.06996583938598633,0.08671784400939941,0.049975857,1.9788738,-0.6678019707506786,0.0,-0.00953272259460964,0.0,146,0.0915679931640625,0.1817123346841315,0.18007515186065795,43067,0.32755886323937317,0.0
317,1.7079825401306152,-0.977484131441169,0.5567555389250254,-0.2792906473896273,-1.7956550708769679,0.0,0.1075191570934321,0.1,0.0029077529907226562,0.05247235298156738,0.050288882,1.7084019,-0.6987701868197276,0.0,-0.012891985209399414,0.0,146,0.0871117115020752,0.20316962304554836,0.1936491109080427,43213,0.28079373829787874,0.0
318,1.679198980331421,-0.8517362968398945,0.6442441609834142,0.054088040108119184,-1.7667035011579955,0.0,0.11059869673263278,0.1,0.0029175281524658203,0.05451202392578125,0.050218202,1.8701878,-0.7140667978217443,0.0,-0.011206634689948688,0.0,144,0.03960776329040527,0.20086176201616443,0.18446196946955948,43357,0.3329094940623887,0.0
319,1.7388172149658203,-0.76787045852663,0.5949019588724523,-0.3712263816068839,-1.796693248534903,0.0,0.10437042069530619,0.1,0.0049839019775390625,0.10265970230102539,0.05030738,1.4604458,-0.719447163892233,0.0,-0.010105236851636983,0.0,131,0.04689645767211914,0.1617326686736025,0.14413358438515203,43488,0.18895682283609472,0.0
320,1.6788382530212402,-1.256703286379885,0.3963603137568551,-0.6652187568323624,-1.779458100228981,0.0,0.0975249683307713,0.1,0.004957914352416992,0.0626065731048584,0.049711067,2.2027926,-0.7731727761409982,0.0,-0.016610016440372678,0.0,129,0.07210874557495117,0.17011373974241967,0.14444452583798711,43617,0.039448047316875234,0.0
321,1.7269842624664307,-1.3703118849717864,0.5024037838063417,-0.5166532996377109,-1.8140165147256366,0.0,0.10750255376460786,0.1,0.0046651363372802734,0.053231239318847656,0.05042396,1.7555162,-0.8328866870240771,0.0,-0.018133995424884596,0.0,147,0.0339655876159668,0.12759363976694776,0.10422358807816995,43764,0.10786873095893834,0.0
322,1.6516993045806885,0.745696190022323,2.805960494503098,5.426138942185002,-1.4871385487692617,0.0,0.11025010033754956,0.1,0.02289271354675293,0.056226491928100586,0.049225572,2.5478153,-0.675028399319437,0.0,0.006765771110590976,0.0,143,0.06182575225830078,1.1885338344936713,1.191293229015349,43907,0.03626577093569838,0.0
323,1.6720490455627441,-0.36973304172345284,0.35071466236559395,0.1018340409715659,-0.8869086326369191,0.0,0.11192545974382041,0.1,0.004860401153564453,0.06376028060913086,0.050235134,3.8444414,-0.6444988635598385,0.0,-0.004772986752918151,0.0,143,0.03678107261657715,0.08033029418741379,0.07907343708162695,44050,-0.020135696985968954,0.0
324,1.667203664779663,-0.583774453486347,1.077321231743893,1.2630474218915357,-1.4430339547233302,0.0,0.10653614851077423,0.1,0.002958536148071289,0.0784149169921875,0.04997041,4.716134,-0.6384264225524894,0.0,-0.00773243018436393,0.0,147,0.02335643768310547,0.2374151353101613,0.236881240587081,44197,0.09630766382310263,0.0
325,1.5637011528015137,-1.5019852898314177,0.27014764305244754,-1.205145358351459,-1.8547362327848926,0.0,0.10895507499114207,0.1,0.005185842514038086,0.06749176979064941,0.05021923,1.587742,-0.7247823092803822,0.0,-0.019877493367029975,0.0,147,0.08524131774902344,0.1104417355426913,0.10336836593433454,44344,-0.17871056041662614,0.0
326,1.6281921863555908,-0.2048388219202737,0.8616037279106995,0.8698888980849433,-1.4880509198391494,0.0,0.11132675616934805,0.1,0.03198552131652832,0.06016659736633301,0.049317583,1.8011401,-0.6727879605443714,0.0,-0.0026189838979129867,0.0,141,0.061722755432128906,0.24894292532747692,0.2489551482101632,44485,-0.15016210439781563,0.0
327,1.632425308227539,-0.257220479176218,1.3537398089801687,1.1653116224908628,-1.7095666639009774,0.0,0.10752108931511402,0.1,0.0028061866760253906,0.05398416519165039,0.049623463,2.097868,-0.6312312124075561,0.0,-0.003290507044370676,0.0,149,0.016286611557006836,0.36181773568780295,0.36131374201588107,44634,0.2009691913080225,0.0
328,1.5623388290405273,-0.1857298455640331,0.8516512687396216,1.149977209883417,-1.1592995977211926,0.0,0.11061888711733069,0.1,0.002882719039916992,0.057802677154541016,0.049849648,2.8611994,-0.5866810757232038,0.0,-0.002342007826431543,0.0,144,0.01642322540283203,0.2658897591289472,0.2631885278724504,44778,0.2909807101954927,0.0
329,1.5721180438995361,0.2794379780414972,0.5504130394831872,1.0957014846460746,-0.31263418614432603,0.0,0.11733723814630649,0.1,0.0028908252716064453,0.06973099708557129,0.049642667,1.8848913,-0.5000691703467338,0.0,0.0038790505080078656,0.0,144,0.08019709587097168,0.2914007367764565,0.2831393633078316,44922,0.05726985216227809,0.0
330,1.5973172187805176,-0.7447345580554227,0.9742556964428454,0.8549427279949202,-1.682816581227828,0.0,0.10117317112194643,0.1,0.06657242774963379,0.1740868091583252,0.049880106,4.5874214,-0.5245357091176027,0.0,-0.009820182809040606,0.0,136,0.08315515518188477,0.19713551600021448,0.19677217200757033,45058,-0.031368847542456946,0.0
331,1.5758569240570068,-0.7827293373747441,0.45396559465268593,-0.24635930553113705,-1.4368382531221369,0.0,0.10892107072613796,0.1,0.002874135971069336,0.05640554428100586,0.049980536,1.9840264,-0.5503550719433169,0.0,-0.010280870103065892,0.0,144,0.04208040237426758,0.05880566155981942,0.0580335984581167,45202,0.23432777639215643,0.0
332,1.6563193798065186,-0.5620471264897569,0.44233418274069447,-0.021654219181715062,-1.098414506173601,0.0,0.10846937893708683,0.1,0.0028448104858398438,0.05508255958557129,0.04947423,2.7468047,-0.5515242773979608,0.0,-0.007382169158025444,0.0,148,0.010492563247680664,0.05311922722693696,0.05106500972826108,45350,0.0796958216383643,0.0
333,1.6888518333435059,-0.9174365352479423,0.5706423175817188,-0.11905288354145704,-1.7194386615974828,0.0,0.1082609345020809,0.1,0.0027740001678466797,0.055795907974243164,0.04998642,1.6816968,-0.588115503182959,0.0,-0.012097211703509969,0.0,144,0.0105133056640625,0.09410726992952738,0.09240045106165899,45494,-0.12815799154157137,0.0
334,1.6741516590118408,-0.781203425946474,0.9397917435513077,0.3070408791651811,-1.8423466184782678,0.0,0.10176872743118812,0.1,0.012073278427124023,0.18194937705993652,0.04962755,2.160167,-0.6074242954593105,0.0,-0.010260261998243142,0.0,144,0.09055423736572266,0.1434031207434748,0.14241649788263758,45638,-0.11117686998832532,0.0
335,1.615530252456665,-0.14037034305253127,0.28919352936368314,0.1598764271966231,-0.5150086614165172,0.0,0.10893856205444202,0.1,0.07098221778869629,0.4084360599517822,0.049736228,2.0666142,-0.5607189002186327,0.0,-0.0017241262776497561,0.0,146,0.09004473686218262,0.09643870235819124,0.09526281297336767,45784,-0.1008267737089783,0.0
336,1.6204214096069336,1.6331355725156866,5.022704869667703,10.324701491019292,-1.5761195348547659,0.0,0.11573356190907054,0.1,0.0708465576171875,1.3779444694519043,0.05004859,1.8846388,-0.3413334529452007,0.0,0.018561828189947817,0.0,149,0.09843134880065918,1.1535582469827772,1.1372559293534694,45933,-0.016619334880220604,0.0
337,1.6030986309051514,-0.21421189589873307,1.069765903771279,1.3792272778752654,-1.4928051844394545,0.0,0.11560763837113332,0.1,0.0734100341796875,0.5367121696472168,0.04986547,2.2554255,-0.32862129724055394,0.0,-0.002721044303402114,0.0,144,0.013415336608886719,0.62672183085159,0.593425247363084,46077,-0.12447227374471015,0.0
338,1.7088489532470703,0.6798637612618734,0.8738007679936338,1.9414012102178326,-0.47866144727918436,0.0,0.11096742082512466,0.1,0.06705951690673828,0.41757678985595703,0.04979684,1.614162,-0.2277727913903112,0.0,0.009198680893502769,0.0,146,0.09562301635742188,1.0336492186427166,0.946368272017602,46223,-0.055800169826486945,0.0
339,1.7673845291137695,-0.8931219084092491,0.40751661700266206,-0.5628016315149511,-1.5885622413320206,0.0,0.11253403641164245,0.1,0.0671379566192627,0.10014915466308594,0.05011221,1.2520852,-0.294307703092205,0.0,-0.01177345466933561,0.0,147,0.07491159439086914,0.11174369024774732,0.14185156386498776,46370,-0.2939347557458598,0.0
340,1.749204158782959,-0.12913706768844702,0.8478405951300915,0.8015066105826048,-1.4738454430277397,0.0,0.10583731996413398,0.1,0.002941608428955078,0.13562631607055664,0.050128534,1.4273093,-0.2777906395518292,0.0,-0.0016362443765554078,0.0,135,0.08914542198181152,0.2965598199476904,0.3011304554202278,46505,-0.6310156660147355,0.0
341,1.7852277755737305,-0.30979431456332773,1.0047305409198695,1.018781065575846,-1.6442119242683007,0.0,0.10191027488161251,0.1,0.07078719139099121,0.3056209087371826,0.0500887,2.0289822,-0.280991007052979,0.0,-0.003980221321692911,0.0,142,0.08617234230041504,0.26456673731250663,0.27033455660428113,46647,0.005060008319218934,0.0
342,1.6723172664642334,-0.6848188161497519,0.929281653056648,0.7954540774340784,-1.6128032315167697,0.0,0.1052061611769607,0.1,0.0032091140747070312,0.05484294891357422,0.050063614,3.5708656,-0.3213737879626563,0.0,-0.008972008217467495,0.0,143,0.05917787551879883,0.24972965303027325,0.24858776779721134,46790,-0.011418433676960937,0.0
343,1.6520116329193115,-0.2643573333490026,0.8868509553830778,0.6236887596895246,-1.533308841030395,0.0,0.10280168564358162,0.1,0.0701141357421875,0.0937662124633789,0.04931731,2.5638068,-0.31567214250129094,0.0,-0.0033665526301237124,0.0,138,0.09564685821533203,0.22588549774473568,0.21742391818207588,46928,0.2299799301167238,0.0
344,1.682840347290039,3.4620268315884815,3.0712269564082924,7.013496566751071,-0.6934426690096265,0.0,0.11625282190706478,0.1,0.003197193145751953,0.05531144142150879,0.049535714,1.7225001,0.06209775490768632,0.0,0.03941369150148243,0.0,147,0.06527185440063477,1.2661941514586186,1.2372560976417455,47075,0.3255763305806891,0.0
345,1.9958226680755615,-0.5717343611534074,0.5682279918378478,0.18852552746803952,-1.4055221504647786,0.0,0.1117277327129292,0.1,0.003470182418823242,0.07350850105285645,0.050006744,1.7265742,-0.0012854566984230459,0.0,-0.007509859381878759,0.0,146,0.028416872024536133,0.20702058837799056,0.23670886704072147,47221,0.35531338957781067,0.0
346,2.1669368743896484,-0.36635760657234756,0.8930298645284486,1.1519155082368513,-1.0715694898690495,0.0,0.10608874711286617,0.1,0.0055103302001953125,0.07280445098876953,0.05001882,3.467158,-0.037792671685815495,0.0,-0.004731230630274838,0.0,146,0.06562995910644531,0.25118996361986634,0.2590020090669087,47367,0.39662483696340783,0.0
347,1.9639408588409424,0.39124855237485984,0.6625309058329104,0.9699148773361206,-0.7359172124122495,0.0,0.10734022119690789,0.1,0.006249427795410156,0.07783627510070801,0.050240126,1.3847804,0.005111450720252042,0.0,0.005283271890320032,0.0,138,0.08933615684509277,0.31648156865216914,0.31123083660364353,47505,3.5769627640119612,0.0
348,1.81327486038208,-0.04169086629280683,0.5605276805383116,0.6126765350613483,-0.9141128156404057,0.0,0.11176301026354817,0.1,0.005146980285644531,0.06677484512329102,0.049994826,1.4506129,0.00043121901894615546,0.0,-0.00044595128437326624,0.0,144,0.0709540843963623,0.24201669046935306,0.23211877085880472,47649,0.5871463714588288,0.0
349,1.6996896266937256,0.807022720164938,0.8292252950935592,2.2184506156544446,0.10038979269110437,0.0,0.10502750267361428,0.1,0.00604248046875,0.059923648834228516,0.050151326,2.0484009,0.08109036913354535,0.0,0.010609127645253496,0.0,138,0.07700753211975098,0.5980906867422375,0.5882541466970788,47787,0.3599519359882888,0.0
350,1.678415060043335,-0.06418007726143582,0.6303728410550976,0.5138681313353899,-1.1222886163334047,0.0,0.10702416191505736,0.1,0.03363633155822754,0.057025909423828125,0.050169434,1.5927403,0.06656332449404724,0.0,-0.0008758511083879144,0.0,141,0.03796243667602539,0.2073411613094883,0.19645545992570687,47928,0.3156702464797954,0.0
351,1.7179908752441406,-0.21956601286248373,0.9309488893630099,0.8519242940224105,-1.660772226677854,0.0,0.1018255172481939,0.1,0.0033698081970214844,0.06264090538024902,0.05032189,2.2654626,0.03795039075839414,0.0,-0.0027748487351529284,0.0,142,0.0863649845123291,0.2538519481428843,0.23797747296901778,48070,0.07176108058722863,0.0
352,1.6973192691802979,-0.6237371129391232,0.8775152651502184,0.7837707269018457,-1.4767709430120324,0.0,0.10707583188966213,0.1,0.020297765731811523,0.05973410606384277,0.049971227,2.4120984,-0.028218359611357588,0.0,-0.008173058237608282,0.0,146,0.08721089363098145,0.2706327138490417,0.2511172069731094,48216,0.4417310437217079,0.0
353,1.7117862701416016,-0.25102115355515614,0.821767221485543,0.711276625821998,-1.3700037604140838,0.0,0.11001707886210232,0.1,0.004934072494506836,0.05827903747558594,0.04963905,1.5763047,-0.05049863900573744,0.0,-0.0032126496267535433,0.0,143,0.08680081367492676,0.21523435567255647,0.1934266948400157,48359,0.5204583077915367,0.0
354,1.7192902565002441,-0.5378179224485997,1.118476003614706,1.215738239410096,-1.5354052520811536,0.0,0.10554636634164116,0.1,0.004940509796142578,0.06087994575500488,0.05022602,2.577339,-0.09923056735002367,0.0,-0.007016206387874755,0.0,145,0.09319663047790527,0.27133502049209884,0.2529818132687444,48504,0.5028834316081491,0.0
355,1.7138736248016357,0.9037940715289701,1.4838504436961673,3.4083805302221144,-0.47468350579321594,0.0,0.10992723341792775,0.1,0.013285636901855469,0.05409431457519531,0.049962558,2.5202909,0.001071896537875705,0.0,0.012132112876103501,0.0,143,0.07729601860046387,0.6251622367267184,0.6317273292251707,48647,0.6462241948057449,0.0
