iteration,time_sampling,stoc_pol_mean,stoc_pol_std,stoc_pol_max,stoc_pol_min,rollout_success,alpha,delta,time_vpg,time_npg,kl_dist,surr_improvement,running_score,rwd_sparse,rwd_dense,success_percentage,num_samples,time_VF,VF_error_before,VF_error_after,env_samples,eval_score,eval_success
0,1.1201081275939941,0.028402712511538107,0.0213906961481669,0.05874072974953745,0.0028284513774490348,0.0,0.14173791716283882,0.1,0.031223297119140625,0.04207587242126465,0.05565362,1.3631762,0.028402712511538107,0.0,0.000561928935336291,0.0,200,0.2755005359649658,2.446190128680115,0.8560465579681189,200,0.025783151985220038,0.0
1,1.0735464096069336,0.030534476809481022,0.011025899584309584,0.045357677457665384,0.018475195026083965,0.0,0.14685465688525842,0.1,0.0023412704467773438,0.043260812759399414,0.048916686,0.8534532,0.0286158889413324,0.0,0.0006006637896970235,0.0,200,0.2324066162109375,0.6448708015708743,0.3314834164493261,400,0.02996858974013133,0.0
2,1.0994951725006104,0.02621450670750597,0.005531551877292056,0.032640363359669806,0.017462088520959776,0.0,0.1481743251907868,0.1,0.10900592803955078,0.03941798210144043,0.05284812,1.0077062,0.02837575071794976,0.0,0.000521419768385987,0.0,200,0.0712437629699707,0.5402724624919522,0.22292442545499302,600,0.03375246312123401,0.0
3,1.0471501350402832,0.0243813268204896,0.018125413544877747,0.052014281872420805,0.005548735336260502,0.0,0.14572590097720292,0.1,0.0021724700927734375,0.04170632362365723,0.050798673,0.85510904,0.027976308328203747,0.0,0.00048515491146727526,0.0,200,0.0812530517578125,0.45858119107507195,0.4520680157689493,800,0.049898940657225,0.0
4,1.0835247039794922,0.11271572927981016,0.06725447374239284,0.2094533957966082,0.019835465016539808,0.0,0.15455205000528535,0.1,0.10912036895751953,0.04448509216308594,0.050123878,0.9229072,0.03645025042336439,0.0,0.002241340533214814,0.0,200,0.10805130004882812,0.8412036801088315,0.4620598256744529,1000,0.06630825324647192,0.0
5,1.1460552215576172,0.07812920198580996,0.03764757375179689,0.12224454126726322,0.01996904637466367,0.0,0.13962926623612004,0.1,0.14554095268249512,0.3586394786834717,0.04880753,1.0162094,0.04061814557960895,0.0,0.001559605061561518,0.0,200,0.15102434158325195,0.4545784598687595,0.7652558159395415,1200,0.07295913816747039,0.0
6,1.229133129119873,0.040480471392754035,0.024220422648225663,0.07621682223644374,0.018106875409203277,0.0,0.15509168501388165,0.1,0.1462540626525879,0.04032325744628906,0.052299194,0.92684263,0.04060437816092346,0.0,0.0008084001655515104,0.0,200,0.17534565925598145,2.7195967958171825,1.026337645477266,1400,0.08481650803101913,0.0
7,1.1077842712402344,0.01894304010961837,0.004728838035834052,0.026353960447303145,0.013988150717705867,0.0,0.15188100586647843,0.1,0.11624884605407715,0.04235076904296875,0.05184773,0.8997998,0.03843824435579295,0.0,0.0003741128655899866,0.0,200,0.15084528923034668,11.206193943938594,0.6719044955548074,1600,0.06587913939816882,0.0
8,1.185227870941162,0.10033445227201539,0.09222378696022275,0.2497086110790721,0.017940307253627986,0.0,0.13714307375233534,0.1,0.0020134449005126953,0.03961682319641113,0.051392857,1.6060313,0.044627865147415194,0.0,0.001995863889032848,0.0,200,0.10045003890991211,0.7719509914045923,0.8191259675016936,1800,0.15168133476307058,0.0
9,1.254936695098877,0.0789917410671618,0.06333614792715679,0.18269172536680361,0.011475917255778232,0.0,0.14346072441664948,0.1,0.002620220184326172,0.059900760650634766,0.051683012,1.4740393,0.04806425273938986,0.0,0.0015655668018535896,0.0,200,0.10799670219421387,0.7360640571758181,0.5656473699949699,2000,0.10876436417814557,0.0
10,1.1852726936340332,0.04953940696858792,0.028896527798242172,0.08706721755890447,0.010244634904293238,0.0,0.14508116709532076,0.1,0.002334117889404297,0.043476104736328125,0.04859667,0.96238935,0.04821176816230966,0.0,0.0009906022392842143,0.0,200,0.15050363540649414,0.38739018989790974,0.4851722259286255,2200,0.09326476433160048,0.0
11,1.2046289443969727,0.10511647932434924,0.08613038663961493,0.24856776007711331,0.03286349447758925,0.0,0.1319913934592993,0.1,0.05578160285949707,0.046624183654785156,0.04968667,2.4193757,0.05390223927851362,0.0,0.0020907809191755876,0.0,200,0.300274133682251,0.6043618735354763,0.5531242383858378,2400,0.092783143394377,0.0
12,1.2163825035095215,0.11267844652641064,0.07483691872260897,0.19463218889958298,0.0324876305943547,0.0,0.1393147959677686,0.1,0.007205963134765625,0.040025949478149414,0.050766107,1.0958718,0.05977986000330333,0.0,0.0022516615016673737,0.0,200,0.2895946502685547,0.48461643216345957,0.4344397624867418,2600,0.09035649916748258,0.0
13,1.0835001468658447,0.08195020742315172,0.09147879403131946,0.23797191290906677,0.015206547708203707,0.0,0.1295521321743833,0.1,0.13755106925964355,0.12624216079711914,0.050238904,2.2262754,0.06199689474528817,0.0,0.0016350533390621046,0.0,200,0.2702336311340332,0.6900610309270078,0.7146023849471358,2800,0.09716263517760286,0.0
14,1.15915846824646,0.15329706454961445,0.0752173262734716,0.2767214669671394,0.07527210770625083,0.0,0.1311651079750086,0.1,0.09276509284973145,0.041379690170288086,0.050204784,2.4784546,0.0711269117257208,0.0,0.0030596192105233266,0.0,200,0.24845385551452637,0.3599289965605181,0.31759786031499526,3000,0.17834947593499326,0.0
15,1.17236328125,0.10908524655545651,0.06179086480339722,0.2156396354745316,0.06882972447974478,0.0,0.13884496234909713,0.1,0.13407373428344727,0.2604820728302002,0.050234184,1.2329577,0.07492274520869438,0.0,0.0021476528573680653,0.0,200,0.30533528327941895,0.3947558356451669,0.3960141038327388,3200,0.22221745234771853,0.0
16,1.1780157089233398,0.07912420709198059,0.03345437028249376,0.10783128152624098,0.025297359919191884,0.0,0.1377040573973148,0.1,0.14337944984436035,0.3586742877960205,0.051013082,1.0433164,0.075342891397023,0.0,0.001522739678301036,0.0,200,0.28820204734802246,0.5540458767613439,0.3066440000828275,3400,0.21524047542069938,0.0
17,1.145148754119873,0.09319775416117074,0.04799628246578672,0.16834248203099283,0.04525964473321964,0.0,0.14045604563506062,0.1,0.002664327621459961,0.04607391357421875,0.050615802,1.2569517,0.07712837767343778,0.0,0.0018488692273889698,0.0,200,0.15013790130615234,0.2964642110289784,0.28125315210778606,3600,0.3180373136150399,0.0
18,1.259230136871338,0.24783290984068884,0.06650440174650325,0.29817680784554845,0.13355630984999012,0.0,0.1361161324721316,0.1,0.002132892608642578,0.04273366928100586,0.050369903,0.93849206,0.09419883089016289,0.0,0.004954339855941809,0.0,200,0.057366371154785156,0.5440810764210641,0.39553612337863947,3800,0.2342132117459057,0.0
19,1.2350471019744873,0.15876066292477095,0.15477883528568584,0.416827742376372,0.02017044059366191,0.0,0.14520626554679664,0.1,0.0023148059844970703,0.0712885856628418,0.04971447,1.0569686,0.1006550140936237,0.0,0.003119142401510055,0.0,200,0.22032546997070312,0.5651965137759782,0.5401024462960539,4000,0.23730773562839633,0.0
20,1.2226972579956055,0.17015978042090205,0.06623468252381967,0.21777585720516887,0.05590798808541891,0.0,0.13772144252793672,0.1,0.12779688835144043,0.04281473159790039,0.049797606,0.8441808,0.10760549072635153,0.0,0.003346227937195488,0.0,200,0.08403277397155762,0.2250763475012558,0.23347597928676178,4200,0.33145364409737554,0.0
21,1.2607862949371338,0.13704495481746837,0.11651707600018754,0.2944743861753836,0.023697992746517862,0.0,0.13842770646154615,0.1,0.007666826248168945,0.04459547996520996,0.0496012,1.5160521,0.11054943713546321,0.0,0.002730234305668279,0.0,200,0.03658580780029297,0.6359756509788931,0.5788040278916126,4400,0.34153773181640085,0.0
22,1.1568028926849365,0.18214012417833664,0.11797589426663554,0.35033708720404694,0.020687313136578265,0.0,0.1364320413417028,0.1,0.1497955322265625,0.183638334274292,0.05004239,1.2624214,0.11770850583975057,0.0,0.0036273435580878167,0.0,200,0.14995670318603516,0.3930076427228735,0.36899092207068457,4600,0.3807320542882216,0.0
23,1.2054171562194824,0.10696698145438949,0.049138576818478136,0.17076364722423998,0.051116985204781196,0.0,0.1364900455552363,0.1,0.002033233642578125,0.04010891914367676,0.04899898,1.4225148,0.11663435340121447,0.0,0.0020972259012045427,0.0,200,0.15303564071655273,0.3983518327250962,0.3057882196343838,4800,0.3553248298605575,0.0
24,1.2084555625915527,0.18951743905558818,0.08747681679540038,0.3051047536488963,0.09310106883933628,0.0,0.13802319753926262,0.1,0.0429682731628418,0.08162641525268555,0.05123471,1.1850852,0.12392266196665185,0.0,0.0037121642779102014,0.0,200,0.03081369400024414,0.37392126012214777,0.3790840838966889,5000,0.35123989562131536,0.0
25,1.3294243812561035,0.12078792224957327,0.06197114545670053,0.19582053275007924,0.040939722700693376,0.0,0.13914503856513014,0.1,0.0021300315856933594,0.040326595306396484,0.049448468,1.2154957,0.123609187994944,0.0,0.002366260759420034,0.0,200,0.2871110439300537,0.3268098755184368,0.30308525412032716,5200,0.3608751752393092,0.0
26,1.340550184249878,0.08229642332469944,0.04506008712737387,0.15853977626648583,0.04442193687187223,0.0,0.13936819819407795,0.1,0.0020363330841064453,0.13980650901794434,0.049632087,1.5850314,0.11947791152791955,0.0,0.0016320571533731524,0.0,200,0.11144471168518066,0.5893747185936667,0.5515376007353043,5400,0.40735941886169275,0.0
27,1.2901248931884766,0.07352287918573483,0.08755669030997604,0.22435943556736582,0.009356346599738274,0.0,0.13129529693515102,0.1,0.002318143844604492,0.04451870918273926,0.05075009,1.8666271,0.11488240829370107,0.0,0.0014676668795851188,0.0,200,0.18268728256225586,0.826095995296061,0.7081285099837001,5600,0.37739624098501706,0.0
28,1.3471555709838867,0.07201145107527251,0.04546500864658161,0.1475216699348045,0.03305091596808099,0.0,0.130290000474236,0.1,0.09945130348205566,0.040097713470458984,0.050109994,1.749856,0.11059531257185821,0.0,0.0014356638992302157,0.0,200,0.07434678077697754,0.5523563228712394,0.3789139485845679,5800,0.22774907501259065,0.0
29,1.1565666198730469,0.09933899633770221,0.08482428129627548,0.2398162320350231,0.01647629479525572,0.0,0.13011342349608299,0.1,0.055255889892578125,0.04062366485595703,0.0487129,1.9217973,0.10946968094844262,0.0,0.0019741067535448287,0.0,200,0.25029754638671875,0.5074198164780471,0.5378317813155261,6000,0.3050498320739575,0.0
30,1.370253086090088,0.1452028617381509,0.1028665438300398,0.29919978322092144,0.019161121085964537,0.0,0.1403044379547445,0.1,0.015529155731201172,0.0455632209777832,0.049798414,0.8694165,0.11304299902741345,0.0,0.002849165291876021,0.0,200,0.31580138206481934,0.5910318474703947,0.5180413953117693,6200,0.34798360660799865,0.0
31,1.2788949012756348,0.21482899691361085,0.13842302297889528,0.45370863810638773,0.11590331548805788,0.0,0.14418989536863003,0.1,0.13166117668151855,0.04513359069824219,0.04981792,1.3544289,0.1232215988160332,0.0,0.0042407195087593155,0.0,200,0.295806884765625,0.5796669054775396,0.45354318126329135,6400,0.46459500532448156,0.0
32,1.2459707260131836,0.10830254418306734,0.03743368156347628,0.138287079550821,0.044118956787222996,0.0,0.13619785233974907,0.1,0.13416838645935059,0.048612117767333984,0.05019925,0.85630095,0.12172969335273662,0.0,0.0021365386046928257,0.0,200,0.048657894134521484,0.2905934260967225,0.46993830645175033,6600,0.5105084257537137,0.0
33,1.2583346366882324,0.190846567761537,0.14667105178289538,0.4338064831121505,0.04302969439490379,0.0,0.13531899847896453,0.1,0.13699102401733398,0.14561772346496582,0.04886728,1.05652,0.12864138079361664,0.0,0.0037767439340186783,0.0,200,0.2176041603088379,0.4605847846288944,0.4469873985556939,6800,0.37748629941168493,0.0
34,1.2709290981292725,0.09859100883073496,0.045196346534023414,0.16956388443244724,0.05277729428792729,0.0,0.13889543651124397,0.1,0.04670381546020508,0.042383432388305664,0.05031843,0.8854239,0.12563634359732848,0.0,0.0018980464638867162,0.0,200,0.3148844242095947,0.8030093410934308,0.7117534349513043,7000,0.33682835568267716,0.0
35,1.4067397117614746,0.15783668899335124,0.07568444157428235,0.23437294023327176,0.08164121920550207,0.0,0.14232529025797686,0.1,0.13662028312683105,0.04250955581665039,0.050120994,0.948611,0.12885637813693077,0.0,0.003109051056020857,0.0,200,0.18504714965820312,0.2769333559149359,0.2747679375045974,7200,0.31360888972120055,0.0
36,1.2962944507598877,0.15018750890303456,0.11807096727244175,0.33911155072621857,0.020053873277810323,0.0,0.12464442964855552,0.1,0.0023496150970458984,0.04446721076965332,0.048844434,2.3945434,0.13098949121354114,0.0,0.002931776401069422,0.0,200,0.2571702003479004,0.4743813656684672,0.47013445525091685,7400,0.3870048529671651,0.0
37,1.2836554050445557,0.07645400412957998,0.06541473440128837,0.18827804578161073,0.02794351059503794,0.0,0.13868789697534123,0.1,0.0021893978118896484,0.04061245918273926,0.04932748,1.4041141,0.12553594250514505,0.0,0.0014406264082186195,0.0,200,0.14741206169128418,0.8923392427640714,0.7381726270892173,7600,0.3970080538386725,0.0
38,1.2317843437194824,0.12294826360456218,0.0711923699382383,0.2089342890706831,0.04365297361346734,0.0,0.13720737216266576,0.1,0.002203226089477539,0.03978228569030762,0.04946207,0.8995207,0.12527717461508678,0.0,0.0024407875196661042,0.0,200,0.17927885055541992,0.3593210005355852,0.34538512424419554,7800,0.5978474927131792,0.0
39,1.2394778728485107,0.15277886314899883,0.07399702247245635,0.2046342209121629,0.025009525903475164,0.0,0.14434393838098294,0.1,0.13577747344970703,0.2812082767486572,0.050672647,0.72883207,0.128027343468478,0.0,0.0030272493689892164,0.0,200,0.13318610191345215,0.3210100197901004,0.3220236261605651,8000,0.6196747924361999,0.0
40,1.1196517944335938,0.15449479880966185,0.06873554280650179,0.24912861715290394,0.06769524897429172,0.0,0.1387719887379046,0.1,0.002335786819458008,0.04423069953918457,0.050616898,1.1277716,0.1306740890025964,0.0,0.00295555861074041,0.0,200,0.04573798179626465,0.32082015468758074,0.282095359328029,8200,0.6524021412053135,0.0
41,1.2262201309204102,0.2618027545804691,0.13122940551495332,0.4150114459281666,0.07392252967791609,0.0,0.14159706123962243,0.1,0.13793516159057617,0.7026715278625488,0.050282527,0.9404899,0.14378695556038368,0.0,0.0051643985598231685,0.0,200,0.3094472885131836,0.5000272951154068,0.3987993585137916,8400,0.6143844782383,0.0
42,1.335606336593628,0.23979944694139865,0.04381227802298064,0.2888330268107667,0.16922972598791164,0.0,0.13306856463562525,0.1,0.0020456314086914062,0.04495072364807129,0.05027643,0.6958089,0.1533882046984852,0.0,0.0046276268796015835,0.0,200,0.28971076011657715,0.2280100132631487,0.12021670727364471,8600,0.5345072807743075,0.0
43,1.2951929569244385,0.2751914833018717,0.04832406514165742,0.35442965176508623,0.23285236125995915,0.0,0.1391676854467572,0.1,0.0019631385803222656,0.039920806884765625,0.05026506,0.7144659,0.16556853255882384,0.0,0.005448910042107969,0.0,200,0.10979199409484863,0.1794373167342201,0.17402091605379588,8800,0.5733662153702351,0.0
44,1.3129990100860596,0.2505496258629839,0.15006390060592034,0.45885202273687603,0.10219218400332593,0.0,0.1351903535451679,0.1,0.002019166946411133,0.039782047271728516,0.050236486,1.2515733,0.17406664188923984,0.0,0.0048823787223940636,0.0,200,0.14896678924560547,0.358590548988088,0.36045945984787775,9000,0.6699088786276629,0.0
45,1.3007354736328125,0.16795646771737754,0.11967498938834978,0.28956243490038586,0.04602305561450183,0.0,0.1359170749003943,0.1,0.0456845760345459,0.04524564743041992,0.04973068,1.1071982,0.17345562447205362,0.0,0.003329593172782054,0.0,200,0.1201333999633789,0.8366668106268387,0.5483983338169208,9200,0.6944211934919943,0.0
46,1.6535813808441162,0.1893307776812737,0.09394721135259455,0.349956993077618,0.11584687278239346,0.0,0.1347824637496567,0.1,0.0026521682739257812,0.04185986518859863,0.049189534,1.3098048,0.17504313979297564,0.0,0.0037450937446424906,0.0,200,0.28522825241088867,0.28539216292564995,0.22494788224556733,9400,0.5719238899747927,0.0
47,1.2167718410491943,0.17820875457327187,0.07013093700180162,0.2925071526704903,0.10204788842095337,0.0,0.13620315937735678,0.1,0.0024309158325195312,0.04160761833190918,0.049802132,1.7630192,0.17535970127100528,0.0,0.0034770005602673872,0.0,200,0.17585539817810059,0.17526389063546963,0.18043699080318357,9600,0.48848412787909196,0.0
48,1.3094935417175293,0.28918438478694064,0.1390664196608546,0.47486148157460767,0.10087558073856268,0.0,0.13712767107230572,0.1,0.0030090808868408203,0.0675818920135498,0.05044714,1.3802742,0.18674216962259882,0.0,0.005732450151792159,0.0,200,0.08694958686828613,0.4106126844052064,0.3932302707968232,9800,0.6394197650469519,0.0
49,1.2652041912078857,0.2605277596532525,0.11052901078321371,0.3719974778103176,0.09568124321979726,0.0,0.13682118561807152,0.1,0.15329599380493164,0.09223151206970215,0.04988829,1.0387572,0.1941207286256642,0.0,0.005139890394024577,0.0,200,0.1622328758239746,0.36027255475575376,0.30653492324846177,10000,0.6901027351535006,0.0
50,1.3028483390808105,0.22578937193010626,0.1265199559884258,0.3846494626756516,0.06081894831795282,0.0,0.13326037712502692,0.1,0.002429962158203125,0.041432857513427734,0.049734283,1.0884897,0.19728759295610843,0.0,0.004462722185016852,0.0,200,0.2756197452545166,0.32698498035149204,0.29540820179729604,10200,0.6245389526387007,0.0
51,1.3234822750091553,0.23998414024015888,0.13119183234693202,0.3938837915992446,0.09513875090775707,0.0,0.1339704093805815,0.1,0.002475261688232422,0.04618549346923828,0.049659986,1.0519423,0.2015572476845135,0.0,0.00467034232157583,0.0,200,0.07599043846130371,0.29891044014924695,0.3036435833137764,10400,0.5434047689273341,0.0
52,1.2084267139434814,0.10575092076232351,0.05256531997313744,0.16296371787697828,0.04574827312439311,0.0,0.13745860531875195,0.1,0.002044677734375,0.04005765914916992,0.04987192,1.0280291,0.19197661499229451,0.0,0.002096607026680914,0.0,200,0.29566121101379395,2.5319207177409204,1.6548690331820983,10600,0.43270035361936815,0.0
53,1.3246731758117676,0.2166751946671644,0.13293312023407572,0.43236882762015005,0.08963647013063451,0.0,0.13678122316120767,0.1,0.0020172595977783203,0.04681563377380371,0.049327713,1.2510862,0.1944464729597815,0.0,0.004193409162803643,0.0,200,0.11133313179016113,0.3270453260238609,0.3398579620049754,10800,0.4239678941996907,0.0
54,1.2900519371032715,0.23234644937074825,0.051820771594201426,0.30934141130776793,0.17721682626578195,0.0,0.1336028442657472,0.1,0.14029765129089355,0.13497066497802734,0.04967593,1.1931683,0.1982364706008782,0.0,0.004559189225702122,0.0,200,0.29897642135620117,0.15191382664565692,0.16508402777875897,11000,0.5256611837858646,0.0
55,1.354081153869629,0.22874585286755836,0.0738044925821431,0.31075075556497045,0.11297561352174151,0.0,0.13865730287563657,0.1,0.011734247207641602,0.038683414459228516,0.05016642,0.84526986,0.20128740882754623,0.0,0.004448729059536648,0.0,200,0.28600358963012695,0.22410813849691996,0.18614440307519534,11200,0.6007819866006031,0.0
56,1.2759342193603516,0.2960437850334298,0.07344988156300963,0.4023769039699701,0.1999796363432615,0.0,0.1286556179462108,0.1,0.02922677993774414,0.040323734283447266,0.04879518,1.1011553,0.2107630464481346,0.0,0.00578704299653863,0.0,200,0.1499035358428955,0.24582057654497666,0.18049457573388472,11400,0.5792987599174012,0.0
57,1.3166453838348389,0.231116175383142,0.2683591056480364,0.6926677649228394,0.04564849304640764,0.0,0.13087764697292795,0.1,0.12110257148742676,0.07857489585876465,0.049841385,2.1262755,0.21279835934163535,0.0,0.004496850628094902,0.0,200,0.30242180824279785,0.6234822847188174,0.6302931597277132,11600,0.5093988476686083,0.0
58,1.257328748703003,0.21057887285851562,0.0785842732904994,0.29450272960585505,0.08168686468623759,0.0,0.1396343290001432,0.1,0.0024156570434570312,0.04004311561584473,0.05007711,0.83013,0.2125764106933234,0.0,0.004182177672813406,0.0,200,0.1288752555847168,0.2684416754229374,0.2632056479867401,11800,0.47894792370412115,0.0
59,1.3480770587921143,0.2118777624621151,0.05792654591201708,0.2639390796932081,0.11371171575655557,0.0,0.13471403990546477,0.1,0.03941774368286133,0.0408480167388916,0.050576437,1.759062,0.21250654587020257,0.0,0.004198717303121581,0.0,200,0.22045326232910156,0.26087074248171993,0.18531056166149162,12000,0.5623493714805622,0.0
60,1.4106805324554443,0.1341596971819152,0.0769583899148363,0.23685176599545474,0.040331856463246295,0.0,0.1300236795067468,0.1,0.1503458023071289,0.3012869358062744,0.05066376,1.5989404,0.20467186100137386,0.0,0.0026108753268344947,0.0,200,0.10263252258300781,0.7432283387673473,0.5064423168331132,12200,0.5368531859758107,0.0
61,1.3283724784851074,0.29953553567136015,0.1789636430846128,0.5373067450599639,0.09381763282725286,0.0,0.13610928453369775,0.1,0.032276153564453125,0.04638218879699707,0.04983789,0.94886506,0.2141582284683725,0.0,0.005900998391513488,0.0,200,0.298569917678833,0.39072327049137895,0.4037231525479259,12400,0.5186243225833821,0.0
62,1.3316359519958496,0.3372592236921296,0.10593252546273386,0.45876030145017804,0.1677882835509205,0.0,0.13101082480716728,0.1,0.02994370460510254,0.04042196273803711,0.050531372,0.9990032,0.22646832799074823,0.0,0.006681924908806559,0.0,200,0.1961073875427246,0.33029220584996744,0.2709327334140949,12600,0.4878926618691954,0.0
63,1.3695743083953857,0.19073434622569932,0.1298934518647534,0.4039801154552852,0.06348809422639166,0.0,0.1287495681725235,0.1,0.0023081302642822266,0.12537860870361328,0.04996771,1.6628404,0.22289492981424336,0.0,0.0038027933660328933,0.0,200,0.2859385013580322,0.39689450508145013,0.437280912217654,12800,0.4468539371138942,0.0
64,1.3720149993896484,0.2650622446443909,0.05344189627005039,0.3568198340388537,0.22685482251441375,0.0,0.13398368278367284,0.1,0.0026879310607910156,0.03864765167236328,0.05058593,0.98500556,0.22711166129725813,0.0,0.005214331078477897,0.0,200,0.15177154541015625,0.11590226971245148,0.10741589727820965,13000,0.5328854563002622,0.0
65,1.2327311038970947,0.21069650933204867,0.089690478957021,0.36153023405340556,0.1357285723230144,0.0,0.1272321401604938,0.1,0.0022172927856445312,0.311704158782959,0.048942022,1.4670036,0.22547014610073718,0.0,0.004150523946927441,0.0,200,0.14686298370361328,0.3037486165877406,0.27870318972105707,13200,0.564262890418744,0.0
66,1.3350324630737305,0.22935847535306647,0.1154985456366916,0.34836064117509297,0.03908342578525956,0.0,0.12584976153075184,0.1,0.002330303192138672,0.04022336006164551,0.049846057,0.8574533,0.2258589790259701,0.0,0.004570288670304772,0.0,200,0.1491556167602539,0.2680372406724383,0.2402790797912792,13400,0.5691207347107935,0.0
67,1.2739803791046143,0.28425325751676955,0.2305831978320943,0.6411302719663777,0.06840752789426947,0.0,0.1287626726881723,0.1,0.0022890567779541016,0.10081028938293457,0.050093986,1.6621432,0.23169840687505006,0.0,0.005552264630667066,0.0,200,0.15404629707336426,0.44818845054539325,0.44665552616379056,13600,0.49881853150623723,0.0
68,1.2356643676757812,0.3606041001597793,0.15150974871873826,0.4915577464958848,0.11104808784060137,0.0,0.13823572914352716,0.1,0.002155780792236328,0.04123878479003906,0.05009665,0.8362016,0.244588976203523,0.0,0.007081061474304718,0.0,200,0.14292454719543457,0.31426828449697175,0.26758124593067895,13800,0.4493028293059493,0.0
69,1.3653597831726074,0.40064482759614917,0.1441458231820399,0.5643174197833984,0.17628074360832502,0.0,0.12905598536351073,0.1,0.0022459030151367188,0.04241299629211426,0.05011933,0.99446315,0.2601945613427856,0.0,0.007728849916141117,0.0,200,0.2590782642364502,0.2769416016458327,0.1784446715832461,14000,0.39023464171081473,0.0
70,1.3398187160491943,0.2937601226692387,0.16104490350685255,0.4799815370354963,0.036061736143128964,0.0,0.13339042089292927,0.1,0.0022008419036865234,0.04205822944641113,0.050079685,0.9300452,0.2635511174754309,0.0,0.005747699376424503,0.0,200,0.18796586990356445,0.2996108152231808,0.35400549273895016,14200,0.5774844372188872,0.0
71,1.4931013584136963,0.22314695135289223,0.11780549765991835,0.3561920653135266,0.08894738820338827,0.0,0.1265158913624753,0.1,0.002540111541748047,0.04283595085144043,0.049122248,1.3129761,0.25951070086317707,0.0,0.0043516747484234715,0.0,200,0.13720369338989258,0.718440412819244,0.44468814749320973,14400,0.4350042601719873,0.0
72,1.4178752899169922,0.515818934607146,0.2544667745775788,0.8659163190164498,0.16432433599487417,0.0,0.1327045581962055,0.1,0.09232640266418457,0.041090965270996094,0.049770642,1.0890461,0.285141524237574,0.0,0.010035393520143253,0.0,200,0.21769380569458008,0.3484211002656964,0.34860999041832214,14600,0.5191496907430108,0.0
73,1.4227652549743652,0.45247066590814833,0.13436216291825237,0.600715963415315,0.2805339154412513,0.0,0.13244146096345005,0.1,0.0020809173583984375,0.039769649505615234,0.050661933,0.84853876,0.30187443840463146,0.0,0.008604951563590391,0.0,200,0.3014535903930664,0.20816201826170033,0.16841642189535153,14800,0.35648117023626663,0.0
74,1.410327672958374,0.284899639424811,0.08815212747946367,0.4333812649315308,0.206731666461316,0.0,0.1334576286945107,0.1,0.09183883666992188,0.298785924911499,0.048888903,1.0992347,0.30017695850664944,0.0,0.005605515677586091,0.0,200,0.04204869270324707,0.2678523021595632,0.2907618912425984,15000,0.38668317731040897,0.0
75,1.4256412982940674,0.2941536579378949,0.11075368659151402,0.4384712110166676,0.15483177050758623,0.0,0.1337977279352089,0.1,0.0021202564239501953,0.03991413116455078,0.049243275,0.83510417,0.299574628449774,0.0,0.0057427467358663505,0.0,200,0.2461099624633789,0.2832096288492077,0.21110293265183994,15200,0.32939707949334013,0.0
76,1.396078109741211,0.21750178870790537,0.07077045053699163,0.2956827270150314,0.13988149553445345,0.0,0.13007057965009816,0.1,0.007170677185058594,0.3441932201385498,0.04996484,0.87954086,0.29136734447558715,0.0,0.004273551727450118,0.0,200,0.15920352935791016,0.6048846124723146,0.28460584820248314,15400,0.3656056461239227,0.0
77,1.4529216289520264,0.26211073062151696,0.16494593018244028,0.47362111714569327,0.03274197708240726,0.0,0.13483787997572877,0.1,0.0024318695068359375,0.0452420711517334,0.05000389,1.139351,0.28844168309018015,0.0,0.0051786521706638075,0.0,200,0.06297731399536133,0.3147036644818605,0.3228859976646313,15600,0.3994928109135321,0.0
78,1.405405044555664,0.22813723358975202,0.09857738903843444,0.39452276836013644,0.13753639455605843,0.0,0.12894420573490464,0.1,0.007851362228393555,0.03965878486633301,0.04926248,1.8132536,0.28241123814013736,0.0,0.004466700431613673,0.0,200,0.16297411918640137,0.21200648658029206,0.20381830288514802,15800,0.34002669712828837,0.0
79,1.357724666595459,0.25435389471343717,0.0795657115268878,0.33316973050624993,0.14226205574383002,0.0,0.13243423348268607,0.1,0.007584095001220703,0.04191780090332031,0.049286395,3.14122,0.27960550379746735,0.0,0.00496618074475935,0.0,200,0.30236244201660156,0.17970364445676987,0.17597136589185938,16000,0.3323608977955277,0.0
80,1.246915578842163,0.2693729671751217,0.0567850421386058,0.34122460512570807,0.20641077431108565,0.0,0.1393702699847235,0.1,0.15978074073791504,0.05066061019897461,0.049205728,1.3212645,0.2785822501352328,0.0,0.005225538608345001,0.0,200,0.06789445877075195,0.19094638599329178,0.15075898687019948,16200,0.34671920849513765,0.0
81,1.302361249923706,0.3744222041747272,0.1348653352548043,0.5268454142320526,0.15679807782806585,0.0,0.12723319594299204,0.1,0.14084625244140625,0.2549169063568115,0.04993022,0.8228328,0.28816624553918224,0.0,0.007302460790465903,0.0,200,0.16015028953552246,0.2934299937422702,0.23190900305249748,16400,0.43772792346714967,0.0
82,1.3646912574768066,0.33117847635056097,0.08967026249165949,0.4152129046173755,0.19257086323036,0.0,0.13053569133092938,0.1,0.01150965690612793,0.09289431571960449,0.04971096,0.95835084,0.29246746862032014,0.0,0.006400701668925127,0.0,200,0.13251280784606934,0.1681728223587649,0.12859559081504837,16600,0.5241525767500673,0.0
83,1.4413721561431885,0.36941454598428664,0.1037741910061757,0.5325713987180959,0.2648215054804358,0.0,0.12627235297113437,0.1,0.0024383068084716797,0.0861215591430664,0.04963933,3.3079822,0.3001621763567168,0.0,0.007284112786403431,0.0,200,0.06710481643676758,0.16524456441349533,0.14832470457540642,16800,0.47562877638960693,0.0
84,1.3476223945617676,0.42189043423965633,0.11208118651415407,0.541373344872809,0.25204905671686756,0.0,0.13061917814808402,0.1,0.0022313594818115234,0.04049324989318848,0.049659867,0.9459785,0.31233500214501075,0.0,0.008224474021004428,0.0,200,0.04543757438659668,0.15536498807877486,0.14201809019697675,17000,0.3581847113373959,0.0
85,1.3662867546081543,0.4718212786189436,0.2188182067337404,0.8232262552837346,0.22553037450012367,0.0,0.13058822879483833,0.1,0.03178071975708008,0.040448665618896484,0.050002232,1.368134,0.32828362979240405,0.0,0.009275840024785655,0.0,200,0.1283125877380371,0.26194396140871795,0.2583940995980887,17200,0.4625086585778044,0.0
86,1.4390723705291748,0.34932705530678426,0.18024016980927604,0.6347943456078732,0.13530218786810644,0.0,0.13386143584693969,0.1,0.0023458003997802734,0.0408937931060791,0.050138097,1.0572242,0.3303879723438421,0.0,0.0067792632618857715,0.0,200,0.26882386207580566,0.4664325664494969,0.3143812054075557,17400,0.5034250185391295,0.0
87,1.282691240310669,0.25941946849539177,0.11605323953110719,0.4506195289687221,0.13974767051178807,0.0,0.12930962841205518,0.1,0.002498149871826172,0.04156041145324707,0.050141886,1.631481,0.32329112195899706,0.0,0.005083579326306205,0.0,200,0.15084195137023926,0.5843949420575288,0.2591615385397541,17600,0.44095224974122055,0.0
88,1.4189624786376953,0.4884093672929184,0.14241014281464745,0.6542052748459848,0.34665895247932643,0.0,0.12560445775746756,0.1,0.0023398399353027344,0.040863752365112305,0.049668357,1.0441426,0.33980294649238924,0.0,0.00960381049831872,0.0,200,0.28040075302124023,0.2280041847043671,0.26210345831715554,17800,0.42727199335708366,0.0
89,1.3125782012939453,0.3115256195921599,0.1566724588066557,0.5567563590754738,0.12144581222039443,0.0,0.12837083030275281,0.1,0.002460002899169922,0.03965425491333008,0.050626744,1.3467635,0.33697521380236634,0.0,0.006077834086364411,0.0,200,0.2014145851135254,0.2562577423756044,0.2524816220867415,18000,0.43146210004353164,0.0
90,1.445556879043579,0.2984363850581154,0.17394424370588316,0.49010365526370886,0.030554064499337535,0.0,0.13013337959310337,0.1,0.0020813941955566406,0.04074239730834961,0.049928907,0.8848888,0.3331213309279413,0.0,0.00585675407411421,0.0,200,0.2177438735961914,0.30790879168964,0.3059991878212591,18200,0.4449705533897699,0.0
91,1.397430419921875,0.22324959906873917,0.07865933007017328,0.3024450945366976,0.09717547191681344,0.0,0.12458353468202939,0.1,0.13430070877075195,0.138139009475708,0.05022868,1.3389385,0.3221341577420211,0.0,0.004283785884143061,0.0,200,0.14598464965820312,0.2661557984428473,0.22922491427077246,18400,0.44667342199709564,0.0
92,1.3634862899780273,0.26633415040568,0.14015758887208127,0.4152098358418891,0.04544044967305806,0.0,0.1286474646988882,0.1,0.010922670364379883,0.052391767501831055,0.049887884,1.2236065,0.31655415700838696,0.0,0.005152347163499374,0.0,200,0.287747859954834,0.284389927274947,0.2822957822446539,18600,0.5025778317316814,0.0
93,1.7621092796325684,0.31173445087919,0.13766434129544836,0.5241761656108408,0.17122194441695476,0.0,0.1246173921343878,0.1,0.13614392280578613,0.15024924278259277,0.050531767,0.97718984,0.3160721863954673,0.0,0.0061090887551587415,0.0,200,0.08136677742004395,0.20182567493132245,0.1979374456361458,18800,0.6563299388167422,0.0
94,1.3028745651245117,0.39417072275516396,0.20883522389310571,0.6721755765702946,0.12011620739227569,0.0,0.1299647383061648,0.1,0.0027005672454833984,0.04589033126831055,0.050278645,1.2662603,0.32388204003143695,0.0,0.0076963974030735405,0.0,200,0.045050621032714844,0.3404841772619462,0.3132146251050793,19000,0.5402414384246467,0.0
95,1.3284797668457031,0.35281482476946463,0.14336516391690662,0.5387772473845509,0.13858790068867433,0.0,0.1281604160591278,0.1,0.0022673606872558594,0.03986310958862305,0.049600855,1.3372515,0.3267753185052397,0.0,0.00700543019517876,0.0,200,0.13534259796142578,0.21330931473743922,0.20086412151922017,19200,0.580764178959286,0.0
96,1.408224105834961,0.48588774482572544,0.13320183284197099,0.6337285398082829,0.28088104260579055,0.0,0.12386575928256867,0.1,0.002193450927734375,0.04131722450256348,0.050254907,1.3648582,0.3426865611372883,0.0,0.009587462968986903,0.0,200,0.15866994857788086,0.22099452197283848,0.1710109478665546,19400,0.5623324773368258,0.0
97,1.4418628215789795,0.40104935996026325,0.11102550562762448,0.5736166682117592,0.2925503309700924,0.0,0.12913218127872977,0.1,0.002628803253173828,0.046938419342041016,0.049840737,1.3341414,0.3485228410195858,0.0,0.007827201166603605,0.0,200,0.04036688804626465,0.12190874581965087,0.12271592378513936,19600,0.6560829606679424,0.0
98,1.3223094940185547,0.42680113453598423,0.17689176757823807,0.6266839416261029,0.22842129823589422,0.0,0.12684690097697945,0.1,0.14805984497070312,0.07795333862304688,0.049935665,1.2520529,0.3563506703712257,0.0,0.008389854551233462,0.0,200,0.15930724143981934,0.18274636074032388,0.181549935029317,19800,0.7105925541247197,0.0
99,1.3645474910736084,0.5707615502840517,0.14666610375714004,0.7052189622864717,0.3246280424864067,0.0,0.1331400750758804,0.1,0.08450698852539062,0.040801286697387695,0.050737455,0.94892985,0.37779175836250833,0.0,0.011183648827325065,0.0,200,0.1551215648651123,0.14269867306970532,0.11834130993865266,20000,0.39750375146563705,0.0
100,1.457995891571045,0.35272151797737883,0.13708808303554393,0.5573608728268523,0.21714665317442278,0.0,0.12660821366185587,0.1,0.015511512756347656,0.04472184181213379,0.049782377,1.3313501,0.3752847343239954,0.0,0.006929702727600646,0.0,200,0.12865233421325684,0.3310975500730881,0.2747050387099521,20200,0.5878122055490068,0.0
101,1.3148541450500488,0.3009912591972219,0.1530829761852461,0.534196795915268,0.15738418763625678,0.0,0.12560619168247975,0.1,0.04276895523071289,0.04161882400512695,0.049933586,2.2358954,0.3678553868113181,0.0,0.005932618758871958,0.0,200,0.14356374740600586,0.605067962279661,0.3407427532537628,20400,0.6727769320960412,0.0
102,1.4660398960113525,0.4303449104150005,0.16733536149486708,0.696261800262951,0.2386261435302129,0.0,0.13507189735952416,0.1,0.002407073974609375,0.04310464859008789,0.050467547,1.1810731,0.3741043391716863,0.0,0.008365203462722586,0.0,200,0.10074138641357422,0.1952213815188025,0.22859572875814313,20600,0.6948674552757733,0.0
103,1.3587663173675537,0.3910656980927832,0.23749167599315305,0.7571230908272685,0.11800797337430646,0.0,0.1342556012552152,0.1,0.023228168487548828,0.0465846061706543,0.05039236,1.1314104,0.375800475063796,0.0,0.0075816416942226395,0.0,200,0.08428955078125,0.3383266947573004,0.3189675248506725,20800,0.7340231877357476,0.0
104,1.3908429145812988,0.46609733206435666,0.08484660914982012,0.5446661616369832,0.33764378663277717,0.0,0.1241758889164926,0.1,0.0022025108337402344,0.0401606559753418,0.049904555,1.9494333,0.38483016076385207,0.0,0.009082599827960117,0.0,200,0.1725146770477295,0.14462786168729044,0.12260197834551248,21000,0.5623177429023504,0.0
105,1.4080288410186768,0.2942317796146095,0.06121681144052482,0.3562359119794611,0.2245593626202994,0.0,0.13894943227789827,0.1,0.010635852813720703,0.04336261749267578,0.05019336,0.88185644,0.3757703226489278,0.0,0.005787391860308645,0.0,200,0.15418553352355957,0.17765643738442075,0.18903770311153809,21200,0.6898624636776626,0.0
106,1.4602091312408447,0.3307371658620657,0.10544495642921324,0.45332686311859527,0.19018463010925554,0.0,0.12850985015774388,0.1,0.002527952194213867,0.04652810096740723,0.050005935,1.0289857,0.37126700697024156,0.0,0.006396493642255754,0.0,200,0.07573294639587402,0.15732468456761128,0.1470985069045617,21400,0.5928296423658336,0.0
107,1.5294442176818848,0.47358251268216367,0.13832822869762215,0.6271337493883863,0.3178051789804892,0.0,0.13127289227501,0.1,0.14525246620178223,0.03983449935913086,0.04927456,0.787563,0.38149855754143375,0.0,0.009287552002309353,0.0,200,0.23785877227783203,0.19652290615443802,0.19158071981186406,21600,0.6025059671487404,0.0
108,1.5486209392547607,0.37132366510481585,0.11322437249718798,0.5150872241263238,0.19853703771283862,0.0,0.13202673674144044,0.1,0.015181779861450195,0.11108684539794922,0.050399676,0.9228365,0.38048106829777195,0.0,0.007284991004811109,0.0,200,0.2799229621887207,0.14403807088562323,0.142091250494249,21800,0.5971181664505487,0.0
109,1.4919617176055908,0.34591590500857455,0.10595026564860859,0.43474695840458744,0.16687437116274426,0.0,0.12738461647379706,0.1,0.0021164417266845703,0.03954195976257324,0.04979951,1.0475106,0.37702455196885226,0.0,0.0068359965972619036,0.0,200,0.2749655246734619,0.16857379326755395,0.1657262376956561,22000,0.619551969389612,0.0
110,1.5118398666381836,0.49049922447429584,0.041541900001957774,0.5251417033392106,0.42319903576243345,0.0,0.12171198830101795,0.1,0.08819985389709473,0.04090452194213867,0.049352862,1.5813392,0.3883720192193967,0.0,0.009591374777222099,0.0,200,0.22313690185546875,0.12264215443055004,0.10214034937909648,22200,0.6248630695299555,0.0
111,1.4373583793640137,0.33780419161742997,0.17655383992913518,0.5912601971144417,0.1550710875756771,0.0,0.13127556749936403,0.1,0.0026810169219970703,0.04698014259338379,0.049217377,1.6040442,0.3833152364592,0.0,0.006567176665108344,0.0,200,0.23271632194519043,0.258204453318563,0.26716039080073223,22400,0.6977547976876274,0.0
112,1.4587485790252686,0.27673303771044244,0.08666347396999406,0.41417619609188416,0.17771293293912896,0.0,0.1337788125302684,0.1,0.14672231674194336,0.466381311416626,0.04940091,0.9612921,0.37265701658432426,0.0,0.00539235865147754,0.0,200,0.30565571784973145,0.32540684196877556,0.25109686303541773,22600,0.5248094813702647,0.0
113,1.4593205451965332,0.22788184555304347,0.12550636870631537,0.40009389897132136,0.06261799931642138,0.0,0.1353070547464213,0.1,0.012667179107666016,0.04528927803039551,0.050040625,1.0205901,0.3581794994811962,0.0,0.004474264396396992,0.0,200,0.08513760566711426,0.5862088814327044,0.37904695167113217,22800,0.6451240636133776,0.0
114,1.4330041408538818,0.4233421478344414,0.09530042234014682,0.5215899561630581,0.2685986489731649,0.0,0.13031058133388254,0.1,0.0022974014282226562,0.04040884971618652,0.049219865,1.0035827,0.36469576431652073,0.0,0.00823446293194309,0.0,200,0.1563265323638916,0.1636094054933403,0.18015713667580582,23000,0.8004675175718363,0.0
115,1.462587594985962,0.35236394213414235,0.1730794357406196,0.5898400423642985,0.12128005891486378,0.0,0.13008279018971997,0.1,0.11401510238647461,0.041449785232543945,0.049521238,1.2773085,0.3634625820982829,0.0,0.006834733459704227,0.0,200,0.07854175567626953,0.2545911406619023,0.2393990136586239,23200,0.8041826620548823,0.0
116,1.3713645935058594,0.4762006816054719,0.09261832914945747,0.5737446617344223,0.3280323791341967,0.0,0.12238902303316153,0.1,0.0021593570709228516,0.03941917419433594,0.049774956,1.1525177,0.37473639204900183,0.0,0.009281329064684339,0.0,200,0.2926909923553467,0.21978698126076926,0.16767193913077286,23400,0.8872564901388259,0.0
117,1.4893996715545654,0.35735832343479523,0.13435177904033327,0.4779416424745831,0.13582456684344987,0.0,0.12316397697522154,0.1,0.12317109107971191,0.16094064712524414,0.050332084,0.87660676,0.3729985851875812,0.0,0.0069188102526444575,0.0,200,0.2918968200683594,0.1799815281079423,0.19318391864160528,23600,0.7245595055195037,0.0
118,1.5073997974395752,0.2734325590680267,0.08917424946578133,0.3956226704908804,0.1446810646118264,0.0,0.13170662573066905,0.1,0.0021238327026367188,0.03977346420288086,0.050632857,1.1439036,0.3630419825756258,0.0,0.005271238392684718,0.0,200,0.14687657356262207,0.24673720813501693,0.23794217163040743,23800,0.6506478812709167,0.0
119,1.5745294094085693,0.5250656096814399,0.22554271331187306,0.8301053789423772,0.1936147579197797,0.0,0.1310941851108244,0.1,0.002216339111328125,0.04543137550354004,0.0498443,1.1370448,0.3792443452862072,0.0,0.010190889844432819,0.0,200,0.07089614868164062,0.24579953354624437,0.23980121703066687,24000,0.43728452017229696,0.0
120,1.3839561939239502,0.39344561097799274,0.23474672463241186,0.7549707569573402,0.1263248127262378,0.0,0.13095328349967086,0.1,0.002316713333129883,0.039014339447021484,0.049516473,1.2771347,0.38066447185538577,0.0,0.007608169743377833,0.0,200,0.308305025100708,0.32596967650736325,0.3232972444658725,24200,0.6560754491228397,0.0
121,1.485877513885498,0.41913666322504933,0.08302958243544954,0.5379090928063388,0.3039578166035129,0.0,0.13288091198309313,0.1,0.0023283958435058594,0.039699554443359375,0.050186742,0.92154586,0.3845116909923521,0.0,0.00819885061703654,0.0,200,0.1292567253112793,0.08700225671885141,0.08029037638071958,24400,0.8832799951061568,0.0
122,1.5096263885498047,0.28515412918012994,0.162440457950703,0.4949729931216901,0.10373520930435255,0.0,0.14085315293323428,0.1,0.0023567676544189453,0.04534578323364258,0.0504984,0.9891026,0.37457593481112994,0.0,0.005601257190261512,0.0,200,0.0480198860168457,0.43385444570284976,0.3644537783039731,24600,0.9454864929170587,0.0
123,1.5015413761138916,0.35989100938667884,0.1599774467835387,0.5820738312890271,0.2028715775196343,0.0,0.12789762794403925,0.1,0.14679694175720215,0.07040095329284668,0.049790025,1.1340842,0.3731074422686848,0.0,0.0069017605393409814,0.0,200,0.16145682334899902,0.19479664555455095,0.19155015065036535,24800,0.6028894035902465,0.0
124,1.5519921779632568,0.34736329719668835,0.1695235915694935,0.6288125106920969,0.1835160807050313,0.0,0.12418933080370845,0.1,0.014854907989501953,0.0423429012298584,0.049838334,1.3520269,0.37053302776148517,0.0,0.0067361478805540815,0.0,200,0.10160541534423828,0.18985172697240713,0.19167405686313707,25000,1.0323987673192507,0.0
125,1.5707707405090332,0.36862082222612474,0.17658410163160052,0.6177781370422307,0.14803505954424573,0.0,0.13128847667661647,0.1,0.0024733543395996094,0.04548978805541992,0.049949896,1.024062,0.3703418072079492,0.0,0.007153630744134531,0.0,200,0.14524245262145996,0.22009192672801106,0.2183273240736061,25200,0.990653302926257,0.0
126,1.5328011512756348,0.3720815495560119,0.1761080143489215,0.6114642392521967,0.1851230818878797,0.0,0.12731210530598228,0.1,0.0028951168060302734,0.044382333755493164,0.049609195,2.3156757,0.3705157814427555,0.0,0.0072161322078942,0.0,200,0.13737750053405762,0.25414293507280267,0.2451642509143518,25400,0.7315274250651657,0.0
127,1.5286686420440674,0.38047680575302495,0.19311922899366266,0.7122862204706254,0.23114283381156153,0.0,0.12668252838691033,0.1,0.0021600723266601562,0.039791107177734375,0.049479246,1.8379942,0.3715118838737824,0.0,0.00747455333177402,0.0,200,0.29374265670776367,0.2587566867972144,0.2569034426263813,25600,0.9912501292833545,0.0
128,1.6602544784545898,0.3415073453613867,0.10453535709026389,0.4365890459915874,0.1647324097564914,0.0,0.12513035969570843,0.1,0.0023603439331054688,0.04058718681335449,0.04984544,1.8514318,0.36851143002254283,0.0,0.00650363787095477,0.0,200,0.07381439208984375,0.12026642223044542,0.11971703576448312,25800,1.008715307208187,0.0
129,1.5118937492370605,0.41289010468639525,0.07089477747224728,0.5272276255946635,0.336981945452303,0.0,0.12577931666514955,0.1,0.002463817596435547,0.12042045593261719,0.04977206,1.2520415,0.3729492974889281,0.0,0.007947003333499309,0.0,200,0.27965354919433594,0.0836806880283431,0.07893050510084151,26000,1.0032973790647088,0.0
130,1.334930658340454,0.3446396956611601,0.14915711788075475,0.5736362092586156,0.1584187265564824,0.0,0.13238812731324864,0.1,0.002314329147338867,0.04237771034240723,0.05015559,1.3796744,0.3701183373061513,0.0,0.006727683703471323,0.0,200,0.1529242992401123,0.250312636905179,0.24578501785940435,26200,1.0512743974588952,0.0
131,1.4289262294769287,0.3741316430948018,0.08185383387311357,0.5023166767303837,0.274323577503967,0.0,0.1340031958267764,0.1,0.002148866653442383,0.04089784622192383,0.04986713,1.0208974,0.37051966788501633,0.0,0.007377283944886408,0.0,200,0.28998589515686035,0.09809033708378087,0.08648858629107266,26400,0.9520266925005548,0.0
132,1.3837876319885254,0.2804925588109418,0.046456621307026755,0.3501269323545033,0.22200547708845203,0.0,0.12554069261398804,0.1,0.0022878646850585938,0.04100537300109863,0.049945794,1.6766566,0.3615169569776089,0.0,0.005503466241971883,0.0,200,0.05538821220397949,0.17473420468446013,0.12306857189962711,26600,0.6767418941578925,0.0
133,1.4960579872131348,0.37528500699213074,0.1801459327989484,0.5934279440640614,0.15058288787280688,0.0,0.13215537794780582,0.1,0.002160787582397461,0.040741682052612305,0.049386278,1.32569,0.3628937619790611,0.0,0.007373297955376219,0.0,200,0.23209571838378906,0.23639707937648757,0.24335581485324115,26800,0.8534983646015061,0.0
134,1.4370975494384766,0.34161096741001995,0.1532180835469314,0.5940603086662176,0.18524894196127534,0.0,0.12374816178666344,0.1,0.14451289176940918,0.29250597953796387,0.049655266,1.434174,0.36076548252215696,0.0,0.006676228785546116,0.0,200,0.3080883026123047,0.22339712123818706,0.21961346919963745,27000,0.7644942663519284,0.0
135,1.3962807655334473,0.3357217095188996,0.192901927950551,0.5647187316632185,0.10699527346406526,0.0,0.12261927275305945,0.1,0.13154816627502441,0.07542109489440918,0.050081987,1.742532,0.35826110522183124,0.0,0.006609307661223765,0.0,200,0.16029667854309082,0.2923626393597223,0.28583499929850836,27200,0.8293311631275975,0.0
136,1.3986217975616455,0.44349665651902637,0.2518342410115752,0.8796101845552416,0.29123814353377514,0.0,0.130222540262621,0.1,0.05144643783569336,0.04001760482788086,0.0492683,2.0349953,0.3667846603515508,0.0,0.008719073954097545,0.0,200,0.15561366081237793,0.3505345305908974,0.3252776142401857,27400,0.8321195361839283,0.0
137,1.5538899898529053,0.3689349724671186,0.13962629977834326,0.5141867122086117,0.15798968699394517,0.0,0.12302589976226896,0.1,0.002408266067504883,0.041493892669677734,0.050125424,1.2698444,0.3669996915631076,0.0,0.007156432485136225,0.0,200,0.18396902084350586,0.15494394462026514,0.15541642679719125,27600,0.7835013497718127,0.0
138,1.4744641780853271,0.5954419091278245,0.11784141496911099,0.6974549543699711,0.4088416358225222,0.0,0.13881206406608604,0.1,0.0023741722106933594,0.041274070739746094,0.04990775,0.8561264,0.3898439133195793,0.0,0.011510949370301008,0.0,200,0.1380934715270996,0.18048321743562593,0.13174999867218157,27800,0.8834556229720311,0.0
139,1.555182933807373,0.5418763637625266,0.16363480665428154,0.7888256009480746,0.33370966226761745,0.0,0.13071246190862879,0.1,0.0021555423736572266,0.07882976531982422,0.049821377,1.4135236,0.40504715836387406,0.0,0.010490047383964638,0.0,200,0.1875929832458496,0.14430101342401,0.12002909977911268,28000,0.7891494285044337,0.0
140,1.5218563079833984,0.5361615599147755,0.17749336041525823,0.7523657353624642,0.2589329627978735,0.0,0.12968894457196056,0.1,0.002105236053466797,0.04069256782531738,0.050411366,0.9182457,0.41815859851896425,0.0,0.010464551168809216,0.0,200,0.1483781337738037,0.14070299973764172,0.14532627721343755,28200,1.0450176719270972,0.0
141,1.5432748794555664,0.36723378509863086,0.1266085735573671,0.570644520907697,0.2377112756609506,0.0,0.13387328681844696,0.1,0.07765674591064453,0.04910612106323242,0.049845077,1.0909523,0.4130661171769309,0.0,0.00722903183230723,0.0,200,0.27388453483581543,0.5865062469218473,0.3820222162540891,28400,1.116219167885955,0.0
142,1.556786060333252,0.37649624349463395,0.24997135786573993,0.8058944425998256,0.1925018145511936,0.0,0.12806767863872448,0.1,0.002083301544189453,0.039606571197509766,0.04928844,1.9548618,0.40940912980870126,0.0,0.007421571563569227,0.0,200,0.1585698127746582,0.4558080227684641,0.35048195555861406,28600,0.9428741098515475,0.0
143,1.5560321807861328,0.3969578875805451,0.1664463698952806,0.5931459991482028,0.21481432156424313,0.0,0.13216569716505,0.1,0.0548398494720459,0.040445804595947266,0.05037933,1.2218052,0.40816400558588567,0.0,0.007757519848315844,0.0,200,0.15464091300964355,0.2056205578947556,0.2156236005172199,28800,1.0766114395471928,0.0
144,1.601595163345337,0.3422515008111402,0.15868408077051202,0.5224459284708433,0.13359227158510686,0.0,0.12826822575663205,0.1,0.12392210960388184,0.07031464576721191,0.049887866,1.1392741,0.4015727551084112,0.0,0.006767514593369277,0.0,200,0.10906219482421875,0.19662854156870266,0.19060774150123,29000,0.9027082218329716,0.0
145,1.5599238872528076,0.39040314747130145,0.15739887719560194,0.63181164442656,0.21310008546463327,0.0,0.13303619543328066,0.1,0.13146734237670898,0.09156084060668945,0.05038397,2.0890257,0.40045579434470024,0.0,0.007681205605532353,0.0,200,0.27155041694641113,0.23480695072950275,0.23491648623975023,29200,1.1429428670778352,0.0
146,1.5263409614562988,0.40936849574730183,0.1216009779193982,0.5526312687018295,0.24469530170489048,0.0,0.1302796820688976,0.1,0.0067179203033447266,0.26345276832580566,0.049939975,1.0209805,0.40134706448496044,0.0,0.00804781481217116,0.0,200,0.17775321006774902,0.16312608712338486,0.14934541362577117,29400,1.1180914149556391,0.0
147,1.6806035041809082,0.46809210760071207,0.2755590651886458,0.7509983299402844,0.10672151900527646,0.0,0.13228025128866427,0.1,0.1356508731842041,0.35436391830444336,0.050418917,1.235767,0.4080215687965356,0.0,0.009175472031902571,0.0,200,0.0975947380065918,0.35559154254515063,0.321853154697934,29600,1.1113456581592855,0.0
148,1.5616016387939453,0.41200957927233384,0.158925609073633,0.6483863194118841,0.24956404642034818,0.0,0.1278440554484444,0.1,0.002260446548461914,0.041565656661987305,0.04990594,1.8509102,0.40842036984411545,0.0,0.007962702389381389,0.0,200,0.2009594440460205,0.16794816773133084,0.15464273903209905,29800,0.9784803505641172,0.0
149,1.4929919242858887,0.464341485886443,0.2208817862774829,0.8281351030275788,0.23144125042963226,0.0,0.13241437369687692,0.1,0.034467458724975586,0.045565128326416016,0.05000237,1.5720727,0.41401248144834824,0.0,0.009097977598042015,0.0,200,0.15490341186523438,0.22764162413260522,0.22123262096325647,30000,0.9860500543471943,0.0
150,1.4052178859710693,0.4330493357633942,0.18980502265420102,0.7261400828977151,0.24843018217738674,0.0,0.12123426073647396,0.1,0.002077817916870117,0.03980135917663574,0.050319754,2.091153,0.41591616687985283,0.0,0.008376238224904829,0.0,200,0.2408466339111328,0.21417061449403482,0.2135893369117063,30200,1.0790017554456275,0.0
151,1.5370285511016846,0.4645815553592676,0.10980245076814396,0.579681555380336,0.292099002088087,0.0,0.11852874837126678,0.1,0.0022389888763427734,0.040479183197021484,0.04959362,1.161554,0.4207827057277943,0.0,0.009137607943661322,0.0,200,0.10240864753723145,0.1602256468056677,0.13619973592663867,30400,1.0293335133882502,0.0
152,1.5143656730651855,0.5176283120917825,0.18601260214318735,0.7162568780152584,0.292566378712775,0.0,0.12505827539621275,0.1,0.09914946556091309,0.1285092830657959,0.049819198,0.9292549,0.43046726636419314,0.0,0.010106771646526829,0.0,200,0.15163087844848633,0.17315723457032717,0.17321317972376246,30600,1.1021604074819762,0.0
153,1.5917940139770508,0.5911068398648442,0.18284575869651912,0.7671436759007776,0.30877694969059133,0.0,0.12546429494702674,0.1,0.1354515552520752,0.26004958152770996,0.049823266,1.0304886,0.4465312237142583,0.0,0.011497362647801474,0.0,200,0.3004732131958008,0.16680807972323022,0.14656286746532549,30800,1.0694374538758213,0.0
154,1.5709691047668457,0.3658388982408286,0.23460582222169296,0.6642464693066872,0.11451725551413451,0.0,0.13107752609331844,0.1,0.03373908996582031,0.04136967658996582,0.0497009,1.3650448,0.4384619911669153,0.0,0.0071823885836598475,0.0,200,0.1762845516204834,0.4575016113809844,0.42000623913917196,31000,0.9564813682239954,0.0
155,1.5545172691345215,0.49074043100703796,0.22879309105138348,0.7543497146741737,0.1747863949850095,0.0,0.1281415344042366,0.1,0.13722515106201172,0.09759068489074707,0.04940227,1.0073253,0.4436898351509276,0.0,0.009503476544165581,0.0,200,0.11705613136291504,0.22823275291051323,0.23295866250556344,31200,1.0285734360941376,0.0
156,1.5604627132415771,0.5632411018287558,0.11131659967445687,0.6985139458427061,0.3927917098502999,0.0,0.12802794414822086,0.1,0.0023076534271240234,0.04858207702636719,0.0504355,0.88906723,0.4556449618187104,0.0,0.010970659780200065,0.0,200,0.18370461463928223,0.09996953167678349,0.08661986783006943,31400,1.0432346876743976,0.0
157,1.5831677913665771,0.5709872200484687,0.25483184073685977,0.8570401367558516,0.2816098764598662,0.0,0.1308046438305641,0.1,0.03866171836853027,0.03931403160095215,0.050316647,1.0787777,0.46717918764168626,0.0,0.011117177832640615,0.0,200,0.28333234786987305,0.23011662330686458,0.20770937115328997,31600,1.0597581790368322,0.0
158,1.514296293258667,0.5603209052267026,0.3218610262949774,1.0732780256675356,0.18757060306515574,0.0,0.127015344539384,0.1,0.0022590160369873047,0.04233074188232422,0.049322743,2.3526132,0.4764933594001879,0.0,0.010862934995979841,0.0,200,0.10458588600158691,0.2938204897003823,0.2862982428559184,31800,1.1214424691869402,0.0
159,1.6954855918884277,0.5706006204482077,0.29762937725406957,0.9309818315873188,0.1442878180413113,0.0,0.13707960259949825,0.1,0.0025627613067626953,0.06018257141113281,0.049625088,0.874424,0.48590408550498987,0.0,0.011203806424757651,0.0,200,0.07351946830749512,0.2547480116128348,0.25434202952195073,32000,0.9398758429850474,0.0
160,1.6096129417419434,0.6960874521947873,0.3639856384730272,1.1286434393123344,0.18267894804600635,0.0,0.12944030564626774,0.1,0.002171039581298828,0.08293437957763672,0.049993087,1.0971897,0.5069224221739697,0.0,0.0136083353294674,0.0,200,0.17028474807739258,0.26998882021786264,0.2562458671505349,32200,0.8059214658262506,0.0
161,1.5961828231811523,0.6336973926730581,0.22223416154639533,0.9067825064945297,0.28720872175396395,0.0,0.1299024538444401,0.1,0.006861209869384766,0.04084515571594238,0.050025158,1.1025883,0.5195999192238785,0.0,0.012389172926417762,0.0,200,0.04616904258728027,0.1293018302342351,0.12592634895442678,32400,0.7017183642976864,0.0
162,1.9639956951141357,0.44515077347369,0.12153239792476084,0.6150043658674514,0.27145162486139407,0.0,0.12471308553539456,0.1,0.002627134323120117,0.040581464767456055,0.050419822,1.0138478,0.5121550046488597,0.0,0.008683087800043557,0.0,200,0.12320542335510254,0.27123959728793345,0.18893201492111003,32600,1.0858784408289588,0.0
163,1.4588687419891357,0.5072713673213141,0.308614505486397,0.9059945015044816,0.19503353114113145,0.0,0.126447176075279,0.1,0.06075906753540039,0.0408785343170166,0.050172478,1.3274258,0.5116666409161051,0.0,0.009929044983508663,0.0,200,0.02246689796447754,0.3474517362382435,0.32355795922600167,32800,0.9669113914555898,0.0
164,1.456035852432251,0.4473163374841751,0.1449929235984645,0.5931028347436172,0.227256678738018,0.0,0.12508416379700382,0.1,0.002238750457763672,0.0412294864654541,0.049782153,1.1415414,0.5052316105729121,0.0,0.008789077675219708,0.0,200,0.06572794914245605,0.14000940055623962,0.15129757611851702,33000,1.123103497429385,0.0
165,1.5882959365844727,0.6077227474919977,0.1379506352054422,0.768517645518508,0.38960431499009873,0.0,0.12550700106070503,0.1,0.0023331642150878906,0.04095816612243652,0.050362814,1.0498981,0.5154807242648207,0.0,0.01190493440734014,0.0,200,0.12808990478515625,0.18063783359388885,0.1314018364002383,33200,1.1209294123264912,0.0
166,1.5597038269042969,0.6592670823864448,0.16790090155010823,0.9456975186204907,0.5180343962435525,0.0,0.12168226487743511,0.1,0.14234614372253418,0.18776583671569824,0.049636923,2.11609,0.5298593600769831,0.0,0.012845199226489292,0.0,200,0.04596710205078125,0.18234784436611257,0.12843228973698412,33400,1.1071843544882645,0.0
167,1.6265087127685547,0.48002973074948085,0.1485982935681523,0.6805620384845699,0.31754807667606677,0.0,0.12979018762523195,0.1,0.0024254322052001953,0.04474639892578125,0.04968323,1.2081186,0.5248763971442328,0.0,0.009298495820605029,0.0,200,0.1485748291015625,0.13428325577533887,0.15923679599790733,33600,0.994393451566067,0.0
168,1.599945306777954,0.4257025897132622,0.14239137593557571,0.6392302517052812,0.28824114838029663,0.0,0.12930417471664732,0.1,0.04776811599731445,0.03892707824707031,0.049378894,1.8418809,0.5149590164011358,0.0,0.008320852867188236,0.0,200,0.12857842445373535,0.2957815721164054,0.2452754446009753,33800,1.1247827870771143,0.0
169,1.5972034931182861,0.5376152383632264,0.07324165423953553,0.6173970670711504,0.4534437422692237,0.0,0.12604223497162162,0.1,0.002051115036010742,0.04471182823181152,0.04980121,0.94204664,0.5172246385973449,0.0,0.01048172519991852,0.0,200,0.2132432460784912,0.06014861964529469,0.05368402118259669,34000,1.1106009875993237,0.0
170,1.5925846099853516,0.5891149241748719,0.24355924645051266,0.891840710110727,0.2120410779044541,0.0,0.13370943152935047,0.1,0.05925130844116211,0.03958916664123535,0.049475342,1.3648291,0.5244136671550976,0.0,0.01149565666134918,0.0,200,0.3009219169616699,0.19281777231156166,0.19437996429827892,34200,1.1703681914667912,0.0
171,1.492943286895752,0.4114193961136844,0.1346394301949062,0.6379922439804615,0.285273328760712,0.0,0.13489404931281412,0.1,0.0023789405822753906,0.04031014442443848,0.049873553,1.1512554,0.5131142400509563,0.0,0.008039562812146154,0.0,200,0.17499327659606934,0.19199065837649634,0.16967643542764074,34400,1.1100582129124896,0.0
172,1.5678129196166992,0.5512916501765056,0.16912581856421077,0.7663422434206344,0.2924282323005453,0.0,0.1254138622891131,0.1,0.0020627975463867188,0.040109872817993164,0.050500818,1.0081257,0.5169319810635112,0.0,0.01076440585758829,0.0,200,0.07295560836791992,0.14315076936880206,0.1459986434120143,34600,1.0169101013098065,0.0
173,1.52183198928833,0.4877098049347334,0.11260243994594367,0.6044603174322345,0.3431836111169967,0.0,0.12960008064728232,0.1,0.002142667770385742,0.03975987434387207,0.049609307,0.9696713,0.5140097634506335,0.0,0.009485662679157573,0.0,200,0.1459944248199463,0.08794759014500594,0.08740705090319342,34800,1.0087329214515195,0.0
174,1.6203210353851318,0.6224483628307771,0.15565810636725405,0.8648115761668947,0.45125519763861544,0.0,0.13341995761723835,0.1,0.0020847320556640625,0.04084372520446777,0.04993575,1.2529986,0.5248536233886479,0.0,0.012135884882831014,0.0,200,0.09242773056030273,0.1699184410593726,0.1393445166475235,35000,0.9569044454074747,0.0
175,1.6076059341430664,0.4107713110321226,0.19175298346971756,0.6176883824185407,0.19538500554360375,0.0,0.1323483144174633,0.1,0.14134740829467773,0.08758044242858887,0.05028161,1.6394386,0.5134453921529953,0.0,0.008002427065508931,0.0,200,0.25118207931518555,0.2601578521340313,0.27793310098795665,35200,1.1057794675410215,0.0
176,1.7241740226745605,0.3967031295408793,0.18901644824970823,0.6459445778312969,0.1314059977942203,0.0,0.12444781510178879,0.1,0.0021414756774902344,0.064178466796875,0.0496842,1.3257788,0.5017711658917837,0.0,0.007733651944657744,0.0,200,0.08638858795166016,0.2959520149075506,0.255316129839103,35400,0.9741535358472935,0.0
177,1.6431341171264648,0.472509791493103,0.15690122400276757,0.5887024705412485,0.20368271645444366,0.0,0.12499355015908793,0.1,0.0025997161865234375,0.046276092529296875,0.050867476,0.7511926,0.4988450284519157,0.0,0.00922733814037051,0.0,200,0.3547177314758301,0.12007421684011833,0.11370092475702138,35600,1.101498435445073,0.0
178,1.5648787021636963,0.4060658975957445,0.12649775582330663,0.5885027562700045,0.27266923712690483,0.0,0.13474133861259968,0.1,0.13832998275756836,0.14583635330200195,0.050256178,1.1697371,0.4895671153662986,0.0,0.007911778639045988,0.0,200,0.16394591331481934,0.13369749047168802,0.12119030633644942,35800,1.1222777790362166,0.0
179,1.608088731765747,0.5353388955597248,0.20494840917372295,0.8206419812086551,0.26959458260704694,0.0,0.12768376083208557,0.1,0.0024204254150390625,0.04086017608642578,0.05040285,1.0655301,0.49414429338564125,0.0,0.010427804152549361,0.0,200,0.13362407684326172,0.18864191263557611,0.18719714621375072,36000,1.0397823501329178,0.0
180,1.8197693824768066,0.22776873530997524,0.10679010194949337,0.410689268637087,0.1520622952275429,0.0,0.12665804746873432,0.1,0.1313948631286621,0.055845022201538086,0.04996516,1.2169526,0.4675067375780747,0.0,0.0044762999484692706,0.0,200,0.3064253330230713,0.7706273220920701,0.6274127071536045,36200,1.0139930613922625,0.0
181,1.5796709060668945,0.4958760153236538,0.05762056487213834,0.5524386236680193,0.4148207579238696,0.0,0.12260230493680306,0.1,0.09184813499450684,0.04137253761291504,0.050386123,1.475276,0.4703436653526326,0.0,0.009661942698100065,0.0,200,0.2438642978668213,0.08324832661779266,0.0956862936305935,36400,1.0826451425578514,0.0
182,1.6906604766845703,0.4531244242013719,0.11359928599803418,0.6090234478043539,0.3034014889456946,0.0,0.127109548778962,0.1,0.0021440982818603516,0.04514718055725098,0.05011219,1.2818391,0.46862174123750655,0.0,0.00885185427435413,0.0,200,0.09333062171936035,0.11981954035757907,0.10671038085589671,36600,1.1151237886683085,0.0
183,1.5130200386047363,0.4825275076485094,0.27300905896896593,0.8389699255167568,0.1810107392048677,0.0,0.13382391328611826,0.1,0.0572812557220459,0.07912039756774902,0.049944047,0.9792149,0.47001231787860687,0.0,0.009363271849406028,0.0,200,0.15485787391662598,0.3074405198921822,0.2862040949100526,36800,1.116618671018596,0.0
184,1.5954861640930176,0.545808732702691,0.1163644392339165,0.7442021680261313,0.4483628807250967,0.0,0.12876528898128878,0.1,0.14307713508605957,0.16677522659301758,0.049756408,1.1444756,0.4775919593610153,0.0,0.01078116293331715,0.0,200,0.09819293022155762,0.12742385194705363,0.0998689006498517,37000,0.37290585054346365,0.0
185,1.7094056606292725,0.2842558460727943,0.1388645931078056,0.4982348492869307,0.11288394175372615,0.0,0.12434084886404861,0.1,0.0076677799224853516,0.09710526466369629,0.04960065,0.9925192,0.45825834803219323,0.0,0.005548663468518246,0.0,200,0.23354554176330566,0.6427832641100986,0.6377589112372466,37200,0.9927602447822851,0.0
186,1.6920874118804932,0.620117835081893,0.08701076816849639,0.7254384571574057,0.49559938956824706,0.0,0.12579684559724374,0.1,0.0022649765014648438,0.05297088623046875,0.050911576,0.80653375,0.4744442967371632,0.0,0.012079181562074461,0.0,200,0.03206205368041992,0.10914632992523896,0.10528810769949842,37400,1.120902179596903,0.0
187,1.551123857498169,0.4768373691305242,0.170855271943605,0.6317922544323606,0.20368918849880496,0.0,0.12741213970448267,0.1,0.002308368682861328,0.04118633270263672,0.050270792,0.9655595,0.47468360397649934,0.0,0.009250395252488875,0.0,200,0.11721086502075195,0.12491973365371163,0.12314004559778503,37600,0.9196706340324182,0.0
188,1.689652681350708,0.6475598076643135,0.20265432131194508,0.973832416758619,0.420206983247308,0.0,0.12416248333852233,0.1,0.0023224353790283203,0.040438175201416016,0.049420267,1.4665843,0.4919712243452808,0.0,0.01268846646397825,0.0,200,0.13064002990722656,0.18299937221166168,0.16448570336692564,37800,0.3010187846265656,0.0
189,1.657158613204956,0.5166307775542256,0.2198462088432223,0.8390628867362843,0.21873442990748335,0.0,0.1247238946803151,0.1,0.0023241043090820312,0.04372143745422363,0.04933483,2.2494879,0.4944371796661753,0.0,0.010075245574425535,0.0,200,0.05824017524719238,0.18168926106785957,0.18266546681716056,38000,0.26679183181917115,0.0
190,1.65692138671875,0.4373556449022967,0.10957626442752592,0.6085675621949094,0.332927928913532,0.0,0.12479321025499378,0.1,0.0022711753845214844,0.04237818717956543,0.050253164,1.4969316,0.4887290261897875,0.0,0.008498082240046242,0.0,200,0.3025808334350586,0.16712838054272502,0.13461855112529947,38200,0.5190707719045056,0.0
191,1.5271215438842773,0.4463092729813873,0.24176843913379126,0.7613032512827613,0.19785609310608293,0.0,0.13708787564695898,0.1,0.015500783920288086,0.14645957946777344,0.05051068,1.066864,0.48448705086894744,0.0,0.008690979601825126,0.0,200,0.1756119728088379,0.29564674028643473,0.2655838751631045,38400,0.9566511218363085,0.0
192,1.6304841041564941,0.34195620937622984,0.18345541178704158,0.5907395282611986,0.12031084316294938,0.0,0.13333380805375056,0.1,0.002403736114501953,0.041197776794433594,0.04931543,1.1923712,0.47023396671967566,0.0,0.00658727049300103,0.0,200,0.07096290588378906,0.35824115469353374,0.3153494300556451,38600,0.7641598177776655,0.0
193,1.591484785079956,0.5033275663877159,0.2496851277741901,0.9079550848218988,0.22902294404109855,0.0,0.1251663340772189,0.1,0.0022020339965820312,0.044812917709350586,0.04908129,1.3697009,0.4735433266864797,0.0,0.009857059130495952,0.0,200,0.054219722747802734,0.2469383690885277,0.24985040309548096,38800,0.1313465318659532,0.0
194,1.5289280414581299,0.42041470203030007,0.25777520749011207,0.8310115488513468,0.16231172624339593,0.0,0.12668340573785847,0.1,0.0022530555725097656,0.040192604064941406,0.05026433,1.2417688,0.46823046422086173,0.0,0.008184289555536753,0.0,200,0.07422113418579102,0.276336110885684,0.2636344991922917,39000,0.2803320298552742,0.0
195,1.518496036529541,0.29188891125535954,0.11584511556008047,0.4253478732864842,0.10614168795245665,0.0,0.12814236716868643,0.1,0.024140596389770508,0.07248091697692871,0.04988508,1.4491944,0.4505963089243115,0.0,0.005729700210358138,0.0,200,0.03969073295593262,0.33508332559884174,0.2882967378503051,39200,0.995234572317429,0.0
196,1.6737897396087646,0.4597689977345961,0.13712249199368767,0.6673925706393642,0.32466300900863726,0.0,0.12626533077407923,0.1,0.0021975040435791016,0.04197072982788086,0.049767807,1.2648777,0.45151357780533996,0.0,0.008837541552888144,0.0,200,0.02757883071899414,0.15594601709124084,0.14673000030220512,39400,0.8346768567166984,0.0
197,1.6984095573425293,0.39431422632497237,0.18172368733811112,0.6770865726318276,0.19549551244480085,0.0,0.12684101342421245,0.1,0.0020761489868164062,0.12300419807434082,0.049894236,1.0465833,0.44579364265730326,0.0,0.007738811344684283,0.0,200,0.04667806625366211,0.19507710730693328,0.1960098135320846,39600,0.9758138258149409,0.0
198,1.7606465816497803,0.6930872287342873,0.23600190623720807,1.0007268107673377,0.36843202917579854,0.0,0.12686736294787002,0.1,0.002245664596557617,0.04128146171569824,0.050061718,0.9935336,0.4705230012650017,0.0,0.013570663920502248,0.0,200,0.17375516891479492,0.2908786603327618,0.2436839236146372,39800,0.6989063275559709,0.0
199,1.617048978805542,0.4143061412564596,0.13086806467964957,0.6108314506237733,0.24758312321927975,0.0,0.12813091557278916,0.1,0.0021712779998779297,0.03918766975402832,0.049547434,1.2073945,0.4649013152641475,0.0,0.008081914697767187,0.0,200,0.10571455955505371,0.15086683073213733,0.17640750325313376,40000,0.6252803319807733,0.0
200,1.6029226779937744,0.5444664765053338,0.4241052434942119,1.146971155925878,0.12899545417412703,0.0,0.12809762657732887,0.1,0.0022487640380859375,0.04089999198913574,0.04969213,1.2731407,0.47285783138826615,0.0,0.010585371432266006,0.0,200,0.11225152015686035,0.41379793050136493,0.40733423719064554,40200,0.6275985249416555,0.0
201,1.6693837642669678,0.3743033128296856,0.19645885085049342,0.6864497086364109,0.1478368012643681,0.0,0.12259793777603649,0.1,0.0022439956665039062,0.04430794715881348,0.048801713,1.8205214,0.46300237953240814,0.0,0.007293780699488945,0.0,200,0.07973623275756836,0.4253959912492598,0.3852847015101357,40400,0.6420075835023075,0.0
202,1.6625792980194092,0.36804278796682466,0.15714207650105846,0.6111021886551699,0.1726338250554204,0.0,0.1241412587342299,0.1,0.002132415771484375,0.03969383239746094,0.048532177,2.2010944,0.4535064203758498,0.0,0.007262060393097632,0.0,200,0.1361989974975586,0.33101835685961756,0.22909673333700412,40600,0.6302740346866911,0.0
203,1.6910839080810547,0.5151816094951073,0.05614938335055755,0.6040400328529758,0.451175432229586,0.0,0.12022842415860628,0.1,0.002329111099243164,0.0817415714263916,0.049742546,1.2179841,0.45967393928777556,0.0,0.010010254165950678,0.0,200,0.14871692657470703,0.05568982319739042,0.07568569627391575,40800,0.5516999405390536,0.0
204,1.6355607509613037,0.5266826452576727,0.21472971261685156,0.7398475132001047,0.1696710778682354,0.0,0.13396428717046066,0.1,0.002210855484008789,0.04056358337402344,0.049916115,0.9711642,0.4663748098847653,0.0,0.010213205987210195,0.0,200,0.14512276649475098,0.2108190564619748,0.20300411106165245,41000,0.565413514453044,0.0
205,1.613722801208496,0.47735211681029976,0.16155997802604707,0.6591097955621397,0.22493016862246137,0.0,0.12000414709607368,0.1,0.032888174057006836,0.03910708427429199,0.049948577,1.2355037,0.4674725405773188,0.0,0.009315366611080468,0.0,200,0.08618474006652832,0.127519721706646,0.1207843533459346,41200,0.6708696104835575,0.0
206,1.7834179401397705,0.48744710126304414,0.2880933954120228,0.7657912831423546,0.040123971304569885,0.0,0.12492613155628596,0.1,0.003031492233276367,0.19868755340576172,0.049708165,0.7952326,0.46946999664589134,0.0,0.009646434845865675,0.0,200,0.15241551399230957,0.29228674191244697,0.29006288763913596,41400,0.8528496570434906,0.0
207,1.6427407264709473,0.5505059109039409,0.30142431616992843,1.0624766369817282,0.28656290785908495,0.0,0.12551719289937083,0.1,0.002448558807373047,0.04528355598449707,0.04999931,1.6534204,0.47757358807169625,0.0,0.010636219553991017,0.0,200,0.04497027397155762,0.2712594876881296,0.2634152389033795,41600,0.919413098258118,0.0
208,1.6024160385131836,0.4283063722410027,0.09877582377382647,0.57032861204279,0.30245565702705135,0.0,0.13021445397198744,0.1,0.11460757255554199,0.044267892837524414,0.049957056,1.1645703,0.47264686648862686,0.0,0.008428852906222289,0.0,200,0.031770944595336914,0.10540802618491982,0.09931048255858319,41800,0.9902409418945085,0.0
209,1.6398921012878418,0.5162791422311326,0.29513116528003946,0.9788868629683444,0.22707635438790827,0.0,0.12907567924453836,0.1,0.002444028854370117,0.04024457931518555,0.049899124,1.5995327,0.4770100940628774,0.0,0.009992581318441135,0.0,200,0.09572601318359375,0.2719585379280089,0.2653399200739135,42000,0.9696395348669512,0.0
210,1.6140625476837158,0.7450936576019868,0.18932970302555116,0.9611497783260672,0.44050183183458697,0.0,0.1279091967153398,0.1,0.0020585060119628906,0.040573835372924805,0.050069313,0.97765875,0.5038184504167884,0.0,0.014508786553554153,0.0,200,0.13985776901245117,0.20041896047209137,0.1434983301855643,42200,1.0029882575237745,0.0
211,1.6859078407287598,0.7605786414225998,0.18650206486637358,1.0484639488982062,0.5648304842321001,0.0,0.12348256852847014,0.1,0.002507448196411133,0.04566550254821777,0.049944196,1.8056842,0.5294944695173696,0.0,0.014803162682825121,0.0,200,0.1311931610107422,0.15825113999934215,0.12172063071013524,42400,1.0467545632272184,0.0
212,1.6383943557739258,0.5631182171165989,0.25777489647905877,0.9425943959259125,0.281713329533305,0.0,0.12081832638642952,0.1,0.011196374893188477,0.03977513313293457,0.04956477,2.3627279,0.5328568442772925,0.0,0.011021337543099715,0.0,200,0.1621243953704834,0.2771948792078188,0.30040071939659,42600,0.8544204548936497,0.0
213,1.6465837955474854,0.5770584882592864,0.23906672571385834,0.9822502944723444,0.3628737756961881,0.0,0.12660843624112716,0.1,0.002125978469848633,0.040873050689697266,0.04986652,1.183496,0.5372770086754919,0.0,0.011236891277409252,0.0,200,0.1452629566192627,0.27240216144839297,0.21060300114223512,42800,0.9222518194469843,0.0
214,1.593268871307373,0.5037092321349877,0.26508313801661854,0.8328003461143606,0.2427715666868082,0.0,0.12383768570186685,0.1,0.13767623901367188,0.18064618110656738,0.049487572,1.4376423,0.5339202310214415,0.0,0.009874781556333215,0.0,200,0.13656926155090332,0.3252582759334159,0.24082601343797852,43000,1.0773964586166345,0.0
215,1.6684424877166748,0.5758601332261004,0.34040010844247515,1.0820327987692773,0.21062754703918873,0.0,0.1319392750095441,0.1,0.010674715042114258,0.047902822494506836,0.04981058,1.2023728,0.5381142212419074,0.0,0.011262104998493214,0.0,200,0.28819894790649414,0.25796877563187776,0.2704236942123922,43200,1.09197392371502,0.0
216,1.6704163551330566,0.3817077755241339,0.24441704312966472,0.7439441348422742,0.15222032335359265,0.0,0.1326953823490616,0.1,0.13672280311584473,0.03999686241149902,0.05004311,0.9647688,0.5224735766701302,0.0,0.007373082573284462,0.0,200,0.15013575553894043,0.39443295113088683,0.35538500730680833,43400,0.6532815542996923,0.0
217,1.718050241470337,0.4944252931697919,0.050460909167075095,0.5489573847704862,0.41407422725674525,0.0,0.11772905291552069,0.1,0.002043485641479492,0.044116973876953125,0.049563717,3.2696173,0.5196687483200964,0.0,0.009685738398517996,0.0,200,0.09523272514343262,0.04372127057166778,0.04951069936374951,43600,0.7068835720984513,0.0
218,1.7238397598266602,0.49236819875350696,0.23902627573032248,0.8554393362447071,0.25108662371287527,0.0,0.11670555068811239,0.1,0.0026941299438476562,0.0466768741607666,0.049932238,2.5611231,0.5169386933634375,0.0,0.009649098134697779,0.0,200,0.08150100708007812,0.22456491579491294,0.22361134874986585,43800,0.7637753850422649,0.0
219,1.6972391605377197,0.5474178183004843,0.14011393260159033,0.6943536715532569,0.3232860193935454,0.0,0.122561248338333,0.1,0.10832810401916504,0.0401914119720459,0.050087996,1.0500221,0.5199866058571422,0.0,0.010780452537491008,0.0,200,0.27960848808288574,0.14335716328047654,0.12404288621905092,44000,0.9145003584956376,0.0
220,1.5976662635803223,0.46555194978283737,0.13357501694253068,0.5626082061303043,0.23570027148300085,0.0,0.12692624388114634,0.1,0.0021436214447021484,0.044862985610961914,0.050214,1.0209291,0.5145431402497117,0.0,0.009119750981334725,0.0,200,0.21969079971313477,0.10372533108947543,0.09758491399837932,44200,1.082496322059597,0.0
221,1.8165748119354248,0.49517386486387494,0.15868502995714268,0.7500496740612518,0.32565599119933125,0.0,0.12848798142009266,0.1,0.14849495887756348,0.0408015251159668,0.050123498,1.464672,0.512606212711128,0.0,0.009612786162250905,0.0,200,0.13141798973083496,0.12649695536454328,0.1255424034838109,44400,1.2263989876042913,0.0
222,1.6857125759124756,0.5946743434028067,0.31370289575256083,1.0083117844161902,0.23983548207594946,0.0,0.12396253690313684,0.1,0.002077817916870117,0.04026055335998535,0.04977148,1.2309228,0.5208130257802959,0.0,0.011649837256307836,0.0,200,0.15691471099853516,0.2790511035889779,0.26638085490996805,44600,1.125650181207871,0.0
223,1.7103075981140137,0.6193917747813198,0.26749818143563425,1.0638338824263214,0.35058499150771666,0.0,0.1243302398020063,0.1,0.0023102760314941406,0.04085564613342285,0.04991283,1.064947,0.5306709006803982,0.0,0.012033961062979217,0.0,200,0.05409860610961914,0.21609080397489425,0.20362242822645502,44800,1.147332455421051,0.0
224,1.6014187335968018,0.43503401170186484,0.11552124171560992,0.5773034424434179,0.28591915179042476,0.0,0.12351422869367253,0.1,0.0023720264434814453,0.04507899284362793,0.049201608,1.616684,0.5211072117825449,0.0,0.008501830238697716,0.0,200,0.15159964561462402,0.27596844380139834,0.23987957817341163,45000,1.0532118294614252,0.0
225,1.6749951839447021,0.5631253367809499,0.18769154474336835,0.7670648689658276,0.33474680526079936,0.0,0.12494213429369593,0.1,0.1317143440246582,0.2637176513671875,0.04987645,1.4936743,0.5253090242823855,0.0,0.011016997373220247,0.0,200,0.15031862258911133,0.12461127041107248,0.12524702251113026,45200,1.0612601009038338,0.0
226,1.7825658321380615,0.7228138610728374,0.2538311940127027,0.9806980926086792,0.351331792556342,0.0,0.1250878174548472,0.1,0.0025637149810791016,0.045378923416137695,0.050390426,1.0787555,0.5450595079614307,0.0,0.014093622526912096,0.0,200,0.0505213737487793,0.18341439533284679,0.17203186092532147,45400,1.1361540965793133,0.0
227,1.770458698272705,0.5771517933338612,0.3149621458909216,1.0678264266077215,0.1888192875087173,0.0,0.12583493719853223,0.1,0.0022013187408447266,0.039853572845458984,0.04990533,1.4964584,0.5482687364986737,0.0,0.011240980540975245,0.0,200,0.267045259475708,0.23452057520073383,0.22885185607764777,45600,1.0271659991280981,0.0
228,1.5411105155944824,0.3871616603908048,0.38553616272076047,1.0477566771704703,0.07684959215230844,0.0,0.13069863598610623,0.1,0.002260923385620117,0.04027223587036133,0.049652662,1.5671576,0.5321580288878868,0.0,0.007602615581966908,0.0,200,0.1522223949432373,0.6431952191272037,0.5983836691595632,45800,1.1360222045790156,0.0
229,1.6846160888671875,0.3455968905497273,0.12444252543287267,0.5003683997226593,0.1619029288132362,0.0,0.1311793300463348,0.1,0.11252307891845703,0.3096904754638672,0.05009843,1.0008225,0.5135019150540708,0.0,0.0068083868812292845,0.0,200,0.24540948867797852,0.679596961043882,0.3309739845793015,46000,0.8533911073012238,0.0
230,1.655639410018921,0.2789654074610821,0.17057825819931,0.5339169466248355,0.062127684352480464,0.0,0.12620234182019557,0.1,0.0022203922271728516,0.045569419860839844,0.04986762,2.2906263,0.49004826429477194,0.0,0.005484255593606601,0.0,200,0.2857656478881836,0.6702436135163798,0.3930244425123593,46200,0.8705756652543002,0.0
231,1.6628923416137695,0.6065901519923173,0.2046394442075174,0.8720837485344716,0.29739977218962516,0.0,0.12191080921790425,0.1,0.002326488494873047,0.053793907165527344,0.049485933,1.2109952,0.5017024530645264,0.0,0.011933591706316502,0.0,200,0.19789361953735352,0.3023338899112811,0.30735388824459337,46400,0.6684478602135718,0.0
232,1.7725391387939453,0.6781547124675078,0.11833615886448598,0.8392721024799856,0.5144376897404729,0.0,0.12663247203125588,0.1,0.0022940635681152344,0.11496973037719727,0.04956448,1.2281564,0.5193476790048246,0.0,0.01321071797262873,0.0,200,0.16526341438293457,0.30343627090268566,0.21735999678888412,46600,0.9654079509713731,0.0
233,1.6420221328735352,0.38868599249218866,0.23180093360498305,0.619934798697404,0.060660943576896234,0.0,0.12580747851432808,0.1,0.0020792484283447266,0.04508781433105469,0.050582763,0.7095087,0.506281510353561,0.0,0.007586108069746755,0.0,200,0.15367531776428223,0.28148981344003926,0.30153793667922446,46800,0.9888812528692825,0.0
234,1.6089355945587158,0.5457657553545147,0.2940317591940987,0.9164208879524456,0.10100819795365631,0.0,0.1309742339001345,0.1,0.14215946197509766,0.39333605766296387,0.049803235,0.9820831,0.5102299348536563,0.0,0.010626867308591005,0.0,200,0.21291017532348633,0.2849892545951448,0.2778968294439886,47000,0.9859415193980738,0.0
235,1.6297194957733154,0.4252752268845028,0.18559505678691637,0.6945568244717443,0.21696563510890207,0.0,0.12754620964947097,0.1,0.00229644775390625,0.04017806053161621,0.04917474,1.7917507,0.5017344640567409,0.0,0.00828819478307351,0.0,200,0.20090150833129883,0.22598004514391148,0.23674272629587045,47200,1.0891967772516609,0.0
236,1.7281408309936523,0.3614620422913059,0.15510745561677475,0.6297074398795978,0.258405499047903,0.0,0.12175113421886205,0.1,0.0023610591888427734,0.04375052452087402,0.049476694,2.1026986,0.48770722188019744,0.0,0.007089803424987856,0.0,200,0.13222575187683105,0.2940464234721222,0.26708936096187924,47400,1.0850374961488267,0.0
237,1.6824474334716797,0.5405096548662495,0.26846483735021964,0.9663672480747955,0.22327805094266343,0.0,0.1237995691796633,0.1,0.0022492408752441406,0.04105496406555176,0.049113322,1.3725003,0.49298746517880265,0.0,0.010510796487196408,0.0,200,0.09135293960571289,0.23300286412381438,0.2354118914898655,47600,0.933118690089657,0.0
238,1.7390034198760986,0.42677766036724696,0.2405758792334355,0.6626659084630536,0.1189075252564623,0.0,0.12431934485376489,0.1,0.002290964126586914,0.05098724365234375,0.050284404,1.0111674,0.4863664846976471,0.0,0.008399711315376347,0.0,200,0.06316637992858887,0.32121623368195895,0.31312443343120167,47800,1.030904932947335,0.0
239,1.7482578754425049,0.38955784028584217,0.17464149960097447,0.6796193070613759,0.2419410316113176,0.0,0.134092926646528,0.1,0.06141066551208496,0.0405275821685791,0.049844753,1.2464218,0.47668562025646666,0.0,0.007579258633991883,0.0,200,0.2785453796386719,0.2104751527309516,0.19913185313691784,48000,0.6431069170090378,0.0
240,1.6514642238616943,0.5622998420767593,0.3241282395944931,1.0908388677693175,0.20916478315318457,0.0,0.13186386965474317,0.1,0.0021240711212158203,0.04005265235900879,0.049505867,1.828014,0.4852470424384959,0.0,0.011054501118787788,0.0,200,0.2859489917755127,0.32461380405350443,0.32486222488619354,48200,0.6548171724030841,0.0
241,1.719146490097046,0.5850496119520254,0.2805752449327966,0.8854057398434286,0.30342410186199376,0.0,0.12856097132792502,0.1,0.0022923946380615234,0.03933429718017578,0.050120257,1.1970347,0.4952272993898489,0.0,0.011449372266120101,0.0,200,0.10039758682250977,0.25483559083090646,0.2433299946803193,48400,0.4571996728680879,0.0
242,1.6259770393371582,0.4784371849887548,0.2602070999558305,0.8513363406354811,0.13532211268418531,0.0,0.1230353080484258,0.1,0.06902813911437988,0.04009819030761719,0.05055126,1.2593021,0.4935482879497395,0.0,0.009281243036000733,0.0,200,0.19347834587097168,0.24757103267559216,0.24426107772581454,48600,0.7689392045045692,0.0
243,1.5541961193084717,0.541474895391662,0.2540964173761301,0.8732740048945831,0.2671973187033164,0.0,0.11728986450073593,0.1,0.0026526451110839844,0.05800962448120117,0.049426604,1.9142711,0.49834094869393175,0.0,0.010585100488184817,0.0,200,0.09506678581237793,0.20888142512922822,0.19606696740267127,48800,0.7899522176943908,0.0
244,1.686981201171875,0.2818034198344103,0.17635976485369384,0.5788219643577724,0.13774821911541527,0.0,0.12995994964844504,0.1,0.050763845443725586,0.04691910743713379,0.049670395,1.1339604,0.47668719580797964,0.0,0.005503459482025097,0.0,200,0.08775663375854492,0.6752159242962243,0.6143392953864364,49000,0.5900607201630058,0.0
245,1.6244261264801025,0.6675150402122949,0.24665192605715508,0.9713660863608358,0.38353767739290084,0.0,0.1239465171490215,0.1,0.0027213096618652344,0.05338335037231445,0.050275076,1.3015991,0.4957699802484112,0.0,0.012958558578697115,0.0,200,0.18122410774230957,0.23852321377581623,0.2346732003050933,49200,0.5937705697573045,0.0
246,1.8142786026000977,0.6737720528491773,0.11949862255091946,0.8490585448729324,0.5360181878449483,0.0,0.12450466876475173,0.1,0.0024161338806152344,0.03937053680419922,0.049778294,1.6979331,0.5135701875084878,0.0,0.013033877527564696,0.0,200,0.05544710159301758,0.14609302009608624,0.1137957800985688,49400,0.6054922047057297,0.0
247,1.6131420135498047,0.48872899552211635,0.21557854487896796,0.7984078587780292,0.18885043029023624,0.0,0.12364620134533448,0.1,0.13310670852661133,0.03907179832458496,0.04987564,1.1583304,0.5110860683098507,0.0,0.009691260976500027,0.0,200,0.07070159912109375,0.2364838546541626,0.25910488859701286,49600,0.4989184389969885,0.0
248,1.6511259078979492,0.5319975374734665,0.14324947479111627,0.6980759681203125,0.33348429178592054,0.0,0.12418270519761701,0.1,0.1449575424194336,0.07971334457397461,0.050677627,1.6964396,0.5131772152262123,0.0,0.01028935814861132,0.0,200,0.15893888473510742,0.10597696869648913,0.10631135226407629,49800,0.5941273112078511,0.0
249,1.6358182430267334,0.5305333748451637,0.18014168814096904,0.8210690372880115,0.34593322279921856,0.0,0.12437744460865474,0.1,0.002167940139770508,0.1008000373840332,0.049786426,2.9514813,0.5149128311881075,0.0,0.010359632120996923,0.0,200,0.15243220329284668,0.14219198447590853,0.14057172892409886,50000,0.48157489871447806,0.0
250,1.68916916847229,0.37232770887198946,0.1226788189629339,0.5645510933047544,0.2331182972525356,0.0,0.12861408098849855,0.1,0.03411459922790527,0.04112577438354492,0.050457545,1.274445,0.5006543189564957,0.0,0.007266948329924854,0.0,200,0.05690741539001465,0.3705773944180386,0.28180209910612125,50200,0.48371892347715467,0.0
251,1.6872265338897705,0.6507206773293364,0.13074663531305855,0.8656631038016538,0.5219625272715345,0.0,0.12687029871916844,0.1,0.07407355308532715,0.04880118370056152,0.050208587,1.0059481,0.5156609547937798,0.0,0.012675622216865516,0.0,200,0.042736053466796875,0.10463674787609946,0.1127966129685102,50400,0.6817784672858057,0.0
252,1.6624913215637207,0.3847668228045789,0.08624138155891796,0.5321845997327691,0.3210215025286377,0.0,0.12228487163766524,0.1,0.06346964836120605,0.04073286056518555,0.050212078,0.9731197,0.5025715415948597,0.0,0.007550060896827069,0.0,200,0.29755473136901855,0.2489183574241262,0.19210278128843422,50600,0.8275494048518296,0.0
253,1.5998244285583496,0.7870648907693929,0.24413996319830503,1.1307550452863526,0.4877544393223176,0.0,0.13170986140955265,0.1,0.0021305084228515625,0.08357954025268555,0.050013404,1.1874195,0.5310208765123131,0.0,0.015305880964844117,0.0,200,0.27807021141052246,0.2515553922470449,0.23779047247518176,50800,0.9129317139782157,0.0
254,1.7138192653656006,0.4401488330881233,0.28682544135388016,0.8440710811663295,0.16137645904682407,0.0,0.12106595819421048,0.1,0.031818389892578125,0.09598135948181152,0.04998161,1.391983,0.5219336721698942,0.0,0.008584794682863772,0.0,200,0.08312535285949707,0.342804170478943,0.34777779652980995,51000,0.94537570885579,0.0
255,1.742555856704712,0.37163817929173015,0.19761184275970914,0.5895513888648203,0.0724773572836592,0.0,0.11819466139407217,0.1,0.02345442771911621,0.09099841117858887,0.05012039,1.0976715,0.5069041228820778,0.0,0.0072194845684253,0.0,200,0.14889311790466309,0.41634608776900095,0.35267826121637424,51200,0.8240249999623245,0.0
256,1.5880413055419922,0.6459622444341598,0.2834555828302664,0.953279818197414,0.188129877184603,0.0,0.1286667486664567,0.1,0.002037525177001953,0.04029083251953125,0.050170697,0.86929977,0.520809935037286,0.0,0.012686069977020879,0.0,200,0.14487862586975098,0.2414487217271314,0.244351243866937,51400,0.8403250153266092,0.0
257,1.693526268005371,0.7440131998161956,0.1938402678809822,1.0667188447818474,0.5560518304518315,0.0,0.12041110983750167,0.1,0.0022330284118652344,0.03964853286743164,0.049953133,1.3487641,0.543130261515177,0.0,0.01442416466030439,0.0,200,0.1464235782623291,0.1894442369549676,0.1490838922671936,51600,0.8798652167876767,0.0
258,1.7217702865600586,0.6518271500311829,0.20546794234545557,0.9462543854618998,0.3652261106288357,0.0,0.12477399476795113,0.1,0.06394529342651367,0.04009532928466797,0.0498906,1.2371787,0.5539999503667776,0.0,0.012659381598178227,0.0,200,0.06226944923400879,0.15393250460178415,0.1302794189590139,51800,1.0184309641122444,0.0
259,1.8528854846954346,0.600432883208769,0.1552528301545544,0.7341641565553245,0.34907535049693,0.0,0.1271370116484635,0.1,0.0023374557495117188,0.08385562896728516,0.04999747,1.2338171,0.5586432436509767,0.0,0.011596432495208404,0.0,200,0.1542196273803711,0.09756898331146281,0.10117554942440672,52000,0.5429442304239063,0.0
260,1.6736664772033691,0.583159302849914,0.27059979983588706,0.8855852902029637,0.25331795822388525,0.0,0.12131816691986465,0.1,0.12184333801269531,0.17440414428710938,0.04997195,1.4261905,0.5610948495708704,0.0,0.011338747366740499,0.0,200,0.15318679809570312,0.24681206842715245,0.24753811820263913,52200,0.6257642278120572,0.0
261,1.6152396202087402,0.5560959904796922,0.2621015564208622,0.9082743930746157,0.19166871125584473,0.0,0.1283994319290864,0.1,0.044704437255859375,0.04466724395751953,0.049584877,1.250204,0.5605949636617527,0.0,0.010821141362448515,0.0,200,0.28542041778564453,0.23297387659631044,0.21290893545498948,52400,0.5683725818558347,0.0
262,1.64085054397583,0.6191207235815348,0.20602945304321196,0.9064716890710638,0.33581550811866956,0.0,0.1288445914485341,0.1,0.13642454147338867,0.17627811431884766,0.050069705,1.1229081,0.5664475396537308,0.0,0.011995652448233942,0.0,200,0.2907085418701172,0.12967244938878897,0.12854764665616966,52600,0.5153779178962046,0.0
263,1.6402411460876465,0.5138186903976304,0.20401214944927532,0.8044196917924931,0.3106447692725773,0.0,0.12576279568954077,0.1,0.009274005889892578,0.13698577880859375,0.049976524,1.2203135,0.5611846547281208,0.0,0.009994346271907978,0.0,200,0.09009790420532227,0.19314778642212424,0.17456105418530563,52800,0.48468337464221717,0.0
264,1.796504020690918,0.4778036431627353,0.28841808139491343,0.9314627356702173,0.13089436024539255,0.0,0.1310715503729248,0.1,0.002543926239013672,0.048416852951049805,0.049656045,1.3703672,0.5528465535715823,0.0,0.009295170886486785,0.0,200,0.07304692268371582,0.32578732446456293,0.305861233180318,53000,0.5406987149676146,0.0
265,1.5905745029449463,0.463817460812275,0.14940813696440133,0.5678929046428542,0.207949238787922,0.0,0.12723708537782713,0.1,0.14690804481506348,0.0539393424987793,0.049761005,0.8332587,0.5439436442956516,0.0,0.009026852357575632,0.0,200,0.08163332939147949,0.1451683977907402,0.13552811421931193,53200,0.6414433665571286,0.0
266,1.6587014198303223,0.4914954775823866,0.05773975919405874,0.5782235904935822,0.4220254854987917,0.0,0.11845627556957254,0.1,0.004753828048706055,0.04257798194885254,0.04982379,1.987337,0.5386988276243251,0.0,0.009603223328074291,0.0,200,0.3111684322357178,0.06773052392042823,0.06759520426709105,53400,0.5337653992017833,0.0
267,1.6513941287994385,0.3915514951032708,0.12275210426859622,0.5822072170529825,0.255929241417083,0.0,0.1219387292331946,0.1,0.06388974189758301,0.040375709533691406,0.050146278,1.1772933,0.5239840943722197,0.0,0.007620801383459302,0.0,200,0.1197974681854248,0.13667948825158205,0.11622999022135329,53600,0.4638900916723412,0.0
268,1.6684980392456055,0.5436691764784745,0.11546452687200391,0.6418003071264963,0.3471821374758343,0.0,0.1265688404477149,0.1,0.13712310791015625,0.4162726402282715,0.050051115,1.1578994,0.5259526025828452,0.0,0.0106407893260907,0.0,200,0.1448376178741455,0.10656518794811287,0.09871982217372999,53800,0.5501830605976269,0.0
269,1.6673364639282227,0.6149043421817818,0.19167551729984772,0.8550846310893081,0.32757296929484603,0.0,0.12690412590727146,0.1,0.0023834705352783203,0.04620718955993652,0.049946766,1.0637923,0.5348477765427389,0.0,0.01202109455750423,0.0,200,0.09265685081481934,0.19050830656770257,0.15659474011644986,54000,0.4862543437151405,0.0
270,1.7494230270385742,0.5754815009802695,0.27639124482414057,1.0148803775908806,0.3286489163202233,0.0,0.12102290477918896,0.1,0.025136470794677734,0.044916629791259766,0.05008319,1.8220983,0.538911148986492,0.0,0.011142702589859431,0.0,200,0.17554688453674316,0.24965430793588655,0.2312146728337979,54200,0.37729582861121286,0.0
271,1.6390721797943115,0.42509313001695137,0.22901211189399942,0.6900739990691976,0.09335073964961121,0.0,0.12100577991130416,0.1,0.05634021759033203,0.04034066200256348,0.04977591,1.5342016,0.5275293470895379,0.0,0.008224670083446519,0.0,200,0.20208406448364258,0.3147032253596645,0.32737371817022176,54400,0.3542975732207627,0.0
272,1.761702299118042,0.3616883162564077,0.08645795612974921,0.47949847529282696,0.2554037809400074,0.0,0.13005760152325171,0.1,0.01341867446899414,0.04398369789123535,0.04962734,0.86626005,0.5109452440062249,0.0,0.0069897258844240796,0.0,200,0.04889106750488281,0.2742079727175108,0.22006703329137656,54600,0.32314638259228634,0.0
273,1.6859934329986572,0.5025530056246372,0.23628742016115328,0.8489837710174855,0.26854766191123436,0.0,0.12131593198476251,0.1,0.002293109893798828,0.041539907455444336,0.05040138,1.5060915,0.5101060201680662,0.0,0.009730587576100565,0.0,200,0.20549774169921875,0.20553933819491413,0.2086564112151332,54800,0.3639063527722201,0.0
274,1.7130305767059326,0.4368565608998924,0.18533036189779314,0.6843495449485857,0.23059783334716247,0.0,0.12594123701298682,0.1,0.0023164749145507812,0.05041623115539551,0.05007858,1.0121084,0.5027810742412487,0.0,0.008432803095219583,0.0,200,0.2850463390350342,0.1883389511818038,0.1789544896694909,55000,0.4198035378132297,0.0
275,1.7066967487335205,0.6261168096117607,0.2771594264271657,0.9622868479822879,0.3170177700077994,0.0,0.13083831583253364,0.1,0.002061605453491211,0.040405988693237305,0.04986637,0.9356554,0.5151146477783,0.0,0.012123105524925204,0.0,200,0.14973235130310059,0.21926051268308075,0.21578990363666797,55200,0.5281513089324575,0.0
276,1.720184564590454,0.6541901947233988,0.1807647351871898,0.9486303009885719,0.4758146348844629,0.0,0.1282340906065707,0.1,0.053652048110961914,0.04046177864074707,0.04970801,1.4460266,0.5290222024728098,0.0,0.012654735286756138,0.0,200,0.31548404693603516,0.18836258487927632,0.16448793673593373,55400,0.6296518258322051,0.0
277,1.7123143672943115,0.5672575421819941,0.15906854841145468,0.6998284968836614,0.29535839290217925,0.0,0.12351102115159947,0.1,0.015412569046020508,0.04402518272399902,0.050102554,1.0756063,0.5328457364437282,0.0,0.01110635344386075,0.0,200,0.16056180000305176,0.12101275295841049,0.11343126087869261,55600,0.62860855884143,0.0
278,1.712322473526001,0.41447483162834475,0.21531083395673803,0.7518434537389358,0.1858242971656372,0.0,0.12832648993324638,0.1,0.1415112018585205,0.051156044006347656,0.050417412,1.1215918,0.5210086459621899,0.0,0.008110082115237286,0.0,200,0.12761521339416504,0.3025705341099139,0.3018447164493974,55800,0.5553231502243651,0.0
279,1.653193712234497,0.46161643310124384,0.14061991245128827,0.6021979017876281,0.2318293925993971,0.0,0.12583715101280407,0.1,0.0023887157440185547,0.04096579551696777,0.049653016,1.0130454,0.5150694246760953,0.0,0.00901386562619244,0.0,200,0.31473660469055176,0.16536981568098558,0.14594682108566429,56000,0.34822158130100966,0.0
280,1.6985838413238525,0.6770357762009878,0.18362289485667818,0.9790566207330109,0.48240108475051596,0.0,0.13290390957963488,0.1,0.14998817443847656,0.17021870613098145,0.050292462,1.2485509,0.5312660598285845,0.0,0.013240612066464708,0.0,200,0.146895170211792,0.14437538475052483,0.14125897914188112,56200,0.7027474169867042,0.0
281,1.7369496822357178,0.5129206020125356,0.2548645313493568,0.8414225799733568,0.1514997194136302,0.0,0.12195819513663439,0.1,0.01686716079711914,0.04536151885986328,0.04991368,1.1061305,0.5294315140469796,0.0,0.009999065494481426,0.0,200,0.08102869987487793,0.24506492781571684,0.24504747352504697,56400,0.8708491575249879,0.0
282,1.6517314910888672,0.4673744772343202,0.13232713278390226,0.6819335845699354,0.33882221667906726,0.0,0.13028132167208184,0.1,0.07707023620605469,0.04145050048828125,0.049928915,1.3223844,0.5232258103657137,0.0,0.009028258075478385,0.0,200,0.12901663780212402,0.0921804646855214,0.09050961728893919,56600,0.5417558447077707,0.0
283,1.735450029373169,0.626019512151781,0.14129219806220966,0.8569506196665518,0.47490045131007597,0.0,0.1296416454894608,0.1,0.14290094375610352,0.29230427742004395,0.049857188,1.3137838,0.5335051805443205,0.0,0.012197687047449338,0.0,200,0.14025020599365234,0.1026641363568521,0.0986214278452552,56800,0.573139363467831,0.0
284,1.7496380805969238,0.5273480892495113,0.1799952641340239,0.7251053704802426,0.2933966233904162,0.0,0.12519842314485535,0.1,0.0023381710052490234,0.04107975959777832,0.04956344,1.1571213,0.5328894714148396,0.0,0.010278590055412,0.0,200,0.1564791202545166,0.15213322665494286,0.15090976652959587,57000,0.5154350302215657,0.0
285,1.7401583194732666,0.6991054886905639,0.1117220624191237,0.8697060360194185,0.5757505177013857,0.0,0.12082136652396123,0.1,0.002149343490600586,0.041135311126708984,0.04995036,1.6237024,0.549511073142412,0.0,0.013633605092391941,0.0,200,0.1405491828918457,0.11109615243177441,0.09748119521928267,57200,0.7885548834929361,0.0
286,1.6790902614593506,0.748215505682488,0.20156326758472087,0.8949904163608775,0.40149345801151304,0.0,0.1280505899765352,0.1,0.0030128955841064453,0.12756657600402832,0.049892947,0.85214454,0.5693815163964195,0.0,0.014606011377679945,0.0,200,0.07800412178039551,0.15330418016705702,0.12210032144854559,57400,0.9945652101218005,0.0
287,1.7097954750061035,0.44527857819144157,0.18459563498830825,0.6088458866097769,0.1396758387871821,0.0,0.12539718400864694,0.1,0.0025053024291992188,0.04271531105041504,0.050138045,1.0763994,0.5569712225759218,0.0,0.0086828279818306,0.0,200,0.19196057319641113,0.32756351879366713,0.34844564126446903,57600,1.0134497981278308,0.0
288,1.596320390701294,0.4389095828273621,0.24198678060058149,0.689988550414159,0.1143374638585762,0.0,0.13121606623492682,0.1,0.13539528846740723,0.0791630744934082,0.049679518,0.862329,0.5451650586010659,0.0,0.008476420391663186,0.0,200,0.291062593460083,0.40419380027930835,0.32822166030725125,57800,0.9191153666912659,0.0
289,1.6903576850891113,0.44944710812818983,0.1787445635557307,0.7262969013634019,0.2639749188319011,0.0,0.13377463429548686,0.1,0.007458925247192383,0.040889739990234375,0.04985159,1.4096413,0.5355932635537783,0.0,0.008751438552853626,0.0,200,0.15656304359436035,0.2564587531799803,0.1652387540985381,58000,0.7435732703344141,0.0
290,1.6498355865478516,0.44898588629873587,0.21110014179551218,0.8035398566428791,0.26093296010244615,0.0,0.11763318301723914,0.1,0.013579845428466797,0.041176557540893555,0.049213253,1.7985549,0.5269325258282741,0.0,0.008847802328129144,0.0,200,0.1791977882385254,0.21615490802795148,0.20855394549725556,58200,0.7654006634654938,0.0
291,1.6964728832244873,0.5026114502439292,0.31775876050375257,1.0099289226563608,0.22035948033207656,0.0,0.12350087007444799,0.1,0.002547025680541992,0.04588174819946289,0.04993577,1.5595541,0.5245004182698396,0.0,0.009816701717943788,0.0,200,0.05790543556213379,0.3306750227145615,0.3311733797155772,58400,0.9496524598630581,0.0
292,1.6774873733520508,0.5059423315994086,0.1831567357012851,0.7267783063630957,0.2245705469647809,0.0,0.1261956044117188,0.1,0.0023126602172851562,0.04085111618041992,0.04949311,1.1242806,0.5226446096027966,0.0,0.009966160923896985,0.0,200,0.1529374122619629,0.16997453866751377,0.15897969850564445,58600,0.731687181785566,0.0
293,1.7029609680175781,0.6358106076707661,0.27072471683228183,0.8885724464935172,0.19395943838914634,0.0,0.12686838046409843,0.1,0.0024127960205078125,0.06120944023132324,0.050041016,0.876666,0.5339612094095936,0.0,0.012339843985262697,0.0,200,0.026673316955566406,0.2581014818037709,0.22066087730273404,58800,1.10186362697627,0.0
294,1.6788570880889893,0.48639348053575393,0.316416176726949,1.0067886672493835,0.19195273182130396,0.0,0.12759119681122186,0.1,0.0023651123046875,0.043176889419555664,0.049713925,2.2335386,0.5292044365222096,0.0,0.009396264840856131,0.0,200,0.18631458282470703,0.3372113592687271,0.33977191330629924,59000,0.5692919527234224,0.0
295,1.754812240600586,0.36314474282657444,0.15135095706672208,0.6037229541324203,0.204354044746305,0.0,0.12350627319023065,0.1,0.0024356842041015625,0.1385514736175537,0.049596373,3.4006402,0.5125984671526461,0.0,0.007094706677777735,0.0,200,0.06745767593383789,0.37047598967536155,0.33567258752327694,59200,0.7494845536149471,0.0
296,1.6459856033325195,0.5621451485926547,0.20509698507240412,0.9099570204418174,0.39625683886282465,0.0,0.1316474886141896,0.1,0.002294778823852539,0.04362797737121582,0.050167933,1.314035,0.5175531352966469,0.0,0.011060833173284627,0.0,200,0.28724241256713867,0.19575435014511777,0.19616223913518677,59400,0.6776267929715241,0.0
297,1.5782139301300049,0.5726105806278304,0.36103384977698155,1.0633738492905553,0.09186300771379956,0.0,0.12853229201452018,0.1,0.002226114273071289,0.05179238319396973,0.049624033,1.2101233,0.5230588798297653,0.0,0.011169782401902336,0.0,200,0.24947714805603027,0.3155306794030399,0.3130294100942421,59600,0.5049805788277413,0.0
298,1.698728322982788,0.5524352300124572,0.1650953677614781,0.7750283672752017,0.31029315254199213,0.0,0.12278352219737954,0.1,0.06309843063354492,0.0414271354675293,0.050385226,1.2172428,0.5259965148480344,0.0,0.010862310352310995,0.0,200,0.08760666847229004,0.09835420083793996,0.09338265764639689,59800,1.007514900205074,0.0
299,1.6324610710144043,0.5308422277600671,0.1280555952993665,0.7324891885939951,0.38256178397648133,0.0,0.13135212335893917,0.1,0.026943206787109375,0.046888113021850586,0.050454628,1.1592983,0.5264810861392377,0.0,0.010314336773774559,0.0,200,0.29494595527648926,0.08084061749340204,0.0785487372490965,60000,0.5607839007568928,0.0
300,1.6265172958374023,0.5259165831032749,0.26851342910340587,0.9097807244159102,0.2642646885524243,0.0,0.13280543960383678,0.1,0.1322176456451416,0.054022789001464844,0.04970052,1.1034088,0.5264246358356415,0.0,0.010307864477555235,0.0,200,0.3206450939178467,0.22223292293032218,0.22141782309813612,60200,1.0733812328270333,0.0
301,1.795954942703247,0.47237916967638266,0.2851664178595798,0.9052043693706855,0.17065234650483968,0.0,0.13158835503127828,0.1,0.0023038387298583984,0.13347125053405762,0.050142135,1.4859335,0.5210200892197157,0.0,0.00922245799553426,0.0,200,0.07233214378356934,0.32812823011927783,0.3160787757424426,60400,0.12419288892455153,0.0
302,1.6369717121124268,0.4223678943512822,0.13957551508751181,0.589446628102432,0.23866250494175734,0.0,0.13079121004532399,0.1,0.002415895462036133,0.04397177696228027,0.050010607,0.95741594,0.5111548697328724,0.0,0.008196892428612483,0.0,200,0.16615581512451172,0.1763078872794199,0.14874423767260053,60600,0.12415325096211577,0.0
303,1.675018310546875,0.5123980573051942,0.0808074745023972,0.6420262327565077,0.429952354901689,0.0,0.12803955332603048,0.1,0.0021698474884033203,0.04018211364746094,0.0501718,1.799797,0.5112791884901046,0.0,0.010106380101261225,0.0,200,0.16036319732666016,0.05974926083136991,0.06515721279880515,60800,0.1833764662446594,0.0
304,2.1341264247894287,0.6434984316284813,0.14688437957240502,0.7376510197862934,0.38928402409949175,0.0,0.12882056361498162,0.1,0.0066950321197509766,0.059114694595336914,0.049580116,1.014229,0.5245011128039422,0.0,0.01262615170294086,0.0,200,0.10782337188720703,0.14927915085927282,0.1292510779923202,61000,0.21475793695401882,0.0
305,1.5526840686798096,0.6503786301996206,0.32717226571886454,1.1716298933987337,0.35109386715053537,0.0,0.13156349793981342,0.1,0.03750777244567871,0.047013282775878906,0.050395295,1.6111931,0.53708886454351,0.0,0.012706417802455764,0.0,200,0.20475101470947266,0.2932761658349079,0.2641417997608714,61200,0.4392917185999679,0.0
306,1.6701023578643799,0.48849483527749193,0.22151598051792287,0.7116923270033676,0.189813537693535,0.0,0.12682984392451727,0.1,0.0024979114532470703,0.0420072078704834,0.049603533,0.8758411,0.5322294616169082,0.0,0.009608558400664807,0.0,200,0.23613548278808594,0.21410658625790638,0.22988021808747658,61400,1.0512130820348873,0.0
307,1.6744019985198975,0.7732551868890989,0.3199105798416978,1.0791580189349632,0.2837310153298676,0.0,0.12183973676383199,0.1,0.002420663833618164,0.04157304763793945,0.049630772,1.0584102,0.5563320341441272,0.0,0.01500154638488876,0.0,200,0.06403326988220215,0.23828601561262075,0.2138732017281443,61600,1.1445760795777582,0.0
308,1.6084401607513428,0.6754563320809444,0.2742123836821787,1.0098887236289853,0.26199004906170614,0.0,0.13098889766281643,0.1,0.0023407936096191406,0.04122352600097656,0.050717507,1.0748352,0.568244463937809,0.0,0.013204385954224004,0.0,200,0.08496403694152832,0.1846301724546587,0.18325965043430956,61800,0.6914146318787197,0.0
309,1.7059204578399658,0.6889610493369522,0.282742641155482,0.9959357533337827,0.2686236141186731,0.0,0.12555610215817753,0.1,0.14661288261413574,0.0745551586151123,0.050416164,1.0365014,0.5803161224777234,0.0,0.01349114289062255,0.0,200,0.10403585433959961,0.1776065291054433,0.1786588376280933,62000,0.637539437885115,0.0
310,1.6018180847167969,0.7038642109466041,0.16135867080138871,0.9771519257669609,0.564032133882245,0.0,0.12983700245442722,0.1,0.006547451019287109,0.04297995567321777,0.050534405,0.98156583,0.5926709313246115,0.0,0.013648160286190194,0.0,200,0.13535857200622559,0.11289769186870817,0.10926996844229757,62200,0.0844556427777013,0.0
311,1.7448780536651611,0.8892035736777752,0.18013845751982674,1.0606563303420171,0.597272342437912,0.0,0.12639814433780827,0.1,0.006780147552490234,0.10691976547241211,0.0500858,0.9042599,0.6223241955599279,0.0,0.01739189343064023,0.0,200,0.14221692085266113,0.09836556121340777,0.08212208123103155,62400,0.06792736469322648,0.0
312,1.7233657836914062,0.7099242988465879,0.21136115993596263,0.9003619119192983,0.3750204117011882,0.0,0.12969360971365593,0.1,0.14750957489013672,0.10596370697021484,0.050179385,0.95301455,0.6310842058885939,0.0,0.013891558444623316,0.0,200,0.19426822662353516,0.11846844744515819,0.1191325255354986,62600,0.08627455990093559,0.0
313,1.6872329711914062,0.47734847351904386,0.11129125953549657,0.6358431844762067,0.3215510940219151,0.0,0.12587139449787305,0.1,0.002295970916748047,0.19735431671142578,0.049803816,1.4796,0.615710632651639,0.0,0.009333108454621021,0.0,200,0.07357454299926758,0.4959509075315296,0.24207439930683783,62800,0.08943940119815331,0.0
314,1.6688637733459473,0.7240605518261554,0.2006338938872985,0.9680225581876982,0.48023802512124797,0.0,0.12161287332085939,0.1,0.13313651084899902,0.23349356651306152,0.05007987,1.0606525,0.6265456245690906,0.0,0.014212553396809019,0.0,200,0.14761590957641602,0.1014894017367923,0.1255953305911474,63000,0.09169180520463101,0.0
315,1.6967096328735352,0.5802879507453014,0.11087495386593704,0.7138472268104089,0.41131654848316795,0.0,0.12377889635009119,0.1,0.002247333526611328,0.041138410568237305,0.049676917,1.4275334,0.6219198571867117,0.0,0.011317771168125969,0.0,200,0.28124046325683594,0.07004123534963466,0.06515238570845508,63200,0.059534341318200124,0.0
316,1.7121028900146484,0.6063302326227391,0.2158651039168825,0.8765018648963103,0.2875477498691709,0.0,0.12615496326331188,0.1,0.0024297237396240234,0.040358781814575195,0.04978406,1.4910508,0.6203608947303145,0.0,0.011977379909210282,0.0,200,0.15417909622192383,0.15298855996591162,0.14947037246237993,63400,0.5456733602498182,0.0
317,1.7231924533843994,0.563793173479798,0.10300688253280547,0.6772088931276032,0.41798922136694655,0.0,0.12014355277549918,0.1,0.14113235473632812,0.11334919929504395,0.04948274,1.6012447,0.614704122605263,0.0,0.011086502459774664,0.0,200,0.10076332092285156,0.06489159904112914,0.06640830108973397,63600,0.10649972828721443,0.0
318,1.7776422500610352,0.551844971041622,0.26828400283351195,0.940207697982083,0.20744381258594266,0.0,0.12041560543944438,0.1,0.002355813980102539,0.04545760154724121,0.049947448,1.6568332,0.6084182074488989,0.0,0.01072123417929152,0.0,200,0.051662445068359375,0.23530725241640882,0.23288543752045943,63800,0.6141734507156447,0.0
319,1.656822919845581,0.5681684947931577,0.07690357882424946,0.6697247186216947,0.45734151707847237,0.0,0.12995845820742863,0.1,0.0021381378173828125,0.04480481147766113,0.050530244,1.3003871,0.6043932361833247,0.0,0.010983892491855909,0.0,200,0.12227082252502441,0.05219708029705257,0.04946728888808389,64000,0.4520726434811902,0.0
320,1.7132384777069092,0.3922521453285638,0.35366088898713854,0.9981683784327743,0.11460860778223297,0.0,0.12486439132397921,0.1,0.14687347412109375,0.06043815612792969,0.050317038,1.8294293,0.5831791270978486,0.0,0.007679570671494681,0.0,200,0.0983123779296875,0.624734511455823,0.581710782762789,64200,0.8934739015396932,0.0
321,1.6725389957427979,0.7761199845569596,0.19624415145559293,1.0457979286532817,0.5863567745610582,0.0,0.12162078160056579,0.1,0.023739337921142578,0.042470455169677734,0.049653646,1.4286432,0.6024732128437598,0.0,0.015058226342047558,0.0,200,0.28933238983154297,0.1680092224409298,0.15703838294413058,64400,0.5030244876982906,0.0
322,1.5861930847167969,0.6179806578829243,0.14305921109666703,0.7972158350438338,0.39852706469394483,0.0,0.12409902442421047,0.1,0.0022835731506347656,0.040059804916381836,0.049730863,0.98908293,0.6040239573476762,0.0,0.012015439437108267,0.0,200,0.10517621040344238,0.0765771719512667,0.07034497318244068,64600,0.4392150712704785,0.0
323,1.6661498546600342,0.5987537487669468,0.09103463811850626,0.7279013859509389,0.4822922636480088,0.0,0.1328698035531954,0.1,0.002830028533935547,0.04621720314025879,0.049988814,1.4586395,0.6034969364896033,0.0,0.011617542832339935,0.0,200,0.07449698448181152,0.05185971300743403,0.05025534074749642,64800,0.123475485051042,0.0
324,1.5802810192108154,0.4839424644860524,0.17052224753570078,0.6929416294596639,0.22289843151134153,0.0,0.12565804416381904,0.1,0.002123117446899414,0.045157670974731445,0.049881663,1.0064954,0.5915414892892482,0.0,0.009430938706834362,0.0,200,0.15152335166931152,0.20232619855833742,0.19009687072579753,65000,0.15613318661420153,0.0
325,1.7185883522033691,0.4515329562556552,0.1661161475748105,0.6855967979386332,0.292408463906377,0.0,0.12516199569222308,0.1,0.005899667739868164,0.040897369384765625,0.049995348,1.5283558,0.577540635985889,0.0,0.008770464277306756,0.0,200,0.14806532859802246,0.23938625391302815,0.1930516095401049,65200,0.15848231825118783,0.0
326,1.8393871784210205,0.6658469531207425,0.17249977240934752,0.825868867144843,0.38052404295808623,0.0,0.13436373080794387,0.1,0.002218961715698242,0.03902292251586914,0.049836688,0.9077034,0.5863712676993743,0.0,0.013040888402896408,0.0,200,0.15830278396606445,0.0975891846064341,0.10622454254198063,65400,0.6424859617096076,0.0
327,1.6476316452026367,0.6807993655791289,0.323426781089765,0.9881486628505686,0.2069850098978192,0.0,0.12510193580800155,0.1,0.007154941558837891,0.045471906661987305,0.049792677,0.8492736,0.5958140774873498,0.0,0.013381290855363824,0.0,200,0.3086581230163574,0.25016562129957004,0.23476977373382443,65600,0.7830159976979857,0.0
328,1.5994043350219727,0.6615654263933315,0.1986106098588312,0.9651026805647647,0.44017091704731043,0.0,0.12648770956561495,0.1,0.0022330284118652344,0.05062699317932129,0.049777955,1.1769625,0.602389212377948,0.0,0.012885496709389061,0.0,200,0.33798980712890625,0.12249786650381346,0.10954144133045075,65800,0.19871674205097953,0.0
329,1.6672461032867432,0.441395690177653,0.1480253199702595,0.6943123946089294,0.3267171071749872,0.0,0.12857364840320168,0.1,0.002408266067504883,0.04485368728637695,0.049135264,1.7056344,0.5862898601579185,0.0,0.008608877695888348,0.0,200,0.1637730598449707,0.24852427117743273,0.2514004108499301,66000,0.45022906847725236,0.0
330,1.5992343425750732,0.5639456058200583,0.1643141116953992,0.7650518217815075,0.30799655295288053,0.0,0.12985296319699946,0.1,0.002433300018310547,0.04119157791137695,0.049356237,1.0558072,0.5840554347241326,0.0,0.011069687340836198,0.0,200,0.026407957077026367,0.10548035726374556,0.09686986752524583,66200,0.7348852579469819,0.0
331,1.7269096374511719,0.6013138269811122,0.14176544610548167,0.8116580682908061,0.4525876690543338,0.0,0.13053749441439724,0.1,0.0026519298553466797,0.04645061492919922,0.05037989,1.1197565,0.5857812739498306,0.0,0.01163810754656134,0.0,200,0.05916476249694824,0.10081311907856783,0.10129139551784301,66400,0.616790246754407,0.0
332,1.6672072410583496,0.563954530504503,0.12081780669237062,0.6946502031707347,0.36886084087015264,0.0,0.1286400996792821,0.1,0.0024318695068359375,0.04220294952392578,0.049742118,1.530221,0.5835985996052979,0.0,0.010974095272601344,0.0,200,0.1384871006011963,0.08334564017803428,0.08361189310561931,66600,0.7772717752265509,0.0
333,1.6264758110046387,0.32720158247071657,0.04438347104864933,0.35747444519886956,0.2506339815026281,0.0,0.11968166609866819,0.1,0.0023927688598632812,0.042139291763305664,0.049790896,1.0770981,0.5579588978918398,0.0,0.0064411159223271945,0.0,200,0.16795706748962402,0.5649775575963053,0.3987496193245683,66800,0.7867459214303397,0.0
334,1.6581125259399414,0.6897633748983074,0.22976640908118035,1.085134551419592,0.5191056147755336,0.0,0.12081480717771699,0.1,0.0028412342071533203,0.05523371696472168,0.050359823,2.2431974,0.5711393455924867,0.0,0.013405548095717257,0.0,200,0.07042050361633301,0.1847365077337818,0.1853525488277022,67000,0.7269847211241979,0.0
335,1.69575834274292,0.33470183833604017,0.15818084336128813,0.5685423979246235,0.1229818874472291,0.0,0.1273314987461807,0.1,0.054735660552978516,0.07085371017456055,0.0498277,1.5486566,0.5474955948668421,0.0,0.006510884528164426,0.0,200,0.11450743675231934,0.35420635863622674,0.3311336817933376,67200,0.7643870194869783,0.0
336,1.6738269329071045,0.7706586875650879,0.1130046338966091,0.9543941604618681,0.6462452819602186,0.0,0.12726594315685538,0.1,0.0023195743560791016,0.04434537887573242,0.04979469,0.8796212,0.5698119041366667,0.0,0.014960796171458283,0.0,200,0.07311248779296875,0.17953716142323473,0.1551808299908017,67400,0.287268883393978,0.0
337,1.6998374462127686,0.707574306064625,0.19426544014548983,0.9659558610248361,0.4697088806945149,0.0,0.12655310337715298,0.1,0.06579446792602539,0.1330709457397461,0.049315695,1.1352559,0.5835881443294626,0.0,0.013735280248221344,0.0,200,0.1381077766418457,0.14915302779427853,0.12056438226058876,67600,0.2110874770959459,0.0
338,1.6663289070129395,0.5262218370480998,0.21821914139208365,0.8403040099287201,0.3133704195806498,0.0,0.12679414175654738,0.1,0.0023419857025146484,0.11204314231872559,0.04972476,1.3606514,0.5778515136013264,0.0,0.010368531759465078,0.0,200,0.034928083419799805,0.18691225769456038,0.20513123953073978,67800,0.22753989418151518,0.0
339,1.6202342510223389,0.6701519858922416,0.296500715407636,0.91154373724635,0.17127272535223845,0.0,0.13088186427320703,0.1,0.0023539066314697266,0.12369942665100098,0.050166424,0.8104463,0.5870815608304178,0.0,0.01301483700372827,0.0,200,0.14811444282531738,0.1975422121064972,0.19085576857641212,68000,0.21647067276994114,0.0
340,1.7060201168060303,0.5699274384689068,0.13012031667403542,0.7804266261548654,0.45242049866844214,0.0,0.12783351039381666,0.1,0.0020973682403564453,0.04154157638549805,0.049406968,1.1946388,0.5853661485942667,0.0,0.011023249306186209,0.0,200,0.18121552467346191,0.08190882993392681,0.08226406732734783,68200,0.19220312152380367,0.0
341,1.7921195030212402,0.5899213882728939,0.06419748961948868,0.6536127015399454,0.4846111245778053,0.0,0.12522505414580604,0.1,0.11348414421081543,0.04121208190917969,0.04956659,1.3705525,0.5858216725621295,0.0,0.011508809739895978,0.0,200,0.1156928539276123,0.05181603630642732,0.042459966060286944,68400,0.38101863560208304,0.0
342,1.6431069374084473,0.6010758992379728,0.22120993238652553,0.9549081725711406,0.3639828328721616,0.0,0.13215163060643112,0.1,0.012475252151489258,0.06689119338989258,0.05092846,1.2032669,0.5873470952297138,0.0,0.011811084873464165,0.0,200,0.15324616432189941,0.1590367308677844,0.14315294818141583,68600,0.593883809472618,0.0
343,1.616020917892456,0.6961704711338382,0.17306966993279446,0.9957642106065773,0.5907189057057175,0.0,0.1275461156563896,0.1,0.0028390884399414062,0.04318881034851074,0.05006678,1.6555029,0.5982294328201263,0.0,0.013501084538212612,0.0,200,0.11098909378051758,0.10208552134708222,0.10047293243291892,68800,0.34132177882158027,0.0
344,1.6973659992218018,0.6810529347105722,0.3256872912819691,1.0538129577638409,0.18742310865668968,0.0,0.13321181928347017,0.1,0.03409862518310547,0.03943490982055664,0.049976636,1.0757898,0.6065117830091709,0.0,0.013354367312525626,0.0,200,0.1762542724609375,0.22974968062377665,0.21901433185936103,69000,0.6881192802974051,0.0
345,1.676314115524292,0.5053005892403322,0.16871265755739914,0.6832230236255227,0.31066897594196424,0.0,0.1296393182556427,0.1,0.14717864990234375,0.04144549369812012,0.0504602,1.6073892,0.596390663632287,0.0,0.009844099780489708,0.0,200,0.1477956771850586,0.2011934018767455,0.19138075188467224,69200,0.6117434938228733,0.0
346,2.2312214374542236,0.4439293615120473,0.14573411209177817,0.6080692719920496,0.25236804227414555,0.0,0.1251505254553057,0.1,0.0022764205932617188,0.04090285301208496,0.05014489,0.86606264,0.5811445334202631,0.0,0.008652088145055602,0.0,200,0.09829592704772949,0.2564446733598329,0.19181627615344593,69400,0.5711241889878816,0.0
347,1.5742378234863281,0.8012534371009257,0.12363996865952472,0.9933205859500109,0.6787848951337716,0.0,0.12100214292209953,0.1,0.0023484230041503906,0.05143284797668457,0.049610358,2.0437331,0.6031554237883294,0.0,0.015549955617382684,0.0,200,0.22230243682861328,0.12906437574726576,0.12260713038480134,69600,0.5985460074637995,0.0
348,1.6517856121063232,0.6764794594626184,0.18488906806971145,0.9496744179470064,0.4516083563023386,0.0,0.1323961440023977,0.1,0.09472465515136719,0.049881935119628906,0.049697742,1.2906487,0.6104878273557584,0.0,0.013175920617258398,0.0,200,0.29759860038757324,0.1283996267693982,0.11069146004779326,69800,0.7638328180050992,0.0
349,1.5803253650665283,0.6159864075614612,0.2322759307996131,0.8484163918822936,0.23319164006276177,0.0,0.12128419646964311,0.1,0.0073642730712890625,0.24665117263793945,0.048895344,0.90578496,0.6110376853763286,0.0,0.011970721230157553,0.0,200,0.11958861351013184,0.12735779558038834,0.13234953852010112,70000,0.6736893826433378,0.0
350,1.59515380859375,0.6698215716054119,0.15568962024010682,0.8457433903190392,0.46406262710684504,0.0,0.12676586107049248,0.1,0.13750219345092773,0.22462248802185059,0.05051425,2.1775265,0.616916073999237,0.0,0.013087700330727434,0.0,200,0.23390889167785645,0.0898269570904689,0.08874749526407218,70200,0.7226223524464342,0.0
351,1.7414498329162598,0.48024492721432405,0.24118815648810357,0.8975751616702312,0.3284741514685588,0.0,0.12589508899881513,0.1,0.002648591995239258,0.09673285484313965,0.049966373,1.7732965,0.6032489593207457,0.0,0.009362759657524996,0.0,200,0.03528618812561035,0.3505488621840845,0.3170950180480299,70400,0.4668714160885201,0.0
352,1.7222859859466553,0.5833261073948777,0.20099771870262273,0.821715706731649,0.3570887317435008,0.0,0.12554314096521163,0.1,0.142564058303833,0.04803037643432617,0.049733087,1.2588239,0.601256674128159,0.0,0.011368266008124447,0.0,200,0.0338597297668457,0.13694990812165844,0.13316697012758363,70600,0.7178539077559666,0.0
353,1.6543090343475342,0.48465320609959384,0.30999944937957885,0.934525999229106,0.11125673975069031,0.0,0.12469219674601059,0.1,0.1362769603729248,0.08463692665100098,0.050032157,1.3806363,0.5895963273253024,0.0,0.009390702901779333,0.0,200,0.2492680549621582,0.3134700033168565,0.29233924789941584,70800,0.4450653140779837,0.0
354,1.582251787185669,0.6085577274379879,0.08851368007678341,0.7301152548749167,0.4818915375959587,0.0,0.12914718501610123,0.1,0.09364032745361328,0.1744985580444336,0.050354663,1.295161,0.591492467336571,0.0,0.011785861630725833,0.0,200,0.16227436065673828,0.03689243591411475,0.04457322970223943,71000,0.5364217199785626,0.0
355,1.6148567199707031,0.6195367673962882,0.11715021710499013,0.7509923006914377,0.4826365816501619,0.0,0.12260782826214538,0.1,0.03268003463745117,0.043910980224609375,0.049973823,1.1350385,0.5942968973425428,0.0,0.011984050574685849,0.0,200,0.27325892448425293,0.08526907558561489,0.07968701164174367,71200,0.5808243822299931,0.0
356,1.7090034484863281,0.7443888533477271,0.09372215250671645,0.8480917453515086,0.6235419451808609,0.0,0.12254597627606183,0.1,0.00225830078125,0.04275321960449219,0.049255744,1.5873874,0.6093060929430613,0.0,0.014524314100413157,0.0,200,0.1276719570159912,0.10604023421956746,0.08156921148323439,71400,0.5845303642058589,0.0
357,1.5522005558013916,0.4924113937155865,0.1106159012522555,0.6797713981818526,0.39899052802737073,0.0,0.12441418747072737,0.1,0.147963285446167,0.14374327659606934,0.04869332,3.5329251,0.5976166230203137,0.0,0.009490533340942416,0.0,200,0.19907569885253906,0.10712082790582383,0.12501210702523424,71600,0.12736220876559062,0.0
358,1.8378183841705322,0.5776015403737358,0.17942504537007778,0.773998997641075,0.2881956963026348,0.0,0.12609413723554133,0.1,0.0025522708892822266,0.04639720916748047,0.050123278,1.0348734,0.5956151147556559,0.0,0.011287590795331034,0.0,200,0.023815393447875977,0.12499722876525547,0.12085436359704771,71800,0.7056083788412536,0.0
359,1.6761198043823242,0.7575456214005076,0.22834919579080276,0.9959105865545758,0.4557907483403238,0.0,0.124677079959275,0.1,0.002299070358276367,0.04045724868774414,0.049413096,1.2421647,0.611808165420141,0.0,0.014734583905095024,0.0,200,0.08259725570678711,0.145681335101312,0.13608349297572803,72000,0.6315471365093398,0.0
360,1.6331918239593506,0.6144694447655561,0.2541083931126635,0.8966053947957888,0.21199249945583043,0.0,0.13001571928178693,0.1,0.05035877227783203,0.0838165283203125,0.049749836,1.0150882,0.6120742933546826,0.0,0.012019511642373581,0.0,200,0.2327876091003418,0.17180777310476317,0.16997656039854397,72200,0.6501499483851173,0.0
