iteration,time_sampling,stoc_pol_mean,stoc_pol_std,stoc_pol_max,stoc_pol_min,rollout_success,alpha,delta,time_vpg,time_npg,kl_dist,surr_improvement,running_score,rwd_sparse,rwd_dense,success_percentage,num_samples,time_VF,VF_error_before,VF_error_after,env_samples,eval_score,eval_success
0,0.9836142063140869,-0.9999999728903775,1.5036640107027692e-09,-0.9999999705532925,-0.9999999747408301,0.0,51.08538358138352,0.1,0.011621236801147461,0.006977081298828125,0.049768478,0.0031349282,-0.9999999728903775,0.0,-0.0399999477634516,0.0,4,0.0014328956604003906,0.9367238855785699,0.9367238855785699,4,-0.9999999727037547,0.0
1,0.865755558013916,-0.9999999711496543,1.3509817281531366e-09,-0.9999999695870392,-0.9999999725422548,0.0,41.769316116585316,0.1,0.0018839836120605469,0.013628244400024414,0.05018416,0.0039806645,-0.9999999727163051,0.0,-0.0399999477634516,0.0,4,0.001331329345703125,0.9367238818070194,0.9367238818070194,8,-0.9999999726005284,0.0
2,0.9025611877441406,-0.9999999736722911,1.038581236437995e-09,-0.999999972181363,-0.9999999749867068,0.0,63.71915418688128,0.1,0.0014820098876953125,0.010408401489257812,0.050583363,0.002381758,-0.9999999728119038,0.0,-0.0399999477634516,0.0,4,0.0012197494506835938,0.9367238855785699,0.9367238855785699,12,-0.9999999725347187,0.0
3,0.8960034847259521,-0.999999972563997,1.6807666466311729e-09,-0.9999999702790092,-0.9999999748247796,0.0,35.25839536973668,0.1,0.0012819766998291016,0.01032567024230957,0.048637867,0.00970743,-0.9999999727871132,0.0,-0.0399999477634516,0.0,4,0.0012135505676269531,0.9367238855785699,0.9367238855785699,16,-0.9999999724299343,0.0
4,0.8844919204711914,-0.9999999726987251,1.4167357188304958e-09,-0.9999999711945711,-0.9999999748318755,0.0,53.250047601851854,0.1,0.001331329345703125,0.013333559036254883,0.050033778,0.0023088693,-0.9999999727782743,0.0,-0.0399999477634516,0.0,4,0.0011944770812988281,0.9367238855785699,0.9367238855785699,20,-0.9999999723076489,0.0
5,0.9303646087646484,-0.9999999734034913,8.885533742301898e-10,-0.9999999719025845,-0.9999999741027688,0.0,59.85197738814446,0.1,0.0013396739959716797,0.01274871826171875,0.048188925,0.012159483,-0.9999999728407961,0.0,-0.0399999477634516,0.0,4,0.0011796951293945312,0.9367238855785699,0.9367238855785699,24,-0.9999999722642238,0.0
6,0.905792236328125,-0.9999999716364183,7.614895480518709e-10,-0.9999999704880524,-0.9999999725709317,0.0,91.47309486672239,0.1,0.0014002323150634766,0.01279759407043457,0.05017793,0.0015986481,-0.9999999727203583,0.0,-0.0399999477634516,0.0,4,0.0010619163513183594,0.9367238855785699,0.9367238855785699,28,-0.9999999721937024,0.0
7,0.9251346588134766,-0.9999999716924998,1.0377999098128306e-09,-0.9999999706519118,-0.9999999734115295,0.0,76.62368338347109,0.1,0.0014433860778808594,0.012585163116455078,0.049729586,0.0018841985,-0.9999999726175726,0.0,-0.0399999477634516,0.0,4,0.0010364055633544922,0.9367238855785699,0.9367238855785699,32,-0.9999999721051367,0.0
8,0.9396417140960693,-0.9999999719169972,1.8460474957161632e-09,-0.9999999696536221,-0.9999999740431014,0.0,43.14334466114905,0.1,0.0013163089752197266,0.013071060180664062,0.050905615,0.0023258931,-0.999999972547515,0.0,-0.0399999477634516,0.0,4,0.0011715888977050781,0.9367238855785699,0.9367238855785699,36,-0.9999999719525957,0.0
9,0.9563579559326172,-0.9999999716871375,1.4336241787880762e-09,-0.9999999704681146,-0.99999997405599,0.0,46.513191489856126,0.1,0.0013213157653808594,0.012906789779663086,0.049470007,0.0031022474,-0.9999999724614773,0.0,-0.0399999477634516,0.0,4,0.0010592937469482422,0.9367238855785699,0.9367238855785699,40,-0.9999999718130286,0.0
10,0.9224896430969238,-0.9999999736824459,6.73922775168271e-10,-0.999999972720832,-0.9999999746063768,0.0,107.16588031548253,0.1,0.0012903213500976562,0.01239156723022461,0.05085948,0.001142747,-0.9999999725835742,0.0,-0.0399999477634516,0.0,4,0.0011284351348876953,0.9367238855785699,0.9367238855785699,44,-0.9999999717454782,0.0
11,0.9113357067108154,-0.9999999700182498,1.1400155558904404e-09,-0.9999999689349637,-0.999999971925748,0.0,60.917167478088814,0.1,0.0015828609466552734,0.013390541076660156,0.05095172,0.0016379121,-0.9999999723270419,0.0,-0.0399999477634516,0.0,4,0.0010628700256347656,0.9367238780354684,0.9367238780354684,48,-0.9999999716389092,0.0
12,0.8958468437194824,-0.9999999713785213,5.442848708372377e-10,-0.9999999706065712,-0.9999999721458976,0.0,110.0998960454624,0.1,0.0013806819915771484,0.012931346893310547,0.049485654,0.001904952,-0.9999999722321898,0.0,-0.0399999477634516,0.0,4,0.0012006759643554688,0.9367238855785699,0.9367238855785699,52,-0.999999971556115,0.0
13,0.9156854152679443,-0.9999999711313168,1.3554304445375566e-09,-0.9999999695810913,-0.9999999732872809,0.0,50.76447337627623,0.1,0.0015363693237304688,0.012657880783081055,0.05156356,0.002098298,-0.9999999721221026,0.0,-0.0399999477634516,0.0,4,0.0010306835174560547,0.9367238855785699,0.9367238855785699,56,-0.9999999714448135,0.0
14,0.9074556827545166,-0.9999999702237485,1.990957144291546e-09,-0.9999999687665442,-0.9999999736373737,0.0,30.448717765826114,0.1,0.0014803409576416016,0.015027523040771484,0.051172435,0.0021453963,-0.9999999719322672,0.0,-0.0399999477634516,0.0,4,0.001039266586303711,0.9367238780354684,0.9367238780354684,60,-0.9999999713268264,0.0
15,1.0332703590393066,-0.9999999705896853,1.3174673862601708e-09,-0.9999999691134083,-0.9999999723413415,0.0,53.17367091330804,0.1,0.0015652179718017578,0.015288591384887695,0.050476402,0.0019757506,-0.999999971798009,0.0,-0.0399999477634516,0.0,4,0.0011856555938720703,0.9367238259739253,0.9367238259739253,64,-0.999999971238633,0.0
16,0.8753836154937744,-0.9999999708722813,1.231260035989322e-09,-0.9999999696981359,-0.9999999728955011,0.0,52.49948827579272,0.1,0.0015037059783935547,0.015130043029785156,0.050367147,0.0025302973,-0.9999999717054363,0.0,-0.0399999477634516,0.0,4,0.001115560531616211,0.9367238818070194,0.9367238818070194,68,-0.9999999711001522,0.0
17,0.8893280029296875,-0.9999999712356008,1.720317761778539e-09,-0.9999999700786231,-0.9999999742090067,0.0,40.03394001180696,0.1,0.0013301372528076172,0.015402555465698242,0.051061332,0.002062179,-0.9999999716584528,0.0,-0.0399999477634516,0.0,4,0.001110076904296875,0.9367238855785699,0.9367238855785699,72,-0.9999999709721356,0.0
18,0.8402855396270752,-0.9999999727428397,1.067157923346921e-09,-0.9999999711262333,-0.999999974126424,0.0,72.27259293480311,0.1,0.0014460086822509766,0.013787984848022461,0.05036831,0.0022817967,-0.9999999717668915,0.0,-0.0399999477634516,0.0,4,0.0010631084442138672,0.9367238855785699,0.9367238855785699,76,-0.9999999708832167,0.0
19,0.8470532894134521,-0.9999999696441948,6.214548195212776e-10,-0.9999999686710608,-0.9999999703964391,0.0,97.69131930000904,0.1,0.0013275146484375,0.01288151741027832,0.04771842,0.0037059353,-0.9999999715546218,0.0,-0.0399999477634516,0.0,4,0.0012407302856445312,0.9367238780354684,0.9367238780354684,80,-0.9999999707971359,0.0
20,0.9069216251373291,-0.9999999712799958,1.0053767162491735e-09,-0.9999999703395055,-0.9999999729303726,0.0,71.95818193834049,0.1,0.0014410018920898438,0.015043973922729492,0.052499324,0.00085293537,-0.9999999715271592,0.0,-0.0399999477634516,0.0,4,0.0010485649108886719,0.9367238855785699,0.9367238855785699,84,-0.9999999707351903,0.0
21,0.8675501346588135,-0.9999999707519651,8.576198415547298e-10,-0.9999999697247284,-0.9999999720385511,0.0,87.60816099392618,0.1,0.0013952255249023438,0.014943361282348633,0.051391736,0.0013221494,-0.9999999714496399,0.0,-0.0399999477634516,0.0,4,0.0010349750518798828,0.9367238259739253,0.9367238259739253,88,-0.9999999706660372,0.0
22,0.870692253112793,-0.9999999722856139,1.2436362420483367e-09,-0.9999999702777072,-0.9999999735794098,0.0,48.693073262203434,0.1,0.0015006065368652344,0.015197038650512695,0.049996793,0.00476433,-0.9999999715332373,0.0,-0.0399999477634516,0.0,4,0.0011339187622070312,0.9367238855785699,0.9367238855785699,92,-0.9999999705786634,0.0
23,0.8765871524810791,-0.9999999712116884,6.029817412754122e-10,-0.9999999704423252,-0.9999999721047639,0.0,121.87050344053672,0.1,0.0013856887817382812,0.014971733093261719,0.049300894,0.0018557693,-0.9999999715010823,0.0,-0.0399999477634516,0.0,4,0.0010554790496826172,0.9367238855785699,0.9367238855785699,96,-0.9999999704755457,0.0
24,0.8652181625366211,-0.9999999705191085,5.284139064598706e-10,-0.999999969819005,-0.999999971266498,0.0,130.50279627055252,0.1,0.001280069351196289,0.015123128890991211,0.052073166,0.000631529,-0.999999971402885,0.0,-0.0399999477634516,0.0,4,0.00107574462890625,0.9367238855785699,0.9367238855785699,100,-0.9999999704097405,0.0
25,0.8944647312164307,-0.999999970043469,1.1697619442381739e-09,-0.9999999681532628,-0.999999971259776,0.0,58.758111803055506,0.1,0.0015234947204589844,0.014887571334838867,0.049769297,0.0036071967,-0.9999999712669434,0.0,-0.0399999477634516,0.0,4,0.001033782958984375,0.9367238259739253,0.9367238259739253,104,-0.9999999702261273,0.0
26,0.870150089263916,-0.999999970162013,1.0354285121238059e-09,-0.9999999686889689,-0.9999999711678538,0.0,68.86580839717452,0.1,0.0013000965118408203,0.015253543853759766,0.05046557,0.0018084676,-0.9999999711564505,0.0,-0.0399999477634516,0.0,4,0.001024007797241211,0.9367238259739253,0.9367238259739253,108,-0.9999999700887447,0.0
27,0.8312008380889893,-0.9999999700590818,5.879159696926806e-10,-0.9999999694668789,-0.9999999710300564,0.0,119.24504893396923,0.1,0.0014467239379882812,0.015845537185668945,0.051859766,0.00069663266,-0.9999999710467137,0.0,-0.0399999477634516,0.0,4,0.0010936260223388672,0.9367238780354684,0.9367238780354684,112,-0.9999999700183877,0.0
28,1.0156991481781006,-0.9999999705124485,8.709013880820802e-10,-0.9999999698539479,-0.999999972008065,0.0,83.9645597268696,0.1,0.0015094280242919922,0.015920162200927734,0.051369295,0.0010418931,-0.9999999709932872,0.0,-0.0399999477634516,0.0,4,0.0011138916015625,0.9367238780354684,0.9367238780354684,116,-0.9999999699607521,0.0
29,0.8398699760437012,-0.9999999699118083,9.493143321421546e-10,-0.9999999690838157,-0.9999999715206085,0.0,62.635050647067,0.1,0.0012919902801513672,0.015470504760742188,0.051011175,0.001442761,-0.9999999708851393,0.0,-0.0399999477634516,0.0,4,0.0010645389556884766,0.9367238780354684,0.9367238780354684,120,-0.9999999698621056,0.0
30,0.8777074813842773,-0.9999999704789727,1.8230462786311184e-09,-0.999999968126692,-0.9999999731463147,0.0,33.61330358783134,0.1,0.001493215560913086,0.016196250915527344,0.050496638,0.005760886,-0.9999999708445226,0.0,-0.0399999477634516,0.0,4,0.00109100341796875,0.9367238259739253,0.9367238259739253,124,-0.9999999696648274,0.0
31,0.8633830547332764,-0.9999999699454505,1.708368807235945e-09,-0.9999999686565759,-0.9999999728420443,0.0,34.06908808841213,0.1,0.0013170242309570312,0.017612695693969727,0.05269228,0.0015241661,-0.9999999707546154,0.0,-0.0399999477634516,0.0,4,0.0011301040649414062,0.9367238780354684,0.9367238780354684,128,-0.9999999695798744,0.0
32,0.8946349620819092,-0.999999969444494,5.458905403017214e-10,-0.9999999688320411,-0.9999999703068689,0.0,106.9136304846849,0.1,0.001355886459350586,0.015620231628417969,0.052900687,0.00043718948,-0.9999999706236034,0.0,-0.0399999477634516,0.0,4,0.0010755062103271484,0.9367239376401202,0.9367239376401202,132,-0.9999999695360168,0.0
33,0.8557734489440918,-0.9999999698952009,4.859593626113684e-10,-0.9999999691562564,-0.9999999704755349,0.0,168.09882580942988,0.1,0.0014531612396240234,0.016168832778930664,0.049974293,0.0010303091,-0.9999999705507632,0.0,-0.0399999477634516,0.0,4,0.0012023448944091797,0.9367238780354684,0.9367238780354684,136,-0.9999999694882615,0.0
34,0.8575365543365479,-0.9999999697631886,9.735695117524771e-10,-0.9999999686868715,-0.999999971001174,0.0,63.35334351802139,0.1,0.0012886524200439453,0.017885208129882812,0.050219476,0.0022747791,-0.9999999704720057,0.0,-0.0399999477634516,0.0,4,0.0011188983917236328,0.9367238259739253,0.9367238259739253,140,-0.9999999693859735,0.0
35,0.8522200584411621,-0.9999999695989139,6.885221797141253e-10,-0.9999999684938548,-0.9999999701877347,0.0,95.96180017176997,0.1,0.001367807388305664,0.015121221542358398,0.049568966,0.002463328,-0.9999999703846966,0.0,-0.0399999477634516,0.0,4,0.0011484622955322266,0.9367238780354684,0.9367238780354684,144,-0.9999999693625856,0.0
36,0.8535985946655273,-0.999999970297348,1.2778259424799553e-09,-0.9999999685081398,-0.999999971965988,0.0,50.80758291172049,0.1,0.0013697147369384766,0.017634868621826172,0.05130042,0.0025432508,-0.9999999703759618,0.0,-0.0399999477634516,0.0,4,0.0011055469512939453,0.9367238259739253,0.9367238259739253,148,-0.999999969262344,0.0
37,0.8989856243133545,-0.9999999693033754,2.4497450052425153e-10,-0.9999999689172492,-0.9999999695594248,0.0,256.3663933032166,0.1,0.0014159679412841797,0.015243053436279297,0.048669115,0.0011524475,-0.9999999702687031,0.0,-0.0399999477634516,0.0,4,0.0011501312255859375,0.9367238780354684,0.9367238780354684,152,-0.9999999691933378,0.0
38,0.8980467319488525,-0.9999999705488917,6.080605227800466e-10,-0.9999999698950726,-0.9999999713347547,0.0,132.23318838399393,0.1,0.0013082027435302734,0.015859365463256836,0.050391003,0.0008137657,-0.9999999702967219,0.0,-0.0399999477634516,0.0,4,0.0011458396911621094,0.9367238259739253,0.9367238259739253,156,-0.9999999692330915,0.0
39,0.8880200386047363,-0.9999999704001272,6.678093374738343e-10,-0.999999969618204,-0.9999999714594794,0.0,100.19166757427726,0.1,0.001512289047241211,0.016454219818115234,0.052017868,0.0009895447,-0.9999999703070624,0.0,-0.0399999477634516,0.0,4,0.0011742115020751953,0.9367238259739253,0.9367238259739253,160,-0.9999999691920266,0.0
40,0.8409092426300049,-0.9999999692431099,4.58967209583404e-10,-0.9999999686003824,-0.9999999698855233,0.0,131.48758225047513,0.1,0.0014777183532714844,0.01699519157409668,0.051061496,0.000967281,-0.9999999702006672,0.0,-0.0399999477634516,0.0,4,0.0012018680572509766,0.9367238780354684,0.9367238780354684,164,-0.9999999691778281,0.0
41,0.8819558620452881,-0.9999999699060627,2.169903267712278e-10,-0.9999999695561139,-0.9999999701446454,0.0,282.8407095656992,0.1,0.001287698745727539,0.015564918518066406,0.049015805,0.0012158914,-0.9999999701712068,0.0,-0.0399999477634516,0.0,4,0.0010635852813720703,0.9367238780354684,0.9367238780354684,168,-0.9999999691535438,0.0
42,0.8890762329101562,-0.999999970030305,6.706824901580519e-10,-0.9999999689035759,-0.9999999706723866,0.0,98.69438211999635,0.1,0.0014612674713134766,0.017819643020629883,0.049294397,0.002809327,-0.9999999701571166,0.0,-0.0399999477634516,0.0,4,0.0011239051818847656,0.9367238855785699,0.9367238855785699,172,-0.999999969086094,0.0
43,0.8343024253845215,-0.9999999700058608,1.6851978633487072e-09,-0.9999999676195286,-0.9999999720448058,0.0,39.8752592448324,0.1,0.0014903545379638672,0.018637895584106445,0.050426483,0.003822327,-0.999999970141991,0.0,-0.0399999477634516,0.0,4,0.0011608600616455078,0.9367238818070194,0.9367238818070194,176,-0.9999999690190431,0.0
44,0.8333086967468262,-0.9999999686873262,9.605598446478182e-10,-0.9999999677424394,-0.9999999700371816,0.0,85.68039924317374,0.1,0.0014433860778808594,0.01838850975036621,0.050139964,0.0013034533,-0.9999999699965246,0.0,-0.0399999477634516,0.0,4,0.0011026859283447266,0.9367238780354684,0.9367238780354684,180,-0.9999999689811312,0.0
45,0.8301081657409668,-0.9999999697875989,5.467432268260544e-10,-0.9999999694095534,-0.9999999707252893,0.0,159.61525279561513,0.1,0.0014193058013916016,0.018880128860473633,0.05156322,0.0004528096,-0.9999999699756321,0.0,-0.0399999477634516,0.0,4,0.0011057853698730469,0.9367238780354684,0.9367238780354684,184,-0.9999999689393689,0.0
46,0.860576868057251,-0.999999969700351,5.194588185231191e-10,-0.9999999688076158,-0.9999999700859541,0.0,150.8312597999107,0.1,0.0013573169708251953,0.018944501876831055,0.05035478,0.00108493,-0.999999969948104,0.0,-0.0399999477634516,0.0,4,0.0010905265808105469,0.9367238780354684,0.9367238780354684,188,-0.9999999688834608,0.0
47,0.9033541679382324,-0.9999999693186168,2.7343965265165503e-10,-0.9999999690719179,-0.9999999697792323,0.0,250.28274948408614,0.1,0.0014963150024414062,0.0156552791595459,0.051149085,0.00027284736,-0.9999999698851553,0.0,-0.0399999477634516,0.0,4,0.00115203857421875,0.9367238780354684,0.9367238780354684,192,-0.9999999688154378,0.0
48,0.894618034362793,-0.9999999699597539,1.1490586406683736e-09,-0.9999999687206995,-0.9999999716716201,0.0,45.85060631275367,0.1,0.0015141963958740234,0.021554231643676758,0.05339779,0.0014595445,-0.9999999698926152,0.0,-0.0399999477634516,0.0,4,0.0010864734649658203,0.9367238259739253,0.9367238259739253,196,-0.999999968745554,0.0
49,0.863375186920166,-0.9999999697737416,1.8509877334524666e-09,-0.9999999684172136,-0.9999999729636022,0.0,32.45022543216626,0.1,0.001378774642944336,0.02082538604736328,0.052169427,0.0025030808,-0.9999999698807278,0.0,-0.0399999477634516,0.0,4,0.001180410385131836,0.9367238780354684,0.9367238780354684,200,-0.9999999686770306,0.0
50,0.8534047603607178,-0.9999999693484456,1.1164380106092145e-09,-0.9999999676868447,-0.9999999704732596,0.0,64.78612302169523,0.1,0.0014698505401611328,0.018613338470458984,0.05075322,0.0021497102,-0.9999999698274997,0.0,-0.0399999477634516,0.0,4,0.0010764598846435547,0.9367238818070194,0.9367238818070194,204,-0.9999999686089516,0.0
51,0.8565037250518799,-0.999999969001178,9.256693363401536e-11,-0.999999968847634,-0.9999999690950194,0.0,800.9986467394048,0.1,0.0012958049774169922,0.015148162841796875,0.049616747,0.00024348272,-0.9999999697448676,0.0,-0.0399999477634516,0.0,4,0.0010476112365722656,0.9367238780354684,0.9367238780354684,208,-0.9999999686392093,0.0
52,0.8724851608276367,-0.9999999689944163,7.423463903394418e-10,-0.9999999678091751,-0.9999999697768112,0.0,110.03012422776608,0.1,0.0013592243194580078,0.017670631408691406,0.051052116,0.0010550983,-0.9999999696698225,0.0,-0.0399999477634516,0.0,4,0.0011818408966064453,0.9367238780354684,0.9367238780354684,212,-0.9999999685650586,0.0
53,0.9188780784606934,-0.9999999689607476,7.278330801633256e-10,-0.9999999678185152,-0.9999999698301143,0.0,102.64874523037949,0.1,0.0013730525970458984,0.020447254180908203,0.050979197,0.0010651998,-0.999999969598915,0.0,-0.0399999477634516,0.0,4,0.0011584758758544922,0.9367238780354684,0.9367238780354684,216,-0.9999999685299704,0.0
54,0.8706574440002441,-0.9999999692797286,5.073128787600574e-10,-0.9999999686265642,-0.9999999700493567,0.0,173.914199302815,0.1,0.0013353824615478516,0.01700758934020996,0.049805053,0.00095684594,-0.9999999695669964,0.0,-0.0399999477634516,0.0,4,0.0010542869567871094,0.9367238780354684,0.9367238780354684,220,-0.9999999684315543,0.0
55,0.8686342239379883,-0.9999999689207791,2.5647260314905694e-10,-0.99999996865704,-0.9999999692142063,0.0,304.7488063526263,0.1,0.0013082027435302734,0.01733255386352539,0.050512414,0.00038053314,-0.9999999695023748,0.0,-0.0399999477634516,0.0,4,0.0011208057403564453,0.9367238780354684,0.9367238780354684,224,-0.9999999684028676,0.0
56,0.9049203395843506,-0.9999999693138173,8.098587131306484e-10,-0.9999999685107541,-0.9999999705186442,0.0,78.51692511473698,0.1,0.0013952255249023438,0.019617319107055664,0.050879456,0.0016051307,-0.9999999694835191,0.0,-0.0399999477634516,0.0,4,0.0010578632354736328,0.9367238780354684,0.9367238780354684,228,-0.9999999683557039,0.0
57,0.8856627941131592,-0.9999999691238366,1.9440821775973549e-10,-0.9999999688280372,-0.9999999693712918,0.0,283.52863601948286,0.1,0.001539468765258789,0.017817974090576172,0.050064113,0.00073590444,-0.9999999694475509,0.0,-0.0399999477634516,0.0,4,0.001051187515258789,0.9367238780354684,0.9367238780354684,232,-0.9999999683184569,0.0
58,0.875457763671875,-0.9999999699906672,1.2806579684532968e-09,-0.999999968765344,-0.999999972106594,0.0,49.88720367876355,0.1,0.0012447834014892578,0.02248239517211914,0.03727282,0.0015920328,-0.9999999695018625,0.0,-0.0399999477634516,0.0,4,0.0010371208190917969,0.9367238780354684,0.9367238780354684,236,-0.999999968312835,0.0
59,0.8904740810394287,-0.9999999688331207,3.10727045568786e-10,-0.9999999683795624,-0.9999999692574553,0.0,257.01063780085957,0.1,0.0014495849609375,0.018142223358154297,0.04931903,0.0007608751,-0.9999999694349884,0.0,-0.0399999477634516,0.0,4,0.0010492801666259766,0.9367238780354684,0.9367238780354684,240,-0.9999999682679719,0.0
60,0.8756504058837891,-0.999999968897914,8.670037797509438e-10,-0.9999999679111171,-0.9999999702696805,0.0,74.94946767355775,0.1,0.0012841224670410156,0.020601987838745117,0.052060816,0.0007134037,-0.999999969381281,0.0,-0.0399999477634516,0.0,4,0.0011167526245117188,0.9367238780354684,0.9367238780354684,244,-0.9999999682575179,0.0
61,0.9976670742034912,-0.9999999688801156,5.796935437393788e-10,-0.9999999679781861,-0.9999999695370374,0.0,118.65732543026296,0.1,0.0012888908386230469,0.019525766372680664,0.049882963,0.001990177,-0.9999999693311644,0.0,-0.0399999477634516,0.0,4,0.0010738372802734375,0.9367238780354684,0.9367238780354684,248,-0.9999999681989316,0.0
62,0.9313738346099854,-0.9999999689682284,1.0372526198065768e-10,-0.9999999688026606,-0.999999969075964,0.0,523.3702897268815,0.1,0.001399993896484375,0.015327692031860352,0.04778654,0.0009623017,-0.9999999692948708,0.0,-0.0399999477634516,0.0,4,0.0010039806365966797,0.9367238780354684,0.9367238780354684,252,-0.9999999682074212,0.0
63,0.8925466537475586,-0.9999999685646699,9.269165872757057e-10,-0.9999999674862685,-0.999999970008626,0.0,74.56896533933426,0.1,0.0014166831970214844,0.02033710479736328,0.053436466,0.0008957649,-0.9999999692218507,0.0,-0.0399999477634516,0.0,4,0.0010485649108886719,0.9367238780354684,0.9367238780354684,256,-0.9999999680916969,0.0
64,0.8443300724029541,-0.9999999688074974,1.6247673369228734e-10,-0.9999999685794336,-0.999999969028524,0.0,378.3193828270223,0.1,0.0015273094177246094,0.017459392547607422,0.049218494,0.00054540613,-0.9999999691804154,0.0,-0.0399999477634516,0.0,4,0.0010538101196289062,0.9367238780354684,0.9367238780354684,260,-0.999999968071798,0.0
65,0.8349692821502686,-0.9999999687316512,5.737083934535405e-10,-0.999999967817653,-0.999999969278744,0.0,93.77466487665203,0.1,0.0013897418975830078,0.022393226623535156,0.049455777,0.0036594109,-0.999999969135539,0.0,-0.0399999477634516,0.0,4,0.0010213851928710938,0.9367238780354684,0.9367238780354684,264,-0.9999999680291332,0.0
66,0.8420121669769287,-0.9999999689915291,2.2429559803339054e-10,-0.9999999686133123,-0.999999969198641,0.0,319.1418714466058,0.1,0.0015261173248291016,0.017838239669799805,0.049025193,0.0010716394,-0.9999999691211381,0.0,-0.0399999477634516,0.0,4,0.0010943412780761719,0.9367238780354684,0.9367238780354684,268,-0.9999999680274684,0.0
67,0.8884303569793701,-0.9999999684805574,5.247604925002518e-10,-0.9999999678964235,-0.9999999692333494,0.0,156.16276668405104,0.1,0.0013723373413085938,0.020679712295532227,0.051039897,0.000548968,-0.99999996905708,0.0,-0.0399999477634516,0.0,4,0.0010881423950195312,0.9367238780354684,0.9367238780354684,272,-0.999999967969266,0.0
68,0.9202759265899658,-0.9999999691112704,5.480060386495995e-10,-0.9999999685154555,-0.9999999698090898,0.0,127.04808998226835,0.1,0.0013155937194824219,0.020588397979736328,0.05074673,0.00078470726,-0.9999999690624991,0.0,-0.0399999477634516,0.0,4,0.0010116100311279297,0.9367238780354684,0.9367238780354684,276,-0.9999999679542612,0.0
69,0.8963773250579834,-0.9999999684294192,3.628798705686291e-10,-0.9999999680140301,-0.9999999689552004,0.0,223.96786295941,0.1,0.0015811920166015625,0.02042865753173828,0.048865616,0.00067368324,-0.9999999689991911,0.0,-0.0399999477634516,0.0,4,0.0011057853698730469,0.9367238780354684,0.9367238780354684,280,-0.9999999679296353,0.0
70,0.9045171737670898,-0.9999999680991912,2.390399809573822e-10,-0.9999999677517837,-0.9999999683529244,0.0,269.3567994491123,0.1,0.0014188289642333984,0.0207977294921875,0.04961659,0.0007387682,-0.9999999689091911,0.0,-0.0399999477634516,0.0,4,0.0011906623840332031,0.9367238780354684,0.9367238780354684,284,-0.9999999679232868,0.0
71,0.8707053661346436,-0.9999999686803998,6.644889640493791e-10,-0.9999999680962932,-0.9999999697497877,0.0,101.70718782619295,0.1,0.001355886459350586,0.022603988647460938,0.050747797,0.001168174,-0.9999999688863119,0.0,-0.0399999477634516,0.0,4,0.0010309219360351562,0.9367238780354684,0.9367238780354684,288,-0.9999999679074983,0.0
72,0.8547148704528809,-0.9999999684088414,5.495347623457551e-10,-0.9999999678088245,-0.9999999690137769,0.0,111.10617212932965,0.1,0.001312255859375,0.020543575286865234,0.049771607,0.0013046578,-0.9999999688385649,0.0,-0.0399999477634516,0.0,4,0.0010325908660888672,0.9367238780354684,0.9367238780354684,292,-0.9999999678677347,0.0
73,1.0256757736206055,-0.9999999683780478,7.861143870057216e-10,-0.9999999675253524,-0.9999999694772594,0.0,74.56533021055263,0.1,0.001394510269165039,0.024665117263793945,0.0512624,0.0011872067,-0.9999999687925132,0.0,-0.0399999477634516,0.0,4,0.001134634017944336,0.9367238780354684,0.9367238780354684,296,-0.9999999678285847,0.0
74,0.9004333019256592,-0.999999968354714,5.38842978529687e-10,-0.9999999679484155,-0.9999999692780808,0.0,117.65899725904889,0.1,0.001384735107421875,0.02304863929748535,0.05173112,0.00049568823,-0.9999999687487333,0.0,-0.0399999477634516,0.0,4,0.0010499954223632812,0.9367238780354684,0.9367238780354684,300,-0.9999999677929344,0.0
75,0.9206757545471191,-0.9999999690367875,8.454115540752449e-10,-0.9999999679760285,-0.999999970230327,0.0,80.24742484032262,0.1,0.0013003349304199219,0.022525310516357422,0.05135625,0.0012253551,-0.9999999687775388,0.0,-0.0399999477634516,0.0,4,0.001119375228881836,0.9367238780354684,0.9367238780354684,304,-0.9999999677729826,0.0
76,0.8934025764465332,-0.9999999682416667,3.098373298126901e-10,-0.9999999677476177,-0.9999999685221987,0.0,230.57355028232487,0.1,0.0013513565063476562,0.02099776268005371,0.048659533,0.0011391336,-0.9999999687239517,0.0,-0.0399999477634516,0.0,4,0.0010967254638671875,0.9367238780354684,0.9367238780354684,308,-0.9999999677579866,0.0
77,0.9572849273681641,-0.9999999681952646,1.3990858711542582e-10,-0.9999999680033911,-0.9999999683960383,0.0,453.7603190489183,0.1,0.0015125274658203125,0.017719030380249023,0.050812073,0.00026427378,-0.999999968671083,0.0,-0.0399999477634516,0.0,4,0.0011601448059082031,0.9367238780354684,0.9367238780354684,312,-0.9999999677491442,0.0
78,0.865541934967041,-0.9999999682606627,6.501244168204237e-10,-0.9999999676017106,-0.9999999689408954,0.0,129.10947297893603,0.1,0.0012238025665283203,0.022176265716552734,0.050021693,0.0010122331,-0.999999968630041,0.0,-0.0399999477634516,0.0,4,0.0011103153228759766,0.9367238780354684,0.9367238780354684,316,-0.9999999677141528,0.0
79,0.9244284629821777,-0.9999999678647224,5.332488589971307e-10,-0.9999999673737974,-0.9999999687497607,0.0,120.32958227307721,0.1,0.0014510154724121094,0.025438308715820312,0.050772,0.00066604634,-0.9999999685535093,0.0,-0.0399999477634516,0.0,4,0.0010657310485839844,0.9367238780354684,0.9367238780354684,320,-0.9999999676522932,0.0
80,0.8952357769012451,-0.9999999682165059,7.312121786494949e-10,-0.9999999673372972,-0.9999999693520936,0.0,104.91008390666268,0.1,0.0016326904296875,0.025578022003173828,0.05167202,0.0006263673,-0.999999968519809,0.0,-0.0399999477634516,0.0,4,0.0013625621795654297,0.9367238780354684,0.9367238780354684,324,-0.9999999676155137,0.0
81,0.8992490768432617,-0.9999999681805544,4.2501312246499627e-10,-0.9999999676551656,-0.9999999688009904,0.0,146.37821094647543,0.1,0.0013551712036132812,0.022891998291015625,0.050991528,0.0007280333,-0.9999999684858836,0.0,-0.0399999477634516,0.0,4,0.0012943744659423828,0.9367238780354684,0.9367238780354684,328,-0.9999999675960711,0.0
82,0.8342375755310059,-0.9999999680835484,1.7750211729729128e-10,-0.9999999678432314,-0.9999999682790677,0.0,388.83730156323554,0.1,0.0015802383422851562,0.01991748809814453,0.0501791,0.00044609696,-0.9999999684456501,0.0,-0.0399999477634516,0.0,4,0.0011868476867675781,0.9367238780354684,0.9367238780354684,332,-0.9999999675986274,0.0
83,0.870396614074707,-0.9999999677931813,1.2061168566866375e-10,-0.9999999676816795,-0.9999999679730176,0.0,583.2333649956989,0.1,0.0016980171203613281,0.026911020278930664,0.049342245,0.00036850935,-0.9999999683804033,0.0,-0.0399999477634516,0.0,4,0.0012660026550292969,0.9367238780354684,0.9367238780354684,336,-0.9999999675970238,0.0
84,0.8824000358581543,-0.9999999675452721,2.679113904089019e-10,-0.9999999671604505,-0.9999999679035159,0.0,213.4437473680929,0.1,0.0018634796142578125,0.030185461044311523,0.048330016,0.0018033118,-0.9999999682968902,0.0,-0.0399999477634516,0.0,4,0.0013315677642822266,0.9367238780354684,0.9367238780354684,340,-0.9999999675665697,0.0
85,0.8377411365509033,-0.9999999682062637,9.449870799606457e-10,-0.9999999675115014,-0.9999999698269921,0.0,79.61949093907864,0.1,0.0016434192657470703,0.03293466567993164,0.05309828,0.00073684833,-0.9999999682878276,0.0,-0.0399999477634516,0.0,4,0.0013194084167480469,0.9367238780354684,0.9367238780354684,344,-0.9999999675159761,0.0
86,0.899165153503418,-0.9999999680361185,7.460861761712812e-10,-0.9999999671418724,-0.9999999692132238,0.0,112.11149480189793,0.1,0.0018222332000732422,0.03210306167602539,0.0512929,0.00089557836,-0.9999999682626567,0.0,-0.0399999477634516,0.0,4,0.0012445449829101562,0.9367238780354684,0.9367238780354684,348,-0.9999999674554095,0.0
87,0.8398287296295166,-0.9999999680590737,6.242065001101828e-10,-0.9999999673497932,-0.9999999688199426,0.0,96.88722317581805,0.1,0.0016827583312988281,0.032921552658081055,0.05037766,0.0016072008,-0.9999999682422984,0.0,-0.0399999477634516,0.0,4,0.0012784004211425781,0.9367238780354684,0.9367238780354684,352,-0.9999999674467488,0.0
88,0.8571553230285645,-0.9999999683618854,1.606648044670147e-10,-0.9999999681513307,-0.9999999685593031,0.0,378.8051029165702,0.1,0.0018041133880615234,0.029546260833740234,0.050033063,0.0005433946,-0.9999999682542572,0.0,-0.0399999477634516,0.0,4,0.0012888908386230469,0.9367238780354684,0.9367238780354684,356,-0.999999967433416,0.0
89,0.846123456954956,-0.9999999678593796,2.8978014826739974e-10,-0.9999999674472364,-0.9999999681766396,0.0,189.5858480796491,0.1,0.0017652511596679688,0.02947998046875,0.04952066,0.0014321017,-0.9999999682147694,0.0,-0.0399999477634516,0.0,4,0.001256704330444336,0.9367238780354684,0.9367238780354684,360,-0.9999999674056049,0.0
90,0.9245154857635498,-0.9999999681411176,4.3587465142310076e-10,-0.9999999675723485,-0.9999999687867305,0.0,160.67801913527902,0.1,0.001827239990234375,0.030749797821044922,0.05193521,0.000626665,-0.9999999682074042,0.0,-0.0399999477634516,0.0,4,0.001451730728149414,0.9367238780354684,0.9367238780354684,364,-0.9999999673547548,0.0
91,0.8786499500274658,-0.9999999674280466,2.366821868357743e-10,-0.9999999670989885,-0.9999999677261451,0.0,305.1256775253309,0.1,0.0018625259399414062,0.0306396484375,0.04928378,0.00095763657,-0.9999999681294685,0.0,-0.0399999477634516,0.0,4,0.0013172626495361328,0.9367238780354684,0.9367238780354684,368,-0.9999999673247585,0.0
92,0.8712356090545654,-0.9999999676367877,2.4682585706813564e-10,-0.9999999673064117,-0.9999999678982989,0.0,295.0346833319203,0.1,0.0019373893737792969,0.02982926368713379,0.05069223,0.00039948503,-0.9999999680802004,0.0,-0.0399999477634516,0.0,4,0.0015575885772705078,0.9367238780354684,0.9367238780354684,372,-0.999999967316301,0.0
93,0.8792355060577393,-0.999999967870909,1.946279128068899e-10,-0.9999999675461753,-0.9999999680532565,0.0,444.03567868398613,0.1,0.0017852783203125,0.027023792266845703,0.047790684,0.0006768816,-0.9999999680592713,0.0,-0.0399999477634516,0.0,4,0.0012052059173583984,0.9367238780354684,0.9367238780354684,376,-0.9999999673040937,0.0
94,0.9066803455352783,-0.9999999685687601,8.257325518643577e-10,-0.9999999675960196,-0.9999999698609039,0.0,69.02260772764281,0.1,0.0014853477478027344,0.026227474212646484,0.050532408,0.0015427207,-0.9999999681102202,0.0,-0.0399999477634516,0.0,4,0.0012161731719970703,0.9367238780354684,0.9367238780354684,380,-0.9999999672696168,0.0
95,0.8742702007293701,-0.9999999677570126,5.525119606653187e-10,-0.9999999672364734,-0.9999999686860876,0.0,124.72612181889696,0.1,0.0012602806091308594,0.024983882904052734,0.050341975,0.0010509847,-0.9999999680748994,0.0,-0.0399999477634516,0.0,4,0.0010569095611572266,0.9367238780354684,0.9367238780354684,384,-0.999999967234633,0.0
96,0.8294572830200195,-0.9999999674666985,3.4234064562828525e-10,-0.9999999669975284,-0.9999999679149072,0.0,166.64978694633217,0.1,0.0015835762023925781,0.023899555206298828,0.0509649,0.00074264343,-0.9999999680140793,0.0,-0.0399999477634516,0.0,4,0.0012323856353759766,0.9367238780354684,0.9367238780354684,388,-0.9999999672164496,0.0
97,0.8314907550811768,-0.9999999681747974,1.5947055921472915e-10,-0.999999967906801,-0.9999999683143994,0.0,385.74773809611474,0.1,0.0015747547149658203,0.02114391326904297,0.04773701,0.0007732547,-0.9999999680301511,0.0,-0.0399999477634516,0.0,4,0.0010783672332763672,0.9367238780354684,0.9367238780354684,392,-0.9999999672260457,0.0
98,0.843245267868042,-0.9999999686918961,2.653356655151958e-10,-0.9999999683808662,-0.9999999690894052,0.0,282.0840415650949,0.1,0.0015361309051513672,0.023940324783325195,0.05063795,0.0004377102,-0.9999999680963256,0.0,-0.0399999477634516,0.0,4,0.001241445541381836,0.9367238780354684,0.9367238780354684,396,-0.9999999672035895,0.0
99,0.8911244869232178,-0.9999999675759104,1.8081298191339447e-10,-0.9999999672848083,-0.9999999677645186,0.0,326.2726290951091,0.1,0.0012977123260498047,0.022243261337280273,0.05216769,0.0002776226,-0.9999999680442841,0.0,-0.0399999477634516,0.0,4,0.0011491775512695312,0.9367238780354684,0.9367238780354684,400,-0.9999999672044008,0.0
100,0.8326730728149414,-0.9999999689085164,1.2360325188776739e-09,-0.9999999672193536,-0.9999999706418519,0.0,43.73232940810591,0.1,0.0015377998352050781,0.026024580001831055,0.026705561,0.0010546164,-0.9999999681307075,0.0,-0.0399999477634516,0.0,4,0.0011565685272216797,0.9367238780354684,0.9367238780354684,404,-0.9999999671995226,0.0
101,0.8563961982727051,-0.9999999676385807,1.9151637174665386e-10,-0.999999967400409,-0.9999999679064671,0.0,498.51168686271063,0.1,0.0013799667358398438,0.02355504035949707,0.044990767,0.00019399846,-0.9999999680814948,0.0,-0.0399999477634516,0.0,4,0.0012183189392089844,0.9367238780354684,0.9367238780354684,408,-0.9999999671934109,0.0
102,0.8379883766174316,-0.999999967917568,3.564463272455808e-10,-0.9999999674166908,-0.9999999684157901,0.0,225.31644698750213,0.1,0.0014247894287109375,0.02602410316467285,0.049484327,0.00079567527,-0.9999999680651022,0.0,-0.0399999477634516,0.0,4,0.0011343955993652344,0.9367238780354684,0.9367238780354684,412,-0.9999999671749665,0.0
103,0.8817861080169678,-0.999999967593485,4.0219824379741485e-10,-0.9999999670911073,-0.9999999680956146,0.0,160.70034963155635,0.1,0.0015156269073486328,0.026964426040649414,0.049808666,0.0012560207,-0.9999999680179406,0.0,-0.0399999477634516,0.0,4,0.0012333393096923828,0.9367238780354684,0.9367238780354684,416,-0.9999999671622232,0.0
104,0.8944122791290283,-0.9999999677505034,1.8508174061692437e-10,-0.9999999674824196,-0.9999999679950866,0.0,353.4755627689122,0.1,0.0014491081237792969,0.022600650787353516,0.050109826,0.00043586266,-0.9999999679911968,0.0,-0.0399999477634516,0.0,4,0.0011751651763916016,0.9367238780354684,0.9367238780354684,420,-0.9999999671624625,0.0
105,0.9229161739349365,-0.9999999677251967,4.821910403832501e-10,-0.9999999672406847,-0.9999999685269589,0.0,138.04180617249904,0.1,0.0013432502746582031,0.02545309066772461,0.051115386,0.0006650304,-0.9999999679645969,0.0,-0.0399999477634516,0.0,4,0.0012233257293701172,0.9367238780354684,0.9367238780354684,424,-0.9999999671607269,0.0
106,0.9638640880584717,-0.9999999675223559,1.2207477373625103e-10,-0.9999999673572983,-0.9999999677019638,0.0,540.9389023079116,0.1,0.0013439655303955078,0.019682645797729492,0.050880373,0.00024228761,-0.9999999679203728,0.0,-0.0399999477634516,0.0,4,0.0011191368103027344,0.9367238780354684,0.9367238780354684,428,-0.9999999671667795,0.0
107,0.9020140171051025,-0.9999999679499829,2.8043884263069353e-10,-0.9999999675458635,-0.9999999683221472,0.0,255.70947016339827,0.1,0.0014317035675048828,0.024640798568725586,0.05129805,0.0004912631,-0.9999999679233338,0.0,-0.0399999477634516,0.0,4,0.0011641979217529297,0.9367238780354684,0.9367238780354684,432,-0.9999999671808236,0.0
108,0.9107344150543213,-0.9999999680957101,6.43801430226605e-10,-0.9999999674908608,-0.9999999691334815,0.0,113.55534682798913,0.1,0.001271963119506836,0.02454376220703125,0.048069425,0.00081972976,-0.9999999679405714,0.0,-0.0399999477634516,0.0,4,0.0010538101196289062,0.9367238780354684,0.9367238780354684,436,-0.9999999671781238,0.0
109,0.9129166603088379,-0.9999999679127565,5.581245472736798e-10,-0.9999999671160598,-0.9999999686540386,0.0,149.97038529844917,0.1,0.0014731884002685547,0.024883747100830078,0.04792877,0.0008039629,-0.99999996793779,0.0,-0.0399999477634516,0.0,4,0.001070261001586914,0.9367238780354684,0.9367238780354684,440,-0.9999999671751802,0.0
110,0.9602041244506836,-0.9999999677732494,3.290911284543803e-10,-0.9999999673166853,-0.9999999680937441,0.0,197.48805855924138,0.1,0.001373291015625,0.02305126190185547,0.048412304,0.00073824206,-0.9999999679213359,0.0,-0.0399999477634516,0.0,4,0.0011332035064697266,0.9367238780354684,0.9367238780354684,444,-0.9999999671575671,0.0
111,0.9693317413330078,-0.9999999676270775,3.665599984465189e-10,-0.9999999670599158,-0.9999999680451399,0.0,163.03829303394977,0.1,0.0014851093292236328,0.02483391761779785,0.049699675,0.0017815775,-0.9999999678919101,0.0,-0.0399999477634516,0.0,4,0.0010585784912109375,0.9367238780354684,0.9367238780354684,448,-0.9999999671412909,0.0
112,0.9076528549194336,-0.999999967509971,4.935367476503218e-10,-0.9999999669639865,-0.999999968311079,0.0,137.07178550539015,0.1,0.0012516975402832031,0.024643898010253906,0.051155124,0.00054265343,-0.9999999678537163,0.0,-0.0399999477634516,0.0,4,0.001035928726196289,0.9367238780354684,0.9367238780354684,452,-0.9999999671161323,0.0
113,0.9396145343780518,-0.9999999676937483,4.903760312485593e-10,-0.9999999672640179,-0.9999999685153116,0.0,150.47071640497634,0.1,0.0015370845794677734,0.02474689483642578,0.04908071,0.00056699355,-0.9999999678377195,0.0,-0.0399999477634516,0.0,4,0.00106048583984375,0.9367238780354684,0.9367238780354684,456,-0.9999999671039356,0.0
114,0.8865146636962891,-0.9999999676564251,4.4643230068388174e-10,-0.9999999671569448,-0.9999999681895533,0.0,157.2060381450947,0.1,0.0015311241149902344,0.0258026123046875,0.05083236,0.00096361357,-0.9999999678195901,0.0,-0.0399999477634516,0.0,4,0.0011467933654785156,0.9367238780354684,0.9367238780354684,460,-0.9999999670959291,0.0
115,0.8803670406341553,-0.99999996736917,2.071399222889809e-10,-0.9999999671367872,-0.9999999677026736,0.0,334.25203801742754,0.1,0.001373291015625,0.025411605834960938,0.048694316,0.0005703414,-0.9999999677745481,0.0,-0.0399999477634516,0.0,4,0.0010547637939453125,0.9367238780354684,0.9367238780354684,464,-0.9999999671041384,0.0
116,0.8693432807922363,-0.9999999677611788,2.746521864523989e-10,-0.9999999673521001,-0.9999999680812783,0.0,241.5092251185119,0.1,0.0015292167663574219,0.025986194610595703,0.048990812,0.0007098451,-0.9999999677732113,0.0,-0.0399999477634516,0.0,4,0.0011157989501953125,0.9367238780354684,0.9367238780354684,468,-0.9999999671024434,0.0
117,0.9013524055480957,-0.9999999674533389,1.903882060283879e-10,-0.99999996718131,-0.9999999676777003,0.0,359.6253634616369,0.1,0.0015003681182861328,0.028626680374145508,0.047985207,0.0003661513,-0.9999999677412241,0.0,-0.0399999477634516,0.0,4,0.0013570785522460938,0.9367238780354684,0.9367238780354684,472,-0.9999999671045993,0.0
118,0.8974888324737549,-0.9999999677045193,1.2090602683610113e-10,-0.9999999675178923,-0.99999996784661,0.0,541.6087984537833,0.1,0.0015184879302978516,0.024243831634521484,0.049362667,0.0005348394,-0.9999999677375536,0.0,-0.0399999477634516,0.0,4,0.0010685920715332031,0.9367238780354684,0.9367238780354684,476,-0.9999999670967608,0.0
119,0.9020514488220215,-0.9999999675526061,3.0606121490082023e-10,-0.9999999670669493,-0.9999999679139209,0.0,187.3164939898928,0.1,0.0015850067138671875,0.02531147003173828,0.049924444,0.0013883612,-0.9999999677190589,0.0,-0.0399999477634516,0.0,4,0.0010700225830078125,0.9367238780354684,0.9367238780354684,480,-0.9999999670792175,0.0
120,0.934800386428833,-0.999999967645687,3.9566458749629896e-10,-0.9999999672461031,-0.9999999680596683,0.0,140.12225609418047,0.1,0.0015175342559814453,0.026078462600708008,0.050358813,0.0011977976,-0.9999999677117217,0.0,-0.0399999477634516,0.0,4,0.0011184215545654297,0.9367238780354684,0.9367238780354684,484,-0.9999999670756421,0.0
121,0.9384551048278809,-0.9999999684027816,8.6903950985271e-10,-0.9999999678522045,-0.9999999699044861,0.0,57.09879557567757,0.1,0.0014407634735107422,0.025879859924316406,0.028532263,0.0006108328,-0.9999999677808278,0.0,-0.0399999477634516,0.0,4,0.0011777877807617188,0.9367238780354684,0.9367238780354684,488,-0.9999999670785918,0.0
122,0.9197978973388672,-0.999999967582857,4.979728701669825e-10,-0.9999999671477171,-0.9999999684261953,0.0,142.22842326379484,0.1,0.0013706684112548828,0.02564716339111328,0.050976254,0.0005239703,-0.9999999677610307,0.0,-0.0399999477634516,0.0,4,0.0010650157928466797,0.9367238780354684,0.9367238780354684,492,-0.999999967078665,0.0
123,0.9504778385162354,-0.9999999674026918,2.147799785934952e-10,-0.9999999672518791,-0.9999999677701772,0.0,284.873638104102,0.1,0.0015723705291748047,0.027944564819335938,0.05122774,0.00020127633,-0.9999999677251968,0.0,-0.0399999477634516,0.0,4,0.0011577606201171875,0.9367238780354684,0.9367238780354684,496,-0.9999999670879993,0.0
124,0.9300761222839355,-0.9999999675954672,4.306734773868769e-10,-0.9999999671788575,-0.9999999682999581,0.0,167.82572240667568,0.1,0.0014834403991699219,0.024153709411621094,0.05020968,0.00073826156,-0.9999999677122239,0.0,-0.0399999477634516,0.0,4,0.0010123252868652344,0.9367238780354684,0.9367238780354684,500,-0.9999999670739133,0.0
125,0.9527027606964111,-0.9999999676210498,3.091958930492787e-10,-0.999999967217162,-0.9999999680314877,0.0,222.066128229281,0.1,0.0012638568878173828,0.025402545928955078,0.05015866,0.0005103603,-0.9999999677031065,0.0,-0.0399999477634516,0.0,4,0.0010826587677001953,0.9367238780354684,0.9367238780354684,504,-0.9999999670712465,0.0
126,0.9857587814331055,-0.999999967387608,3.7412171542919655e-10,-0.9999999669805508,-0.9999999678758338,0.0,149.82810744862803,0.1,0.0013318061828613281,0.024834394454956055,0.051134706,0.0004901711,-0.9999999676715566,0.0,-0.0399999477634516,0.0,4,0.0010402202606201172,0.9367238780354684,0.9367238780354684,508,-0.9999999670543143,0.0
127,0.9490556716918945,-0.9999999674408282,2.9104924983981064e-10,-0.9999999671510948,-0.9999999677717568,0.0,218.11402477000019,0.1,0.0013554096221923828,0.024409770965576172,0.047516674,0.00049515814,-0.9999999676484839,0.0,-0.0399999477634516,0.0,4,0.0010390281677246094,0.9367238780354684,0.9367238780354684,512,-0.9999999670534961,0.0
128,0.9450054168701172,-0.9999999674443831,6.918028684245709e-10,-0.999999966986177,-0.999999968639828,0.0,83.281142880425,0.1,0.0014507770538330078,0.02579188346862793,0.051214956,0.0007319176,-0.9999999676280737,0.0,-0.0399999477634516,0.0,4,0.0011317729949951172,0.9367238780354684,0.9367238780354684,516,-0.9999999670423508,0.0
129,0.9900641441345215,-0.9999999672751614,2.1286082423480348e-10,-0.9999999669624837,-0.9999999675610962,0.0,252.8929163217522,0.1,0.001474142074584961,0.026417255401611328,0.051655084,0.0005005421,-0.9999999675927825,0.0,-0.0399999477634516,0.0,4,0.0011086463928222656,0.9367238780354684,0.9367238780354684,520,-0.9999999670344945,0.0
130,0.9599506855010986,-0.9999999675774396,6.177394579251854e-10,-0.9999999670380664,-0.999999968580632,0.0,89.88799509840828,0.1,0.0012753009796142578,0.024683475494384766,0.046316996,0.0024500454,-0.9999999675912482,0.0,-0.0399999477634516,0.0,4,0.0010333061218261719,0.9367238780354684,0.9367238780354684,524,-0.9999999670207464,0.0
131,1.1240386962890625,-0.9999999672120361,7.377591235093027e-11,-0.9999999671157294,-0.999999967292938,0.0,1292.176590806773,0.1,0.001416921615600586,0.01952672004699707,0.05045145,8.622477e-05,-0.999999967553327,0.0,-0.0399999477634516,0.0,4,0.0010783672332763672,0.9367238780354684,0.9367238780354684,528,-0.9999999670198609,0.0
132,0.8985865116119385,-0.999999967556031,2.91347572741406e-10,-0.9999999672005331,-0.9999999680012319,0.0,183.2719550196057,0.1,0.0014219284057617188,0.026314973831176758,0.053411894,0.00019479108,-0.9999999675535974,0.0,-0.0399999477634516,0.0,4,0.0011734962463378906,0.9367238780354684,0.9367238780354684,532,-0.9999999670134369,0.0
133,0.9228222370147705,-0.9999999672361768,2.167003891508108e-10,-0.9999999670190327,-0.999999967597158,0.0,297.86380535240886,0.1,0.0015141963958740234,0.025532245635986328,0.045855854,0.00026167906,-0.9999999675218554,0.0,-0.0399999477634516,0.0,4,0.0010516643524169922,0.9367238780354684,0.9367238780354684,536,-0.9999999670270898,0.0
134,1.0336523056030273,-0.9999999672334745,2.665921022969513e-10,-0.9999999668256436,-0.9999999675609965,0.0,250.08361806171112,0.1,0.0013780593872070312,0.025556325912475586,0.050036334,0.00064652594,-0.9999999674930173,0.0,-0.0399999477634516,0.0,4,0.0011835098266601562,0.9367238780354684,0.9367238780354684,540,-0.999999967021548,0.0
135,0.974027156829834,-0.999999967378743,2.5304627174862585e-10,-0.9999999670767687,-0.999999967702192,0.0,272.7204281601703,0.1,0.0013585090637207031,0.024881601333618164,0.05165353,0.0003588689,-0.9999999674815899,0.0,-0.0399999477634516,0.0,4,0.0010559558868408203,0.9367238780354684,0.9367238780354684,544,-0.999999967017715,0.0
136,0.9373068809509277,-0.9999999676069431,2.174974192622809e-10,-0.9999999673748499,-0.9999999678401814,0.0,332.1277244603496,0.1,0.001504659652709961,0.025719404220581055,0.04976222,0.00035900672,-0.9999999674941253,0.0,-0.0399999477634516,0.0,4,0.001058816909790039,0.9367238780354684,0.9367238780354684,548,-0.9999999670190377,0.0
137,0.9205095767974854,-0.9999999672332281,1.6923582906695628e-10,-0.9999999669700079,-0.9999999674119509,0.0,429.5950355792861,0.1,0.0013277530670166016,0.024976491928100586,0.050840184,0.0003099879,-0.9999999674680357,0.0,-0.0399999477634516,0.0,4,0.0012218952178955078,0.9367238780354684,0.9367238780354684,552,-0.9999999670134924,0.0
138,0.9342610836029053,-0.9999999672165558,1.2911460975634926e-10,-0.9999999670274327,-0.9999999673919095,0.0,495.84019809431885,0.1,0.00144195556640625,0.023100852966308594,0.049115982,0.0004127239,-0.9999999674428877,0.0,-0.0399999477634516,0.0,4,0.001092672348022461,0.9367238780354684,0.9367238780354684,556,-0.9999999670100942,0.0
139,0.9317283630371094,-0.9999999671141464,1.9548380789585528e-10,-0.999999966963935,-0.9999999674501718,0.0,386.0654864392808,0.1,0.0012755393981933594,0.024435043334960938,0.04983615,0.0002855425,-0.9999999674100136,0.0,-0.0399999477634516,0.0,4,0.0011053085327148438,0.9367238780354684,0.9367238780354684,560,-0.9999999669995855,0.0
140,0.942986011505127,-0.9999999672112216,2.598187439788365e-10,-0.9999999668589068,-0.9999999674884634,0.0,223.3872669362345,0.1,0.0013720989227294922,0.026016950607299805,0.045999434,0.00045411743,-0.9999999673901344,0.0,-0.0399999477634516,0.0,4,0.0010917186737060547,0.9367238780354684,0.9367238780354684,564,-0.9999999669882417,0.0
141,0.977276086807251,-0.9999999672112706,2.6477338076792074e-10,-0.9999999669017066,-0.9999999676334386,0.0,221.23705379859013,0.1,0.0013043880462646484,0.024801969528198242,0.05091826,0.00037413574,-0.999999967372248,0.0,-0.0399999477634516,0.0,4,0.0011310577392578125,0.9367238780354684,0.9367238780354684,568,-0.9999999669695647,0.0
142,0.9521045684814453,-0.9999999674867093,2.9150761707202285e-10,-0.9999999671745166,-0.9999999678833134,0.0,204.4587357464445,0.1,0.0014050006866455078,0.025260448455810547,0.04720882,0.00043717903,-0.9999999673836941,0.0,-0.0399999477634516,0.0,4,0.0010528564453125,0.9367238780354684,0.9367238780354684,572,-0.9999999669547458,0.0
143,0.9416134357452393,-0.9999999672594964,1.682991607930149e-10,-0.9999999670153208,-0.999999967488155,0.0,397.72667858947585,0.1,0.0013587474822998047,0.02579498291015625,0.050293796,0.00030972017,-0.9999999673712744,0.0,-0.0399999477634516,0.0,4,0.0011246204376220703,0.9367238780354684,0.9367238780354684,576,-0.9999999669725556,0.0
144,0.93857741355896,-0.999999967440959,3.4791567043953205e-10,-0.9999999671675954,-0.9999999680281375,0.0,152.28181182592672,0.1,0.001338958740234375,0.025420188903808594,0.039840553,0.00023566806,-0.9999999673782428,0.0,-0.0399999477634516,0.0,4,0.0011975765228271484,0.9367238780354684,0.9367238780354684,580,-0.999999966969245,0.0
145,0.9437198638916016,-0.9999999673364386,1.76747738322747e-10,-0.9999999671359763,-0.999999967556545,0.0,338.49146476737053,0.1,0.0014033317565917969,0.0248715877532959,0.048095927,0.000540675,-0.9999999673740625,0.0,-0.0399999477634516,0.0,4,0.0011124610900878906,0.9367238780354684,0.9367238780354684,584,-0.999999966966595,0.0
146,1.0022194385528564,-0.999999967315703,3.1089689498124963e-10,-0.9999999669530517,-0.9999999676525009,0.0,187.8707985456472,0.1,0.0013682842254638672,0.025961875915527344,0.050457478,0.00042783638,-0.9999999673682266,0.0,-0.0399999477634516,0.0,4,0.0010874271392822266,0.9367238780354684,0.9367238780354684,588,-0.9999999669575831,0.0
147,0.9463489055633545,-0.9999999674822307,4.3358487986196123e-10,-0.9999999671823407,-0.9999999682295817,0.0,157.17327497040162,0.1,0.0013091564178466797,0.025208234786987305,0.04530049,0.00030148635,-0.9999999673796269,0.0,-0.0399999477634516,0.0,4,0.001188039779663086,0.9367238780354684,0.9367238780354684,592,-0.9999999669529065,0.0
148,0.9995822906494141,-0.999999967144795,1.1178000883033139e-10,-0.9999999669662187,-0.9999999672717239,0.0,448.51856070010433,0.1,0.0015802383422851562,0.023426055908203125,0.041573778,0.00075069646,-0.9999999673561437,0.0,-0.0399999477634516,0.0,4,0.0012199878692626953,0.9367238780354684,0.9367238780354684,596,-0.9999999669415519,0.0
149,0.938636064529419,-0.9999999673459545,6.299161579417741e-10,-0.9999999666819235,-0.9999999683829881,0.0,80.75004912890485,0.1,0.0016222000122070312,0.026085853576660156,0.048489816,0.0006438881,-0.9999999673551249,0.0,-0.0399999477634516,0.0,4,0.0010836124420166016,0.9367238780354684,0.9367238780354684,600,-0.999999966939448,0.0
150,0.9246070384979248,-0.9999999674383158,3.570448018676905e-10,-0.9999999668923336,-0.9999999678904155,0.0,169.90032080917027,0.1,0.001493692398071289,0.025505542755126953,0.044329777,0.0015140503,-0.9999999673634439,0.0,-0.0399999477634516,0.0,4,0.0010974407196044922,0.9367238780354684,0.9367238780354684,604,-0.9999999669264484,0.0
151,0.9000377655029297,-0.9999999672374048,1.497126700814437e-10,-0.9999999669784434,-0.9999999673363635,0.0,520.6806469927956,0.1,0.0015239715576171875,0.026180028915405273,0.049867265,0.00023549577,-0.99999996735084,0.0,-0.0399999477634516,0.0,4,0.001149892807006836,0.9367238780354684,0.9367238780354684,608,-0.9999999669170753,0.0
152,0.9002115726470947,-0.9999999671005304,1.006801407984798e-10,-0.9999999670127819,-0.9999999672715709,0.0,614.5422197759256,0.1,0.0014190673828125,0.024243831634521484,0.05339469,5.8579975e-05,-0.9999999673258091,0.0,-0.0399999477634516,0.0,4,0.0012886524200439453,0.9367238780354684,0.9367238780354684,612,-0.9999999669204693,0.0
153,0.9041759967803955,-0.9999999669837001,1.0441716698137448e-10,-0.9999999668957218,-0.9999999671620037,0.0,694.2932181806614,0.1,0.0013747215270996094,0.022418975830078125,0.04075469,8.919512e-05,-0.9999999672915982,0.0,-0.0399999477634516,0.0,4,0.0010366439819335938,0.9367238780354684,0.9367238780354684,616,-0.9999999669136872,0.0
154,0.9816343784332275,-0.9999999670419528,9.880560047474755e-11,-0.999999966923953,-0.999999967147132,0.0,597.1385951148329,0.1,0.0013725757598876953,0.023014068603515625,0.051101193,0.00020184547,-0.9999999672666338,0.0,-0.0399999477634516,0.0,4,0.0015532970428466797,0.9367238780354684,0.9367238780354684,620,-0.9999999669079888,0.0
155,1.0835230350494385,-0.9999999670263209,9.635762368376707e-11,-0.9999999668771469,-0.9999999671461388,0.0,789.7063602586265,0.1,0.0014278888702392578,0.024451017379760742,0.04668624,0.00022990169,-0.9999999672426025,0.0,-0.0399999477634516,0.0,4,0.0012733936309814453,0.9367238780354684,0.9367238780354684,624,-0.9999999668945745,0.0
156,0.9577648639678955,-0.999999967176276,6.894131078870576e-11,-0.9999999670954816,-0.9999999672860209,0.0,759.273706822242,0.1,0.0013349056243896484,0.023225784301757812,0.042459294,8.817501e-05,-0.99999996723597,0.0,-0.0399999477634516,0.0,4,0.0011625289916992188,0.9367238780354684,0.9367238780354684,628,-0.9999999668987285,0.0
157,0.9143166542053223,-0.9999999672103717,1.9068579666191044e-10,-0.9999999670038822,-0.9999999675002524,0.0,314.98868637412136,0.1,0.0013265609741210938,0.022649049758911133,0.04571449,0.00028355527,-0.9999999672334102,0.0,-0.0399999477634516,0.0,4,0.0010495185852050781,0.9367238780354684,0.9367238780354684,632,-0.9999999668908544,0.0
158,0.9192125797271729,-0.9999999671550246,1.9970360942761787e-10,-0.9999999668728905,-0.9999999674205649,0.0,353.3323135090935,0.1,0.0014560222625732422,0.024258136749267578,0.04608285,0.0007380101,-0.9999999672255717,0.0,-0.0399999477634516,0.0,4,0.0011868476867675781,0.9367238780354684,0.9367238780354684,636,-0.9999999668807771,0.0
159,0.9139053821563721,-0.999999967146882,1.9868909135978837e-10,-0.9999999669400015,-0.9999999673512336,0.0,320.6527552382622,0.1,0.0013580322265625,0.02478933334350586,0.047900215,0.00025499647,-0.9999999672177028,0.0,-0.0399999477634516,0.0,4,0.0010881423950195312,0.9367238780354684,0.9367238780354684,640,-0.9999999668763694,0.0
160,0.9713239669799805,-0.9999999669845315,1.0709466637162029e-10,-0.9999999668065782,-0.999999967088878,0.0,789.0783473775556,0.1,0.0013587474822998047,0.022375822067260742,0.050505117,0.00019029887,-0.9999999671943857,0.0,-0.0399999477634516,0.0,4,0.0010523796081542969,0.9367238780354684,0.9367238780354684,644,-0.9999999668649889,0.0
161,0.964989185333252,-0.9999999670488942,7.07017699369909e-11,-0.9999999669311967,-0.9999999671099538,0.0,945.4072306256666,0.1,0.0013172626495361328,0.022120237350463867,0.0493645,0.00022829032,-0.9999999671798365,0.0,-0.0399999477634516,0.0,4,0.001016855239868164,0.9367238780354684,0.9367238780354684,648,-0.9999999668628781,0.0
162,0.9650626182556152,-0.9999999671401099,1.5049169751334517e-10,-0.999999966976477,-0.9999999673373747,0.0,453.6070209400804,0.1,0.0015413761138916016,0.025898456573486328,0.046428464,0.00028756176,-0.9999999671758639,0.0,-0.0399999477634516,0.0,4,0.0010514259338378906,0.9367238780354684,0.9367238780354684,652,-0.9999999668727962,0.0
163,0.9585597515106201,-0.9999999670984465,1.4255110288556552e-10,-0.9999999669531974,-0.9999999673340842,0.0,486.90781339667944,0.1,0.0014309883117675781,0.024458885192871094,0.048695236,0.00037816074,-0.9999999671681221,0.0,-0.0399999477634516,0.0,4,0.00096893310546875,0.9367238780354684,0.9367238780354684,656,-0.9999999668692575,0.0
164,0.9520134925842285,-0.9999999669504094,2.760698723488031e-10,-0.9999999667276067,-0.9999999674079116,0.0,214.0631722031408,0.1,0.0012989044189453125,0.02495288848876953,0.0495575,0.00036426366,-0.9999999671463509,0.0,-0.0399999477634516,0.0,4,0.0011487007141113281,0.9367238780354684,0.9367238780354684,660,-0.9999999668619904,0.0
165,0.9553000926971436,-0.9999999671564594,5.4911389962201473e-11,-0.9999999670890987,-0.9999999672408302,0.0,936.8267827728936,0.1,0.001415252685546875,0.02296304702758789,0.049135283,0.00017902027,-0.9999999671473617,0.0,-0.0399999477634516,0.0,4,0.0010986328125,0.9367238780354684,0.9367238780354684,664,-0.9999999668553321,0.0
166,0.8993909358978271,-0.9999999672788107,3.107066238642181e-10,-0.9999999670232353,-0.999999967810395,0.0,199.46727385023414,0.1,0.0013375282287597656,0.025089502334594727,0.05101891,0.00034972216,-0.9999999671605067,0.0,-0.0399999477634516,0.0,4,0.0010197162628173828,0.9367238780354684,0.9367238780354684,668,-0.9999999668542255,0.0
167,0.9525022506713867,-0.9999999668659841,1.1327012949359621e-10,-0.9999999667426656,-0.9999999670379052,0.0,684.6007720619788,0.1,0.001316070556640625,0.02440333366394043,0.04940754,0.00016989606,-0.9999999671310544,0.0,-0.0399999477634516,0.0,4,0.0010235309600830078,0.9367238780354684,0.9367238780354684,672,-0.9999999668434784,0.0
168,0.9269406795501709,-0.9999999670478004,2.764050553363402e-10,-0.9999999668138901,-0.9999999675182913,0.0,188.802781594585,0.1,0.0012938976287841797,0.025011539459228516,0.04213921,0.00024930522,-0.9999999671227291,0.0,-0.0399999477634516,0.0,4,0.0011942386627197266,0.9367238780354684,0.9367238780354684,676,-0.9999999668383777,0.0
169,0.9070596694946289,-0.999999967133093,2.551931902658992e-10,-0.9999999667411243,-0.9999999674487581,0.0,275.4393667660516,0.1,0.001386880874633789,0.0256345272064209,0.042395286,0.0005517158,-0.9999999671237655,0.0,-0.0399999477634516,0.0,4,0.0010449886322021484,0.9367238780354684,0.9367238780354684,680,-0.9999999668426659,0.0
170,0.9201610088348389,-0.9999999671013952,3.204763012754014e-10,-0.9999999668317503,-0.9999999676474691,0.0,225.72179162154484,0.1,0.001253366470336914,0.02451634407043457,0.043500964,0.00023383675,-0.9999999671215284,0.0,-0.0399999477634516,0.0,4,0.0009987354278564453,0.9367238780354684,0.9367238780354684,684,-0.9999999668446354,0.0
171,0.9498887062072754,-0.9999999671047548,2.028692579817951e-10,-0.9999999669097106,-0.9999999674166726,0.0,323.03362767231636,0.1,0.0013394355773925781,0.024559974670410156,0.05101811,0.00022424203,-0.999999967119851,0.0,-0.0399999477634516,0.0,4,0.0011560916900634766,0.9367238780354684,0.9367238780354684,688,-0.9999999668207895,0.0
172,0.9208559989929199,-0.999999967134857,2.1881011826818007e-10,-0.9999999668760626,-0.9999999674014195,0.0,307.98622151676216,0.1,0.0012493133544921875,0.02456521987915039,0.043945212,0.00035734486,-0.9999999671213515,0.0,-0.0399999477634516,0.0,4,0.0010693073272705078,0.9367238780354684,0.9367238780354684,692,-0.9999999668120743,0.0
173,0.9175558090209961,-0.9999999669909394,2.016445548253766e-10,-0.9999999666802206,-0.999999967180468,0.0,346.366881066029,0.1,0.001407623291015625,0.024824142456054688,0.047617465,0.00038378258,-0.9999999671083104,0.0,-0.0399999477634516,0.0,4,0.001117706298828125,0.9367238780354684,0.9367238780354684,696,-0.9999999668028569,0.0
174,0.9582014083862305,-0.9999999671089559,1.7086271349781865e-10,-0.9999999668788411,-0.999999967338701,0.0,422.13631247804915,0.1,0.0012669563293457031,0.024289846420288086,0.049515706,0.00021270172,-0.999999967108375,0.0,-0.0399999477634516,0.0,4,0.0010652542114257812,0.9367238780354684,0.9367238780354684,700,-0.9999999667927676,0.0
175,0.947455644607544,-0.9999999669000191,1.4575748796531365e-10,-0.9999999667576442,-0.9999999671096955,0.0,546.9708113262775,0.1,0.0013012886047363281,0.024987220764160156,0.049349904,0.00020166492,-0.9999999670875395,0.0,-0.0399999477634516,0.0,4,0.0010516643524169922,0.9367238780354684,0.9367238780354684,704,-0.999999966785596,0.0
176,1.0264229774475098,-0.999999967096949,1.7735915580314957e-10,-0.999999966893206,-0.9999999672872864,0.0,365.90631646300295,0.1,0.001302480697631836,0.02525496482849121,0.043321464,0.00025318365,-0.9999999670884805,0.0,-0.0399999477634516,0.0,4,0.0012137889862060547,0.9367238780354684,0.9367238780354684,708,-0.9999999667807522,0.0
177,0.9789564609527588,-0.9999999670646791,2.394395934004109e-10,-0.9999999668785124,-0.9999999674758964,0.0,305.9842390762039,0.1,0.0014913082122802734,0.024367094039916992,0.05085002,0.00021346919,-0.9999999670861004,0.0,-0.0399999477634516,0.0,4,0.0011148452758789062,0.9367238780354684,0.9367238780354684,712,-0.9999999667821186,0.0
178,0.9513745307922363,-0.9999999670154547,1.6568978441839558e-10,-0.9999999668558859,-0.9999999672811393,0.0,411.7486844351565,0.1,0.001272439956665039,0.02385735511779785,0.048443157,0.00024493958,-0.9999999670790358,0.0,-0.0399999477634516,0.0,4,0.0010402202606201172,0.9367238780354684,0.9367238780354684,716,-0.9999999667779065,0.0
179,0.9699656963348389,-0.9999999671536863,3.333600485889536e-10,-0.9999999668654367,-0.9999999677146358,0.0,191.06764696674705,0.1,0.0015246868133544922,0.024653196334838867,0.05206167,0.000242887,-0.9999999670865009,0.0,-0.0399999477634516,0.0,4,0.0010399818420410156,0.9367238780354684,0.9367238780354684,720,-0.9999999667719575,0.0
180,0.9041881561279297,-0.9999999670994528,1.8263304801934204e-10,-0.9999999668650186,-0.9999999673307371,0.0,514.6252791162569,0.1,0.0013947486877441406,0.02559661865234375,0.047335636,0.00019162879,-0.999999967087796,0.0,-0.0399999477634516,0.0,4,0.0011730194091796875,0.9367238780354684,0.9367238780354684,724,-0.9999999667798433,0.0
181,0.9142317771911621,-0.9999999668803154,8.792676917444993e-11,-0.9999999667576724,-0.9999999669986996,0.0,803.9985334108857,0.1,0.0013048648834228516,0.02442193031311035,0.049374912,0.00020452814,-0.9999999670670481,0.0,-0.0399999477634516,0.0,4,0.0010800361633300781,0.9367238780354684,0.9367238780354684,728,-0.9999999667808662,0.0
182,0.9178199768066406,-0.9999999668795645,2.2043182924054468e-11,-0.999999966856729,-0.9999999669084656,0.0,2890.712012579597,0.1,0.0015244483947753906,0.020371675491333008,0.037785213,2.5317137e-05,-0.9999999670482997,0.0,-0.0399999477634516,0.0,4,0.0010678768157958984,0.9367238780354684,0.9367238780354684,732,-0.9999999667823726,0.0
183,0.9078657627105713,-0.9999999669052917,2.6343285993005874e-10,-0.9999999666910451,-0.9999999673548763,0.0,213.30702844427313,0.1,0.0014896392822265625,0.026225566864013672,0.04543735,0.0002452193,-0.999999967033999,0.0,-0.0399999477634516,0.0,4,0.0010929107666015625,0.9367238780354684,0.9367238780354684,736,-0.9999999667816654,0.0
184,0.9118270874023438,-0.9999999669090137,3.4742865223281555e-11,-0.9999999668542687,-0.9999999669453836,0.0,2089.3747391605975,0.1,0.0013992786407470703,0.022444963455200195,0.049841885,8.9981084e-05,-0.9999999670215005,0.0,-0.0399999477634516,0.0,4,0.0012149810791015625,0.9367238780354684,0.9367238780354684,740,-0.9999999667820614,0.0
185,0.9131207466125488,-0.9999999669177623,1.4478861525712967e-10,-0.9999999667356572,-0.9999999671387854,0.0,467.89468814785494,0.1,0.0013127326965332031,0.025992393493652344,0.052226827,0.00018826431,-0.9999999670111268,0.0,-0.0399999477634516,0.0,4,0.0012631416320800781,0.9367238780354684,0.9367238780354684,744,-0.9999999667814525,0.0
186,0.9196844100952148,-0.9999999668998081,1.354286878370556e-10,-0.9999999666742141,-0.9999999670355384,0.0,528.9955577422235,0.1,0.0013742446899414062,0.0262906551361084,0.045671545,0.00025752975,-0.9999999669999949,0.0,-0.0399999477634516,0.0,4,0.0010633468627929688,0.9367238780354684,0.9367238780354684,748,-0.9999999667766523,0.0
187,0.9165313243865967,-0.9999999668089734,1.559739356609245e-10,-0.9999999666185979,-0.9999999670067703,0.0,441.70311211673055,0.1,0.0013854503631591797,0.025290489196777344,0.050001767,0.00032377208,-0.9999999669808928,0.0,-0.0399999477634516,0.0,4,0.0011067390441894531,0.9367238780354684,0.9367238780354684,752,-0.9999999667635479,0.0
188,0.9050247669219971,-0.9999999669850557,1.3023140883356007e-10,-0.9999999667986725,-0.9999999671164257,0.0,624.7905942255657,0.1,0.0014376640319824219,0.02226090431213379,0.04811435,0.0001560667,-0.9999999669813091,0.0,-0.0399999477634516,0.0,4,0.001041412353515625,0.9367238780354684,0.9367238780354684,756,-0.9999999667666502,0.0
189,0.9208488464355469,-0.9999999670760573,2.5106132633403396e-11,-0.999999967044058,-0.9999999671109616,0.0,2669.0830082097173,0.1,0.0017213821411132812,0.021830320358276367,0.047893383,5.4224594e-05,-0.999999966990784,0.0,-0.0399999477634516,0.0,4,0.0010831356048583984,0.9367238780354684,0.9367238780354684,760,-0.999999966767927,0.0
190,0.920973539352417,-0.9999999670433278,7.281544421223628e-11,-0.9999999669204596,-0.9999999670980029,0.0,999.7330436063024,0.1,0.0013895034790039062,0.023334264755249023,0.05025166,0.00014451465,-0.9999999669960384,0.0,-0.0399999477634516,0.0,4,0.0011513233184814453,0.9367238780354684,0.9367238780354684,764,-0.9999999667630922,0.0
191,0.9141435623168945,-0.999999966902891,1.1438176174579732e-10,-0.9999999667984545,-0.9999999670959536,0.0,585.0056400272256,0.1,0.0013568401336669922,0.026474952697753906,0.03747587,0.0001401116,-0.9999999669867238,0.0,-0.0399999477634516,0.0,4,0.0011258125305175781,0.9367238780354684,0.9367238780354684,768,-0.9999999667574956,0.0
192,0.9014594554901123,-0.9999999668113564,5.977582350251515e-11,-0.9999999667097452,-0.9999999668638584,0.0,943.4915510913676,0.1,0.0013780593872070312,0.022198915481567383,0.048877068,0.00034851,-0.9999999669691871,0.0,-0.0399999477634516,0.0,4,0.001119852066040039,0.9367238780354684,0.9367238780354684,772,-0.9999999667540266,0.0
193,0.9344179630279541,-0.9999999668799198,1.558844064697239e-10,-0.9999999666716606,-0.9999999670399715,0.0,417.8416733826242,0.1,0.0014026165008544922,0.0252685546875,0.04716911,0.00020561623,-0.9999999669602604,0.0,-0.0399999477634516,0.0,4,0.001073598861694336,0.9367238780354684,0.9367238780354684,776,-0.9999999667453442,0.0
194,0.9507474899291992,-0.9999999669083797,1.3544342953746193e-10,-0.999999966748963,-0.9999999670813555,0.0,532.139436536368,0.1,0.0015878677368164062,0.02546072006225586,0.04755568,0.00025460875,-0.9999999669550723,0.0,-0.0399999477634516,0.0,4,0.0010731220245361328,0.9367238780354684,0.9367238780354684,780,-0.9999999667383155,0.0
195,0.9379384517669678,-0.999999966934694,5.515227749293776e-11,-0.9999999668492576,-0.9999999669968369,0.0,1188.447309407729,0.1,0.00147247314453125,0.023040771484375,0.04983758,0.00015588944,-0.9999999669530345,0.0,-0.0399999477634516,0.0,4,0.0011353492736816406,0.9367238780354684,0.9367238780354684,784,-0.9999999667333027,0.0
196,0.9374196529388428,-0.9999999669476636,1.331529586067943e-10,-0.9999999668010904,-0.9999999671515101,0.0,539.8738430647173,0.1,0.0014379024505615234,0.02640819549560547,0.04672349,0.00017849961,-0.9999999669524974,0.0,-0.0399999477634516,0.0,4,0.0011906623840332031,0.9367238780354684,0.9367238780354684,788,-0.9999999667401993,0.0
197,0.9399843215942383,-0.9999999667860718,8.218013452456577e-11,-0.9999999666742039,-0.9999999669062252,0.0,752.9306365525063,0.1,0.00148773193359375,0.023099184036254883,0.045029547,0.0002525342,-0.9999999669358548,0.0,-0.0399999477634516,0.0,4,0.0011761188507080078,0.9367238780354684,0.9367238780354684,792,-0.9999999667300462,0.0
198,0.9803717136383057,-0.9999999668472654,1.750790844138853e-10,-0.9999999667062391,-0.9999999671465363,0.0,418.3778302914991,0.1,0.0013613700866699219,0.026386022567749023,0.05038852,0.00021264984,-0.9999999669269959,0.0,-0.0399999477634516,0.0,4,0.0012135505676269531,0.9367238780354684,0.9367238780354684,796,-0.9999999667234083,0.0
199,0.9253220558166504,-0.9999999667748122,2.929759469719406e-11,-0.999999966741479,-0.9999999668195458,0.0,1975.7545430326638,0.1,0.0014929771423339844,0.023474693298339844,0.051902518,4.7176807e-05,-0.9999999669117776,0.0,-0.0399999477634516,0.0,4,0.0011985301971435547,0.9367238780354684,0.9367238780354684,800,-0.9999999667159137,0.0
200,0.9187672138214111,-0.9999999669932729,1.2635159822262391e-10,-0.9999999668090349,-0.9999999671618143,0.0,553.6496369852065,0.1,0.0013599395751953125,0.024746179580688477,0.044838876,0.0003400916,-0.9999999669199271,0.0,-0.0399999477634516,0.0,4,0.0010857582092285156,0.9367238780354684,0.9367238780354684,804,-0.9999999667109702,0.0
201,0.9201598167419434,-0.9999999668241779,9.173352397385799e-11,-0.9999999666730597,-0.9999999669190964,0.0,845.7298893081855,0.1,0.001468658447265625,0.02492499351501465,0.048958454,0.0003649583,-0.9999999669103522,0.0,-0.0399999477634516,0.0,4,0.001055002212524414,0.9367238780354684,0.9367238780354684,808,-0.9999999667035203,0.0
202,0.9596567153930664,-0.9999999669705585,1.984050523739927e-10,-0.9999999666887225,-0.9999999672462982,0.0,294.7805216562573,0.1,0.001308441162109375,0.0256500244140625,0.045094952,0.00096878083,-0.9999999669163728,0.0,-0.0399999477634516,0.0,4,0.0011217594146728516,0.9367238780354684,0.9367238780354684,812,-0.9999999666938844,0.0
203,0.9593262672424316,-0.9999999668732396,1.1038086245356257e-10,-0.9999999667579649,-0.9999999670541961,0.0,601.956159313382,0.1,0.001394033432006836,0.025461435317993164,0.050587058,0.00015493155,-0.9999999669120595,0.0,-0.0399999477634516,0.0,4,0.0011737346649169922,0.9367238780354684,0.9367238780354684,816,-0.9999999666830525,0.0
204,1.0288050174713135,-0.9999999669232642,1.0540113260426814e-10,-0.9999999667761219,-0.9999999670566604,0.0,532.2550666497932,0.1,0.00144195556640625,0.025924205780029297,0.04983594,0.00031590144,-0.9999999669131799,0.0,-0.0399999477634516,0.0,4,0.0010569095611572266,0.9367238780354684,0.9367238780354684,820,-0.9999999666805676,0.0
205,0.9587664604187012,-0.99999996678989,1.2865607304439742e-10,-0.9999999666944195,-0.99999996701022,0.0,502.7530065312082,0.1,0.0014262199401855469,0.02634716033935547,0.050800268,0.00023199379,-0.999999966900851,0.0,-0.0399999477634516,0.0,4,0.001100301742553711,0.9367238780354684,0.9367238780354684,824,-0.9999999666727182,0.0
206,0.9321770668029785,-0.9999999669263768,2.990936030681021e-11,-0.9999999668967352,-0.9999999669759916,0.0,2168.306768737979,0.1,0.001529693603515625,0.020937204360961914,0.051176634,3.3100583e-05,-0.9999999669034036,0.0,-0.0399999477634516,0.0,4,0.0011410713195800781,0.9367238780354684,0.9367238780354684,828,-0.9999999666703249,0.0
207,0.9249825477600098,-0.9999999668679012,9.742954721519566e-11,-0.9999999667114017,-0.9999999669530006,0.0,749.1253621762249,0.1,0.0015799999237060547,0.026411771774291992,0.047232762,0.00029586453,-0.9999999668998535,0.0,-0.0399999477634516,0.0,4,0.0010950565338134766,0.9367238780354684,0.9367238780354684,832,-0.9999999666705593,0.0
208,0.9340419769287109,-0.9999999668226678,1.8017716188248017e-10,-0.9999999666214712,-0.9999999671122604,0.0,400.6908603354228,0.1,0.001348733901977539,0.026685476303100586,0.04593882,0.00028578966,-0.9999999668921349,0.0,-0.0399999477634516,0.0,4,0.0011184215545654297,0.9367238780354684,0.9367238780354684,836,-0.9999999666602125,0.0
209,0.9722170829772949,-0.9999999668510612,1.3927012926721146e-10,-0.999999966639767,-0.9999999670312101,0.0,407.0518865726456,0.1,0.0013952255249023438,0.02577996253967285,0.048455562,0.00086380885,-0.9999999668880275,0.0,-0.0399999477634516,0.0,4,0.001115560531616211,0.9367238780354684,0.9367238780354684,840,-0.9999999666552526,0.0
210,0.9457371234893799,-0.9999999668817636,3.2316438825373287e-10,-0.9999999666174568,-0.9999999674190188,0.0,156.7507067487508,0.1,0.0013766288757324219,0.024135828018188477,0.024762304,0.00022117724,-0.9999999668874011,0.0,-0.0399999477634516,0.0,4,0.0011031627655029297,0.9367238780354684,0.9367238780354684,844,-0.9999999666520901,0.0
211,0.9135696887969971,-0.9999999668963462,7.306816754362488e-11,-0.9999999668166086,-0.9999999670141513,0.0,965.1344086598226,0.1,0.0013420581817626953,0.02305006980895996,0.043325093,7.908147e-05,-0.9999999668882957,0.0,-0.0399999477634516,0.0,4,0.0010225772857666016,0.9367238780354684,0.9367238780354684,848,-0.999999966640969,0.0
212,0.9767372608184814,-0.9999999668651571,1.8572127720335345e-10,-0.9999999666802637,-0.9999999671255178,0.0,362.5698071366182,0.1,0.001672983169555664,0.02562570571899414,0.0468474,0.000408403,-0.9999999668859819,0.0,-0.0399999477634516,0.0,4,0.0010733604431152344,0.9367238780354684,0.9367238780354684,852,-0.999999966633803,0.0
213,1.0050749778747559,-0.999999966759205,4.454469096648516e-11,-0.9999999667027153,-0.9999999668264794,0.0,1612.5936334953549,0.1,0.001514434814453125,0.02380514144897461,0.04953602,8.0270256e-05,-0.9999999668733043,0.0,-0.0399999477634516,0.0,4,0.0010957717895507812,0.9367238780354684,0.9367238780354684,856,-0.9999999666338043,0.0
214,0.9329602718353271,-0.999999966770766,5.246306543789281e-11,-0.9999999667071484,-0.9999999668445025,0.0,1225.9476430591892,0.1,0.0015676021575927734,0.02396535873413086,0.04899133,0.00021153652,-0.9999999668630505,0.0,-0.0399999477634516,0.0,4,0.001194000244140625,0.9367238780354684,0.9367238780354684,860,-0.999999966632188,0.0
215,0.9589278697967529,-0.9999999669194704,1.5373706506015103e-10,-0.9999999667491455,-0.9999999670981932,0.0,408.69907490100246,0.1,0.0015163421630859375,0.025007009506225586,0.04860258,0.0004196603,-0.9999999668686925,0.0,-0.0399999477634516,0.0,4,0.0010693073272705078,0.9367238780354684,0.9367238780354684,864,-0.9999999666264845,0.0
216,1.1034290790557861,-0.9999999668977687,1.326715163674693e-10,-0.9999999666844017,-0.9999999670283919,0.0,417.4630860224701,0.1,0.0014927387237548828,0.02575397491455078,0.04729141,0.0010870264,-0.9999999668716002,0.0,-0.0399999477634516,0.0,4,0.001066446304321289,0.9367238780354684,0.9367238780354684,868,-0.9999999666227191,0.0
217,1.015690803527832,-0.9999999669631601,1.742332523554559e-10,-0.9999999666873525,-0.9999999671168269,0.0,356.5520159091209,0.1,0.001352548599243164,0.02558135986328125,0.049159646,0.0004379447,-0.9999999668807562,0.0,-0.0399999477634516,0.0,4,0.0012509822845458984,0.9367238780354684,0.9367238780354684,872,-0.9999999666230471,0.0
218,0.9472401142120361,-0.9999999668476873,1.606748823728274e-10,-0.9999999667237642,-0.9999999671211626,0.0,336.35121767033223,0.1,0.0013952255249023438,0.024926185607910156,0.049488887,0.0001258631,-0.9999999668774494,0.0,-0.0399999477634516,0.0,4,0.0010516643524169922,0.9367238780354684,0.9367238780354684,876,-0.9999999666234918,0.0
219,0.9480810165405273,-0.9999999667544476,1.565762927207461e-10,-0.9999999665653503,-0.9999999669892001,0.0,440.4068188374402,0.1,0.0014960765838623047,0.025134801864624023,0.050386872,0.0002100125,-0.9999999668651492,0.0,-0.0399999477634516,0.0,4,0.0010478496551513672,0.9367238780354684,0.9367238780354684,880,-0.9999999666196051,0.0
220,0.9315934181213379,-0.9999999667328832,7.336717030029263e-11,-0.999999966670921,-0.9999999668508381,0.0,819.3228401245083,0.1,0.0013489723205566406,0.023888587951660156,0.049660638,9.313635e-05,-0.9999999668519226,0.0,-0.0399999477634516,0.0,4,0.0010673999786376953,0.9367238780354684,0.9367238780354684,884,-0.9999999666169593,0.0
221,0.9577124118804932,-0.9999999667408992,3.61202107818556e-11,-0.9999999667033319,-0.9999999667810766,0.0,1932.1370930667147,0.1,0.001489400863647461,0.02321934700012207,0.04756384,6.285326e-05,-0.9999999668408204,0.0,-0.0399999477634516,0.0,4,0.0013685226440429688,0.9367238780354684,0.9367238780354684,888,-0.9999999666183116,0.0
222,0.9363687038421631,-0.99999996691601,6.629963775763156e-11,-0.9999999668119699,-0.9999999669804109,0.0,1135.0716480594435,0.1,0.0013358592987060547,0.023125410079956055,0.050043732,0.000102790196,-0.9999999668483394,0.0,-0.0399999477634516,0.0,4,0.00118255615234375,0.9367238780354684,0.9367238780354684,892,-0.9999999666196079,0.0
223,0.9416728019714355,-0.9999999668242802,1.2956441189132884e-10,-0.9999999666718846,-0.999999966992472,0.0,451.76611451617714,0.1,0.0015015602111816406,0.024709224700927734,0.051157627,0.00019856688,-0.9999999668459334,0.0,-0.0399999477634516,0.0,4,0.001094818115234375,0.9367238780354684,0.9367238780354684,896,-0.9999999666186845,0.0
224,0.9768352508544922,-0.9999999670227219,1.6336277016079854e-10,-0.999999966848474,-0.999999967199146,0.0,339.04036747039777,0.1,0.0013260841369628906,0.025130271911621094,0.036840685,0.00032009935,-0.9999999668636123,0.0,-0.0399999477634516,0.0,4,0.0011639595031738281,0.9367238780354684,0.9367238780354684,900,-0.9999999666194929,0.0
225,0.9349715709686279,-0.9999999667526438,1.5466580765684937e-10,-0.9999999666059101,-0.9999999670128064,0.0,358.3490147878814,0.1,0.0013341903686523438,0.024993896484375,0.050936982,0.00016293916,-0.9999999668525155,0.0,-0.0399999477634516,0.0,4,0.001188516616821289,0.9367238780354684,0.9367238780354684,904,-0.9999999666143303,0.0
226,0.9367332458496094,-0.9999999667676072,8.596922297643366e-11,-0.9999999666677359,-0.9999999668960093,0.0,725.842801850584,0.1,0.0015447139739990234,0.025673389434814453,0.04849308,0.0002012706,-0.9999999668440247,0.0,-0.0399999477634516,0.0,4,0.0010771751403808594,0.9367238780354684,0.9367238780354684,908,-0.9999999666139684,0.0
227,0.9571259021759033,-0.9999999666924723,4.841528246998304e-11,-0.9999999666211292,-0.9999999667489803,0.0,1420.7741307227768,0.1,0.0015828609466552734,0.0233614444732666,0.046898797,0.0002012301,-0.9999999668288695,0.0,-0.0399999477634516,0.0,4,0.0011916160583496094,0.9367238780354684,0.9367238780354684,912,-0.9999999666113274,0.0
228,0.9575576782226562,-0.9999999668028967,1.5202943361197745e-10,-0.999999966575708,-0.9999999669901196,0.0,416.7202177321921,0.1,0.00127410888671875,0.024297237396240234,0.046757862,0.00023569653,-0.9999999668262722,0.0,-0.0399999477634516,0.0,4,0.0010941028594970703,0.9367238780354684,0.9367238780354684,916,-0.9999999666064346,0.0
229,0.944957971572876,-0.999999966800623,1.4439254792966835e-10,-0.9999999666388342,-0.9999999669970157,0.0,422.4801810092214,0.1,0.0014507770538330078,0.025315523147583008,0.050310515,0.00025551257,-0.9999999668237074,0.0,-0.0399999477634516,0.0,4,0.0010819435119628906,0.9367238780354684,0.9367238780354684,920,-0.9999999666038342,0.0
230,0.9868085384368896,-0.99999996681162,9.226931526036725e-11,-0.9999999666791322,-0.9999999669128476,0.0,792.322503061921,0.1,0.0013418197631835938,0.02238774299621582,0.04600355,0.0001412332,-0.9999999668224987,0.0,-0.0399999477634516,0.0,4,0.0010633468627929688,0.9367238780354684,0.9367238780354684,924,-0.9999999665988692,0.0
231,0.9768195152282715,-0.9999999667590269,6.300128596675623e-11,-0.9999999666885304,-0.9999999668542641,0.0,966.8422148533359,0.1,0.0012841224670410156,0.024283885955810547,0.050514057,7.6503384e-05,-0.9999999668161514,0.0,-0.0399999477634516,0.0,4,0.0010764598846435547,0.9367238780354684,0.9367238780354684,928,-0.9999999665995621,0.0
232,0.9661076068878174,-0.9999999667781478,1.8798216917718468e-10,-0.999999966533794,-0.9999999670600346,0.0,302.99187853218586,0.1,0.001300811767578125,0.02497267723083496,0.04005613,0.0005942413,-0.9999999668123511,0.0,-0.0399999477634516,0.0,4,0.0011432170867919922,0.9367238780354684,0.9367238780354684,932,-0.9999999665951474,0.0
233,0.9696259498596191,-0.9999999667358633,1.0252964515206949e-10,-0.9999999665947823,-0.9999999668357211,0.0,691.652377960081,0.1,0.0012536048889160156,0.024208545684814453,0.050878115,0.00016085285,-0.9999999668047024,0.0,-0.0399999477634516,0.0,4,0.0010144710540771484,0.9367238780354684,0.9367238780354684,936,-0.9999999665935532,0.0
234,0.9570858478546143,-0.9999999667497941,8.346428640427896e-11,-0.9999999666713721,-0.9999999668777071,0.0,836.7843021593521,0.1,0.0014328956604003906,0.021778106689453125,0.04934126,0.0001372395,-0.9999999667992115,0.0,-0.0399999477634516,0.0,4,0.0010256767272949219,0.9367238780354684,0.9367238780354684,940,-0.9999999665886907,0.0
235,0.9181489944458008,-0.99999996683768,8.68498313433218e-11,-0.9999999667233135,-0.9999999669591557,0.0,687.8741107727205,0.1,0.0016150474548339844,0.0236966609954834,0.048967406,0.00010036873,-0.9999999668030585,0.0,-0.0399999477634516,0.0,4,0.0012187957763671875,0.9367238780354684,0.9367238780354684,944,-0.9999999665893796,0.0
236,0.9160275459289551,-0.9999999667229813,2.356699038333393e-11,-0.9999999666970991,-0.9999999667567341,0.0,3297.152114009553,0.1,0.0015294551849365234,0.019571542739868164,0.04736734,4.131973e-05,-0.9999999667950508,0.0,-0.0399999477634516,0.0,4,0.0011358261108398438,0.9367238780354684,0.9367238780354684,948,-0.9999999665897511,0.0
237,0.9344096183776855,-0.9999999666994333,4.7568812173781525e-11,-0.9999999666368324,-0.9999999667677835,0.0,1173.775248703098,0.1,0.0015497207641601562,0.024140357971191406,0.048533477,0.00030107374,-0.999999966785489,0.0,-0.0399999477634516,0.0,4,0.0012392997741699219,0.9367238780354684,0.9367238780354684,952,-0.9999999665822927,0.0
238,0.8845744132995605,-0.9999999666775503,8.121921568880531e-11,-0.9999999665951831,-0.9999999668105855,0.0,810.6323234585248,0.1,0.0014269351959228516,0.02292013168334961,0.04994103,0.00011766399,-0.9999999667746952,0.0,-0.0399999477634516,0.0,4,0.001089334487915039,0.9367238780354684,0.9367238780354684,956,-0.9999999665765108,0.0
239,0.8965609073638916,-0.9999999667280932,1.077841527307244e-10,-0.9999999665519406,-0.9999999668349948,0.0,724.3407752800631,0.1,0.0013852119445800781,0.02571892738342285,0.04547585,0.00026764948,-0.999999966770035,0.0,-0.0399999477634516,0.0,4,0.0011394023895263672,0.9367238780354684,0.9367238780354684,960,-0.999999966569376,0.0
240,0.9050939083099365,-0.9999999667244848,6.581831211404024e-11,-0.9999999666353823,-0.9999999668107911,0.0,1309.2022004694088,0.1,0.0014448165893554688,0.023769378662109375,0.050973993,5.4641874e-05,-0.9999999667654801,0.0,-0.0399999477634516,0.0,4,0.0011508464813232422,0.9367238780354684,0.9367238780354684,964,-0.9999999665661571,0.0
241,0.8999285697937012,-0.9999999670517862,4.4595886365449203e-10,-0.9999999666298105,-0.9999999677915223,0.0,150.61980671914324,0.1,0.0014324188232421875,0.026580810546875,0.049703106,0.00053811463,-0.9999999667941106,0.0,-0.0399999477634516,0.0,4,0.0010786056518554688,0.9367238780354684,0.9367238780354684,968,-0.9999999665685785,0.0
242,0.9183285236358643,-0.9999999666559616,1.04270828842871e-10,-0.9999999665543724,-0.999999966829227,0.0,623.906401831194,0.1,0.001554250717163086,0.02564072608947754,0.0463989,0.00015708682,-0.9999999667802957,0.0,-0.0399999477634516,0.0,4,0.0011055469512939453,0.9367238780354684,0.9367238780354684,972,-0.9999999665651944,0.0
243,0.9121658802032471,-0.9999999667095929,7.772847163150325e-11,-0.9999999666277579,-0.9999999668237713,0.0,870.7164410037628,0.1,0.0015096664428710938,0.02725052833557129,0.05150166,4.006723e-05,-0.9999999667732254,0.0,-0.0399999477634516,0.0,4,0.00112152099609375,0.9367238780354684,0.9367238780354684,976,-0.9999999665615285,0.0
244,0.9497263431549072,-0.9999999666947852,1.318935443351359e-10,-0.9999999665549353,-0.9999999668573021,0.0,526.482410998091,0.1,0.0014617443084716797,0.02542591094970703,0.047075503,0.00019238231,-0.9999999667653815,0.0,-0.0399999477634516,0.0,4,0.0010640621185302734,0.9367238780354684,0.9367238780354684,980,-0.9999999665603484,0.0
245,0.8995802402496338,-0.999999966755696,1.0203376771723645e-10,-0.9999999666255104,-0.999999966907902,0.0,523.9022756902125,0.1,0.0014557838439941406,0.026081085205078125,0.03715249,0.00021302077,-0.9999999667644129,0.0,-0.0399999477634516,0.0,4,0.0010612010955810547,0.9367238780354684,0.9367238780354684,984,-0.9999999665574216,0.0
246,1.0090563297271729,-0.9999999667193661,6.55022515947062e-11,-0.999999966636715,-0.9999999667875925,0.0,1160.8883424568148,0.1,0.0014190673828125,0.024802207946777344,0.05110096,8.66871e-05,-0.9999999667599082,0.0,-0.0399999477634516,0.0,4,0.0012011528015136719,0.9367238780354684,0.9367238780354684,988,-0.999999966554672,0.0
247,0.8909268379211426,-0.9999999666353173,5.0058818370407493e-11,-0.9999999665816761,-0.999999966700714,0.0,1616.4875669866524,0.1,0.0014374256134033203,0.023061275482177734,0.048882138,7.356535e-05,-0.9999999667474492,0.0,-0.0399999477634516,0.0,4,0.0011856555938720703,0.9367238780354684,0.9367238780354684,992,-0.9999999665526734,0.0
248,0.888516902923584,-0.9999999668259238,1.9416325610258153e-10,-0.9999999666333568,-0.9999999671086923,0.0,285.86595728268355,0.1,0.0014185905456542969,0.02582693099975586,0.050280057,0.0003294284,-0.9999999667552967,0.0,-0.0399999477634516,0.0,4,0.0011768341064453125,0.9367238780354684,0.9367238780354684,996,-0.999999966550996,0.0
249,0.8899314403533936,-0.9999999666367771,5.421407172813415e-11,-0.9999999665765662,-0.9999999667117971,0.0,1413.09506736612,0.1,0.0013451576232910156,0.022753238677978516,0.04966172,9.1809365e-05,-0.9999999667434448,0.0,-0.0399999477634516,0.0,4,0.0012178421020507812,0.9367238780354684,0.9367238780354684,1000,-0.9999999665445126,0.0
250,0.9443545341491699,-0.9999999667420754,7.3671986410767e-11,-0.9999999666636776,-0.9999999668184465,0.0,931.200936016604,0.1,0.0013234615325927734,0.026304244995117188,0.05060629,9.754264e-05,-0.9999999667433079,0.0,-0.0399999477634516,0.0,4,0.0011410713195800781,0.9367238780354684,0.9367238780354684,1004,-0.9999999665398717,0.0
251,0.9015552997589111,-0.9999999666754378,4.707904917080462e-11,-0.9999999665952035,-0.9999999667143789,0.0,1374.6026531138186,0.1,0.0015194416046142578,0.023432254791259766,0.047630526,0.00032547532,-0.9999999667365209,0.0,-0.0399999477634516,0.0,4,0.0011286735534667969,0.9367238780354684,0.9367238780354684,1008,-0.9999999665360711,0.0
252,0.8888530731201172,-0.9999999666385313,3.080656385198015e-11,-0.9999999665899475,-0.9999999666751298,0.0,2132.977606439761,0.1,0.0014319419860839844,0.021181106567382812,0.04742572,0.0001540935,-0.999999966726722,0.0,-0.0399999477634516,0.0,4,0.0012350082397460938,0.9367238780354684,0.9367238780354684,1012,-0.9999999665328869,0.0
253,0.8960692882537842,-0.9999999667405783,2.548319007156535e-11,-0.9999999667182953,-0.9999999667835557,0.0,2580.701854975011,0.1,0.001421213150024414,0.021598100662231445,0.051189743,3.0909945e-05,-0.9999999667281076,0.0,-0.0399999477634516,0.0,4,0.0012454986572265625,0.9367238780354684,0.9367238780354684,1016,-0.9999999665330946,0.0
254,0.918663501739502,-0.9999999667135141,1.724809145142816e-10,-0.999999966585273,-0.999999967006574,0.0,379.4492311278625,0.1,0.0013852119445800781,0.0275726318359375,0.045175552,0.0002416118,-0.9999999667266483,0.0,-0.0399999477634516,0.0,4,0.0011005401611328125,0.9367238780354684,0.9367238780354684,1020,-0.9999999665285516,0.0
255,0.8838517665863037,-0.9999999666744265,1.0965122301386593e-10,-0.9999999665159363,-0.9999999668007289,0.0,725.3584069452999,0.1,0.001495361328125,0.02586197853088379,0.049288698,0.00020473168,-0.9999999667214261,0.0,-0.0399999477634516,0.0,4,0.0010991096496582031,0.9367238780354684,0.9367238780354684,1024,-0.9999999665253156,0.0
256,0.9032609462738037,-0.9999999666207341,3.5822764566975213e-11,-0.9999999665674897,-0.9999999666683295,0.0,1829.493880254845,0.1,0.001482248306274414,0.023377656936645508,0.04803227,0.00013176598,-0.9999999667113569,0.0,-0.0399999477634516,0.0,4,0.0010750293731689453,0.9367238780354684,0.9367238780354684,1028,-0.999999966523008,0.0
257,0.8916630744934082,-0.9999999668381094,1.8354669368310033e-10,-0.9999999666968828,-0.9999999671480688,0.0,303.6230641355324,0.1,0.0015180110931396484,0.025711774826049805,0.04910273,0.0002945863,-0.9999999667240322,0.0,-0.0399999477634516,0.0,4,0.0010828971862792969,0.9367238780354684,0.9367238780354684,1032,-0.9999999665208374,0.0
258,0.9576349258422852,-0.9999999667263018,1.6335216565789475e-10,-0.9999999665531627,-0.9999999669866162,0.0,364.4812368571214,0.1,0.0016541481018066406,0.02556133270263672,0.051742394,0.0002689881,-0.9999999667242592,0.0,-0.0399999477634516,0.0,4,0.0011110305786132812,0.9367238780354684,0.9367238780354684,1036,-0.9999999665236001,0.0
259,0.9460709095001221,-0.9999999666378514,1.0500840714350821e-10,-0.9999999665572064,-0.9999999668159949,0.0,721.8252041339925,0.1,0.0016646385192871094,0.025380373001098633,0.04961656,0.00021248721,-0.9999999667156184,0.0,-0.0399999477634516,0.0,4,0.001079559326171875,0.9367238780354684,0.9367238780354684,1040,-0.9999999665154582,0.0
260,0.9458565711975098,-0.9999999666725947,3.233332212039975e-11,-0.9999999666345465,-0.9999999667228625,0.0,2005.8244990585943,0.1,0.0013966560363769531,0.02080678939819336,0.050649244,6.0961713e-05,-0.9999999667113161,0.0,-0.0399999477634516,0.0,4,0.0011577606201171875,0.9367238780354684,0.9367238780354684,1044,-0.9999999665149946,0.0
261,0.9019615650177002,-0.9999999667062147,6.180944324380414e-11,-0.9999999666174197,-0.9999999667701658,0.0,1016.1248604317113,0.1,0.0015020370483398438,0.02615213394165039,0.049493007,7.9665275e-05,-0.9999999667108059,0.0,-0.0399999477634516,0.0,4,0.0010557174682617188,0.9367238780354684,0.9367238780354684,1048,-0.9999999665147944,0.0
262,0.9718074798583984,-0.9999999665857502,2.718435914999177e-11,-0.9999999665581905,-0.999999966619284,0.0,2634.357495551805,0.1,0.001481771469116211,0.0233151912689209,0.04948102,6.77877e-05,-0.9999999666983004,0.0,-0.0399999477634516,0.0,4,0.0011315345764160156,0.9367238780354684,0.9367238780354684,1052,-0.9999999665134954,0.0
263,0.9128768444061279,-0.999999966714119,5.5021779762960966e-11,-0.9999999666364892,-0.9999999667896766,0.0,1136.2165508989262,0.1,0.001405954360961914,0.025904178619384766,0.048966922,0.00015713499,-0.9999999666998822,0.0,-0.0399999477634516,0.0,4,0.0011067390441894531,0.9367238780354684,0.9367238780354684,1056,-0.9999999665120195,0.0
264,0.9044947624206543,-0.9999999666246895,1.0531806893685578e-10,-0.9999999665346733,-0.9999999668032644,0.0,755.4360526857905,0.1,0.0014133453369140625,0.026250600814819336,0.05039656,0.00015292641,-0.999999966692363,0.0,-0.0399999477634516,0.0,4,0.0012080669403076172,0.9367238780354684,0.9367238780354684,1060,-0.999999966500305,0.0
265,0.8963096141815186,-0.999999966628667,6.073359683298542e-11,-0.999999966569298,-0.9999999667246262,0.0,1513.2319802912762,0.1,0.0013222694396972656,0.025632858276367188,0.050899714,5.829535e-05,-0.9999999666859934,0.0,-0.0399999477634516,0.0,4,0.0011327266693115234,0.9367238780354684,0.9367238780354684,1064,-0.9999999664921142,0.0
266,0.9062683582305908,-0.9999999666882635,5.950705136286035e-11,-0.9999999666182291,-0.9999999667810517,0.0,1416.9540127594112,0.1,0.0013248920440673828,0.025785446166992188,0.047618955,6.534024e-05,-0.9999999666862205,0.0,-0.0399999477634516,0.0,4,0.0011792182922363281,0.9367238780354684,0.9367238780354684,1068,-0.9999999664952225,0.0
267,0.906268835067749,-0.9999999666865825,5.5481712421481756e-11,-0.9999999666118009,-0.9999999667633022,0.0,1315.10874455735,0.1,0.0014071464538574219,0.023909807205200195,0.048691966,0.000108460335,-0.9999999666862567,0.0,-0.0399999477634516,0.0,4,0.0010731220245361328,0.9367238780354684,0.9367238780354684,1072,-0.999999966492629,0.0
268,0.8793520927429199,-0.9999999667093328,1.2976257251421852e-10,-0.9999999666161101,-0.9999999669330175,0.0,343.2574563639359,0.1,0.0015177726745605469,0.026648283004760742,0.04413659,8.388377e-05,-0.9999999666885643,0.0,-0.0399999477634516,0.0,4,0.0010724067687988281,0.9367238780354684,0.9367238780354684,1076,-0.9999999664918278,0.0
269,0.9574050903320312,-0.9999999666601074,4.4081821781516297e-11,-0.999999966590644,-0.9999999666998791,0.0,1730.650273595385,0.1,0.0013737678527832031,0.025757551193237305,0.049392812,0.000113913884,-0.9999999666857187,0.0,-0.0399999477634516,0.0,4,0.0012259483337402344,0.9367238780354684,0.9367238780354684,1080,-0.9999999664923002,0.0
270,0.8964660167694092,-0.9999999667019503,6.020657975786933e-11,-0.9999999666320196,-0.9999999667751542,0.0,1132.806027628443,0.1,0.0015573501586914062,0.02817249298095703,0.046814732,0.00010297647,-0.9999999666873418,0.0,-0.0399999477634516,0.0,4,0.0011758804321289062,0.9367238780354684,0.9367238780354684,1084,-0.9999999664939735,0.0
271,0.9213390350341797,-0.9999999666100423,8.756554721976124e-11,-0.9999999664748871,-0.999999966698152,0.0,804.4091919369976,0.1,0.0013689994812011719,0.026600360870361328,0.04762976,0.00014385147,-0.9999999666796119,0.0,-0.0399999477634516,0.0,4,0.0011029243469238281,0.9367238780354684,0.9367238780354684,1088,-0.9999999664893049,0.0
272,0.9335033893585205,-0.9999999667054144,1.0494442355158318e-10,-0.9999999665705219,-0.9999999668165542,0.0,577.8612926599528,0.1,0.0015361309051513672,0.025730133056640625,0.05073684,0.00021066099,-0.9999999666821922,0.0,-0.0399999477634516,0.0,4,0.0010769367218017578,0.9367238780354684,0.9367238780354684,1092,-0.9999999664859195,0.0
273,0.9361443519592285,-0.9999999666836807,6.636201641976898e-11,-0.9999999666053951,-0.9999999667809469,0.0,849.0116459391475,0.1,0.0014832019805908203,0.026142358779907227,0.04715229,9.097186e-05,-0.999999966682341,0.0,-0.0399999477634516,0.0,4,0.0010886192321777344,0.9367238780354684,0.9367238780354684,1096,-0.9999999664838355,0.0
274,0.9606475830078125,-0.9999999666478223,1.0309628558310235e-10,-0.9999999665024086,-0.9999999667661166,0.0,744.2022778187561,0.1,0.0013890266418457031,0.0264284610748291,0.048715286,0.00019018305,-0.9999999666788891,0.0,-0.0399999477634516,0.0,4,0.0012044906616210938,0.9367238780354684,0.9367238780354684,1100,-0.999999966479558,0.0
275,0.9229147434234619,-0.9999999665917203,2.0007836884871674e-11,-0.9999999665733685,-0.9999999666254498,0.0,3312.076590129382,0.1,0.0014629364013671875,0.021033525466918945,0.049539026,1.6024289e-05,-0.9999999666701722,0.0,-0.0399999477634516,0.0,4,0.0011997222900390625,0.9367238780354684,0.9367238780354684,1104,-0.9999999664805421,0.0
276,0.9105224609375,-0.9999999666269437,1.0285939895725652e-10,-0.9999999665469885,-0.9999999668035002,0.0,614.0963946215586,0.1,0.0015511512756347656,0.025254487991333008,0.041689985,5.8536083e-05,-0.9999999666658494,0.0,-0.0399999477634516,0.0,4,0.0010559558868408203,0.9367238780354684,0.9367238780354684,1108,-0.999999966480782,0.0
277,0.9047999382019043,-0.999999966591478,5.562934152209602e-11,-0.9999999665543966,-0.9999999666874428,0.0,1109.1442515261633,0.1,0.0014662742614746094,0.021970272064208984,0.050417963,4.2339845e-05,-0.9999999666584124,0.0,-0.0399999477634516,0.0,4,0.0011014938354492188,0.9367238780354684,0.9367238780354684,1112,-0.9999999664802774,0.0
278,1.0374095439910889,-0.999999966630204,3.896676102717698e-11,-0.999999966573796,-0.9999999666790313,0.0,1411.6838422436892,0.1,0.0014395713806152344,0.025083303451538086,0.04869577,0.00014909687,-0.9999999666555915,0.0,-0.0399999477634516,0.0,4,0.0011630058288574219,0.9367238780354684,0.9367238780354684,1116,-0.9999999664802409,0.0
279,0.9406747817993164,-0.9999999666716607,7.437439980727632e-11,-0.9999999665803314,-0.9999999667725605,0.0,914.5639292664748,0.1,0.0014395713806152344,0.02532505989074707,0.047045708,9.4884825e-05,-0.9999999666571985,0.0,-0.0399999477634516,0.0,4,0.0011870861053466797,0.9367238780354684,0.9367238780354684,1120,-0.9999999664783399,0.0
280,0.9398789405822754,-0.9999999666776413,1.0329957927270807e-10,-0.9999999665059438,-0.9999999667786694,0.0,666.3025029506936,0.1,0.001401662826538086,0.02566981315612793,0.048733294,0.00031238963,-0.9999999666592428,0.0,-0.0399999477634516,0.0,4,0.0012106895446777344,0.9367238780354684,0.9367238780354684,1124,-0.9999999664751269,0.0
281,0.9069006443023682,-0.9999999666373398,5.312243112288325e-11,-0.9999999665691739,-0.9999999666906805,0.0,1404.7854788499594,0.1,0.001420736312866211,0.025447607040405273,0.04863149,0.00013137834,-0.9999999666570525,0.0,-0.0399999477634516,0.0,4,0.0010976791381835938,0.9367238780354684,0.9367238780354684,1128,-0.9999999664723109,0.0
282,0.9022502899169922,-0.9999999666228419,1.0724072683576953e-10,-0.9999999664886057,-0.9999999667588837,0.0,675.9777954785189,0.1,0.0013267993927001953,0.025681734085083008,0.046677586,0.00012044374,-0.9999999666536314,0.0,-0.0399999477634516,0.0,4,0.0011248588562011719,0.9367238780354684,0.9367238780354684,1132,-0.9999999664692187,0.0
283,0.8827786445617676,-0.999999966640793,1.0469925284768614e-10,-0.9999999665289026,-0.9999999668025261,0.0,721.1018572225157,0.1,0.001478433609008789,0.025580167770385742,0.05026556,0.000103805825,-0.9999999666523477,0.0,-0.0399999477634516,0.0,4,0.0010638236999511719,0.9367238780354684,0.9367238780354684,1136,-0.9999999664712306,0.0
284,0.9027600288391113,-0.999999966576912,8.598319108800749e-11,-0.9999999665068511,-0.9999999667232233,0.0,736.7096139959748,0.1,0.0013279914855957031,0.025933265686035156,0.04560249,8.5336214e-05,-0.9999999666448042,0.0,-0.0399999477634516,0.0,4,0.0011794567108154297,0.9367238780354684,0.9367238780354684,1140,-0.9999999664698044,0.0
285,0.9313256740570068,-0.9999999666077941,1.0105055118934807e-10,-0.9999999665158081,-0.9999999667724244,0.0,754.1997314648387,0.1,0.0013287067413330078,0.025505542755126953,0.045812853,9.619124e-05,-0.9999999666411031,0.0,-0.0399999477634516,0.0,4,0.0010759830474853516,0.9367238780354684,0.9367238780354684,1144,-0.9999999664684897,0.0
286,0.9042201042175293,-0.9999999665381871,4.489910266034918e-11,-0.9999999664773822,-0.999999966602878,0.0,1639.751827480133,0.1,0.0013458728790283203,0.02525925636291504,0.05018863,5.442467e-05,-0.9999999666308116,0.0,-0.0399999477634516,0.0,4,0.001102447509765625,0.9367238780354684,0.9367238780354684,1148,-0.9999999664685649,0.0
287,0.9270350933074951,-0.9999999665938686,8.727784711851355e-11,-0.9999999664486221,-0.9999999666755572,0.0,884.8957761484616,0.1,0.0012843608856201172,0.02570176124572754,0.04838208,0.00026611984,-0.9999999666271173,0.0,-0.0399999477634516,0.0,4,0.0011568069458007812,0.9367238780354684,0.9367238780354684,1152,-0.9999999664653904,0.0
288,0.9363718032836914,-0.9999999665668918,4.2351956153424206e-11,-0.9999999665108565,-0.9999999666278712,0.0,1193.8263537624089,0.1,0.0014331340789794922,0.025233745574951172,0.04464064,0.00026162344,-0.9999999666210948,0.0,-0.0399999477634516,0.0,4,0.0010402202606201172,0.9367238780354684,0.9367238780354684,1156,-0.9999999664652379,0.0
289,0.9454648494720459,-0.9999999666026089,6.282304757760075e-11,-0.9999999665544834,-0.9999999667094333,0.0,1036.4592391571214,0.1,0.0014607906341552734,0.02456498146057129,0.047371075,0.00016584917,-0.9999999666192463,0.0,-0.0399999477634516,0.0,4,0.0010688304901123047,0.9367238780354684,0.9367238780354684,1160,-0.9999999664641593,0.0
290,0.9338030815124512,-0.999999966567807,1.5294918293897587e-11,-0.9999999665430621,-0.9999999665849677,0.0,3771.3688969155355,0.1,0.0013194084167480469,0.01987314224243164,0.048465088,4.6217807e-05,-0.9999999666141024,0.0,-0.0399999477634516,0.0,4,0.0011150836944580078,0.9367238780354684,0.9367238780354684,1164,-0.9999999664626388,0.0
291,0.9299652576446533,-0.9999999665384994,4.738511001159263e-11,-0.9999999664741446,-0.999999966588313,0.0,1846.8339090820082,0.1,0.0014727115631103516,0.022344589233398438,0.046753027,6.2250125e-05,-0.9999999666065421,0.0,-0.0399999477634516,0.0,4,0.0010285377502441406,0.9367238780354684,0.9367238780354684,1168,-0.9999999664601158,0.0
292,0.933659553527832,-0.999999966586492,4.7157660452123e-11,-0.9999999665216075,-0.9999999666545314,0.0,1241.4445342715342,0.1,0.0013027191162109375,0.02588629722595215,0.051524147,8.887945e-05,-0.9999999666045372,0.0,-0.0399999477634516,0.0,4,0.0011219978332519531,0.9367238780354684,0.9367238780354684,1172,-0.9999999664593777,0.0
293,0.9293193817138672,-0.9999999665822844,1.0877170040705547e-10,-0.9999999664909349,-0.9999999667614266,0.0,529.1941080497693,0.1,0.0016140937805175781,0.027852296829223633,0.05101463,0.00018480359,-0.9999999666023119,0.0,-0.0399999477634516,0.0,4,0.0011534690856933594,0.9367238780354684,0.9367238780354684,1176,-0.9999999664578173,0.0
294,0.9287292957305908,-0.9999999665837713,5.371390670065879e-11,-0.999999966533099,-0.9999999666668549,0.0,1036.9339255502734,0.1,0.0013248920440673828,0.02620244026184082,0.051245444,6.0309743e-05,-0.9999999666004579,0.0,-0.0399999477634516,0.0,4,0.0010836124420166016,0.9367238780354684,0.9367238780354684,1180,-0.9999999664561087,0.0
295,0.9469850063323975,-0.9999999665263881,3.263097998628118e-11,-0.9999999664879153,-0.9999999665739068,0.0,2312.775272835959,0.1,0.0014507770538330078,0.0229036808013916,0.049590982,6.31149e-05,-0.9999999665930509,0.0,-0.0399999477634516,0.0,4,0.0011432170867919922,0.9367238780354684,0.9367238780354684,1184,-0.9999999664550674,0.0
296,0.9796230792999268,-0.9999999666429843,1.2774070642258413e-10,-0.9999999664748764,-0.9999999668138224,0.0,381.8860927141273,0.1,0.0013124942779541016,0.02524590492248535,0.04958973,0.00067462435,-0.9999999665980444,0.0,-0.0399999477634516,0.0,4,0.0010590553283691406,0.9367238780354684,0.9367238780354684,1188,-0.9999999664518352,0.0
297,0.9576053619384766,-0.9999999665942785,7.164246019628052e-11,-0.9999999665282806,-0.9999999667131412,0.0,861.2325991291867,0.1,0.0012614727020263672,0.02532196044921875,0.052100938,5.819107e-05,-0.9999999665976678,0.0,-0.0399999477634516,0.0,4,0.0011513233184814453,0.9367238780354684,0.9367238780354684,1192,-0.999999966449929,0.0
298,0.8979864120483398,-0.9999999665700459,6.428931999923049e-11,-0.999999966481657,-0.999999966649677,0.0,920.5636320231004,0.1,0.0015869140625,0.02545619010925293,0.04959333,0.00012029674,-0.9999999665949055,0.0,-0.0399999477634516,0.0,4,0.0010464191436767578,0.9367238780354684,0.9367238780354684,1196,-0.9999999664498881,0.0
299,0.8956763744354248,-0.999999966529161,5.5182537031631756e-11,-0.9999999664544397,-0.9999999666099735,0.0,1263.3786063446937,0.1,0.0013849735260009766,0.026207923889160156,0.047687024,9.0614325e-05,-0.9999999665883311,0.0,-0.0399999477634516,0.0,4,0.0010864734649658203,0.9367238780354684,0.9367238780354684,1200,-0.9999999664488599,0.0
300,0.8877325057983398,-0.999999966499712,3.990914362380189e-11,-0.9999999664551522,-0.9999999665545478,0.0,1755.2461286017951,0.1,0.0014567375183105469,0.026072025299072266,0.04887368,8.010938e-05,-0.9999999665794692,0.0,-0.0399999477634516,0.0,4,0.0010902881622314453,0.9367238780354684,0.9367238780354684,1204,-0.9999999664461842,0.0
301,0.8860702514648438,-0.9999999665368678,6.352540118927044e-11,-0.9999999664606498,-0.9999999666257164,0.0,1076.800058666657,0.1,0.0013511180877685547,0.025352954864501953,0.05168362,8.497251e-05,-0.9999999665752091,0.0,-0.0399999477634516,0.0,4,0.001154184341430664,0.9367238780354684,0.9367238780354684,1208,-0.9999999664430583,0.0
302,0.9433944225311279,-0.9999999665492323,2.2094569599676317e-11,-0.9999999665161587,-0.9999999665748756,0.0,2931.8069011087996,0.1,0.0015976428985595703,0.023862600326538086,0.051829327,3.720238e-05,-0.9999999665726114,0.0,-0.0399999477634516,0.0,4,0.0011892318725585938,0.9367238780354684,0.9367238780354684,1212,-0.9999999664424846,0.0
303,0.9108226299285889,-0.9999999665747445,3.6569757316578666e-11,-0.9999999665406871,-0.9999999666364321,0.0,1810.341902770441,0.1,0.001495361328125,0.026282548904418945,0.050401602,4.707836e-05,-0.9999999665728247,0.0,-0.0399999477634516,0.0,4,0.001035451889038086,0.9367238780354684,0.9367238780354684,1216,-0.9999999664431841,0.0
304,0.8875036239624023,-0.9999999665215901,5.014856020782728e-11,-0.9999999664736798,-0.9999999665950301,0.0,1321.7861016444015,0.1,0.0014927387237548828,0.025826692581176758,0.050736614,6.3422456e-05,-0.9999999665677013,0.0,-0.0399999477634516,0.0,4,0.0010693073272705078,0.9367238780354684,0.9367238780354684,1220,-0.999999966442184,0.0
305,0.9072465896606445,-0.9999999665395657,3.6627864828837754e-11,-0.9999999664857664,-0.9999999665784665,0.0,1780.221318742136,0.1,0.0013477802276611328,0.022528648376464844,0.049989477,7.241575e-05,-0.9999999665648878,0.0,-0.0399999477634516,0.0,4,0.0011167526245117188,0.9367238780354684,0.9367238780354684,1224,-0.9999999664414717,0.0
306,0.9950249195098877,-0.9999999665429782,4.73304657213939e-11,-0.9999999664757211,-0.9999999666049244,0.0,1358.5842292183986,0.1,0.0012662410736083984,0.025388240814208984,0.046622425,0.000139292,-0.9999999665626969,0.0,-0.0399999477634516,0.0,4,0.0010890960693359375,0.9367238780354684,0.9367238780354684,1228,-0.9999999664401825,0.0
307,0.9205434322357178,-0.9999999667148078,1.6491513752458064e-10,-0.9999999665210759,-0.9999999668978512,0.0,389.0076293684024,0.1,0.0013346672058105469,0.026947021484375,0.041241437,0.00026352884,-0.999999966577908,0.0,-0.0399999477634516,0.0,4,0.001191854476928711,0.9367238780354684,0.9367238780354684,1232,-0.9999999664412336,0.0
308,0.9479143619537354,-0.9999999665410513,7.084693992798488e-11,-0.9999999664779498,-0.999999966655496,0.0,922.2972949404553,0.1,0.0014774799346923828,0.02304387092590332,0.05046548,0.00011082531,-0.9999999665742223,0.0,-0.0399999477634516,0.0,4,0.001112222671508789,0.9367238780354684,0.9367238780354684,1236,-0.9999999664412654,0.0
309,0.9875178337097168,-0.9999999665212849,2.986306447734102e-11,-0.9999999664786585,-0.9999999665509838,0.0,2417.6100976446355,0.1,0.0014028549194335938,0.023237943649291992,0.04760153,5.8872844e-05,-0.9999999665689285,0.0,-0.0399999477634516,0.0,4,0.0011513233184814453,0.9367238780354684,0.9367238780354684,1240,-0.9999999664400029,0.0
310,0.9758903980255127,-0.9999999666359485,1.2736675686022768e-10,-0.9999999665034836,-0.999999966778895,0.0,641.2919051828922,0.1,0.0012879371643066406,0.02745532989501953,0.04696179,0.00011713184,-0.9999999665756305,0.0,-0.0399999477634516,0.0,4,0.0012025833129882812,0.9367238780354684,0.9367238780354684,1244,-0.9999999664400273,0.0
311,1.0989444255828857,-0.9999999664936761,3.558475529732854e-11,-0.9999999664404333,-0.9999999665401094,0.0,2301.0860684195222,0.1,0.0014219284057617188,0.02209615707397461,0.048807193,9.584961e-05,-0.9999999665674352,0.0,-0.0399999477634516,0.0,4,0.0010578632354736328,0.9367238780354684,0.9367238780354684,1248,-0.999999966437374,0.0
312,0.9626879692077637,-0.9999999665534967,6.418622507980761e-11,-0.999999966467874,-0.9999999666305717,0.0,1190.5628250418333,0.1,0.0012927055358886719,0.0252683162689209,0.049855642,8.241908e-05,-0.9999999665660413,0.0,-0.0399999477634516,0.0,4,0.0011811256408691406,0.9367238780354684,0.9367238780354684,1252,-0.9999999664368312,0.0
313,0.8993685245513916,-0.9999999665495132,6.00712621467991e-11,-0.999999966475168,-0.9999999666400576,0.0,1303.8194786103002,0.1,0.0015256404876708984,0.02561163902282715,0.049991883,7.2952265e-05,-0.9999999665643885,0.0,-0.0399999477634516,0.0,4,0.001102447509765625,0.9367238780354684,0.9367238780354684,1256,-0.999999966434593,0.0
314,0.8982706069946289,-0.9999999665372137,5.897336646149048e-11,-0.9999999664975483,-0.9999999666386201,0.0,910.8074161404842,0.1,0.0013968944549560547,0.025802135467529297,0.053092215,4.330241e-05,-0.999999966561671,0.0,-0.0399999477634516,0.0,4,0.0009591579437255859,0.9367238780354684,0.9367238780354684,1260,-0.999999966435313,0.0
315,0.9142680168151855,-0.9999999665290509,5.773021619298314e-11,-0.9999999664736499,-0.9999999666208306,0.0,1382.0208272459668,0.1,0.0013852119445800781,0.02489948272705078,0.05029136,8.1869926e-05,-0.999999966558409,0.0,-0.0399999477634516,0.0,4,0.0011320114135742188,0.9367238780354684,0.9367238780354684,1264,-0.9999999664333149,0.0
316,0.9332399368286133,-0.999999966528721,5.197525712117664e-11,-0.999999966455168,-0.9999999665923791,0.0,1280.2906412058342,0.1,0.0015282630920410156,0.024103641510009766,0.049893156,8.0783044e-05,-0.9999999665554401,0.0,-0.0399999477634516,0.0,4,0.0012433528900146484,0.9367238780354684,0.9367238780354684,1268,-0.9999999664313693,0.0
317,0.9330446720123291,-0.9999999665267122,7.548893932385104e-11,-0.9999999664450243,-0.9999999666500856,0.0,850.0877036389589,0.1,0.001569986343383789,0.025748729705810547,0.04911526,7.24944e-05,-0.9999999665525673,0.0,-0.0399999477634516,0.0,4,0.0010793209075927734,0.9367238780354684,0.9367238780354684,1272,-0.9999999664302739,0.0
318,0.8994531631469727,-0.9999999664923906,4.9932048064604e-11,-0.9999999664370782,-0.9999999665676154,0.0,1458.610824576054,0.1,0.0012769699096679688,0.02477574348449707,0.05052968,5.322065e-05,-0.9999999665465497,0.0,-0.0399999477634516,0.0,4,0.001058816909790039,0.9367238780354684,0.9367238780354684,1276,-0.9999999664288696,0.0
319,0.9053652286529541,-0.9999999664901251,4.331198541044568e-11,-0.9999999664236243,-0.9999999665418424,0.0,1441.6972351036106,0.1,0.001321554183959961,0.025229454040527344,0.046973556,0.00012549573,-0.9999999665409072,0.0,-0.0399999477634516,0.0,4,0.0011944770812988281,0.9367238780354684,0.9367238780354684,1280,-0.9999999664291793,0.0
320,0.917241096496582,-0.9999999665014805,2.2919859112743932e-11,-0.9999999664780876,-0.9999999665305321,0.0,2588.557378390244,0.1,0.0012848377227783203,0.02290487289428711,0.04691013,3.7797905e-05,-0.9999999665369645,0.0,-0.0399999477634516,0.0,4,0.0011141300201416016,0.9367238780354684,0.9367238780354684,1284,-0.9999999664295145,0.0
321,0.9072637557983398,-0.9999999666684536,3.209786291196706e-10,-0.9999999664642347,-0.9999999672230333,0.0,195.29380058853238,0.1,0.0013022422790527344,0.025116443634033203,0.039976753,0.00021349371,-0.9999999665501135,0.0,-0.0399999477634516,0.0,4,0.0011014938354492188,0.9367238780354684,0.9367238780354684,1288,-0.9999999664302613,0.0
322,0.945148229598999,-0.9999999665475693,6.906124153667603e-11,-0.9999999664814958,-0.9999999666574624,0.0,833.8719086151999,0.1,0.0013713836669921875,0.02449822425842285,0.053666376,5.5616485e-05,-0.999999966549859,0.0,-0.0399999477634516,0.0,4,0.0010521411895751953,0.9367238780354684,0.9367238780354684,1292,-0.9999999664311737,0.0
323,0.9290771484375,-0.9999999665023849,3.4476579870540544e-11,-0.9999999664687298,-0.9999999665470873,0.0,1739.7063419783308,0.1,0.0012950897216796875,0.025279998779296875,0.047214247,0.00020122755,-0.9999999665451116,0.0,-0.0399999477634516,0.0,4,0.0011286735534667969,0.9367238780354684,0.9367238780354684,1296,-0.999999966430955,0.0
324,0.9767227172851562,-0.9999999666243207,2.249554800447144e-10,-0.9999999664394779,-0.9999999670093169,0.0,276.573402908122,0.1,0.00133514404296875,0.025712251663208008,0.041361626,0.00019942381,-0.9999999665530326,0.0,-0.0399999477634516,0.0,4,0.001142263412475586,0.9367238780354684,0.9367238780354684,1300,-0.9999999664306568,0.0
325,0.9306864738464355,-0.9999999665130861,2.5716309077207754e-11,-0.9999999664702601,-0.9999999665349775,0.0,2963.70736587297,0.1,0.0014607906341552734,0.02283453941345215,0.049215227,7.08965e-05,-0.999999966549038,0.0,-0.0399999477634516,0.0,4,0.001178741455078125,0.9367238780354684,0.9367238780354684,1304,-0.9999999664308982,0.0
326,0.9303984642028809,-0.9999999665002384,2.643177278772752e-11,-0.9999999664746415,-0.9999999665365455,0.0,2069.0678953189345,0.1,0.0013747215270996094,0.022687196731567383,0.04342583,3.7646594e-05,-0.9999999665441581,0.0,-0.0399999477634516,0.0,4,0.0011494159698486328,0.9367238780354684,0.9367238780354684,1308,-0.9999999664307068,0.0
327,0.9526791572570801,-0.9999999665181105,2.1073147257534482e-11,-0.9999999664953823,-0.9999999665523469,0.0,3427.377696513605,0.1,0.001416921615600586,0.019927978515625,0.0522802,1.7066086e-05,-0.9999999665415533,0.0,-0.0399999477634516,0.0,4,0.0010859966278076172,0.9367238780354684,0.9367238780354684,1312,-0.9999999664304937,0.0
328,0.9304852485656738,-0.9999999664436823,1.5252959249928148e-11,-0.9999999664205175,-0.9999999664633659,0.0,4362.964659144098,0.1,0.001688241958618164,0.02136540412902832,0.04936088,5.8782585e-05,-0.9999999665317663,0.0,-0.0399999477634516,0.0,4,0.0011870861053466797,0.9367238780354684,0.9367238780354684,1316,-0.9999999664296548,0.0
329,0.916391134262085,-0.9999999664927459,2.8212345523909254e-11,-0.9999999664630645,-0.9999999665346655,0.0,1999.0969320793631,0.1,0.0014333724975585938,0.02379751205444336,0.041644353,7.123673e-05,-0.9999999665278643,0.0,-0.0399999477634516,0.0,4,0.0011167526245117188,0.9367238780354684,0.9367238780354684,1320,-0.9999999664285206,0.0
330,0.9015395641326904,-0.9999999664710586,9.96451824688625e-12,-0.9999999664573318,-0.9999999664849262,0.0,6104.645637059385,0.1,0.0014278888702392578,0.020591020584106445,0.045032203,3.0196894e-05,-0.9999999665221838,0.0,-0.0399999477634516,0.0,4,0.0011332035064697266,0.9367238780354684,0.9367238780354684,1324,-0.9999999664280809,0.0
331,0.9154980182647705,-0.9999999664996619,3.648494104755159e-11,-0.9999999664686579,-0.9999999665618089,0.0,2077.4830521330855,0.1,0.0013794898986816406,0.021172285079956055,0.046299025,2.9030278e-05,-0.9999999665199316,0.0,-0.0399999477634516,0.0,4,0.0011773109436035156,0.9367238780354684,0.9367238780354684,1328,-0.9999999664270689,0.0
332,0.89874267578125,-0.999999966522691,4.688911544358128e-11,-0.9999999664727737,-0.9999999665698183,0.0,1554.3385543319953,0.1,0.0014202594757080078,0.022891521453857422,0.04615312,7.182849e-05,-0.9999999665202076,0.0,-0.0399999477634516,0.0,4,0.0011355876922607422,0.9367238780354684,0.9367238780354684,1332,-0.9999999664263989,0.0
333,0.970130205154419,-0.9999999665041885,2.8897970541570184e-11,-0.9999999664629704,-0.9999999665400483,0.0,2500.6310196385903,0.1,0.0013499259948730469,0.022673368453979492,0.044452004,3.919372e-05,-0.9999999665186057,0.0,-0.0399999477634516,0.0,4,0.0010578632354736328,0.9367238780354684,0.9367238780354684,1336,-0.9999999664258037,0.0
334,0.9222445487976074,-0.9999999664932676,4.1074964688433546e-11,-0.9999999664654302,-0.9999999665639803,0.0,1683.693645484843,0.1,0.001531362533569336,0.025782108306884766,0.043335415,3.2291435e-05,-0.9999999665160719,0.0,-0.0399999477634516,0.0,4,0.001065969467163086,0.9367238780354684,0.9367238780354684,1340,-0.9999999664246318,0.0
335,0.9189028739929199,-0.9999999664535995,3.1288946313365305e-11,-0.999999966401115,-0.999999966483613,0.0,2131.1850389509086,0.1,0.0012898445129394531,0.02308034896850586,0.047906622,0.00011449936,-0.9999999665098247,0.0,-0.0399999477634516,0.0,4,0.0011019706726074219,0.9367238780354684,0.9367238780354684,1344,-0.9999999664227507,0.0
336,0.9464449882507324,-0.9999999665053857,1.3043322827866122e-11,-0.9999999664897381,-0.9999999665258872,0.0,4816.302320793455,0.1,0.0013434886932373047,0.020018577575683594,0.050486572,3.31691e-05,-0.9999999665093808,0.0,-0.0399999477634516,0.0,4,0.0010578632354736328,0.9367238780354684,0.9367238780354684,1348,-0.9999999664228078,0.0
337,0.9793615341186523,-0.9999999665156323,4.7215684730331246e-11,-0.9999999664810377,-0.9999999665970056,0.0,1428.1909771889204,0.1,0.001535654067993164,0.02547764778137207,0.05189372,3.343834e-05,-0.999999966510006,0.0,-0.0399999477634516,0.0,4,0.001056671142578125,0.9367238780354684,0.9367238780354684,1352,-0.9999999664216639,0.0
338,0.939985990524292,-0.9999999665091128,6.63465640224291e-11,-0.9999999664442383,-0.9999999666182584,0.0,938.7185279147799,0.1,0.0014123916625976562,0.023558616638183594,0.049436152,0.000118629585,-0.9999999665099167,0.0,-0.0399999477634516,0.0,4,0.001071929931640625,0.9367238780354684,0.9367238780354684,1356,-0.9999999664213246,0.0
339,0.9149205684661865,-0.9999999665110666,4.969408297515306e-11,-0.9999999664492993,-0.9999999665876782,0.0,969.0214144040848,0.1,0.0013427734375,0.024743080139160156,0.053520575,7.004215e-05,-0.9999999665100318,0.0,-0.0399999477634516,0.0,4,0.0010597705841064453,0.9367238780354684,0.9367238780354684,1360,-0.9999999664217628,0.0
340,0.9482603073120117,-0.999999966491063,3.3132002801502366e-11,-0.9999999664489947,-0.9999999665399208,0.0,2052.6049318858295,0.1,0.0013294219970703125,0.023153066635131836,0.043742895,2.7488211e-05,-0.9999999665081349,0.0,-0.0399999477634516,0.0,4,0.0011250972747802734,0.9367238780354684,0.9367238780354684,1364,-0.9999999664213438,0.0
341,0.8642935752868652,-0.9999999664732038,3.5305592557924115e-11,-0.9999999664375465,-0.9999999665255606,0.0,1924.2281473380979,0.1,0.0013396739959716797,0.02332472801208496,0.046457794,9.6191674e-05,-0.9999999665046418,0.0,-0.0399999477634516,0.0,4,0.0011932849884033203,0.9367238780354684,0.9367238780354684,1368,-0.9999999664201593,0.0
342,0.8771905899047852,-0.9999999666008526,2.2769756177867035e-10,-0.9999999664292298,-0.999999966992251,0.0,312.0362888330975,0.1,0.0015115737915039062,0.025780439376831055,0.042116642,0.0001310042,-0.9999999665142629,0.0,-0.0399999477634516,0.0,4,0.0012140274047851562,0.9367238780354684,0.9367238780354684,1372,-0.9999999664201004,0.0
343,0.8755109310150146,-0.999999966514926,4.726681948920205e-11,-0.9999999664723624,-0.9999999665871757,0.0,1196.344229032397,0.1,0.0013227462768554688,0.02536463737487793,0.04784231,7.419086e-05,-0.9999999665143293,0.0,-0.0399999477634516,0.0,4,0.0010805130004882812,0.9367238780354684,0.9367238780354684,1376,-0.9999999664216701,0.0
344,0.8882026672363281,-0.9999999664941717,3.444295920149886e-11,-0.9999999664577428,-0.9999999665492887,0.0,1921.7329862458398,0.1,0.001382589340209961,0.02397298812866211,0.049388837,4.0694587e-05,-0.9999999665123136,0.0,-0.0399999477634516,0.0,4,0.0011632442474365234,0.9367238780354684,0.9367238780354684,1380,-0.9999999664224927,0.0
345,0.8569595813751221,-0.9999999665053956,7.19031527811154e-11,-0.9999999664120831,-0.9999999666135129,0.0,790.7116797002462,0.1,0.001611948013305664,0.026677846908569336,0.03189008,6.3221276e-05,-0.9999999665116218,0.0,-0.0399999477634516,0.0,4,0.001219034194946289,0.9367238780354684,0.9367238780354684,1384,-0.999999966422607,0.0
346,0.8447587490081787,-0.9999999665148847,2.665919270356022e-11,-0.9999999664865264,-0.9999999665563599,0.0,2835.0470769529275,0.1,0.0015261173248291016,0.023669719696044922,0.050051145,3.4000634e-05,-0.9999999665119481,0.0,-0.0399999477634516,0.0,4,0.001201629638671875,0.9367238780354684,0.9367238780354684,1388,-0.9999999664214592,0.0
347,0.8842518329620361,-0.999999966567733,1.7332595927965132e-10,-0.9999999664362886,-0.9999999668658945,0.0,392.8708855977837,0.1,0.001523733139038086,0.02630448341369629,0.043433372,0.00012822228,-0.9999999665175267,0.0,-0.0399999477634516,0.0,4,0.0011143684387207031,0.9367238780354684,0.9367238780354684,1392,-0.9999999664208851,0.0
348,0.8465011119842529,-0.9999999665864934,1.1584790603372895e-10,-0.9999999664220856,-0.9999999667459079,0.0,436.16216803676804,0.1,0.001371622085571289,0.026152610778808594,0.050735436,0.00019199237,-0.9999999665244234,0.0,-0.0399999477634516,0.0,4,0.0012094974517822266,0.9367238780354684,0.9367238780354684,1396,-0.9999999664199808,0.0
349,0.8472504615783691,-0.9999999664490673,2.362437310715078e-11,-0.999999966413714,-0.9999999664769479,0.0,2879.9883973880233,0.1,0.0013124942779541016,0.022737503051757812,0.04882404,9.09922e-05,-0.9999999665168878,0.0,-0.0399999477634516,0.0,4,0.0011584758758544922,0.9367238780354684,0.9367238780354684,1400,-0.9999999664192818,0.0
350,0.8725976943969727,-0.999999966461684,2.518735597372034e-11,-0.9999999664337591,-0.9999999665025308,0.0,2876.5506046806295,0.1,0.0014472007751464844,0.0229184627532959,0.05060985,3.6032077e-05,-0.9999999665113675,0.0,-0.0399999477634516,0.0,4,0.0011544227600097656,0.9367238780354684,0.9367238780354684,1404,-0.9999999664183293,0.0
351,0.8648641109466553,-0.9999999665172121,8.359592850713115e-11,-0.9999999664197854,-0.9999999666382775,0.0,756.422204553269,0.1,0.0014057159423828125,0.026211977005004883,0.04928814,0.00015575852,-0.999999966511952,0.0,-0.0399999477634516,0.0,4,0.0011696815490722656,0.9367238780354684,0.9367238780354684,1408,-0.9999999664174202,0.0
352,0.8717327117919922,-0.9999999664908696,2.170433472039244e-11,-0.9999999664739054,-0.9999999665279091,0.0,2718.040070617122,0.1,0.0015654563903808594,0.02381157875061035,0.050921388,3.1657743e-05,-0.9999999665098438,0.0,-0.0399999477634516,0.0,4,0.0010805130004882812,0.9367238780354684,0.9367238780354684,1412,-0.9999999664165088,0.0
353,0.9205436706542969,-0.9999999664604882,1.9885079632677478e-11,-0.9999999664335733,-0.9999999664880646,0.0,3729.0339467304975,0.1,0.001432657241821289,0.025185346603393555,0.049959496,2.9807881e-05,-0.9999999665049083,0.0,-0.0399999477634516,0.0,4,0.0011870861053466797,0.9367238780354684,0.9367238780354684,1416,-0.9999999664158551,0.0
354,0.8700094223022461,-0.9999999664688872,4.2492018063879865e-11,-0.9999999664259622,-0.9999999665270356,0.0,1623.5334154745262,0.1,0.0014379024505615234,0.02277207374572754,0.048339516,5.1590556e-05,-0.9999999665013062,0.0,-0.0399999477634516,0.0,4,0.0011088848114013672,0.9367238780354684,0.9367238780354684,1420,-0.9999999664167204,0.0
