iteration,time_sampling,stoc_pol_mean,stoc_pol_std,stoc_pol_max,stoc_pol_min,rollout_success,alpha,delta,time_vpg,time_npg,kl_dist,surr_improvement,running_score,rwd_sparse,rwd_dense,success_percentage,num_samples,time_VF,VF_error_before,VF_error_after,env_samples,eval_score,eval_success
0,1.329866647720337,0.01536256502456855,0.007573066533176278,0.027217334852527378,0.0076392111336956855,0.0,0.14586853887354578,0.1,0.10649895668029785,1.7123258113861084,0.053274427,0.9835234,0.01536256502456855,0.0,0.000306793677676545,0.0,200,0.05640864372253418,118.82535660369342,12.021524384876056,200,0.013824650103375047,0.0
1,1.33156418800354,0.016777989679428562,0.005045846531666441,0.024563218303301985,0.011652001110038689,0.0,0.14037175851019004,0.1,0.10083770751953125,1.7229390144348145,0.047945283,0.61281526,0.015504107490054552,0.0,0.00032608342472822727,0.0,200,0.17853307723999023,11.21858655260083,5.565242191382799,400,0.013606111767019176,0.0
2,1.3145904541015625,0.008748061031067211,0.0061451552810822055,0.018931751349192463,0.0037636138254813203,0.0,0.16741083137161297,0.1,0.10236859321594238,0.059850454330444336,0.06286752,0.7738119,0.014828502844155819,0.0,0.00017314810077075673,0.0,200,0.17076492309570312,23.925356613938558,25.698618638051464,600,0.013908966945525717,0.0
3,1.36912202835083,0.03421182216541044,0.021871067618016913,0.07110740361058608,0.014262434066809885,0.0,0.14272499232502087,0.1,0.09861969947814941,1.7142143249511719,0.05355913,0.96713066,0.01676683477628128,0.0,0.0006823631014699625,0.0,200,0.18640422821044922,0.701835131222847,0.5092456489591097,800,0.019855484153046842,0.0
4,1.4021642208099365,0.03300392716407154,0.022035236167579072,0.0694650774285377,0.01356728105920494,0.0,0.1477210367713765,0.1,0.1007375717163086,0.7039291858673096,0.047398478,0.94970757,0.018390544015060305,0.0,0.0006596546610043744,0.0,200,0.16433954238891602,0.5578192288081089,0.6302684916245866,1000,0.025550997207965446,0.0
5,1.2707254886627197,0.027957501492376004,0.015587807568067769,0.04949224842409995,0.011752587039596545,0.0,0.14897990169617278,0.1,0.10300660133361816,1.6617841720581055,0.053057376,0.9602718,0.019347239762791877,0.0,0.0005443803622998542,0.0,200,0.1765425205230713,0.6239838773311923,0.6693034507092241,1200,0.031060702305932178,0.0
6,1.3096723556518555,0.025718148643062808,0.01965304057218749,0.04757145070140415,0.004340073835718168,0.0,0.14985445996145003,0.1,0.10299897193908691,1.6730048656463623,0.051157217,0.86712617,0.01998433065081897,0.0,0.0005127420157938178,0.0,200,0.18374848365783691,0.7173151527454819,0.6405542014754428,1400,0.03223173027915671,0.0
7,1.3270320892333984,0.0184621997021241,0.008073128454475678,0.031957133589657266,0.012228593316891393,0.0,0.15023868877479693,0.1,0.09913516044616699,1.669905185699463,0.049384326,0.7556934,0.019832117555949484,0.0,0.000356112382082235,0.0,200,0.18294429779052734,0.3921123547654117,0.3625522532169669,1600,0.03663697735457949,0.0
8,1.3241400718688965,0.0479346025186812,0.05111178813603477,0.13162117181044386,0.00495596583200784,0.0,0.1418961931034914,0.1,0.09503340721130371,1.6198430061340332,0.051872272,2.2282538,0.022642366052222657,0.0,0.0009558234625084289,0.0,200,0.17766976356506348,0.757135393711164,0.6592562038246702,1800,0.04904964686279414,0.0
9,1.357508659362793,0.0232201542217497,0.024319725698173797,0.06445084497466398,0.0013850584608056634,0.0,0.14550349365821919,0.1,0.09834027290344238,0.44426798820495605,0.052112494,1.1691335,0.022700144869175362,0.0,0.0004571345925968328,0.0,200,0.17110610008239746,0.7305648281420165,0.842237020619885,2000,0.04599137485941573,0.0
10,1.394531011581421,0.040457376113999036,0.04804832260868435,0.12293629056157476,0.005434529911358453,0.0,0.13499455586077824,0.1,0.0031120777130126953,0.09548616409301758,0.04914655,1.8547603,0.02447586799365773,0.0,0.0008076589158762631,0.0,200,0.018527746200561523,0.6928971951875649,0.6745396344942733,2200,0.04499050023747092,0.0
11,1.465090036392212,0.041923275702541195,0.025014068002941585,0.07682530906445414,0.01169978837948031,0.0,0.14150577941832282,0.1,0.10026979446411133,0.0849153995513916,0.051577177,1.2565061,0.02622060876454608,0.0,0.0008352045916899801,0.0,200,0.17815279960632324,0.39960165226407046,0.3905857930750916,2400,0.052729232801171644,0.0
12,1.2930967807769775,0.0763574435873714,0.043285667333506216,0.12744970264940342,0.01667754509391373,0.0,0.1423008813947833,0.1,0.10693883895874023,1.1634364128112793,0.051140774,1.0679138,0.031234292246828613,0.0,0.0015151612900210086,0.0,200,0.17048096656799316,0.5235511574842232,0.4102608002061969,2600,0.06570351597438169,0.0
13,1.3667385578155518,0.019789063505738447,0.014207623457526528,0.04018183639586135,0.006134579590962102,0.0,0.1413255005809767,0.1,0.10036110877990723,0.4465780258178711,0.049488768,1.0372517,0.030089769372719597,0.0,0.0003942509535820422,0.0,200,0.18004322052001953,2.5066278281598193,2.0962842957166057,2800,0.07877785371586798,0.0
14,1.3537096977233887,0.1408502159677097,0.1493137846057004,0.38736205203540286,0.02043955300585382,0.0,0.14083646623686832,0.1,0.09836173057556152,0.7542955875396729,0.04971284,1.4754841,0.04116581403221861,0.0,0.002800920341763027,0.0,200,0.1737060546875,0.7646022147415792,0.668976872944515,3000,0.07588740650354474,0.0
15,1.3223083019256592,0.05933824221353922,0.03938004230700195,0.10860988174210143,0.017367652874377134,0.0,0.13918723811522316,0.1,0.10064864158630371,0.8674960136413574,0.05068284,0.9743769,0.04298305685035067,0.0,0.0011450593272606675,0.0,200,0.17513012886047363,0.47099280425526796,0.6742660950439018,3200,0.091186287716213,0.0
16,1.3771226406097412,0.07981335402561368,0.046442906532057834,0.13377136698626052,0.026681885032316607,0.0,0.14280808588508442,0.1,0.0924372673034668,0.7705376148223877,0.050232314,1.1249937,0.04666608656787698,0.0,0.0015669350713601302,0.0,200,0.171492338180542,0.3818891009461675,0.3440405389514439,3400,0.07405564552636842,0.0
17,1.3578555583953857,0.08067492830005471,0.03809576244047386,0.13641176257524318,0.035725939024875156,0.0,0.14751666849719197,0.1,0.03275799751281738,0.5994606018066406,0.049653497,0.96191,0.05006697074109475,0.0,0.001604578487462388,0.0,200,0.16736388206481934,0.27100804149694235,0.26016572783472536,3600,0.09887718833141214,0.0
18,1.4622251987457275,0.1817717814170666,0.16837074010841335,0.4193072119351709,0.0068865055884004475,0.0,0.13194340409725233,0.1,0.1046302318572998,1.3448817729949951,0.049730934,1.1808984,0.06323745180869193,0.0,0.0036049740031379937,0.0,200,0.17014074325561523,0.6927224154069599,0.5595752787125345,3800,0.07867600204689738,0.0
19,1.4408059120178223,0.09850633310262089,0.06466943191045443,0.19428219471236935,0.035909539403401934,0.0,0.14183809137591918,0.1,0.10259199142456055,1.468207597732544,0.05023771,1.0429788,0.06676433993808482,0.0,0.0019440435585524763,0.0,200,0.17970609664916992,0.386700329670322,0.5311130805235297,4000,0.08304268096760624,0.0
20,1.3869380950927734,0.0716716377050738,0.06434052563327843,0.17538347356425488,0.012605024154897233,0.0,0.13747973850898842,0.1,0.10303902626037598,0.9116177558898926,0.05009287,1.1639959,0.06725506971478372,0.0,0.0014315469492919473,0.0,200,0.16998648643493652,1.2255902010407762,0.6211654751732074,4200,0.0862907390146155,0.0
21,1.4162981510162354,0.0919297992024628,0.08943248148982445,0.2423909450886363,0.009930623466553707,0.0,0.12594585222449176,0.1,0.09787130355834961,0.6416032314300537,0.050499335,2.0860183,0.06972254266355163,0.0,0.0018144594218470695,0.0,200,0.1761314868927002,0.578853254918053,0.5844173191337988,4400,0.10852500877154185,0.0
22,1.5219793319702148,0.1708046146708894,0.2198805141842393,0.5493341565529097,0.005809355476976648,0.0,0.14186154131377313,0.1,0.0980830192565918,1.3259658813476562,0.048708938,1.4286841,0.07983074986428541,0.0,0.0033934293597823436,0.0,200,0.16734981536865234,0.8115309671615176,0.7713583977872758,4600,0.14647863596101415,0.0
23,1.3448736667633057,0.2574146408712444,0.2649206966145592,0.6969299658297295,0.01230877608951412,0.0,0.13194281811557906,0.1,0.09993267059326172,1.3472111225128174,0.049383804,1.9204202,0.09758913896498131,0.0,0.005132645122470632,0.0,200,0.17971181869506836,0.7976933437032346,0.6448602010838349,4800,0.1385441865765418,0.0
24,1.3758175373077393,0.09540257235472122,0.0798343147488682,0.2089227513732987,0.015170724633106534,0.0,0.1372640034924818,0.1,0.09580111503601074,1.1007702350616455,0.04947867,1.1764882,0.0973704823039553,0.0,0.0018689478762193607,0.0,200,0.16907119750976562,0.6621247722089517,1.1213705367092834,5000,0.1507599419263521,0.0
25,1.3433055877685547,0.06832638106250723,0.05509612824113647,0.15743167967597171,0.01903756114527607,0.0,0.13627608700947721,0.1,0.10545492172241211,0.2550954818725586,0.049054474,3.1033652,0.09446607217981048,0.0,0.0013295388305825042,0.0,200,0.16650843620300293,2.995483489905492,1.3744893101569253,5200,0.15355299977330894,0.0
26,1.4633777141571045,0.040877451425020014,0.02089021245918853,0.06314178648345381,0.009053451419749963,0.0,0.14108342744909405,0.1,0.09947562217712402,0.8116717338562012,0.050020836,0.75332075,0.08910721010433144,0.0,0.0008132464363785163,0.0,200,0.17653226852416992,5.497869877428797,0.992575902323647,5400,0.26133510033794766,0.0
27,1.5071995258331299,0.04284283202641423,0.036812017638262355,0.1050704674009259,0.009521131524331709,0.0,0.13386366052391677,0.1,0.09360051155090332,0.2560546398162842,0.04891176,1.559605,0.08448077229653972,0.0,0.0008499779037421681,0.0,200,0.17363214492797852,0.9650029648006703,0.5209156979374714,5600,0.24319162613135303,0.0
28,1.4015295505523682,0.09616221829027888,0.07066007674517767,0.1981333385061919,0.02463341147960927,0.0,0.1274456965165464,0.1,0.09710359573364258,1.478628158569336,0.049662866,1.4098232,0.08564891689591364,0.0,0.0018909694757565738,0.0,200,0.17789912223815918,0.6575429215539467,0.7962601304307194,5800,0.6880393856874084,0.0
29,1.529134750366211,0.12132229325769528,0.09611944309439154,0.27011300368906443,0.005513783144200367,0.0,0.13980769694161066,0.1,0.09621953964233398,0.6692588329315186,0.050259832,1.1005468,0.08921625453209181,0.0,0.0024084408961077813,0.0,200,0.1692826747894287,0.8657148785515619,0.7816881186762255,6000,0.6322365328574956,0.0
30,1.3918991088867188,0.4262101469450963,0.2598487471678897,0.7526317320918422,0.03817098112901721,0.0,0.14518299287392228,0.1,0.09729623794555664,0.7138159275054932,0.049989175,0.8916683,0.12291564377339226,0.0,0.008521540493309752,0.0,200,0.16912627220153809,0.9064216217848489,0.7811680657467386,6200,0.7189027791701462,0.0
31,1.41267991065979,0.11532218834547392,0.09821299568338379,0.27918466163278893,0.02957259799933537,0.0,0.14284019104700668,0.1,0.1016230583190918,1.0084083080291748,0.04955372,1.1884934,0.12215629823060042,0.0,0.0022961904762750663,0.0,200,0.1654047966003418,0.5374202976569284,0.5172578132390692,6400,0.9133886887494783,0.0
32,1.5074100494384766,0.25859633839536705,0.2547600649872988,0.6802271935917321,0.050928323549652134,0.0,0.13278233679222312,0.1,0.10019588470458984,0.2257978916168213,0.049842004,1.6448883,0.1358003022470771,0.0,0.005055663294158734,0.0,200,0.17174315452575684,0.6567614498365432,0.5780345918830455,6600,0.8464843354003891,0.0
33,1.4799385070800781,0.3386144288962663,0.4552872202147146,1.1253055215011203,0.025464939840839376,0.0,0.14205496628926187,0.1,0.013024568557739258,0.8192880153656006,0.049240902,1.564133,0.15608171491199602,0.0,0.006447912184249959,0.0,200,0.1726059913635254,0.739521236521965,0.671179494797247,6800,0.9306822981662939,0.0
34,1.533013105392456,0.2396198971717387,0.16429119795349278,0.45222802477361973,0.02552473788641814,0.0,0.13436971706869993,0.1,0.09889340400695801,1.6645169258117676,0.0495659,1.1425071,0.1644355331379703,0.0,0.004696276703168779,0.0,200,0.18055105209350586,0.47129354391183653,0.5681665843026398,7000,0.47104848779449254,0.0
35,1.4810094833374023,0.17169518255043656,0.14325233430998763,0.33776827752925775,0.02370813057458559,0.0,0.13979579503804046,0.1,0.10044980049133301,0.14847707748413086,0.049533233,1.0365033,0.16516149807921693,0.0,0.0034110488947395813,0.0,200,0.1794431209564209,1.1367418015252768,0.7260453269986465,7200,0.9378658828040742,0.0
36,1.5081899166107178,0.24390264880539958,0.20450883505704398,0.5536323116649255,0.029809217847355476,0.0,0.12441328296502689,0.1,0.09991025924682617,0.9804084300994873,0.049562108,2.2932525,0.17303561315183522,0.0,0.004716941849979123,0.0,200,0.16841888427734375,0.5092626809876375,0.5131406593592769,7400,0.6951790216866397,0.0
37,1.4418768882751465,0.1421183712752141,0.068215766292917,0.25100514708323074,0.06529936636018446,0.0,0.1340989687724616,0.1,0.10358476638793945,0.8004059791564941,0.05081856,0.8437683,0.16994388896417312,0.0,0.0027299883006912627,0.0,200,0.1677556037902832,0.575276729063419,0.33550248562057267,7600,0.7532029101220837,0.0
38,1.5543203353881836,0.2441669010004413,0.17088518042577117,0.4228254597090826,0.0716747605548142,0.0,0.1357543950251085,0.1,0.07677006721496582,0.056595563888549805,0.04970775,1.0635006,0.17736619016779995,0.0,0.004807689121282701,0.0,200,0.17158222198486328,0.43430329612161706,0.4647262625109324,7800,0.699994704728078,0.0
39,1.5396208763122559,0.45572315189842,0.3290419274307876,0.9197890176139925,0.01899098615330177,0.0,0.1310691399138328,0.1,0.09517168998718262,0.983029842376709,0.049620233,1.3979232,0.20520188634086195,0.0,0.009030757858903784,0.0,200,0.18376922607421875,0.6717030047980662,0.607428233310551,8000,0.6626867700252215,0.0
40,1.4070870876312256,0.30898546369578284,0.08651914475216355,0.4218621563347105,0.21593208238545297,0.0,0.141776201594222,0.1,0.09794020652770996,0.6636760234832764,0.04996375,1.307367,0.21558024407635404,0.0,0.005908858113471444,0.0,200,0.17648696899414062,0.3031292516724107,0.20212286099019838,8200,0.7248221261891546,0.0
41,1.4367613792419434,0.1932940591615143,0.1733271505188328,0.484614056970102,0.060621123999514824,0.0,0.12915306059401702,0.1,0.10354495048522949,0.4327521324157715,0.049320955,1.6861923,0.21335162558487006,0.0,0.003834688532852756,0.0,200,0.09361147880554199,0.5871242065064365,0.6696934150241066,8400,0.8427606414692567,0.0
42,1.516122579574585,0.274426492567045,0.14619946682795687,0.511813576101459,0.11738333075181966,0.0,0.13664794703835326,0.1,0.09260153770446777,0.7807443141937256,0.049447507,1.6837065,0.21945911228308757,0.0,0.005465797455581876,0.0,200,0.18249011039733887,0.29461266376605755,0.2907059636643845,8600,1.1057328103720043,0.0
43,1.40633225440979,0.767234239235386,0.20842654633452068,0.9855728276786162,0.5023639945884482,0.0,0.12983137219078805,0.1,0.1000676155090332,0.17780566215515137,0.049760275,1.1004082,0.2742366249783174,0.0,0.015211610025596248,0.0,200,0.18928837776184082,0.46288717937840684,0.32801874710041806,8800,0.9058999504858213,0.0
44,1.437103509902954,0.5366540862223521,0.29177027127608296,0.7813084894340737,0.03831115235604319,0.0,0.13720904113697005,0.1,0.09457159042358398,0.9673564434051514,0.050420504,0.93058777,0.3004783711027209,0.0,0.010501553978899986,0.0,200,0.16165900230407715,0.30878744235381816,0.28321005942712246,9000,1.0601828774766944,0.0
45,1.5121791362762451,0.4493826916689619,0.4405093416084262,1.1930290531285772,0.05811046664720697,0.0,0.13564313184081547,0.1,0.10149478912353516,0.286651611328125,0.05040867,1.3218908,0.315368803159345,0.0,0.008947662051438375,0.0,200,0.17418909072875977,0.5680093683455084,0.5855730011599878,9200,1.349274950773952,0.0
46,1.4902405738830566,0.43748342836236753,0.2961058657713011,0.7606711009142709,0.02822676572453449,0.0,0.13662037913683903,0.1,0.09970331192016602,0.710071325302124,0.049613304,1.0224063,0.32758026567964726,0.0,0.008684264155366174,0.0,200,0.16701650619506836,0.5592582870766811,0.4137743089533854,9400,1.6425064236060092,0.0
47,1.4728367328643799,0.3981806523482567,0.2824218829763732,0.8421817697430847,0.06684551877297965,0.0,0.13106851718877985,0.1,0.005370140075683594,0.47680234909057617,0.050262246,2.399606,0.3346403043465082,0.0,0.007932529914766177,0.0,200,0.18026494979858398,0.5092993951040306,0.422473827058689,9600,1.510829056854713,0.0
48,1.4921848773956299,0.28718590391956406,0.17085058066203823,0.5749214235047511,0.13065163679611247,0.0,0.13628659326724854,0.1,0.09464120864868164,1.6159632205963135,0.0497582,1.279015,0.3298948643038138,0.0,0.00561557594875794,0.0,200,0.17840123176574707,0.42264496427281323,0.34985468165472683,9800,1.0366067061060844,0.0
49,1.5154030323028564,0.5585140625219656,0.3157312149786029,0.880390077007622,0.06268773925481076,0.0,0.13080390214352533,0.1,0.0959620475769043,1.680004596710205,0.049790822,1.3216355,0.35275678412562905,0.0,0.011116794272970926,0.0,200,0.17554163932800293,0.48934447858089863,0.4745164435393379,10000,1.2077244509929932,0.0
50,1.5425019264221191,0.30824455512254806,0.1435220665122208,0.4804701969202328,0.0818989138447175,0.0,0.12877743087211135,0.1,0.10417008399963379,1.645578145980835,0.049905453,1.3000146,0.34830556122532097,0.0,0.0061261003187524955,0.0,200,0.17800235748291016,0.23869895251262285,0.23708895451511383,10200,1.4098928340634023,0.0
51,1.4848618507385254,0.43394390632541147,0.17109814353472258,0.5991861185916608,0.1469333296367655,0.0,0.12811400713525478,0.1,0.1013634204864502,0.5348057746887207,0.04958792,1.1790179,0.35686939573533,0.0,0.008655848538450518,0.0,200,0.16358470916748047,0.2682302825587145,0.23720617474459674,10400,2.1224671040759477,0.0
52,1.5152323246002197,0.3565045934365426,0.32426504847332144,0.8871510184422725,0.032074146834783976,0.0,0.12755228006377958,0.1,0.009903669357299805,0.05775809288024902,0.04963336,1.5315207,0.35683291550545126,0.0,0.006967383428538102,0.0,200,0.17256855964660645,0.48030120869470044,0.4786844615233092,10600,1.8493462820450999,0.0
53,1.5556230545043945,0.34478228846680453,0.23962672613221406,0.7063860693717079,0.03380847043529198,0.0,0.13412067197023358,0.1,0.09512996673583984,0.4138143062591553,0.049889017,1.2530706,0.3556278528015866,0.0,0.006888355584470715,0.0,200,0.15772008895874023,0.40331942983033753,0.401271685623683,10800,1.6575002639262992,0.0
54,1.5504481792449951,0.48654721638505244,0.17224158468582904,0.7121196606981459,0.23245552500425254,0.0,0.13476213571079146,0.1,0.0991353988647461,0.09733128547668457,0.04993561,0.9369082,0.3687197891599332,0.0,0.009528723784172998,0.0,200,0.17154574394226074,0.2277892693012383,0.20511963902166677,11000,2.04443005025997,0.0
55,1.54005765914917,0.35056641455381843,0.18056235260540052,0.5280621656598483,0.06217445057735711,0.0,0.12717558374491236,0.1,0.10150694847106934,0.8251464366912842,0.050009333,0.9341478,0.36690445169932173,0.0,0.006814501021664242,0.0,200,0.1668412685394287,0.2787269526804188,0.28851049773911536,11200,1.9216833300839757,0.0
56,1.5332517623901367,0.27249445634741537,0.17361756547428223,0.4691635281672264,0.0740995214981163,0.0,0.13147259122842975,0.1,0.0989534854888916,0.498457670211792,0.04958536,0.93906355,0.3574634521641311,0.0,0.005322731653378244,0.0,200,0.08686304092407227,0.5199552748603294,0.4326553621427154,11400,1.217158144564226,0.0
57,1.5289483070373535,0.5695729142413593,0.3688808366475756,0.9915167219787087,0.013740839570709028,0.0,0.13294755949421014,0.1,0.10438871383666992,0.3050100803375244,0.04990525,1.001917,0.3786743983718539,0.0,0.011367850280398453,0.0,200,0.18325114250183105,0.3802965881510657,0.37968458738618405,11600,1.201219935755813,0.0
58,1.4585492610931396,0.31725349380295853,0.10302546504098532,0.4833696472078098,0.20128073482445355,0.0,0.126428863191366,0.1,0.0935511589050293,1.5101606845855713,0.04916278,1.2817836,0.3725323079149644,0.0,0.006339369435822749,0.0,200,0.17704129219055176,0.2756433512639223,0.25209912832925,11800,1.6642918352473648,0.0
59,1.4749999046325684,0.2668859750450766,0.1713503950948859,0.49757929825034913,0.060590822067056536,0.0,0.1368059949040399,0.1,0.10636091232299805,1.6663987636566162,0.050466865,2.263999,0.3619676746279756,0.0,0.00530063673838011,0.0,200,0.18462681770324707,0.4314284803827034,0.3486863840987668,12000,1.6860939352198505,0.0
60,1.511854887008667,0.15035744317546818,0.1022434345826455,0.26818418944751266,0.045746797497760984,0.0,0.12997229656538747,0.1,0.1006011962890625,0.8262434005737305,0.050274987,1.0949736,0.3408066514827249,0.0,0.0030053246452651995,0.0,200,0.18200206756591797,1.5708725872866232,0.7492896127127431,12200,1.2469404584774009,0.0
61,1.5563385486602783,0.6845533398102726,0.30023791498822133,1.11456272378711,0.3009585626569248,0.0,0.12885287404635937,0.1,0.09819793701171875,0.9243853092193604,0.049977854,1.4366777,0.3751813203154797,0.0,0.013352046462282833,0.0,200,0.16338229179382324,0.513008689614051,0.4873781413570972,12400,1.3461542457807052,0.0
62,1.4878003597259521,0.43399476839724205,0.09299208849125849,0.5032595612133531,0.27506784957872055,0.0,0.12623539758510552,0.1,0.1029200553894043,0.33733034133911133,0.04942032,1.3734599,0.38106266512365594,0.0,0.008671372264375237,0.0,200,0.18443751335144043,0.21056304067654733,0.14962391477988246,12600,1.8229147256562956,0.0
63,1.5102429389953613,0.5667517564855034,0.28592383791034626,0.82865427154378,0.08336673620184959,0.0,0.1313242192998522,0.1,0.09618568420410156,1.172508716583252,0.049794216,0.8243094,0.3996315742598407,0.0,0.011162828845427315,0.0,200,0.16684961318969727,0.3591570997546585,0.27288303524678953,12800,1.6807268823371786,0.0
64,1.5150442123413086,0.3387982632280269,0.2574714153376443,0.7418030691169691,0.06313232084939763,0.0,0.12945700504241972,0.1,0.09630775451660156,0.9641358852386475,0.050278507,1.3285513,0.3935482431566593,0.0,0.0066540291340830985,0.0,200,0.1644268035888672,0.43132241307557123,0.48068517421526713,13000,1.9716109392491041,0.0
65,1.6108806133270264,0.5289384010333711,0.1916807229601513,0.8034730903771077,0.26703741451590546,0.0,0.12678443741966783,0.1,0.09096240997314453,0.05862164497375488,0.04947929,1.4068483,0.4070872589443305,0.0,0.010448033430052413,0.0,200,0.1760544776916504,0.1717174319263251,0.17099849222629748,13200,1.3132664960741478,0.0
66,1.5495758056640625,0.7147911667866382,0.4208746320152694,1.391323113339132,0.23445010516028772,0.0,0.13085566374890314,0.1,0.0052568912506103516,0.5590465068817139,0.050008286,1.764601,0.43785764972856134,0.0,0.0141981809834264,0.0,200,0.1725609302520752,0.3934729624972824,0.36370791733356633,13400,1.6414269589567996,0.0
67,1.646101951599121,0.32145882731306563,0.38459435837100175,0.9873385839657132,0.08637026145905766,0.0,0.13418127124053694,0.1,0.09806227684020996,0.7120578289031982,0.04999317,1.5579772,0.4262177674870118,0.0,0.006319355600172596,0.0,200,0.1777942180633545,0.9302122368719887,0.8324035023702876,13600,1.206160039880828,0.0
68,1.523866891860962,0.42414907546513964,0.23564592781497867,0.792962782362763,0.1984243201760496,0.0,0.12449049404326051,0.1,0.09270119667053223,0.8371126651763916,0.050376963,1.8405976,0.4260108982848246,0.0,0.008431800655665334,0.0,200,0.17690324783325195,0.4061794512435647,0.3278645708703929,13800,0.5589283119800258,0.0
69,1.533787488937378,0.7312909138845395,0.4177079971874972,1.1247936351103358,0.030083617254333225,0.0,0.12364361894572634,0.1,0.09809494018554688,1.6524238586425781,0.049419608,1.131463,0.4565388998447961,0.0,0.014420479140028409,0.0,200,0.17515325546264648,0.4171188633543665,0.41467436162834154,14000,0.501313098484702,0.0
70,1.5933449268341064,0.7705030127942409,0.3689305963087014,1.120507261650961,0.16106285698849715,0.0,0.12631076298268604,0.1,0.10192036628723145,1.6355037689208984,0.0499873,0.9196942,0.4879353111397406,0.0,0.014851072474780734,0.0,200,0.17609190940856934,0.3872738640161531,0.2965581910469556,14200,0.5267341409099086,0.0
71,1.5034153461456299,0.5845389437512385,0.47454045528531613,1.335238324406533,0.08483244107841886,0.0,0.1322617514658483,0.1,0.0965123176574707,1.1648309230804443,0.049712826,2.157099,0.49759567440089036,0.0,0.011375102351495817,0.0,200,0.17528653144836426,0.4283403181068695,0.43411076825943895,14400,0.5143552282616,0.0
72,1.4978268146514893,0.6980690442917105,0.28130399597866607,1.1330631280230226,0.4430578135839835,0.0,0.13673208569774983,0.1,0.10604715347290039,1.2059273719787598,0.050287552,1.1469003,0.5176430113899724,0.0,0.013814876505675332,0.0,200,0.17541742324829102,0.2178750608436775,0.22049535223698932,14600,0.5925269939887399,0.0
73,1.568910837173462,0.44102430279957655,0.1901196343062569,0.7691494078922411,0.3057522316334418,0.0,0.12971828040298214,0.1,0.10100126266479492,1.6254172325134277,0.050109647,1.2561466,0.5099811405309328,0.0,0.008528830619255866,0.0,200,0.18709874153137207,0.5412466846431463,0.3951720097630708,14800,0.6963703790679033,0.0
74,1.6405010223388672,0.7733980817979715,0.35423049038031656,1.1504198119880715,0.2917408480357597,0.0,0.12711344647232642,0.1,0.10426688194274902,1.531470775604248,0.04937405,1.2977868,0.5363228346576366,0.0,0.01517289202283786,0.0,200,0.18460726737976074,0.2437956761014564,0.24944348138123904,15000,0.5721733619340891,0.0
75,1.5976126194000244,0.4148520912292615,0.15411697360974658,0.6629639882822812,0.23939544245451438,0.0,0.1383448699327647,0.1,0.09713363647460938,1.6890418529510498,0.05016875,1.1022397,0.5241757603147992,0.0,0.0081581738972726,0.0,200,0.19360589981079102,0.48613056661373155,0.3539275511981089,15200,0.5377178223903084,0.0
76,1.565068244934082,0.5111860307661609,0.17781915018090022,0.6918087447726513,0.21611894179567234,0.0,0.13232504604336467,0.1,0.10297822952270508,1.6200144290924072,0.050348025,0.89395434,0.5228767873599354,0.0,0.010171939816845978,0.0,200,0.18228721618652344,0.15718433072523647,0.15527777865202358,15400,0.5253874946558109,0.0
77,1.5194504261016846,0.139270262114737,0.08213655863086583,0.23239014535002545,0.019017045730898848,0.0,0.1320800521475854,0.1,0.09754729270935059,1.4579298496246338,0.049938485,1.1480019,0.4845161348354155,0.0,0.0027775042229949156,0.0,200,0.18798613548278809,6.078827250213372,3.1492121435783327,15600,0.4236614411310579,0.0
78,1.5311760902404785,0.49392460624246115,0.23742177508551437,0.8042325697953909,0.24052838905616933,0.0,0.13187257881624287,0.1,0.10212826728820801,0.7480268478393555,0.050792083,1.422955,0.4854569819761201,0.0,0.00971539759740324,0.0,200,0.18190431594848633,0.26484201811187463,0.3125588284348372,15800,0.5341735522481451,0.0
79,1.589374303817749,0.6801358377747405,0.2072422039603397,0.9141400559808381,0.34936076668828026,0.0,0.13426376005608684,0.1,0.1038203239440918,0.3740384578704834,0.049304727,0.91605407,0.5049248675559821,0.0,0.01336171352375915,0.0,200,0.1722850799560547,0.4411626058207142,0.415586418704086,16000,0.4799207960943089,0.0
80,1.6392524242401123,0.6221977362838035,0.2926313682625909,1.0550645513371302,0.2930659267968928,0.0,0.1296682409555495,0.1,0.04424643516540527,0.7397959232330322,0.050372273,1.1297145,0.5166521544287642,0.0,0.01218891911019353,0.0,200,0.18046212196350098,0.39223484310587015,0.3232712700398501,16200,0.37279538929577044,0.0
81,1.5617015361785889,0.4341310637249655,0.42791570821146113,1.1447547764062538,0.06263681803082467,0.0,0.12672244933744706,0.1,0.1039886474609375,0.3961329460144043,0.050250713,2.2610726,0.5084000453583843,0.0,0.008625850362368636,0.0,200,0.17238664627075195,0.5046693757085873,0.5062618323461634,16400,1.4400486036418327,0.0
82,1.676891565322876,0.6484246966404141,0.3711825418475126,1.273437312139775,0.3376417633514565,0.0,0.1257813425098775,0.1,0.09832477569580078,0.4637012481689453,0.049129285,2.2430823,0.5224025104865874,0.0,0.012924108563225845,0.0,200,0.14907073974609375,0.37126011214244153,0.33331699442529994,16600,1.4532201352154124,0.0
83,1.5772678852081299,0.3544071969936402,0.26143496562414315,0.7517971249658579,0.0789347568481926,0.0,0.12641297598347645,0.1,0.10262298583984375,1.0052690505981445,0.04987564,1.1198783,0.5056029791372927,0.0,0.0069760072085645,0.0,200,0.17275047302246094,0.6033265557337986,0.6231911036158587,16800,0.7945815434903863,0.0
84,1.7124154567718506,0.3869795154874529,0.33396462745982414,0.9104741928989928,0.07942660050593314,0.0,0.12914921364336057,0.1,0.0030639171600341797,0.05530405044555664,0.049965516,1.3533963,0.49374063277230873,0.0,0.00755402480770518,0.0,200,0.1717681884765625,0.5482665003831044,0.5003466990055594,17000,1.7399943750647848,0.0
85,1.5146393775939941,0.3871555864680762,0.29004027264639204,0.8107447436879812,0.10580009700376379,0.0,0.12893969254621176,0.1,0.1040501594543457,1.3540756702423096,0.04967064,1.0817459,0.48308212814188545,0.0,0.007733465038397752,0.0,200,0.17012763023376465,0.4689930499169994,0.4245382563804097,17200,1.6419128707346478,0.0
86,1.4343132972717285,0.6902422093405586,0.20296707439286701,1.0311976225504897,0.4959016357396654,0.0,0.12898261000503455,0.1,0.038652658462524414,0.05735492706298828,0.05020891,1.1473328,0.5037981362617527,0.0,0.013522457569540156,0.0,200,0.17952179908752441,0.25483841897029086,0.25389710369226914,17400,1.269751689084703,0.0
87,1.447535753250122,0.2617611635676883,0.16164673786363243,0.5090589579724704,0.07206779111036231,0.0,0.12569928167449523,0.1,0.09663629531860352,0.1655585765838623,0.050025836,1.7934816,0.4795944389923463,0.0,0.005116105921438541,0.0,200,0.16835856437683105,0.5671620753700002,0.5350589077245619,17600,0.5524985884877457,0.0
88,1.5413436889648438,0.6140817697634569,0.3786971760839763,1.214812627951131,0.1929281145107691,0.0,0.12388627167525657,0.1,0.09595441818237305,0.14605450630187988,0.050652277,1.6388974,0.49304317206945736,0.0,0.012116997650389262,0.0,200,0.17197084426879883,0.3614150210432887,0.35171416777334275,17800,0.6572968776052226,0.0
89,1.5518770217895508,0.42042705421464716,0.17040502720743886,0.6231435511790033,0.22607895806046227,0.0,0.12764135796467696,0.1,0.09615302085876465,0.14233779907226562,0.049887296,1.1571351,0.48578156028397634,0.0,0.008282332648290626,0.0,200,0.17385125160217285,0.2250656525199617,0.2311230260969233,18000,0.6778754839610218,0.0
90,1.6420910358428955,0.5330382727450212,0.5581018964343362,1.4858874875059318,0.06197558821967482,0.0,0.12731956932895258,0.1,0.10198974609375,1.0594913959503174,0.049802795,1.7024176,0.49050723153008086,0.0,0.0105454662607537,0.0,200,0.16680669784545898,0.5750022494033653,0.5676201743537519,18200,0.7841771895523418,0.0
91,1.6573481559753418,0.5268147978282582,0.560192598252788,1.4473075782374958,0.05604184577255089,0.0,0.12473400796108364,0.1,0.09754610061645508,0.9286651611328125,0.04977883,1.7696881,0.4941379881598986,0.0,0.010337539203899742,0.0,200,0.17084407806396484,0.5923501411699245,0.5826737803289687,18400,0.8590808215129168,0.0
92,1.6482453346252441,0.7850075231180698,0.4812155904777404,1.3350492508236769,0.06899196787722041,0.0,0.1263951930779317,0.1,0.0036406517028808594,0.5688185691833496,0.05019718,1.127796,0.5232249416557158,0.0,0.015531716123697864,0.0,200,0.17020559310913086,0.4109820356159914,0.3748710306566486,18600,0.657791561734438,0.0
93,1.609471321105957,0.6246982522734132,0.7348387040423048,1.8797059715332303,0.008804897270090893,0.0,0.12609598234279315,0.1,0.0937964916229248,0.3842198848724365,0.04988539,2.0940156,0.5333722727174856,0.0,0.012278909987184183,0.0,200,0.1679387092590332,0.6090942456429541,0.6039214433937751,18800,1.152664559581311,0.0
94,1.627837896347046,0.48471421845967666,0.1131288255527661,0.6408234294346998,0.3317049047405157,0.0,0.1315376131007824,0.1,0.10436058044433594,0.3999502658843994,0.049212098,1.0588527,0.5285064672917047,0.0,0.009678435554329318,0.0,200,0.1758735179901123,0.18482896449235942,0.1682522716719422,19000,0.9785922574824294,0.0
95,1.6182746887207031,0.6961425163538131,0.31731297642072914,1.240046464161195,0.44780531498543574,0.0,0.1313782123966868,0.1,0.10177040100097656,1.005779504776001,0.049322627,1.7803771,0.5452700721979156,0.0,0.013754036374066138,0.0,200,0.1787264347076416,0.23661999779124973,0.23178312190648098,19200,0.9882036717739558,0.0
96,1.608388900756836,1.0426841193200609,0.06695690857848277,1.1475543542804105,0.9698846755579691,0.0,0.12978178551180353,0.1,0.05256986618041992,0.569415807723999,0.050591514,1.2112461,0.5950114769101301,0.0,0.020605658715466012,0.0,200,0.17601537704467773,0.2229664230620282,0.1455099166904604,19400,0.8281521114966365,0.0
97,1.5788702964782715,0.7115670800503691,0.17799403512742135,0.9318341921973263,0.4428226866595357,0.0,0.12536640755818323,0.1,0.0031270980834960938,0.05500316619873047,0.049617983,0.8890535,0.606667037224154,0.0,0.014108584115783598,0.0,200,0.16691184043884277,0.13962047627015534,0.17435548964754452,19600,0.763628460864277,0.0
98,1.7256379127502441,0.6914457475080409,0.3261522794674332,1.2165252178667798,0.35198039883267823,0.0,0.12384945996831655,0.1,0.09745383262634277,0.6472175121307373,0.049555376,1.2866168,0.6151449082525428,0.0,0.01358131348061646,0.0,200,0.17304348945617676,0.25008289616759405,0.2247936290473557,19800,0.5063548759965276,0.0
99,1.6775705814361572,0.6916888705692398,0.3369680147714225,1.0244744542649784,0.14637256196759396,0.0,0.1266867553502788,0.1,0.10244607925415039,0.058478593826293945,0.04947464,0.93136656,0.6227993044842124,0.0,0.013366495370847508,0.0,200,0.1758439540863037,0.2841796628202266,0.2671759722536777,20000,1.0381572070045362,0.0
100,1.5754635334014893,0.6323616712316403,0.3796376535646984,1.185116699510803,0.2562202162605879,0.0,0.1288762156945693,0.1,0.10054397583007812,0.3330860137939453,0.050087925,1.5967032,0.6237555411589553,0.0,0.012379954324037656,0.0,200,0.1413125991821289,0.3154514073771124,0.3035661279944637,20200,1.0177192746190065,0.0
101,1.6047449111938477,0.6636633211855232,0.46444740020836695,1.394669227872792,0.13350519893234164,0.0,0.12590313923228638,0.1,0.09419536590576172,0.30855846405029297,0.049347226,1.3770763,0.6277463191616122,0.0,0.012859977108923407,0.0,200,0.1744251251220703,0.35582651436021473,0.35628290581347294,20400,0.8153309888872154,0.0
102,1.609102725982666,0.5593943440257646,0.4174946459223926,1.2751661229835851,0.2432454348681282,0.0,0.13421251238737655,0.1,0.09580731391906738,0.5928547382354736,0.049560815,1.744636,0.6209111216480274,0.0,0.01097830171281794,0.0,200,0.16626310348510742,0.4141470684105284,0.40780679205325093,20600,1.4310319281453865,0.0
103,1.5137484073638916,0.6307383944107509,0.1417726723908615,0.8206214022957501,0.4716901563416755,0.0,0.1311767844776467,0.1,0.10275435447692871,0.6178874969482422,0.049969606,1.1698263,0.6218938489242998,0.0,0.012606669739195723,0.0,200,0.11249160766601562,0.11600520787318978,0.11072323830608892,20800,1.0681718598602434,0.0
104,1.6307988166809082,0.8131093303127144,0.3588048193449948,1.3932661732638585,0.4455984603657636,0.0,0.13201886376746444,0.1,0.09220480918884277,0.11815190315246582,0.049962968,1.3242399,0.6410153970631413,0.0,0.016013030090517716,0.0,200,0.17161011695861816,0.27679924983835974,0.24835037710790808,21000,1.297420016872421,0.0
105,1.6046106815338135,0.6004713762806358,0.44072300243672663,1.361868929721995,0.2963401565384467,0.0,0.1332828497762467,0.1,0.09922075271606445,0.94380784034729,0.04986395,1.3845047,0.6369609949848907,0.0,0.011757032823567833,0.0,200,0.1731710433959961,0.3686670364730287,0.381703062350694,21200,0.5741326041070308,0.0
106,1.6473684310913086,0.4587586706623368,0.09439291836440958,0.5391617421417876,0.29860307613914827,0.0,0.13026826982621723,0.1,0.09351253509521484,0.17843151092529297,0.04980336,1.0096904,0.6191407625526353,0.0,0.009112477725360692,0.0,200,0.16678476333618164,0.42910789150928785,0.29121070626561935,21400,0.40500449850921716,0.0
107,1.6470932960510254,0.89754803004675,0.5638483812363977,1.6146927786725984,0.1381215619827893,0.0,0.13482008582915023,0.1,0.09721064567565918,0.2839329242706299,0.05019086,1.2233005,0.6469814893020468,0.0,0.017801893263993483,0.0,200,0.1722099781036377,0.3904964084088785,0.3904020756614306,21600,0.5949792017669356,0.0
108,1.6411161422729492,0.6083842643819161,0.27756736196605675,0.903821899472459,0.3121268960567838,0.0,0.12548701586144764,0.1,0.09346866607666016,1.145143747329712,0.049924526,1.2958004,0.6431217668100337,0.0,0.01207795996406187,0.0,200,0.1826024055480957,0.2204272970900836,0.22041856050340708,21800,0.48390274432047337,0.0
109,1.6311850547790527,0.7603416555893896,0.4194772080923936,1.210387699016813,0.23948576037525,0.0,0.12433378654690865,0.1,0.10316014289855957,1.6122817993164062,0.050075237,1.68526,0.6548437556879694,0.0,0.014687202164546049,0.0,200,0.17086219787597656,0.37182357559160567,0.3374313623751458,22000,0.6341747971316477,0.0
110,1.6382114887237549,0.8063105648474461,0.6344054747622178,1.7898791492099744,0.1346023660699082,0.0,0.13304854730310425,0.1,0.07959270477294922,1.0207931995391846,0.049935494,1.2216873,0.6699904366039171,0.0,0.015583669137059985,0.0,200,0.19139575958251953,0.4525777844586433,0.434073882743551,22200,0.7620259680020283,0.0
111,1.6488683223724365,0.544509730589872,0.24610337177555042,0.9099976972069072,0.3009362309251288,0.0,0.1330272537036591,0.1,0.0494389533996582,0.05913114547729492,0.049953338,0.9695615,0.6574423660025126,0.0,0.010708916121292123,0.0,200,0.16631650924682617,0.4365333318606244,0.3984418205957848,22400,1.252856055641199,0.0
112,1.6448123455047607,0.16852025403018875,0.10049617268048286,0.2698739931186309,0.05887233145141591,0.0,0.1339114291820347,0.1,0.0952155590057373,0.16279292106628418,0.04985468,1.0832696,0.6085501548052803,0.0,0.003349178697605802,0.0,200,0.17245697975158691,10.230298504714185,4.706790999108503,22600,1.0355066666983814,0.0
113,1.692335605621338,0.9112885752825806,0.39647620413204626,1.5130640590957571,0.5485980752889787,0.0,0.1316396017056452,0.1,0.10219073295593262,0.8411567211151123,0.04952539,1.5846759,0.6388239968530104,0.0,0.01805370328310535,0.0,200,0.17392253875732422,0.3215155202565038,0.3842461867530499,22800,1.07598708543182,0.0
114,1.6680877208709717,0.8008329952669977,0.43884774073036786,1.5087431954480381,0.3222768501773522,0.0,0.12316103270888559,0.1,0.03339099884033203,0.3021554946899414,0.04948561,1.9746417,0.6550248966944091,0.0,0.015665886513426007,0.0,200,0.17580127716064453,0.3802002533236425,0.3468457593341271,23000,0.8133908786518217,0.0
115,1.679511547088623,0.7100418496553447,0.39570729458316206,1.3304786052394715,0.2714026635872044,0.0,0.12593513656774447,0.1,0.10349702835083008,0.057306528091430664,0.050493203,1.82981,0.6605265919905027,0.0,0.013604138151007056,0.0,200,0.17305684089660645,0.32393484026135566,0.28410315971417566,23200,1.8657444537182852,0.0
116,1.8072984218597412,0.5230320699770776,0.291102627493376,0.8048177157063672,0.05989495615521541,0.0,0.12410958351823814,0.1,0.09521913528442383,0.7225785255432129,0.04992405,1.1667267,0.6467771397891602,0.0,0.010321540383561107,0.0,200,0.16759347915649414,0.3072133911410776,0.3498449288040038,23400,1.383239054461667,0.0
117,1.5636348724365234,0.8195214451897866,0.5559919909663839,1.5616347447821397,0.07816025607352745,0.0,0.12458524049999692,0.1,0.09632706642150879,0.13318347930908203,0.05041841,1.449357,0.6640515703292229,0.0,0.015867268123935217,0.0,200,0.166215181350708,0.3852324596594208,0.37257083655992795,23600,0.9939772282761834,0.0
118,1.6356627941131592,0.5334588784228205,0.4861310040078301,1.3643217155858063,0.13167351294049628,0.0,0.12732322555551076,0.1,0.09437036514282227,0.7246463298797607,0.04978684,3.1862948,0.6509923011385826,0.0,0.010386554512005092,0.0,200,0.16997838020324707,0.5695046949284627,0.5627032275085986,23800,0.8004542778057365,0.0
119,1.5902724266052246,0.48289916836282976,0.43018293645731387,1.1801887321973226,0.01466159511354588,0.0,0.11961874060545072,0.1,0.10231184959411621,0.3346560001373291,0.049920753,2.2750583,0.6341829878610075,0.0,0.009611017715610041,0.0,200,0.17542743682861328,0.5472242722549622,0.4809620933678098,24000,0.743307928601911,0.0
120,1.651902675628662,0.7997252990361863,0.16523076682620022,1.009399839601885,0.6009607595290257,0.0,0.12960518777454288,0.1,0.10028266906738281,0.93778395652771,0.050367072,1.1642836,0.6507372189785254,0.0,0.01582981555055875,0.0,200,0.17172956466674805,0.12488654116130744,0.13665389625060442,24200,0.5043931886053582,0.0
121,1.590872049331665,0.7659758368608998,0.3260454019409572,1.2444510273201213,0.45369599973385455,0.0,0.123908803538689,0.1,0.10198545455932617,1.1468579769134521,0.05004217,1.6285036,0.6622610807667628,0.0,0.014791290389367866,0.0,200,0.1665363311767578,0.2393381713972625,0.22269272240465723,24400,0.9629164287471003,0.0
122,1.6121017932891846,0.3754113038605469,0.24806793383001646,0.792228267042622,0.14916036306030805,0.0,0.1264202926041375,0.1,0.09895110130310059,1.6369471549987793,0.050353933,0.9949881,0.6335761030761412,0.0,0.0074795096520454225,0.0,200,0.16620230674743652,0.786849472097624,0.6989144532339712,24600,0.2549372868098229,0.0
123,1.6821093559265137,0.5418050818549636,0.4248134853439777,1.2101484337925652,0.07114066995406977,0.0,0.11834500342089584,0.1,0.07274699211120605,0.055376291275024414,0.049385168,3.01308,0.6243990009540235,0.0,0.010763949807079174,0.0,200,0.17446327209472656,0.42489184968179167,0.4041860088629307,24800,0.5633463279487889,0.0
124,1.6011383533477783,0.6559164318252675,0.43203456946919705,1.339508126228208,0.14108196273665322,0.0,0.12200873236410152,0.1,0.11116313934326172,0.8664901256561279,0.050424337,1.3940094,0.6275507440411479,0.0,0.013005686439250477,0.0,200,0.1793665885925293,0.36460174815180163,0.3668153973523235,25000,0.8429761147466484,0.0
125,1.5978419780731201,0.6029839465824797,0.5279364624782227,1.478218884264648,0.17822728030432256,0.0,0.12087705886464697,0.1,0.09954500198364258,0.44094252586364746,0.04943006,2.1387136,0.625094064295281,0.0,0.011913383435530476,0.0,200,0.16115021705627441,0.5041479581967583,0.49233384000420927,25200,1.0120648256373974,0.0
126,1.6703307628631592,0.6532167105167741,0.23015796732867772,1.0157351427104628,0.38111998132498043,0.0,0.12070946176634463,0.1,0.09819531440734863,0.6883151531219482,0.049389657,1.5558541,0.6279063289174304,0.0,0.01296443654091923,0.0,200,0.16957998275756836,0.1673930985009084,0.16252601162072697,25400,0.7825010952146254,0.0
127,1.595367193222046,0.9614919537838063,0.5414835689297788,1.617691503679055,0.1141990207453811,0.0,0.12928916257743434,0.1,0.10256552696228027,0.07595539093017578,0.050041314,0.96489596,0.661264891404068,0.0,0.01874888528503483,0.0,200,0.18255043029785156,0.3927790478764626,0.3319982783752307,25600,0.8281798757643647,0.0
128,1.5860776901245117,0.6941999004405309,0.3171549795225208,1.1665665686022604,0.28622847023066317,0.0,0.12868227150042463,0.1,0.027143478393554688,0.17206645011901855,0.049790155,1.3987973,0.6645583923077143,0.0,0.013765864081990915,0.0,200,0.12531423568725586,0.2371921096641622,0.2760356301934946,25800,0.8061498928862888,0.0
129,1.5886249542236328,0.7079042883865656,0.26189545658088065,1.0130372385247501,0.4085166150113358,0.0,0.12472620303047677,0.1,0.10447168350219727,1.6709012985229492,0.04964229,1.1585859,0.6688929819155995,0.0,0.013865228274032415,0.0,200,0.18104076385498047,0.24435339214923338,0.23978665048381181,26000,0.6990099745007933,0.0
130,1.6795191764831543,0.9664968408636572,0.4746828506921146,1.463428457350102,0.1845343633164936,0.0,0.12524198700442526,0.1,0.09738874435424805,1.6795239448547363,0.049373817,0.8639311,0.6986533678104053,0.0,0.01914028692188349,0.0,200,0.1613154411315918,0.24895769948758595,0.24461794079204582,26200,0.7381462303481431,0.0
131,1.6356167793273926,0.8971409709251437,0.3400013829000258,1.4089611046194708,0.45324135804995036,0.0,0.12364550277450184,0.1,0.09992623329162598,0.06620359420776367,0.049783643,1.5347238,0.7185021281218791,0.0,0.017429817697729458,0.0,200,0.17080998420715332,0.18183752304281625,0.17148400199580588,26400,0.7221953408675947,0.0
132,1.68941068649292,0.2944450853577456,0.15139389687403798,0.46360680763420437,0.05993802725829989,0.0,0.13274552451403626,0.1,0.09959816932678223,0.7195181846618652,0.049484104,0.8761585,0.6760964238454658,0.0,0.005829146053354627,0.0,200,0.1774451732635498,3.1655988625321227,2.0423955996449723,26600,0.9897127687998367,0.0
133,1.6429882049560547,0.8707512556443459,0.45170282985954363,1.4462848203813432,0.3325761188682569,0.0,0.12043402184959148,0.1,0.1008903980255127,1.1090259552001953,0.049617335,1.3057907,0.6955619070253538,0.0,0.01710166488849838,0.0,200,0.17322182655334473,0.27197898215686556,0.3072952772141816,26800,0.6451910819215944,0.0
134,1.6916766166687012,0.3679080673578181,0.12431551929040315,0.4866428842847493,0.18078890337778805,0.0,0.12791204573881748,0.1,0.10160160064697266,1.640580654144287,0.049333587,0.80878156,0.6627965230586003,0.0,0.0073108029447204875,0.0,200,0.16768407821655273,0.639261441110147,0.41392772054991506,27000,0.567104540236512,0.0
135,1.6650283336639404,0.5198150854744111,0.39677583785647447,1.076886050178326,0.06227325782596827,0.0,0.12927981677376452,0.1,0.10337305068969727,0.28766512870788574,0.049956698,1.1346478,0.6484983793001814,0.0,0.010299950187230669,0.0,200,0.18063592910766602,0.4412828271237073,0.4339722906340974,27200,0.6890408357705652,0.0
136,1.6081602573394775,0.8780049605769332,0.5333251784371262,1.388133615194924,0.030189820137664598,0.0,0.12856518646997844,0.1,0.0997927188873291,0.9423928260803223,0.049696416,0.81697536,0.6714490374278567,0.0,0.01712311144469078,0.0,200,0.18580842018127441,0.4151907756061743,0.39760602991961935,27400,0.7595603216224208,0.0
137,1.6249194145202637,0.8057390863244689,0.28846961855739606,1.208293772611319,0.39496802845817236,0.0,0.12459381214326046,0.1,0.09430527687072754,1.2054345607757568,0.049619474,1.2004591,0.6848780423175178,0.0,0.015978911001425896,0.0,200,0.18168044090270996,0.25184722855338587,0.2163239589656889,27600,0.8737363501665246,0.0
138,1.5894229412078857,0.7124010671319095,0.28685418551504,1.1930071956794301,0.4589032682826512,0.0,0.12976222512647992,0.1,0.10553145408630371,0.503326416015625,0.049847197,1.3944606,0.687630344798957,0.0,0.014238622974127273,0.0,200,0.17969608306884766,0.19802258930181887,0.19042408682148224,27800,1.876192819727918,0.0
139,1.6421546936035156,0.6525518072237841,0.3002934380188092,1.1101584181132316,0.35249992925660684,0.0,0.12068378132877203,0.1,0.10034441947937012,0.45178747177124023,0.04943087,1.1884533,0.6841224910414397,0.0,0.012516788696727506,0.0,200,0.16904139518737793,0.19001475028754808,0.19194580015595866,28000,1.3011268376822982,0.0
140,1.6826813220977783,0.41293520518095017,0.27861610038583656,0.8222859837993304,0.14190500710259066,0.0,0.12425963846906311,0.1,0.10776114463806152,0.5705914497375488,0.04935759,1.4119862,0.6570037624553907,0.0,0.007943185327898724,0.0,200,0.16788196563720703,0.588763727528837,0.5129142097867738,28200,0.9675855211342627,0.0
141,1.6576640605926514,0.513738176870423,0.4459149073492798,1.2782695992598372,0.1920726509763014,0.0,0.12154977389113515,0.1,0.10106992721557617,0.3740575313568115,0.04958558,1.8124968,0.642677203896894,0.0,0.01011932411525648,0.0,200,0.16875934600830078,0.45729437555953495,0.41493192943499835,28400,0.379364841960868,0.0
142,1.701514720916748,0.8039522441224933,0.4846513951466567,1.279668117011457,0.13598715636243375,0.0,0.1237599512083759,0.1,0.11144733428955078,1.5968785285949707,0.04966154,0.91268677,0.6588047079194539,0.0,0.015867912712361616,0.0,200,0.1650228500366211,0.3672020520608445,0.3728411075646197,28600,0.39450591618332914,0.0
143,1.6848902702331543,0.8645330202756782,0.19767137193858583,1.1659999733608628,0.6210241658320163,0.0,0.12051272084273221,0.1,0.09905004501342773,0.10632967948913574,0.048771992,2.3249524,0.6793775391550764,0.0,0.017170436852398236,0.0,200,0.17406916618347168,0.2369032337401528,0.18574386383484437,28800,0.40519437212187137,0.0
144,1.7183895111083984,0.5509716695934176,0.42915520676553665,1.1337280095461761,0.08614192285027404,0.0,0.12712891346800503,0.1,0.09961867332458496,1.6038291454315186,0.049511943,1.2231466,0.6665369521989105,0.0,0.010799316817787693,0.0,200,0.18149876594543457,0.4367827521535302,0.45496286959448634,29000,0.35926057419811425,0.0
145,1.6880013942718506,0.8069742126959749,0.4196004952030757,1.3508198787115384,0.24272383214178891,0.0,0.11687532003422343,0.1,0.09890246391296387,0.7111692428588867,0.049570695,2.0165849,0.680580678248617,0.0,0.015961741992046398,0.0,200,0.18167853355407715,0.25112786199966747,0.24112022260138893,29200,0.4668663624134017,0.0
146,1.65836501121521,0.4196751651169734,0.2373447202015628,0.7329367557754358,0.06696113363191229,0.0,0.12314742323236005,0.1,0.10224008560180664,0.7368190288543701,0.05012457,0.94457054,0.6544901269354527,0.0,0.008132833690153303,0.0,200,0.16807246208190918,0.6093457330923276,0.5411741760814266,29400,0.44026389554566076,0.0
147,1.6742258071899414,0.4250211710063647,0.5029602251400015,1.2881184434151773,0.03279932244227559,0.0,0.12868028003745122,0.1,0.09988522529602051,0.9965076446533203,0.049474135,1.3747205,0.6315432313425439,0.0,0.008453686197928183,0.0,200,0.16620683670043945,0.7896581377609311,0.6840622044971598,29600,0.6514384402960999,0.0
148,1.6366870403289795,1.2030434891393929,0.20567346283684462,1.4950610826913062,0.9279131209712324,0.0,0.1290708907823623,0.1,0.09738397598266602,0.11059021949768066,0.050031196,1.0923097,0.6886932571222287,0.0,0.023633636400652767,0.0,200,0.1721799373626709,0.3122707319205133,0.2897041106487605,29800,0.6167462006602956,0.0
149,1.6828947067260742,1.1389771537207851,0.4361455006985456,1.739709702542097,0.6680807810344186,0.0,0.13316338767185804,0.1,0.10126900672912598,1.2512092590332031,0.049932424,1.0515764,0.7337216467820844,0.0,0.022188403229696695,0.0,200,0.17256617546081543,0.33795048732860505,0.2479528971636156,30000,0.4256781836164611,0.0
150,1.6359519958496094,0.826901268804348,0.6115992984558065,1.8555677196130058,0.31327543798768975,0.0,0.12722613006686903,0.1,0.09728431701660156,0.23371219635009766,0.049563125,1.7929945,0.7430396089843108,0.0,0.016192353489384873,0.0,200,0.17775607109069824,0.36299482153905627,0.37301996180292357,30200,0.24203962313263636,0.0
151,1.7308146953582764,1.68135105989349,0.45609380335017097,2.400086156810343,1.1326860132080379,0.0,0.12806241562318807,0.1,0.09600019454956055,1.580871820449829,0.049777795,1.288831,0.8368707540752287,0.0,0.033191800049804536,0.0,200,0.18209028244018555,0.27546684527393134,0.1660308446216616,30400,0.2330810282237309,0.0
152,1.707794427871704,0.8645866639922197,0.6913297870240749,2.015671724146395,0.1955129186611982,0.0,0.13179206984186448,0.1,0.1040503978729248,1.524247646331787,0.04990581,1.5478154,0.8396423450669278,0.0,0.017157181291003274,0.0,200,0.17420411109924316,0.5806196530040862,0.6343596599621402,30600,0.3220597609448395,0.0
153,1.7405774593353271,0.5241616935018768,0.34658015221526006,1.0010775649906498,0.021490691798881002,0.0,0.12913418866264925,0.1,0.10264778137207031,0.8383116722106934,0.05071379,1.5638337,0.8080942799104227,0.0,0.010375862937472185,0.0,200,0.17241382598876953,1.868619715123408,0.9467183980498899,30800,0.4015828875251173,0.0
154,1.629173755645752,0.7851885716666712,0.1366612204725774,0.9586946105474137,0.5835767890100051,0.0,0.1227564513367558,0.1,0.0955812931060791,1.6676042079925537,0.049166,1.8300983,0.8058037090860475,0.0,0.01564618133798928,0.0,200,0.18295598030090332,0.2086538986019185,0.06621982307726051,31000,0.5704748872701054,0.0
155,1.6494266986846924,0.9914756094690595,0.6223827842003874,1.8089235083367352,0.08244862393171629,0.0,0.12164497061015235,0.1,0.10071396827697754,0.2838175296783447,0.04936004,1.4896504,0.8243708991243488,0.0,0.019323935211818483,0.0,200,0.17456865310668945,0.3578738673283218,0.4057418089074593,31200,0.5508707719592951,0.0
156,1.6311869621276855,0.4931870490306638,0.3424503915701125,0.9003633822008386,0.059055717912724,0.0,0.1308631006828977,0.1,0.10120272636413574,0.7959794998168945,0.049822733,0.9472926,0.7912525141149803,0.0,0.009666993598566159,0.0,200,0.17364859580993652,0.4012849538503828,0.3648276115136045,31400,0.34378370428484856,0.0
157,1.702643871307373,0.7938891783736719,0.6203015539670766,1.7966105257558165,0.21815501766224085,0.0,0.12755342794941602,0.1,0.09343743324279785,0.9502646923065186,0.04982628,1.313077,0.7915161805408495,0.0,0.01542984513202157,0.0,200,0.17288517951965332,0.4297519299541516,0.4291839834826633,31600,0.2977265447332913,0.0
158,1.7001316547393799,0.5437857327649561,0.4444219244923842,1.280646273406764,0.105074533049987,0.0,0.11874524292833606,0.1,0.09952330589294434,1.5830023288726807,0.05037003,3.415027,0.7667431357632603,0.0,0.010659716031507395,0.0,200,0.1667330265045166,0.4810010316507493,0.47916582073479774,31800,0.6915320225831346,0.0
159,1.7403931617736816,0.9718015640398273,0.31007970340654484,1.3533535629098683,0.5280936994801523,0.0,0.12371336898105512,0.1,0.0722496509552002,0.055678367614746094,0.0498801,1.3351399,0.7872489785909169,0.0,0.019148141305894244,0.0,200,0.17042207717895508,0.25243112947956603,0.22568794189882352,32000,0.24389445678315305,0.0
160,1.7337024211883545,0.5599956298211313,0.2348708323381479,0.8832071961132791,0.2957179982530848,0.0,0.12978720083098164,0.1,0.10924220085144043,1.5667989253997803,0.049317326,1.1647806,0.7645236437139384,0.0,0.011180188666455445,0.0,200,0.1867237091064453,0.2672428015311912,0.29163365852411244,32200,1.1053631343098211,0.0
161,1.637033462524414,1.1032483602445673,0.6129644117814296,2.027015115010056,0.38460345343704966,0.0,0.11984649834573356,0.1,0.10115623474121094,1.6440081596374512,0.05006155,1.4478629,0.7983961153670014,0.0,0.021470146255982252,0.0,200,0.17926597595214844,0.3701057011356311,0.33693762904133934,32400,0.5845452173955652,0.0
162,1.705383539199829,0.8801078772794808,0.5221247871281776,1.4832061384553084,0.08211609325604272,0.0,0.12640803954773752,0.1,0.09530210494995117,0.5097513198852539,0.050202798,1.0696008,0.8065672915582494,0.0,0.017096727392159727,0.0,200,0.17118191719055176,0.3109313705927994,0.2943037000846751,32600,0.3684870078043794,0.0
163,1.7303166389465332,1.013341485937931,0.5112412760504786,1.4406973335504212,0.17749633190462374,0.0,0.13196932653598478,0.1,0.10353565216064453,0.9524991512298584,0.05007262,0.7371228,0.8272447109962175,0.0,0.01988831751808442,0.0,200,0.17626595497131348,0.25599027237996896,0.244898391096725,32800,1.118027544645223,0.0
164,1.772798776626587,1.1110274573354313,0.8673871229325706,2.587265741307058,0.40949212681172314,0.0,0.12288062325210171,0.1,0.11034512519836426,1.6745433807373047,0.048748087,1.9546887,0.8556229856301389,0.0,0.02160280155453117,0.0,200,0.17567896842956543,0.4404734179125983,0.42486024097797376,33000,1.5648040973034896,0.0
165,1.734410285949707,0.676452799704561,0.3287546038751905,1.1554874356307456,0.3702715425254294,0.0,0.12631449635621717,0.1,0.10525274276733398,1.6885058879852295,0.05012718,1.5047295,0.8377059670375812,0.0,0.01333703191218809,0.0,200,0.1845109462738037,0.5417845561221831,0.4605004502443081,33200,0.41692954252652337,0.0
166,1.7280023097991943,0.6234186408026726,0.16151217259128117,0.812135302789326,0.37525907940116165,0.0,0.12892388223525983,0.1,0.09982562065124512,0.9746718406677246,0.04972913,1.1171174,0.8162772344140903,0.0,0.01204987275732931,0.0,200,0.1656494140625,0.48666083942528,0.24199628956854596,33400,0.2747895552498182,0.0
167,1.7858645915985107,0.6778431726118364,0.4464756475317966,1.1436409141027482,0.18016068547305858,0.0,0.1304837945680914,0.1,0.11081099510192871,1.1351776123046875,0.050139207,0.9834813,0.8024338282338649,0.0,0.013355586743532624,0.0,200,0.18026995658874512,0.3718555161267198,0.3375079118031542,33600,0.3292102270893132,0.0
168,1.6024980545043945,0.8976487922206032,1.0350331495163323,2.671684376509492,0.06335237775260107,0.0,0.124781924481406,0.1,0.09550213813781738,0.8639450073242188,0.049860075,1.8228166,0.8119553246325387,0.0,0.017331543624426654,0.0,200,0.17547011375427246,0.6274658674143512,0.6245504230178567,33800,0.20022364993760808,0.0
169,1.7000327110290527,1.4054138257452062,0.33701982065368447,1.982879354349286,1.1325715398830247,0.0,0.1244822748307849,0.1,0.10818648338317871,1.3953919410705566,0.049429808,1.8949075,0.8713011747438055,0.0,0.027324973020209763,0.0,200,0.1715378761291504,0.3387790568101179,0.25919873702800944,34000,0.22399906291224866,0.0
170,1.6608355045318604,0.19605166127194407,0.11833804091485721,0.3162012110452151,0.019908684266503107,0.0,0.12437194011469335,0.1,0.07876944541931152,0.05711770057678223,0.050023124,0.968287,0.8037762233966195,0.0,0.0038693153096283316,0.0,200,0.16887712478637695,8.34640752972056,8.766467853552705,34200,0.16700501941821735,0.0
171,1.6873672008514404,0.9703917865449563,0.7953491864582022,2.0600070169666145,0.1866991632513372,0.0,0.12354896161719342,0.1,0.09932875633239746,1.5199642181396484,0.050568268,1.4471526,0.8204377797114532,0.0,0.019068954602831985,0.0,200,0.17414593696594238,0.4449344602410296,0.4444726200995983,34400,0.2189295679127031,0.0
172,1.7299163341522217,0.8271324349241613,0.4274738230436479,1.3917648486771572,0.20118697076262507,0.0,0.11791477428592745,0.1,0.10323047637939453,1.6032557487487793,0.04945369,1.9026302,0.821107245232724,0.0,0.016187793085425596,0.0,200,0.1829371452331543,0.2374650671739994,0.23571957076972674,34600,0.2535475918321009,0.0
173,1.6993374824523926,0.7735097107664841,0.4714732445250812,1.2369465135742388,0.08868487070356605,0.0,0.12348573344945964,0.1,0.09269022941589355,0.25142621994018555,0.04962714,1.0274282,0.8163474917861001,0.0,0.014896024654265469,0.0,200,0.1678011417388916,0.28203013783555797,0.27913246806054076,34800,0.32256460418424465,0.0
174,1.6833972930908203,0.8634296662677968,0.6842177046779028,1.8488412522409927,0.200379589307558,0.0,0.13166568286280902,0.1,0.10355901718139648,1.5530648231506348,0.05048127,1.0437797,0.8210557092342697,0.0,0.016869189094202357,0.0,200,0.1640002727508545,0.4224694726630021,0.4200819928947625,35000,0.3711165032918629,0.0
175,1.6731481552124023,1.2810584652537138,0.760462119678168,2.230667524524784,0.12505053722250037,0.0,0.11926803635271581,0.1,0.09297490119934082,1.4316647052764893,0.050531324,1.1198418,0.8670559848362142,0.0,0.024970819423982205,0.0,200,0.16576194763183594,0.39638662367173744,0.37094193449863366,35200,0.2673186459839658,0.0
176,1.701843023300171,1.4014569902502454,0.9458412977054124,2.512974065483457,0.07065854210758091,0.0,0.12161631263254596,0.1,0.0052912235260009766,0.2923855781555176,0.050339617,1.0700731,0.9204960853776174,0.0,0.026945922921885582,0.0,200,0.13909697532653809,0.4462249864264107,0.38842026045738237,35400,0.2704537833679334,0.0
177,1.7191157341003418,0.8873911523319149,0.4260100696158101,1.4016745042281302,0.22899264438004963,0.0,0.1285768816068361,0.1,0.10603833198547363,0.08658814430236816,0.04990636,0.91777754,0.9171855920730472,0.0,0.017217721414382,0.0,200,0.17778587341308594,0.2546538027384193,0.32118600110378887,35600,0.17859973976471336,0.0
178,1.7259998321533203,1.277776680448706,0.642919946948389,2.0425681421124047,0.32995272259380964,0.0,0.12211387231404354,0.1,0.10229110717773438,0.08735775947570801,0.05001042,1.1418873,0.9532447009106131,0.0,0.024695950368854542,0.0,200,0.18071460723876953,0.261173120895106,0.2527913393637495,35800,0.2696507885454706,0.0
179,1.6575400829315186,1.00806320890818,0.4707551335193557,1.75869154990726,0.460611064457601,0.0,0.13390307112702024,0.1,0.09599542617797852,0.6832735538482666,0.0500623,0.9698307,0.9587265517103698,0.0,0.01973077829587873,0.0,200,0.17235779762268066,0.2719549423791353,0.2716864509054542,36000,0.22062579564034648,0.0
180,1.7423484325408936,0.6772430777898273,0.6360390090043482,1.7212223667791713,0.10249979584305259,0.0,0.122916285326556,0.1,0.09259200096130371,1.4770476818084717,0.050746508,1.8290443,0.9305782043183156,0.0,0.013295739338746969,0.0,200,0.1703503131866455,0.762226775352946,0.6115521509887563,36200,0.44401012666398904,0.0
181,1.678046464920044,0.8058538236304992,0.5184318145570965,1.637704985565052,0.2259036324763508,0.0,0.1188092941972756,0.1,0.09911108016967773,1.6079411506652832,0.05004254,2.006159,0.918105766249534,0.0,0.015825214826766715,0.0,200,0.18075942993164062,0.39724687710994083,0.31877228214115577,36400,0.5121877751756795,0.0
182,1.7117598056793213,0.8260973212748971,0.6875205897783093,1.9665346964724948,0.14512237113788132,0.0,0.12286342291093423,0.1,0.10316991806030273,0.3854219913482666,0.049925264,1.8103429,0.9089049217520703,0.0,0.016098697687562287,0.0,200,0.16152667999267578,0.42618086128611155,0.42063140665208865,36600,0.42484260806967217,0.0
183,1.7812554836273193,1.180432536365038,0.6992175666888693,2.010953460207948,0.3871487566388082,0.0,0.12174494715037891,0.1,0.10455870628356934,0.8533453941345215,0.05011625,1.265715,0.936057683213367,0.0,0.023122263940282776,0.0,200,0.16886162757873535,0.40073889170491617,0.3961490677460504,36800,0.6218843193311204,0.0
184,1.7014644145965576,0.3542146000404595,0.1599231265714515,0.5780486561945458,0.147267752788331,0.0,0.1271096173282603,0.1,0.10340356826782227,0.11174917221069336,0.050032444,1.0768107,0.8778733748960763,0.0,0.0069557425821536924,0.0,200,0.1658482551574707,1.6545073671916648,1.4456187994488585,37000,0.9971455483495331,0.0
185,1.7576336860656738,0.5348064780481018,0.5069946035555095,1.2254931644626397,0.04004390135620132,0.0,0.11960497460193299,0.1,0.1001896858215332,1.6611533164978027,0.049532942,1.0709155,0.8435666852112789,0.0,0.010411814278478225,0.0,200,0.1807997226715088,0.5580240939431028,0.5300228263566534,37200,0.9123211284832192,0.0
186,1.8012146949768066,0.3980480565180386,0.30746472937515884,0.9188895163626226,0.17012778344134433,0.0,0.124764075491134,0.1,0.0889737606048584,0.9607434272766113,0.050024457,2.0025177,0.7990148223419549,0.0,0.007898791101479511,0.0,200,0.1656932830810547,0.9158036251943151,0.649819747534398,37400,0.8496979959277814,0.0
187,1.7179265022277832,1.0809328527216153,0.5297115191764338,1.6784438302312659,0.23453681463425555,0.0,0.1173426616563046,0.1,0.07699465751647949,0.07271170616149902,0.04944527,1.1537235,0.827206625379921,0.0,0.02115324180584397,0.0,200,0.17864370346069336,0.3783335315899973,0.3816587924186215,37600,1.2029124451396527,0.0
188,1.658773422241211,1.0232508264018672,0.5887564627168397,1.8151465894657581,0.3039071966643247,0.0,0.12219249374591327,0.1,0.0989689826965332,0.1590726375579834,0.050229475,1.2854561,0.8468110454821156,0.0,0.020144627261419242,0.0,200,0.17178773880004883,0.41921360507692856,0.38116763468253617,37800,1.069195526425956,0.0
189,1.7134790420532227,1.1309948043914926,0.8618962091480368,2.352465279205131,0.07937821263762741,0.0,0.12190963424091115,0.1,0.0051727294921875,0.31061720848083496,0.049616136,1.1672679,0.8752294213730534,0.0,0.021970484265403267,0.0,200,0.17491841316223145,0.5225153109828686,0.46330989661950495,38000,0.8728247890669079,0.0
190,1.7132408618927002,0.9381852765341527,0.1624278529169454,1.1548053683116823,0.7040174004621949,0.0,0.12593668421582865,0.1,0.09761810302734375,0.3300445079803467,0.049322013,0.92001855,0.8815250068891634,0.0,0.0182915694197516,0.0,200,0.17361998558044434,0.13062442582940054,0.11034233168603609,38200,1.080237002409906,0.0
191,1.7479910850524902,0.9426130738860418,0.3581016400869792,1.2881792688933402,0.42095789043154885,0.0,0.12753288449367417,0.1,0.09859275817871094,1.6350679397583008,0.049494363,1.0351262,0.8876338135888512,0.0,0.01859833035326563,0.0,200,0.1822195053100586,0.22652470383743523,0.23912349043508535,38400,0.431450142834039,0.0
192,1.7942147254943848,0.460170642842753,0.3390925490721069,0.9490605927298968,0.008672288865940318,0.0,0.12926412306290008,0.1,0.006883144378662109,1.0247905254364014,0.049611777,1.479151,0.8448874965142414,0.0,0.009034035272839549,0.0,200,0.16670489311218262,1.3756586031342564,1.2112268789683456,38600,1.3832511867244126,0.0
193,1.7668919563293457,1.0823914126574683,0.7123886386213082,2.0278397910178283,0.020225156976525764,0.0,0.1252295442430287,0.1,0.01316213607788086,0.060471534729003906,0.04994026,1.7242295,0.8686378881285641,0.0,0.020973178908524525,0.0,200,0.1751399040222168,0.37703183130744766,0.3843533151552101,38800,2.3437672892269674,0.0
194,1.7158472537994385,1.3171797972786257,0.503886170312517,1.76199904416077,0.5090133002433966,0.0,0.12096379919651862,0.1,0.10097765922546387,0.35773158073425293,0.04966167,1.0927455,0.9134920790435703,0.0,0.025520314789252645,0.0,200,0.17034220695495605,0.25074458792333715,0.22422458212733026,39000,1.8041663713861051,0.0
195,1.651364803314209,0.8535108090897141,0.3087518010301219,1.3469589694256896,0.5805271807400861,0.0,0.12950366726542967,0.1,0.09265542030334473,1.4948015213012695,0.050476838,0.9419066,0.9074939520481848,0.0,0.016484632786356677,0.0,200,0.17149090766906738,0.21132832780167413,0.22891389842917265,39200,2.029842382695765,0.0
196,1.6142313480377197,0.2063173067541657,0.06663079793514486,0.31000156890234337,0.12444335967830447,0.0,0.12158505650007549,0.1,0.03780674934387207,0.5518958568572998,0.049784355,0.925968,0.8373762875187829,0.0,0.004099401834418508,0.0,200,0.17777729034423828,13.675900189417293,10.360970766688487,39400,1.987927261451478,0.0
197,1.7429533004760742,0.9115576743658503,0.4646926198732729,1.3746800594475357,0.3867010217699604,0.0,0.1279282603565443,0.1,0.09784293174743652,0.25413036346435547,0.049732443,0.9511289,0.8447944262034897,0.0,0.01761594558628591,0.0,200,0.16171526908874512,0.24144910705392839,0.25469186157840384,39600,1.8810815480263943,0.0
198,1.7063450813293457,0.8521241806730789,0.8352563757586837,2.204624625873423,0.08102406910557507,0.0,0.1265818511625589,0.1,0.1009829044342041,0.5705056190490723,0.050086264,1.4258014,0.8455274016504486,0.0,0.01635133387946626,0.0,200,0.1803421974182129,0.5288114081374112,0.5324003711626684,39800,1.7590822471747434,0.0
199,1.7858858108520508,0.8893057032028175,0.4268563743999282,1.279017941507614,0.17059184391857563,0.0,0.1293477513769566,0.1,0.0807027816772461,1.5746159553527832,0.0499531,0.71468145,0.8499052318056854,0.0,0.01720509701269858,0.0,200,0.17154455184936523,0.22398246839844932,0.2284426812349581,40000,1.8268012961312088,0.0
