iteration,time_sampling,stoc_pol_mean,stoc_pol_std,stoc_pol_max,stoc_pol_min,rollout_success,alpha,delta,time_vpg,time_npg,kl_dist,surr_improvement,running_score,rwd_sparse,rwd_dense,success_percentage,num_samples,time_VF,VF_error_before,VF_error_after,env_samples,eval_score,eval_success
0,1.8750154972076416,0.2113058796725345,0.006614881409350181,0.21872013005411867,0.20083899266049052,0.0,0.1521690884025959,0.1,0.1979050636291504,1.6651983261108398,0.05391864,1.6749654,0.2113058796725345,0.0,0.0028814864976535494,0.0,300,0.32738447189331055,0.3151709507866924,0.11982022689999246,300,0.20563235730616605,0.0
1,1.9530212879180908,0.2188553079462092,0.016303524503918136,0.24696060300629766,0.2081040216543923,0.0,0.15731736724584813,0.1,0.003332376480102539,0.06203746795654297,0.058808886,1.2020272,0.21206082249990196,0.0,0.0029890909157731385,0.0,300,0.3104074001312256,0.14438806212361632,0.08973588576246577,600,0.2090605708716825,0.0
2,1.971235990524292,0.21600932393968553,0.005674621625086646,0.22329912253419362,0.20766540719174578,0.0,0.1675706957394906,0.1,0.09401392936706543,1.307955265045166,0.049131427,1.5709637,0.21245567264388032,0.0,0.0029473896577587072,0.0,300,0.28371381759643555,0.0763710585266089,0.0627931452412317,900,0.20981442144964632,0.0
3,2.030186414718628,0.2353635987581037,0.05190088308953538,0.32497293510087044,0.20061196545372723,0.0,0.17769175138626075,0.1,0.004515409469604492,0.06216764450073242,0.052495554,0.9932723,0.21474646525530267,0.0,0.003204251742324169,0.0,300,0.10798001289367676,0.1972802145922822,0.1693653713627446,1200,0.2086495217676665,0.0
4,2.0822689533233643,0.22554714843162824,0.00940939221681141,0.23859371846666913,0.21254939447136356,0.0,0.164085440103776,0.1,0.003141641616821289,0.06299614906311035,0.051500373,2.9188151,0.21582653357293521,0.0,0.003075989861630787,0.0,300,0.021895170211791992,0.1277934553698201,0.07388647725534783,1500,0.21532444599098235,0.0
5,1.6782548427581787,0.23535607093501712,0.030665843078735874,0.269551218037966,0.18620090322289254,0.0,0.1503675205954194,0.1,0.0030896663665771484,0.10323572158813477,0.050692305,6.81001,0.21777948730914343,0.0,0.003174718935140084,0.0,300,0.031020164489746094,0.11286896518706073,0.08591568131919836,1800,0.2161774731269089,0.0
6,1.8848943710327148,0.23231073019463772,0.034765262115127114,0.2919384183749569,0.20484351237896958,0.0,0.1681991336211303,0.1,0.03346443176269531,0.061331987380981445,0.050435826,3.1740942,0.21923261159769286,0.0,0.0031268576981731623,0.0,300,0.020775318145751953,0.09365859731946594,0.09550972655736392,2100,0.2319240528584289,0.0
7,1.4929518699645996,0.22062191240707588,0.013306829508472682,0.23997999169924433,0.20748672407924207,0.0,0.15125578665529088,0.1,0.003136873245239258,0.06143069267272949,0.051230878,3.660691,0.21937154167863115,0.0,0.003005550889535612,0.0,300,0.02036261558532715,0.0965227902997687,0.08105385265259263,2400,0.23077708753411044,0.0
8,1.5023341178894043,0.25329811973068,0.039094936162316,0.31489989305192156,0.21214869213113374,0.0,0.15945001195344577,0.1,0.003256082534790039,0.06880640983581543,0.05046929,2.1080618,0.22276419948383605,0.0,0.003430694255930341,0.0,300,0.02008962631225586,0.1802335956638352,0.12193174347053583,2700,0.24193185388853913,0.0
9,1.719832420349121,0.2389042420727017,0.029401321547999563,0.28615270748036736,0.20647949106170738,0.0,0.15815188614657882,0.1,0.0032720565795898438,0.06548190116882324,0.050573338,4.784467,0.2243782037427226,0.0,0.0032461441908812347,0.0,300,0.10533952713012695,0.0876212758682054,0.07349991971727184,3000,0.25158537784253104,0.0
10,2.0880112648010254,0.22437170520034055,0.01222353162327488,0.23997206279140235,0.21046883992038937,0.0,0.1624316404527367,0.1,0.0034036636352539062,0.05986356735229492,0.050254475,2.6221726,0.2243775538884844,0.0,0.003059021679931696,0.0,300,0.0318293571472168,0.06335127592023929,0.05658730934765415,3300,0.23108581053621777,0.0
11,2.220714807510376,0.24704810995362425,0.01782685965719938,0.27009702076344083,0.22049350384140853,0.0,0.182071844497502,0.1,0.0033941268920898438,0.06332516670227051,0.052994426,1.4309118,0.2266446094949984,0.0,0.003310220824841384,0.0,300,0.13463354110717773,0.07619282399753878,0.05183285469673387,3600,0.22257336922603219,0.0
12,1.7869868278503418,0.2607661508927141,0.06197892878563638,0.36484274560197155,0.21315230573537772,0.0,0.186842968253648,0.1,0.003257274627685547,0.06115150451660156,0.049595345,0.8536445,0.23005676363476998,0.0,0.0034840010220702046,0.0,300,0.17133831977844238,0.21212566291687537,0.20437553216179807,3900,0.2307556523135058,0.0
13,1.9598703384399414,0.2790460131850648,0.03618211466795706,0.3090722329090378,0.21805483025964537,0.0,0.1732830348884895,0.1,0.0035393238067626953,0.06190919876098633,0.050803073,0.80965984,0.23495568858979946,0.0,0.0037425476634308655,0.0,300,0.14252185821533203,0.10094610114291039,0.09720829604818554,4200,0.25545889499761826,0.0
14,1.4952175617218018,0.32811177561261556,0.10634076460584801,0.5012531495588393,0.21741444531355228,0.0,0.1691177127458221,0.1,0.0032913684844970703,0.061969757080078125,0.05042579,1.325127,0.24427129729208108,0.0,0.004384156327522464,0.0,300,0.04727458953857422,0.23014915748919695,0.19969868163876006,4500,0.3472547075483899,0.0
15,1.482388973236084,0.43021843663361636,0.23951894009982913,0.8388981305319113,0.22692272184489973,0.0,0.19550717097518489,0.1,0.003161191940307617,0.06060957908630371,0.0502037,1.0976886,0.2628660112262346,0.0,0.005610273670413312,0.0,300,0.018584489822387695,0.5252071863199105,0.42462117888971407,4800,0.3008414755377715,0.0
16,1.50921630859375,0.26695626657322374,0.0336819803978974,0.30991062341604114,0.21918647473206732,0.0,0.1735205882969313,0.1,0.09726190567016602,0.19477558135986328,0.050158516,1.3055879,0.2632750367609335,0.0,0.0036188379904955365,0.0,300,0.023415088653564453,2.684397336850646,0.3193213572866701,5100,0.3098087672561194,0.0
17,1.5006074905395508,0.25051506705718246,0.025289932530104472,0.2765405201693425,0.20867493964534756,0.0,0.1644180789719485,0.1,0.0031194686889648438,0.061228036880493164,0.05000721,0.982873,0.2619990397905584,0.0,0.00339528320465922,0.0,300,0.020351409912109375,0.4790210442129075,0.15759451789031537,5400,0.3108777181489696,0.0
18,1.504669427871704,0.4223174766426411,0.163850676278597,0.6029838329073621,0.24662580386638652,0.0,0.18539175626577725,0.1,0.0032863616943359375,0.06167769432067871,0.0494117,0.77327126,0.27803088347576665,0.0,0.005608809162093273,0.0,300,0.025084733963012695,0.5722196923901385,0.5219979254388303,5700,0.3103097816950995,0.0
19,1.8166849613189697,0.29995912847211514,0.11096909180596536,0.49209705808667803,0.231238081012007,0.0,0.17422547142239364,0.1,0.003785371780395508,0.06293272972106934,0.049342122,1.2441375,0.2802237079754015,0.0,0.004024719335662545,0.0,300,0.0194244384765625,0.34948537290557985,0.30168202428136465,6000,0.2969926501859178,0.0
20,1.8428914546966553,0.33990701109875743,0.16365677614636367,0.6206991484551633,0.2196943882599008,0.0,0.17739446441729337,0.1,0.003544330596923828,0.0658879280090332,0.050464302,1.1795871,0.2861920382877371,0.0,0.004573359981279215,0.0,300,0.2544519901275635,0.4323939411171212,0.3844640306073739,6300,0.3132391212796641,0.0
21,1.565277338027954,0.5020168041671833,0.41846405618157295,1.220652639715207,0.20413000969398304,0.0,0.18263581792917036,0.1,0.003221273422241211,0.06142926216125488,0.049369138,1.197694,0.30777451487568175,0.0,0.006708381413616208,0.0,300,0.01857161521911621,0.6987618764941098,0.6215036445394453,6600,0.297947004479871,0.0
22,1.54127836227417,0.365912278165375,0.19638467220503286,0.6916949521463243,0.20790013587788322,0.0,0.1775993051451619,0.1,0.005177974700927734,0.21501970291137695,0.04965938,0.7869385,0.3135882912046511,0.0,0.004772304633354993,0.0,300,0.07286834716796875,0.48297395731150305,0.5449164917612994,6900,0.3554902626000411,0.0
23,2.1390128135681152,0.22917506764297985,0.009486440568249054,0.23861526080393977,0.2167883474102417,0.0,0.17686744539170698,0.1,0.0031485557556152344,0.06204795837402344,0.050174773,0.7939779,0.30514696884848397,0.0,0.0031191198980892202,0.0,300,0.019807100296020508,2.5498851028654235,1.1992977139556416,7200,0.27530736286449636,0.0
24,1.5618062019348145,0.4203258760768299,0.12926284010819644,0.5657061443196418,0.286572643730483,0.0,0.1707291958290235,0.1,0.003331422805786133,0.06257152557373047,0.049177393,0.9454638,0.3166648595713186,0.0,0.00563862201096974,0.0,300,0.021009445190429688,0.2837115704439278,0.3227114776491633,7500,0.2866457648177891,0.0
25,1.6503617763519287,0.24634014930826284,0.03437606238442531,0.3043384223460946,0.21431525749594854,0.0,0.1811193967151995,0.1,0.003371715545654297,0.0617520809173584,0.050171677,0.7359375,0.30963238854501307,0.0,0.003325893415012987,0.0,300,0.01873493194580078,0.3230511230469897,0.19131024200275729,7800,0.3257395055959496,0.0
26,1.5987441539764404,0.4653619491858737,0.4052859710584313,1.1669662915984778,0.21237364710468062,0.0,0.17985410112889302,0.1,0.0072956085205078125,0.061918020248413086,0.04849245,1.0445421,0.3252053446090991,0.0,0.006178494686082656,0.0,300,0.0190274715423584,0.6650483884946836,0.6504722333976742,8100,0.33415919963725926,0.0
27,1.4806151390075684,0.24686953917977777,0.03363208702830433,0.29669249193226377,0.20474385816432472,0.0,0.16929079774829978,0.1,0.003283262252807617,0.06352472305297852,0.05021995,0.8262615,0.31737176406616696,0.0,0.003347404197734146,0.0,300,0.049059391021728516,0.29041537194352934,0.3216762926880504,8400,0.31439837379820906,0.0
28,1.5096547603607178,0.34552979945899115,0.13935731073451413,0.5744683940035658,0.23139535726967858,0.0,0.19066552585180627,0.1,0.0033380985260009766,0.06356120109558105,0.050173145,0.96544445,0.3201875676054494,0.0,0.004414216355991757,0.0,300,0.03962254524230957,0.3636689958746424,0.3614143214383268,8700,0.36392987352828193,0.0
29,1.5169751644134521,0.2711361871081039,0.04445033437897038,0.3235871361901746,0.20295279789118395,0.0,0.18694355053990785,0.1,0.03196597099304199,0.060575246810913086,0.05001135,0.6414585,0.31528242955571484,0.0,0.0035903274993259217,0.0,300,0.170668363571167,0.19736684789327344,0.1779434796313672,9000,0.3061886066150233,0.0
30,1.7520477771759033,0.3606684882244148,0.17769955940267143,0.6657949605328625,0.23238863950598024,0.0,0.18033589704371203,0.1,0.17650151252746582,1.4747438430786133,0.051384337,0.87876576,0.31982103542258483,0.0,0.00485657185009571,0.0,300,0.05871105194091797,0.3669644614861864,0.3602011988065231,9300,0.29246746484315284,0.0
31,2.260922908782959,0.2588293194261332,0.025374423820090565,0.2964474546308223,0.22963127347632456,0.0,0.16958337982151914,0.1,0.0033981800079345703,0.06606745719909668,0.05012514,1.2669967,0.31372186382293965,0.0,0.0035197931901527384,0.0,300,0.10247468948364258,0.30803085463922203,0.21072095981427846,9600,0.249938421772443,0.0
32,1.5436732769012451,0.2899874139920546,0.030108434066602855,0.34139204847543253,0.2653120470520623,0.0,0.18125867047276492,0.1,0.0031249523162841797,0.059633493423461914,0.050039984,0.64641136,0.31134841883985115,0.0,0.003910423584355661,0.0,300,0.02897787094116211,0.07606104504060984,0.06373906667499961,9900,0.29540906605572254,0.0
33,1.5553362369537354,0.41188798423765577,0.15096457885158027,0.6328192153621492,0.22497448957660443,0.0,0.17714120977892492,0.1,0.0031745433807373047,0.061830997467041016,0.050797757,0.9591823,0.32140237537963157,0.0,0.005531970669478926,0.0,300,0.01896977424621582,0.37703955285622953,0.3418666614581746,10200,0.28788017791612025,0.0
34,2.3971776962280273,0.4705848818475442,0.2331880622478122,0.7568081646242142,0.23264608800119044,0.0,0.17634860642118355,0.1,0.004342317581176758,0.06133532524108887,0.049607564,0.8104614,0.3363206260264229,0.0,0.006296191888806024,0.0,300,0.07114624977111816,0.4768872288254181,0.3801589122684285,10500,0.2920147277100024,0.0
35,1.5503928661346436,0.45913660424826896,0.19950005374129706,0.7382626619047935,0.2185797471045614,0.0,0.1686725396742339,0.1,0.0032982826232910156,0.06320786476135254,0.049953014,0.9939371,0.3486022238486075,0.0,0.006154585246626529,0.0,300,0.018585920333862305,0.32623738190760937,0.3143164246214529,10800,0.34335781766816803,0.0
36,1.5949697494506836,1.0942342782937808,0.3339038940273914,1.641408942025186,0.7484957187711917,0.0,0.17488516153850128,0.1,0.003495454788208008,0.06375002861022949,0.04971475,5.439071,0.42316542929312484,0.0,0.014421267541120683,0.0,300,0.020451068878173828,0.5385459915567324,0.26622346974276134,11100,0.40160630554388527,0.0
37,2.302485704421997,0.5510804672096115,0.22069569095971572,0.9222819355913514,0.348484247294042,0.0,0.16744726621533323,0.1,0.060761451721191406,0.06150007247924805,0.05005292,0.86242145,0.4359569330847735,0.0,0.007327084991434381,0.0,300,0.0696866512298584,0.6638095077626718,0.6063810935036803,11400,0.4713047121592426,0.0
38,1.721341848373413,0.49922210191668676,0.11474726122788197,0.6670289960042706,0.3747181541608548,0.0,0.17014566069986417,0.1,0.0932619571685791,1.474747896194458,0.050424185,0.8400615,0.44228344996796487,0.0,0.006439044636021928,0.0,300,0.07753133773803711,1.0083338079746196,0.1568425003532342,11700,0.5074527572677667,0.0
39,1.8934621810913086,0.5842451573742059,0.18656897328115274,0.8395474059577342,0.32051158497388027,0.0,0.18299096308367718,0.1,0.2825746536254883,0.41428184509277344,0.049772006,0.70242685,0.456479620708589,0.0,0.007796674441824572,0.0,300,0.1802811622619629,0.2572759826925157,0.3205522933812376,12000,0.5071686956657978,0.0
40,2.22109317779541,0.4203260321965173,0.09705859109161546,0.5796888545676632,0.31710390948649353,0.0,0.16773348854522238,0.1,0.013134241104125977,0.06199383735656738,0.05007073,0.8221579,0.4528642618573818,0.0,0.005648452310493188,0.0,300,0.2023639678955078,0.21534978914436634,0.1942486092781822,12300,0.5826794016343582,0.0
41,1.990924596786499,0.6693267119663581,0.4366385448060798,1.3986054952961926,0.26162625043935694,0.0,0.1689954037724583,0.1,0.0031137466430664062,0.061873674392700195,0.050371286,1.1931064,0.47451050686827945,0.0,0.008947926096345647,0.0,300,0.09138894081115723,0.5518735771658492,0.5477637454096652,12600,0.48594635939764136,0.0
42,1.6123483180999756,0.521681335765862,0.3853400607854647,1.1834318235617818,0.23235180317115756,0.0,0.16434205484159398,0.1,0.0036325454711914062,0.06521272659301758,0.049626056,1.9865086,0.4792275897580377,0.0,0.006566861748612944,0.0,300,0.05267167091369629,0.5839692293830587,0.5520646787019915,12900,0.5233448521834958,0.0
43,2.070204734802246,0.5550697985183377,0.38073455291301006,1.1962521849390104,0.2131980175037261,0.0,0.1544772814170185,0.1,0.2709012031555176,1.7742087841033936,0.049817882,2.064063,0.4868118106340677,0.0,0.007449450488145003,0.0,300,0.397014856338501,0.49746165815216864,0.48727327244986623,13200,0.5173806831368377,0.0
44,2.008028984069824,0.5712482587861788,0.19751158544162306,0.7662155944826502,0.31897013945419544,0.0,0.16631539216090085,0.1,0.003362417221069336,0.06157493591308594,0.050481584,0.91843903,0.49525545544927885,0.0,0.007551514846855566,0.0,300,0.25715112686157227,0.25376009315853276,0.23708367068651098,13500,0.5524719435889146,0.0
45,1.5810182094573975,0.487734634445927,0.2066234688429198,0.8189840434169166,0.2904042396947083,0.0,0.17099183659014958,0.1,0.003449678421020508,0.0626220703125,0.049669687,1.2760955,0.4945033733489437,0.0,0.006339119818122824,0.0,300,0.24335479736328125,0.28686909686469697,0.2864798565524866,13800,0.5808119197808458,0.0
46,1.5876274108886719,0.4104811211411179,0.16205135172975935,0.6049112010873641,0.22700548780274932,0.0,0.17209241881729712,0.1,0.0034706592559814453,0.06075143814086914,0.049093064,0.8567808,0.48610114812816113,0.0,0.005487311205116659,0.0,300,0.24512124061584473,0.4146453706805867,0.337855369241094,14100,0.5379811058197819,0.0
47,2.497117280960083,0.689994020369648,0.3397869263223422,1.2385095729155435,0.31667712156846883,0.0,0.16749829369732727,0.1,0.00324249267578125,0.060237884521484375,0.049572032,1.231861,0.5064904353523098,0.0,0.009204605295318007,0.0,300,0.1009674072265625,0.40632474196747576,0.40063249076271823,14400,0.5977292825175671,0.0
48,2.2840278148651123,0.7591357191117327,0.1743209063331987,0.914287958592175,0.46532560782322163,0.0,0.17054304999176773,0.1,0.09618425369262695,1.6291368007659912,0.049693897,0.7299506,0.531754963728252,0.0,0.009974669170724811,0.0,300,0.15079069137573242,0.3260777669599964,0.2622425721422384,14700,0.7178429465026338,0.0
49,2.2567174434661865,0.5527296564300279,0.1197290634693122,0.7334303758295803,0.40285056884415993,0.0,0.17301444026170204,0.1,0.1002810001373291,0.06660103797912598,0.049854763,0.9447116,0.5338524329984297,0.0,0.00733376763461264,0.0,300,0.23824477195739746,0.17978888849853303,0.199934464618444,15000,0.5231771503510617,0.0
50,2.221273422241211,0.5366824891514397,0.3101832516225662,0.9518047422770797,0.21988707575973274,0.0,0.1610834404351673,0.1,0.0286257266998291,0.060821533203125,0.04999403,1.1404284,0.5341354386137307,0.0,0.007136820564711427,0.0,300,0.04248213768005371,0.4379934408965782,0.4080136995532483,15300,0.6111556334166409,0.0
51,2.325197696685791,0.5508051837071986,0.22994546016783657,0.8438261575127239,0.2613312713255664,0.0,0.15275285700748475,0.1,0.003258228302001953,0.06413507461547852,0.04958931,1.0310923,0.5358024131230775,0.0,0.007297894588533586,0.0,300,0.040396928787231445,0.24863900978546763,0.23158965100231318,15600,0.9776703886494625,0.0
52,1.6780376434326172,0.4661038509522708,0.12925638088840205,0.6782712241204422,0.33377344240001783,0.0,0.16698330799832553,0.1,0.003296375274658203,0.06003260612487793,0.048929952,0.6823625,0.5288325569059968,0.0,0.005990606986638323,0.0,300,0.018627166748046875,0.17605084063193094,0.14491864232479684,15900,1.2154053791325095,0.0
53,1.6290786266326904,0.6618903847153875,0.48873385316973494,1.4943895828220755,0.25362991176829164,0.0,0.16747978223510607,0.1,0.006325721740722656,0.061328887939453125,0.04969979,1.317315,0.5421383396869359,0.0,0.008856599549011362,0.0,300,0.018885374069213867,0.5128907089050656,0.5009520754008484,16200,1.2886165575649955,0.0
54,1.6512806415557861,0.5484922747534403,0.18176400639030738,0.8365599251795384,0.3482653524602179,0.0,0.17781117651552186,0.1,0.005111217498779297,0.0618131160736084,0.04971399,0.85945505,0.5427737331935863,0.0,0.007077881228326737,0.0,300,0.0189669132232666,0.2165168866071253,0.20296708055770943,16500,1.3920639501046408,0.0
55,1.655945062637329,0.5539868150624006,0.2647278218818043,0.8562717745428104,0.24778742889617078,0.0,0.17459320915704096,0.1,0.0033621788024902344,0.0632009506225586,0.04976599,0.72510016,0.5438950413804677,0.0,0.0074129195334736945,0.0,300,0.020059823989868164,0.31182569423095874,0.30656487958768835,16800,1.7728938970695836,0.0
56,2.0511224269866943,0.8382352578564172,0.14334313735848644,1.0648102285933743,0.7002121350033075,0.0,0.1722031029924163,0.1,0.0031654834747314453,0.06067824363708496,0.05017615,0.81478065,0.5733290630280627,0.0,0.011186325868455749,0.0,300,0.018759727478027344,0.24673182050749223,0.16831076549999072,17100,1.9152640079103331,0.0
57,1.6610112190246582,0.8577362526989551,0.4377837410507289,1.4560193070099006,0.3887261820090954,0.0,0.16816853835023396,0.1,0.00966334342956543,0.06222414970397949,0.050167333,1.2466894,0.601769781995152,0.0,0.011359378278173616,0.0,300,0.02106952667236328,0.4278035439099583,0.4034800943742088,17400,2.1962262085752213,0.0
58,2.3709352016448975,0.8916831180636374,0.5795877411971224,1.8377998719664403,0.30361407592097384,0.0,0.14853528765043775,0.1,0.0033371448516845703,0.05995750427246094,0.050564513,2.0412202,0.6307611156020005,0.0,0.011928643269270013,0.0,300,0.0776968002319336,0.45839869068398337,0.43216972345146937,17700,1.9724923384312054,0.0
59,1.7827346324920654,0.9846568685827429,0.44251151041120707,1.5003375739546254,0.3514571304612894,0.0,0.16427866033528343,0.1,0.0031592845916748047,0.06104087829589844,0.049383465,0.77422345,0.6661506909000748,0.0,0.0126950494896638,0.0,300,0.019290924072265625,0.2604764202229276,0.255898940434578,18000,1.8603389833959054,0.0
60,1.8375954627990723,0.28520854805506646,0.04849166702446133,0.34778513711101844,0.22534734628120168,0.0,0.14564043339067506,0.1,0.003709077835083008,0.09982943534851074,0.04965322,1.48795,0.6280564766155741,0.0,0.003865892485903881,0.0,300,0.019362449645996094,10.846566693007828,2.506092118260494,18300,1.9616081487352737,0.0
61,2.3005709648132324,0.5703255086921998,0.21980139646524272,0.9200023544960759,0.3259525744314281,0.0,0.16186709755648293,0.1,0.003499746322631836,0.06313180923461914,0.049190752,0.99167377,0.6222833798232367,0.0,0.007602778243804642,0.0,300,0.019745588302612305,0.1962469616566929,0.29812551408299454,18600,2.1017272045698863,0.0
62,1.617854356765747,0.7103314154827703,0.3108854942091038,1.0542288365761776,0.22987474084582582,0.0,0.1659682564577933,0.1,0.003223419189453125,0.06182098388671875,0.04993055,0.68959147,0.63108818338919,0.0,0.009095893197553136,0.0,300,0.24381518363952637,0.4809471494513225,0.427717328521832,18900,2.3352961705482516,0.0
63,1.5845208168029785,0.9082360486306966,0.3568738047096223,1.424225968854737,0.42230186135069564,0.0,0.15576205567023915,0.1,0.00588536262512207,0.06199312210083008,0.049651016,1.6677978,0.6588029699133406,0.0,0.012096435996345188,0.0,300,0.24588298797607422,0.5344392100166662,0.39807700560749737,19200,1.5531056362116848,0.0
64,2.130866527557373,0.7062606282921383,0.35903136359724463,1.1254930056564256,0.28699313925680475,0.0,0.16717978541829878,0.1,0.09465479850769043,1.0368990898132324,0.04944177,1.1204518,0.6635487357512204,0.0,0.00944936617088785,0.0,300,0.0625920295715332,0.3813187877552996,0.33518768872483645,19500,1.7998232400289427,0.0
65,2.0263960361480713,0.7801509178439938,0.17468971054973367,0.9805493726226006,0.5652404458371657,0.0,0.16291531542810145,0.1,0.0030753612518310547,0.05948662757873535,0.0496651,0.88543445,0.6752089539604977,0.0,0.010386994253694288,0.0,300,0.01857161521911621,0.16538504032180257,0.17414735943373916,19800,1.6061506533363274,0.0
66,1.594031572341919,0.826300843702282,0.21866285559971385,1.0614994464082346,0.492434480099789,0.0,0.15815108922305068,0.1,0.003237009048461914,0.06057596206665039,0.050053738,1.0303143,0.6903181429346762,0.0,0.011036180215174508,0.0,300,0.07770967483520508,0.25339238143427695,0.22621006050971942,20100,1.8180464934225544,0.0
67,2.288100481033325,0.5263353746396523,0.3158870520357474,1.0086936913537052,0.2286651621598289,0.0,0.16520057525523738,0.1,0.0035393238067626953,0.061753034591674805,0.050276462,0.9960752,0.6739198661051738,0.0,0.007073718529236156,0.0,300,0.019748210906982422,0.7369164096103435,0.4926783239607523,20400,2.0038883602370556,0.0
68,1.5244839191436768,1.2164470355480652,0.4955630431183228,1.8099190673405092,0.5022451359842084,0.0,0.16763730594095413,0.1,0.0031723976135253906,0.06263446807861328,0.050041087,0.9071789,0.728172583049463,0.0,0.016164713448378002,0.0,300,0.018332481384277344,0.39859546897799036,0.36884975260676983,20700,1.8305152858935332,0.0
69,1.9331214427947998,0.760962981741318,0.3098635583702518,1.0595140778880077,0.251966533971804,0.0,0.16757904852803218,0.1,0.0032567977905273438,0.06135869026184082,0.04941099,2.6210456,0.7314516229186485,0.0,0.010122927477649458,0.0,300,0.01924920082092285,0.2661359311524616,0.26833130491111246,21000,1.9562534486872396,0.0
70,1.5622212886810303,0.3205126753329067,0.14618701961477823,0.563059117087994,0.1722449470865106,0.0,0.15597680196081432,0.1,0.0031659603118896484,0.06655764579772949,0.05117469,0.7101183,0.6903577281600743,0.0,0.00435017557230882,0.0,300,0.019380807876586914,3.961661232400016,2.3947378893016498,21300,2.5067568954070834,0.0
71,1.611093282699585,1.068719875687489,0.38846715270238796,1.6781443915443195,0.607751556877724,0.0,0.1615013489032306,0.1,0.006307125091552734,0.061728715896606445,0.04905138,1.2658726,0.7281939429128159,0.0,0.014143343401929652,0.0,300,0.018595218658447266,0.3265356107033506,0.35418373310851575,21600,2.5878519721080875,0.0
72,1.52720308303833,1.0416219459352714,0.4459239208766575,1.4721300575183933,0.4330494343842501,0.0,0.1641759245151657,0.1,0.003182649612426758,0.06115078926086426,0.049178276,1.9986556,0.7595367432150615,0.0,0.013955485499032095,0.0,300,0.018807172775268555,0.36531572654888317,0.3001376518142004,21900,2.3780419492678546,0.0
73,1.5343129634857178,1.3849946539819797,0.3766590584069269,1.8346893958390984,1.0069345808825838,0.0,0.17473359003680414,0.1,0.0031728744506835938,0.0629725456237793,0.050240148,0.69795626,0.8220825342917534,0.0,0.018480961965118486,0.0,300,0.018863439559936523,0.3489431284189793,0.18847865359913604,22200,2.2655793992163438,0.0
74,1.5558569431304932,1.013448326594271,0.8134664271502621,2.3836776551951413,0.3558440269587656,0.0,0.15149483883744838,0.1,0.005174160003662109,0.5962357521057129,0.049087696,1.7399424,0.8412191135220051,0.0,0.013561998029400122,0.0,300,0.21072649955749512,0.49518116477355495,0.5280569724950724,22500,2.522790395795126,0.0
75,1.6921744346618652,1.924602677029525,1.0534952553735082,3.4443881163172683,0.8621886439891548,0.0,0.17212225819428328,0.1,0.003299713134765625,0.06076979637145996,0.049958024,0.8630416,0.9495574698727571,0.0,0.02538104110682253,0.0,300,0.018290281295776367,0.4016146894384023,0.34524176864250594,22800,2.460623995309696,0.0
76,2.5913479328155518,1.1429275906870435,0.7541539488004356,2.4365461949834994,0.6132473296919143,0.0,0.18344304451732038,0.1,0.003086566925048828,0.06275749206542969,0.050754324,0.94781303,0.9688944819541858,0.0,0.015131899976506947,0.0,300,0.01934528350830078,0.4851607336351777,0.45890942848264554,23100,1.8999041000447565,0.0
77,1.4853510856628418,1.0335176999001159,1.0950590384291274,2.9026542258083032,0.2360882356316697,0.0,0.18561336947475504,0.1,0.09299683570861816,0.1463024616241455,0.05025441,0.78340805,0.9753568037487789,0.0,0.013835546729044563,0.0,300,0.019179105758666992,0.7083683363429925,0.616134664850745,23400,1.9306077740105818,0.0
78,2.2406351566314697,0.5225108290638831,0.1333822398234086,0.6558970226069603,0.35127789441606283,0.0,0.16636735666316912,0.1,0.003240823745727539,0.1306147575378418,0.05008029,0.6120897,0.9300722062802893,0.0,0.007028180345743512,0.0,300,0.019284486770629883,2.0293052728984757,0.48024511490789284,23700,2.2904645332666447,0.0
79,1.51898193359375,2.2915051479009234,0.6821190919644692,3.272717591961794,1.6362747556025334,0.0,0.17334182883374372,0.1,0.003228425979614258,0.062253475189208984,0.050098475,0.65437883,1.0662155004423528,0.0,0.030396733849304094,0.0,300,0.0187838077545166,0.5884409621618827,0.4959867497025941,24000,2.0050942416292115,0.0
80,1.5810837745666504,1.3516872312560737,0.6109707402476341,2.214758093233011,0.6524400227496266,0.0,0.17848116381906265,0.1,0.003152608871459961,0.06404447555541992,0.05037385,1.0713025,1.094762673523725,0.0,0.01804114649535514,0.0,300,0.018450260162353516,0.3953970456971323,0.29667305091310703,24300,2.6919991200480893,0.0
81,1.6587412357330322,1.018619409855102,0.40031476369412644,1.4552600861227967,0.37600984323077746,0.0,0.16481217381133906,0.1,0.09327459335327148,0.27268195152282715,0.04961956,0.7007137,1.0871483471568628,0.0,0.013572437034756826,0.0,300,0.2593100070953369,0.28809938413699165,0.3719002246901582,24600,2.331055834674898,0.0
82,1.583465576171875,1.6812256666000744,1.0141957747672738,3.2380086313310277,0.5687966767039819,0.0,0.1694997230697147,0.1,0.10141181945800781,0.26244306564331055,0.049962986,1.3529598,1.1465560791011842,0.0,0.02226635180633711,0.0,300,0.21650242805480957,0.3959838285808911,0.3774739741534219,24900,2.616161675190905,0.0
83,1.585721492767334,1.3433063952473567,0.8143185605799814,2.681596311058652,0.5937219949777855,0.0,0.16030672938758309,0.1,0.0032482147216796875,0.06293654441833496,0.050416455,1.0747476,1.1662311107158014,0.0,0.017928004924960793,0.0,300,0.06511831283569336,0.39270239130847334,0.39018172809331364,25200,1.845326758552283,0.0
84,2.1039459705352783,1.6487301671763828,0.5320186926753506,2.4097264386081085,1.0383102454878663,0.0,0.165317300425798,0.1,0.003802776336669922,0.0628509521484375,0.049982503,1.105016,1.2144810163618596,0.0,0.021892069892289527,0.0,300,0.09340405464172363,0.1802226000374419,0.1774713569495436,25500,2.4695844340204607,0.0
85,1.6826717853546143,0.9565945272163956,0.30509429529146587,1.1861856252972385,0.43592349674990155,0.0,0.15896115788547371,0.1,0.0030493736267089844,0.05970621109008789,0.050906725,0.6055518,1.188692367447313,0.0,0.012795431041748802,0.0,300,0.24524354934692383,0.5056674119356994,0.30259752789275596,25800,2.796784039235613,0.0
86,1.746309518814087,1.503012326085026,0.5235991434808877,2.167157902618268,0.9539432462363046,0.0,0.1759392647243682,0.1,0.0031332969665527344,0.05916953086853027,0.049781613,0.7851562,1.2201243633110845,0.0,0.020020034796437852,0.0,300,0.017855167388916016,0.22384693499129563,0.24704944248777244,26100,3.615810628212431,0.0
87,1.5393803119659424,1.1234297063439995,0.6199683415954982,2.010444137122742,0.4941375354128657,0.0,0.15983208598862494,0.1,0.0031156539916992188,0.05913090705871582,0.0498117,1.0836794,1.210454897614376,0.0,0.014979954070665519,0.0,300,0.017740488052368164,0.2660210603421703,0.2632146945686347,26400,2.9198985270431597,0.0
88,1.7030208110809326,1.8155893854341603,0.9364190999047058,3.282610857063504,0.6906570573673447,0.0,0.16919534241969428,0.1,0.004564046859741211,0.05892801284790039,0.04927374,1.0186142,1.2709683463963546,0.0,0.024019641976860597,0.0,300,0.019562244415283203,0.42812983377863195,0.361819562124891,26700,4.993187758735965,0.0
89,1.7314379215240479,1.3566344062288005,0.6629094891167168,2.4095679417775195,0.6804614217016931,0.0,0.1799926916186812,0.1,0.0031914710998535156,0.05948615074157715,0.049809553,0.76554596,1.2795349523795991,0.0,0.018074232764854873,0.0,300,0.017652273178100586,0.31593483035418896,0.330866390422163,27000,3.2165485953658965,0.0
90,1.7213225364685059,1.3107501742275982,0.6556809685501589,2.106409673759229,0.3161776839979296,0.0,0.15399782148675242,0.1,0.00742793083190918,0.061279296875,0.049963493,0.5857921,1.282656474564399,0.0,0.01733828108043986,0.0,300,0.026433467864990234,0.2758140411529776,0.26504560248952524,27300,2.5041041790348944,0.0
91,1.6040582656860352,0.9159802533363264,0.7617637877537587,2.206702089604911,0.2644566761724239,0.0,0.15020536499378484,0.1,0.0032029151916503906,0.06551146507263184,0.049818378,2.0006735,1.2459888524415916,0.0,0.012208268318159347,0.0,300,0.11049509048461914,0.5992324477918148,0.5073620589641574,27600,1.9297716779844485,0.0
92,1.5793824195861816,1.1622235642259102,0.389054971249614,1.632109335388071,0.5778163300632763,0.0,0.15855488041902085,0.1,0.09295034408569336,0.07393550872802734,0.050318588,0.78035647,1.2376123236200236,0.0,0.015507793875718011,0.0,300,0.024075031280517578,0.1818483619533664,0.19374618250750217,27900,1.794179414799337,0.0
93,1.6078078746795654,1.7020839314394003,1.0906994367600122,3.530001086859901,0.7888737197364597,0.0,0.1783889694262701,0.1,0.003165721893310547,0.060903072357177734,0.04964634,0.8996681,1.2840594844019613,0.0,0.02266941401030355,0.0,300,0.01823878288269043,0.45866841973194833,0.4093457117716901,28200,2.553054486265015,0.0
94,1.8477420806884766,1.49442988375338,0.24603319137895746,1.9092939864771705,1.2713028075713992,0.0,0.16076850455003472,0.1,0.003186941146850586,0.06385278701782227,0.04962509,0.6898067,1.3050965243371033,0.0,0.01982328232034876,0.0,300,0.022329092025756836,0.1010477273337089,0.07171110349438066,28500,2.44181228529562,0.0
95,1.734400749206543,0.6562709788110623,0.21108916664174235,0.9653838253819571,0.4108002925623659,0.0,0.15756337530332734,0.1,0.003192424774169922,0.06104421615600586,0.049496233,0.9425458,1.2402139697844992,0.0,0.00877507981395808,0.0,300,0.03448605537414551,2.976301128611662,1.5081946718216992,28800,2.479033629862478,0.0
96,1.535627841949463,0.8741744767162906,0.20536619810946974,1.1479153849392687,0.5707548956839581,0.0,0.158018943150207,0.1,0.003329038619995117,0.06191515922546387,0.049753997,0.7603853,1.2036100204776785,0.0,0.011692747555643828,0.0,300,0.020854949951171875,0.46424662837936437,0.13378549606209234,29100,2.037796309575277,0.0
97,1.536297082901001,1.1690924190835987,0.3804649880586138,1.81396084731768,0.8796704064450603,0.0,0.16195918572873552,0.1,0.0031037330627441406,0.05997943878173828,0.049643394,1.6078959,1.2001582603382706,0.0,0.015512450876249436,0.0,300,0.018058300018310547,0.17802547958163653,0.23090672216184055,29400,1.9010767962891013,0.0
98,1.562424898147583,1.6178094404810863,0.8737735486731192,2.9607815706587184,0.7381894381572945,0.0,0.15043624101442593,0.1,0.0032231807708740234,0.062071800231933594,0.04915807,1.7424898,1.241923378352552,0.0,0.02159276223943599,0.0,300,0.02206707000732422,0.4668180268766221,0.42465184207406304,29700,2.091942768055631,0.0
99,1.5553147792816162,0.93184413483104,0.09779216103372773,1.040301498046879,0.7750851104063292,0.0,0.16504398933714795,0.1,0.003290414810180664,0.06940317153930664,0.04948568,0.7896728,1.2109154540004008,0.0,0.012337947673257067,0.0,300,0.018768787384033203,0.07256773399262592,0.07591043306207171,30000,1.909640273662915,0.0
100,1.5684101581573486,1.3076253531695166,0.6619238093414959,2.2776117583861684,0.43262622750396706,0.0,0.15666970325582716,0.1,0.06865382194519043,0.05969667434692383,0.04915081,1.0103043,1.2205864439173124,0.0,0.01721206379855787,0.0,300,0.0210573673248291,0.3328626395245269,0.28636907543643414,30300,1.7599143340190413,0.0
101,1.637751579284668,1.4920819491219155,0.5536750407050498,2.0993872877808513,0.697099246005437,0.0,0.16659378380372036,0.1,0.003127574920654297,0.06451201438903809,0.050279975,0.852448,1.2477359944377726,0.0,0.019920283462993696,0.0,300,0.026188135147094727,0.2609226205591019,0.20776375316956733,30600,2.2690188151031525,0.0
102,1.7705390453338623,0.6627276584630528,0.2514131853461787,0.9679832475564435,0.27374940006119397,0.0,0.1619399394263775,0.1,0.0032160282135009766,0.060840606689453125,0.050450344,0.6149309,1.1892351608403007,0.0,0.00886950423411136,0.0,300,0.023464679718017578,1.3952438523720323,1.1444676247464132,30900,2.141935229601239,0.0
103,2.3012614250183105,1.355850309755841,0.5866459661263922,2.057977829516358,0.7650272282900696,0.0,0.15117400061418765,0.1,0.003412961959838867,0.060828208923339844,0.04979402,1.4423059,1.2058966757318548,0.0,0.01807545301919092,0.0,300,0.022724151611328125,0.25900012510608184,0.2675564644920061,31200,1.5070006379030894,0.0
104,1.6146361827850342,0.8407627441195658,0.3664619674821437,1.2982109739008152,0.3300511952656108,0.0,0.16556695578034056,0.1,0.0032434463500976562,0.06539773941040039,0.0504099,1.0323898,1.1693832825706258,0.0,0.011119554171321175,0.0,300,0.020660877227783203,0.5652841554853294,0.4187516504915817,31500,1.7010386737068124,0.0
105,1.6799705028533936,1.3876752073916598,0.5872079115783332,2.015017682671987,0.6445437363126455,0.0,0.16381568893465276,0.1,0.0031452178955078125,0.0596315860748291,0.04986997,0.920574,1.1912124750527293,0.0,0.018514808814082226,0.0,300,0.01832270622253418,0.3005175699220585,0.3130495442189655,31800,1.8811747149435194,0.0
106,1.6271684169769287,2.2677535512277154,1.1828214572392055,3.479752894595238,0.6624079033701685,0.0,0.16345837136141333,0.1,0.0032427310943603516,0.059647321701049805,0.05019739,1.0973938,1.298866582670228,0.0,0.030235560993998788,0.0,300,0.017254114151000977,0.5069990446923424,0.43353432595498587,32100,1.3189253784851953,0.0
107,1.6417384147644043,1.998077785908964,0.8526575378836876,2.976009881486902,0.6297923118753873,0.0,0.15636423574561553,0.1,0.0031316280364990234,0.06258893013000488,0.049434792,0.9034014,1.3687877029941016,0.0,0.026650892730541498,0.0,300,0.13576722145080566,0.3074243062995558,0.20848407985617018,32400,0.9481080870448141,0.0
108,1.6090943813323975,1.6755269670638626,0.90065635443198,3.0103177133921863,0.5992671671342235,0.0,0.16482867222452752,0.1,0.0034990310668945312,0.05905628204345703,0.049919575,1.1087861,1.3994616294010778,0.0,0.022193505624169132,0.0,300,0.06770157814025879,0.28090324873668204,0.30600870992688883,32700,1.0820474315057513,0.0
109,1.7993555068969727,1.884528622394275,1.1752121598142509,3.8107173244614367,0.6233124386731588,0.0,0.17226831189438038,0.1,0.09313082695007324,0.4214966297149658,0.05015056,0.98816365,1.4479683287003975,0.0,0.0250543123182441,0.0,300,0.09567141532897949,0.3827048116518475,0.37898218336473305,33000,0.76427360407795,0.0
110,2.273832321166992,1.7239444237161783,0.6542642228702175,2.6067578529208175,0.8673727245428844,0.0,0.17001749465117258,0.1,0.005565643310546875,0.06442379951477051,0.050156865,0.6629543,1.4755659382019757,0.0,0.02300951959202848,0.0,300,0.0325617790222168,0.2349106549643246,0.19526096397566983,33300,1.01738033348907,0.0
111,1.6985015869140625,2.2775420190335227,1.550911932132606,4.741010917051034,0.6996254757463546,0.0,0.15933285321656507,0.1,0.01786017417907715,0.05919647216796875,0.050124202,0.8077103,1.5557635462851305,0.0,0.02989860028321579,0.0,300,0.01757192611694336,0.38684257584003134,0.36023893076490743,33600,0.9064129572927601,0.0
112,1.712587833404541,1.163399969687971,0.6011556542940282,2.0306488968185348,0.5606062337922181,0.0,0.15129202727294758,0.1,0.0030503273010253906,0.05925321578979492,0.049456395,0.7181313,1.5165271886254146,0.0,0.01552302673572328,0.0,300,0.018324613571166992,0.6712096506243418,0.5244561096157891,33900,0.6182439594925109,0.0
113,1.6192317008972168,0.7182541921356036,0.2839884591290325,1.157050812747215,0.3717125412464834,0.0,0.1674133204034722,0.1,0.08055877685546875,0.11626052856445312,0.049649242,0.6245073,1.4366998889764335,0.0,0.0095919757326364,0.0,300,0.018502473831176758,2.6051684381836298,0.7842953277469425,34200,0.8548106711158378,0.0
114,1.6406786441802979,2.930685705618408,0.4369452360951656,3.327260171544165,2.2363020346944253,0.0,0.16284571611367618,0.1,0.0030879974365234375,0.058876991271972656,0.050232466,0.9327003,1.586098470640631,0.0,0.038773492935433876,0.0,300,0.01825547218322754,0.4428499957382463,0.3982879431447039,34500,1.1973888808184514,0.0
115,2.4362826347351074,2.1510533158118146,0.5346408990689453,3.0036171024212464,1.532930184130176,0.0,0.1619838295933026,0.1,0.0031256675720214844,0.05893874168395996,0.050557476,1.1904082,1.6425939551577493,0.0,0.028400173675082907,0.0,300,0.02998971939086914,0.27085836289834486,0.15178541647310445,34800,1.6401881209344122,0.0
116,1.6617658138275146,2.2825361058936076,1.05639501186396,3.802948155119293,0.9250127887744127,0.0,0.16673695849538128,0.1,0.003032684326171875,0.059272050857543945,0.049922884,0.7977296,1.7065881702313352,0.0,0.030428492144360705,0.0,300,0.0246584415435791,0.28191984617091664,0.2343151141335346,35100,2.0114888997149967,0.0
117,1.6266162395477295,0.9490265106520437,0.30617439640306726,1.1991763671793143,0.4273581250131043,0.0,0.15213123183534757,0.1,0.003331899642944336,0.061783552169799805,0.05008042,0.5558373,1.6308320042734061,0.0,0.012220303523876725,0.0,300,0.04284954071044922,1.9775656448217447,1.3880922846314245,35400,1.8469973137860292,0.0
118,1.580850601196289,1.4591249742877674,0.8142856205133955,2.3765103303450608,0.6163884021068249,0.0,0.17266815949647277,0.1,0.0031774044036865234,0.05992579460144043,0.04971271,0.7219204,1.6136613012748422,0.0,0.019504564336809842,0.0,300,0.0260159969329834,0.4568109671395861,0.3129296778982573,35700,2.375575234351189,0.0
119,1.5835990905761719,2.686660954326699,1.2053376440841546,4.216267177890326,0.8646679506623987,0.0,0.15988530411154794,0.1,0.0033435821533203125,0.06054329872131348,0.049884874,1.0640669,1.7209612665800278,0.0,0.03568023523921944,0.0,300,0.01862645149230957,0.3984551440989712,0.3936641131688427,36000,1.9021047743426258,0.0
120,1.5641562938690186,2.0351580186789686,0.899232917533405,3.09213489247211,0.6259018616579765,0.0,0.17016501164742295,0.1,0.0030748844146728516,0.06180286407470703,0.04997842,0.6651644,1.7523809417899219,0.0,0.027080479476777913,0.0,300,0.01865839958190918,0.2675706900431389,0.2163532336979516,36300,2.223961764772618,0.0
121,1.582519769668579,1.4486575370992378,0.4934761681103442,2.2287890828816166,0.9454646184585297,0.0,0.15950961721960474,0.1,0.0032999515533447266,0.061983346939086914,0.05005375,0.994339,1.7220086013208535,0.0,0.019192127434314647,0.0,300,0.01854085922241211,0.1888509282427874,0.22928814605434533,36600,2.1098392798894894,0.0
122,1.5911545753479004,1.8296972409482892,0.8818834203359309,3.3421037693783617,1.1519300115119582,0.0,0.1666886496760423,0.1,0.0033648014068603516,0.06467318534851074,0.050146695,1.082297,1.7327774652835972,0.0,0.024209732445877624,0.0,300,0.018591642379760742,0.22291186262684679,0.2170396208486405,36900,3.7954212785659913,0.0
123,1.6047253608703613,1.8783342470257731,0.9988425490151744,3.2544883855184796,0.60230910784587,0.0,0.15815206062256823,0.1,0.0032532215118408203,0.05957794189453125,0.04983112,0.9065157,1.7473331434578148,0.0,0.02480483781539987,0.0,300,0.08636045455932617,0.30084716553099233,0.2966146375253516,37200,2.3537982762953864,0.0
124,1.6837701797485352,1.8881720490060518,0.8509293629325949,3.220771414392793,1.0318296251527894,0.0,0.15810846430193498,0.1,0.003247976303100586,0.06020164489746094,0.04956788,0.9208314,1.7614170340126385,0.0,0.025075669971393648,0.0,300,0.017734050750732422,0.2404441606454265,0.23953312709874694,37500,3.2441591716895046,0.0
125,1.7104156017303467,1.8038982283421654,1.3102056958462143,3.8784468241763705,0.33377252706475646,0.0,0.16039472741048133,0.1,0.003041982650756836,0.05924510955810547,0.05003774,0.86710835,1.7656651534455912,0.0,0.024107014866085925,0.0,300,0.0185849666595459,0.4266793780395482,0.42128610802798444,37800,2.5343690619494015,0.0
126,1.7088687419891357,1.9276800458490215,0.9292356173475541,3.458933375763424,1.0673182289687178,0.0,0.15926786367432522,0.1,0.0030412673950195312,0.06080174446105957,0.04913695,2.704238,1.7818666426859342,0.0,0.025660280553146307,0.0,300,0.01787114143371582,0.2418739899224007,0.2387029565264289,38100,2.4319913725459883,0.0
127,1.6761400699615479,2.615796461743991,1.3451262912624031,4.3298074909787765,0.5819683584481428,0.0,0.16655882851074422,0.1,0.003142118453979492,0.0625462532043457,0.04948114,0.74977624,1.8652596245917399,0.0,0.034891543332526684,0.0,300,0.017785072326660156,0.3250636107783419,0.29278060333321804,38400,2.392249018322211,0.0
128,1.721130609512329,2.157640863580009,0.6116723362167127,3.0234985749821224,1.5335415955662057,0.0,0.18685943161951304,0.1,0.08779001235961914,0.5517358779907227,0.049771234,0.69122785,1.8944977484905667,0.0,0.02877396358565848,0.0,300,0.018909692764282227,0.12971144783873692,0.12165138059274175,38700,3.114644074602136,0.0
129,1.754345417022705,2.9064706960140683,1.5569857967308198,4.736139148157129,1.0498687551032433,0.0,0.1606127896346577,0.1,0.003280162811279297,0.06223416328430176,0.050389696,0.8570467,1.9956950432429168,0.0,0.038209773204500544,0.0,300,0.01804947853088379,0.3132843040947042,0.2944840233821878,39000,2.472476050170591,0.0
130,1.6891276836395264,1.376749435040666,0.6037372357854153,2.081145684068742,0.7764899203102062,0.0,0.1568861869389017,0.1,0.003138303756713867,0.6357989311218262,0.050284788,0.81142795,1.9338004824226918,0.0,0.01842698959978299,0.0,300,0.017127275466918945,1.201299160332658,0.6323272816767072,39300,3.948928357574261,0.0
131,1.6471750736236572,2.019766138199069,0.4555953331456416,2.620061582428019,1.4119928492146134,0.0,0.17044826587106282,0.1,0.0063321590423583984,0.060598134994506836,0.049678005,0.76746327,1.9423970480003294,0.0,0.02698646914226066,0.0,300,0.02257227897644043,0.1375889319500765,0.08328819331039962,39600,3.0297172307716767,0.0
132,1.6908352375030518,2.019576851573133,0.6387969024708048,2.7806931765462855,1.0101560827227596,0.0,0.1605682127927984,0.1,0.0031423568725585938,0.06617546081542969,0.049958207,0.7740471,1.9501150283576099,0.0,0.02695395880998486,0.0,300,0.02071094512939453,0.15123049807175779,0.17876427891611535,39900,2.7741765299610144,0.0
133,1.6883940696716309,1.987791899901048,0.9788366303021799,2.947723262404904,0.37603475664854596,0.0,0.1655686763211586,0.1,0.0032472610473632812,0.06349420547485352,0.04927985,0.7301492,1.9538827155119538,0.0,0.026534151305106772,0.0,300,0.06341004371643066,0.292395319321205,0.2764813081248012,40200,3.609557323063805,0.0
134,1.711920976638794,1.199575752822849,0.7682747463363592,2.527008537206096,0.6702471528289597,0.0,0.15144608637097384,0.1,0.004498004913330078,0.06516504287719727,0.049850497,0.9751131,1.8784520192430434,0.0,0.0160287287606082,0.0,300,0.02664494514465332,0.4984731761297839,0.47496222459569865,40500,4.033961322399199,0.0
135,1.739415168762207,1.609615756844169,0.6429467906552228,2.201129289590993,0.5300775214698014,0.0,0.1578927349149299,0.1,0.0031850337982177734,0.06177711486816406,0.04978584,0.5742794,1.8515683930031561,0.0,0.02146291512002245,0.0,300,0.13235259056091309,0.14478660782121117,0.14272978529906424,40800,2.749232898559257,0.0
136,1.6636836528778076,2.610900673805951,1.0724814589375726,3.4467221528879994,0.7786998398934925,0.0,0.15725898429741655,0.1,0.09349656105041504,0.31186389923095703,0.04956392,0.8010613,1.9275016210834357,0.0,0.034764574371217966,0.0,300,0.11395716667175293,0.3377188152774074,0.2747761243307659,41100,2.7168526738474763,0.0
137,1.6395208835601807,2.0524520633689085,0.44124702260044424,2.5447565619676147,1.5914298593842566,0.0,0.1631059525801647,0.1,0.09110879898071289,0.07232666015625,0.05039019,0.90904564,1.939996665311983,0.0,0.02734193274921411,0.0,300,0.01860976219177246,0.0994857368172444,0.08437064952382695,41400,3.37116072543928,0.0
138,1.68074369430542,1.823041082569225,1.3510527746911234,4.1355335622355405,0.7291100675492168,0.0,0.15691210042862208,0.1,0.09240889549255371,0.25406408309936523,0.049646463,1.0802456,1.9283011070377072,0.0,0.02432254710807163,0.0,300,0.018737316131591797,0.35940137361277663,0.37205861732242573,41700,2.5562671893076474,0.0
139,1.6824102401733398,1.6410022088832807,0.8672180204892843,2.5705303762613614,0.7430901600859134,0.0,0.16163261161866557,0.1,0.003294229507446289,0.06183171272277832,0.050036643,0.92934155,1.8995712172222645,0.0,0.021584822586574914,0.0,300,0.024481534957885742,0.36297787260073905,0.3092629631023923,42000,2.538158464055624,0.0
140,1.750364065170288,1.9560156794377244,0.8505651546075503,2.8155186894810997,0.6067885809671458,0.0,0.1577390109082367,0.1,0.0034437179565429688,0.06135129928588867,0.050272584,0.8224484,1.9052156634438104,0.0,0.02611793743028692,0.0,300,0.07499456405639648,0.2631197063172132,0.2261208943654962,42300,3.022404403445082,0.0
141,2.1884143352508545,2.8604023325236487,1.4102669050377328,4.123665222571157,0.5751843970054974,0.0,0.16535771011324282,0.1,0.0031266212463378906,0.06035184860229492,0.049364924,0.73685855,2.0007343303517944,0.0,0.0378438257882875,0.0,300,0.019576072692871094,0.37048621220494754,0.32651776010082856,42600,1.5725682599600084,0.0
142,1.6672279834747314,2.551517891390523,1.5915323102175372,5.026189967845598,0.6942325208341525,0.0,0.15176769696009204,0.1,0.003075838088989258,0.059043169021606445,0.0494757,0.8993632,2.0558126864556674,0.0,0.0339819424245976,0.0,300,0.021134138107299805,0.3355004956834288,0.2965114321134045,42900,1.603446835756163,0.0
143,1.8462803363800049,1.5934535307480417,0.7327922936661191,2.553792730793554,0.8478371272751766,0.0,0.1610753740860174,0.1,0.003253459930419922,0.06136059761047363,0.04997064,1.1805342,2.009576770884905,0.0,0.021270755525978798,0.0,300,0.025511503219604492,0.5332026764664785,0.5104824536077729,43200,1.7056666740326338,0.0
144,1.7544891834259033,1.9103853016940373,0.929973216341856,2.6580697594284755,0.3395756328567886,0.0,0.17025099318954548,0.1,0.0031151771545410156,0.05976557731628418,0.050281167,0.5493006,1.9996576239658181,0.0,0.025498647831839326,0.0,300,0.01748347282409668,0.3267150390649566,0.26869981231702905,43500,3.4930871969773385,0.0
145,1.7335741519927979,1.8740599740749102,0.7965796078355442,2.935349436831787,0.8398585320438297,0.0,0.15553252952602117,0.1,0.003487825393676758,0.05977678298950195,0.049337935,0.7466973,1.9870978589767274,0.0,0.024836329513471044,0.0,300,0.019576072692871094,0.2455175831814073,0.20626319613019037,43800,1.9158623212723205,0.0
146,1.732945203781128,1.4898149625812802,0.20594466873459077,1.7201063456406347,1.1976424982246971,0.0,0.1598667681604838,0.1,0.0030755996704101562,0.05943131446838379,0.049717724,0.99039847,1.9373695693371826,0.0,0.019875380998834583,0.0,300,0.017665863037109375,0.2526315405889329,0.1104867695029918,44100,2.3073869566180183,0.0
147,1.8170738220214844,1.5301548019358573,0.5954147231179155,2.48852076250376,0.8518970625120164,0.0,0.1582469762151504,0.1,0.003146648406982422,0.062308549880981445,0.050005775,0.86093616,1.8966480925970501,0.0,0.020400684212197106,0.0,300,0.12173080444335938,0.14911723099421006,0.15273516919177293,44400,2.1754767693683954,0.0
148,1.5925908088684082,2.0048738556506813,1.3900484010411056,3.6583033004462373,0.19128711480816193,0.0,0.1654012294449515,0.1,0.0031986236572265625,0.059912919998168945,0.050042026,0.6935254,1.9074706689024132,0.0,0.02670543904125031,0.0,300,0.214552640914917,0.4629685552444006,0.4538455932756885,44700,1.97236941864864,0.0
149,1.6323919296264648,2.214585678184853,0.5762418596996312,2.702549123387995,1.2837905389660216,0.0,0.166928208075284,0.1,0.003332853317260742,0.06103229522705078,0.05041268,0.8407006,1.9381821698306572,0.0,0.029376120913410544,0.0,300,0.024262666702270508,0.30590294590331996,0.2252212533943626,45000,2.370687565118428,0.0
150,1.642322301864624,1.2502909933862814,0.7690303201693913,2.4010561954272154,0.44836388901325075,0.0,0.14549493810733605,0.1,0.003311634063720703,0.06225919723510742,0.05003948,1.4310586,1.8693930521862194,0.0,0.016715712224594777,0.0,300,0.018468618392944336,0.34808888084586387,0.4151448109048223,45300,2.8583320576350775,0.0
151,1.8099901676177979,1.2544275233259243,0.20995969494350425,1.6155904570774382,1.0986189774688284,0.0,0.15672824900143645,0.1,0.0034189224243164062,0.062227487564086914,0.05009494,0.8857774,1.80789649930019,0.0,0.01664498080968475,0.0,300,0.01869964599609375,0.43610176959385183,0.31219198643750395,45600,1.8605363234752987,0.0
152,1.7702059745788574,2.3345854863230007,1.1722756507238077,4.2702725307354354,1.2164512609512257,0.0,0.1575110066870871,0.1,0.003237485885620117,0.06142568588256836,0.04968192,1.1448497,1.8605653980024712,0.0,0.031117588073147524,0.0,300,0.05588078498840332,0.3020346589740507,0.3038692343875002,45900,1.957807980530949,0.0
153,2.3741073608398438,2.3057315773427964,1.0329039224707532,3.7004622777957694,1.1767487486472608,0.0,0.1681899107491013,0.1,0.0032558441162109375,0.06029820442199707,0.04969044,0.8288094,1.9050820159365038,0.0,0.030565056536299526,0.0,300,0.04926943778991699,0.32334771547838204,0.2889322455873775,46200,1.961184202924095,0.0
154,1.8161685466766357,1.6649468780563847,0.7986572914091741,3.0046701756431555,0.981910957886482,0.0,0.15429095188396366,0.1,0.0031740665435791016,0.06447911262512207,0.04966599,2.2179825,1.881068502148492,0.0,0.022224662723678554,0.0,300,0.05212116241455078,0.3899337127537068,0.4001586738668982,46500,2.2940637496828313,0.0
155,1.7885477542877197,1.715483735898788,1.085348622861414,3.5510005974013064,0.7769938319978981,0.0,0.172869493560266,0.1,0.0032625198364257812,0.07913899421691895,0.05006758,0.8565849,1.8645100255235219,0.0,0.02272797281365038,0.0,300,0.0299375057220459,0.37699622137632166,0.3755616479447974,46800,2.534866001274655,0.0
156,1.950455904006958,1.382350272706393,0.5096486967102378,2.2507384358834575,1.0068486694940961,0.0,0.15281846852486164,0.1,0.09343385696411133,0.1497328281402588,0.05049121,1.5007976,1.816294050241809,0.0,0.01842673619393825,0.0,300,0.07610392570495605,0.5763936532687823,0.42178773124347274,47100,2.1397138686155794,0.0
157,1.7803459167480469,1.4200770288916014,0.9722563302666317,2.9127514571352244,0.19660800794468195,0.0,0.17288622209801482,0.1,0.0030906200408935547,0.05967402458190918,0.04969355,0.7158936,1.7766723481067883,0.0,0.01887372112651896,0.0,300,0.0214083194732666,0.42442135729348995,0.40119071926468103,47400,3.021809812130121,0.0
158,1.8481061458587646,1.399011553017979,0.8029257210193195,2.4184136620724908,0.5602517748278556,0.0,0.15817211034431142,0.1,0.0031130313873291016,0.059766530990600586,0.049523227,0.97612536,1.7389062685979075,0.0,0.01853463477955121,0.0,300,0.017887592315673828,0.34898979119398865,0.3169860653010902,47700,4.009390800787629,0.0
159,1.7960500717163086,1.497362523018239,1.2819056630328336,3.624310124520788,0.42680171834282254,0.0,0.15624989624494778,0.1,0.007056474685668945,0.059036970138549805,0.049666602,1.3336469,1.7147518940399409,0.0,0.020000011352942198,0.0,300,0.018264293670654297,0.43727465767888013,0.43654139203282855,48000,2.5374054597099387,0.0
160,1.8676376342773438,1.819234608776698,0.7336058705988971,2.7404986329747127,0.6883667741104339,0.0,0.15349776903286094,0.1,0.0031135082244873047,0.06503438949584961,0.049874984,1.17267,1.7252001655136167,0.0,0.023825320682093667,0.0,300,0.01796579360961914,0.28801341039902706,0.28382500470934646,48300,4.612966839506355,0.0
161,1.8243842124938965,2.91462619949795,1.0981332522028553,4.810286052873228,2.1361867259304943,0.0,0.1607807609344054,0.1,0.0031278133392333984,0.06000041961669922,0.04928374,1.1140071,1.84414276891205,0.0,0.038358947357501394,0.0,300,0.018227577209472656,0.4275062058281413,0.3416735089144476,48600,3.4449065541211046,0.0
162,1.7748615741729736,3.3349754749073073,1.316150484449918,5.46480590269236,1.860443672409594,0.0,0.15328433607638042,0.1,0.003193378448486328,0.06472587585449219,0.05019523,1.2474941,1.9932260395115757,0.0,0.04421333422423737,0.0,300,0.018667936325073242,0.38498195818381786,0.2552999677631347,48900,4.219535374245994,0.0
163,1.9874422550201416,1.187769863209271,0.1156600879675659,1.3867222076948464,1.1103561028652953,0.0,0.15598691785275592,0.1,0.0033597946166992188,0.06126141548156738,0.049834404,0.81792146,1.9126804218813453,0.0,0.01570483239156896,0.0,300,0.02154231071472168,1.5553972155633349,1.8903701084645748,49200,4.971990332275103,0.0
164,2.08137845993042,2.7651379337239343,1.5136159720837759,4.3526576865280475,0.3194198481718817,0.0,0.1545958744817982,0.1,0.0033864974975585938,0.06314444541931152,0.049770135,1.130671,1.9979261730656042,0.0,0.03690621049115605,0.0,300,0.028893232345581055,0.32663825669025265,0.3247292940054183,49500,3.760279793340244,0.0
165,2.4102115631103516,2.13314676151877,0.6923831133955772,3.077742501664745,1.1310106116821435,0.0,0.15752956929185666,0.1,0.003268718719482422,0.061995506286621094,0.050027296,0.85677814,2.011448231910921,0.0,0.02845688630571383,0.0,300,0.021811246871948242,0.21689502452903872,0.18645852013329814,49800,4.761497050742414,0.0
166,1.7252159118652344,2.792402200231124,1.6182006765594013,5.1547460424975196,0.8621935448171159,0.0,0.16448694536149058,0.1,0.006350517272949219,0.06215095520019531,0.050343696,0.8405872,2.089543628742941,0.0,0.03647850934631845,0.0,300,0.028560161590576172,0.30601330051901454,0.30107921803512594,50100,2.6447393343078285,0.0
167,1.7463035583496094,1.7601459649022442,0.7156561769570716,2.583318800954371,0.7115408431473024,0.0,0.16713892715861614,0.1,0.0032777786254882812,0.06283283233642578,0.050006974,0.6956439,2.0566038623588714,0.0,0.023411586522367415,0.0,300,0.018737316131591797,0.23257934416628426,0.21803526628274128,50400,5.016007638511355,0.0
168,1.758857011795044,2.5266201292259756,0.6949367994123462,3.2624642923170537,1.4086515778554065,0.0,0.16009615594746568,0.1,0.017914772033691406,0.061473846435546875,0.05029718,0.96801627,2.1036054890455818,0.0,0.033670765810895224,0.0,300,0.020850658416748047,0.1352600736798858,0.1340679998524427,50700,1.7127723853982486,0.0
169,1.6965177059173584,2.5631028193555143,0.7186594158428538,3.4225055111417495,1.472229136153283,0.0,0.15532803543862625,0.1,0.0032341480255126953,0.06167960166931152,0.049653903,0.66830325,2.1495552220765752,0.0,0.034024901504931954,0.0,300,0.018187522888183594,0.1347467788718311,0.10929275525478346,51000,4.273438809036599,0.0
170,1.7674062252044678,1.3572835164568022,0.6301212383733499,2.4355643280330153,0.8552742197282949,0.0,0.15491313198681372,0.1,0.0030426979064941406,0.06303000450134277,0.04979145,0.93862444,2.070328051514598,0.0,0.01803632448002394,0.0,300,0.02139735221862793,0.8740098981879013,0.7259589603725556,51300,2.2770885600452924,0.0
171,1.8202223777770996,3.5931134681618087,0.8750178545425782,4.991146387442991,2.8297905177458995,0.0,0.16295690843800203,0.1,0.003335714340209961,0.06341195106506348,0.04953255,1.2101487,2.222606593179319,0.0,0.04782897278683083,0.0,300,0.019720077514648438,0.2107743146530914,0.19723884830490512,51600,3.062079068210981,0.0
172,1.8161888122558594,1.5621336224345819,0.8520760734850161,2.9175288321064765,0.577073800586946,0.0,0.15323843427666353,0.1,0.0033102035522460938,0.061969757080078125,0.0499981,0.8541457,2.156559296104845,0.0,0.020732099976552117,0.0,300,0.01997232437133789,0.4199739930613491,0.42896334757822635,51900,4.546161478494939,0.0
173,1.9389393329620361,2.40368338936821,0.9533536181508894,3.303449407055919,0.8029195803227757,0.0,0.15842319924586787,0.1,0.003158092498779297,0.07150053977966309,0.049816065,0.69685894,2.1812717054311817,0.0,0.03182779003912083,0.0,300,0.018867969512939453,0.1917894591175858,0.19147176132616864,52200,2.1431978880391322,0.0
174,1.7736141681671143,3.478444869347931,1.300836018481818,5.37221864720657,1.9194377934319438,0.0,0.15994635999409598,0.1,0.0032105445861816406,0.06351590156555176,0.05053324,0.8733184,2.3109890218228566,0.0,0.04542301202403247,0.0,300,0.02100849151611328,0.2803335856620002,0.23630975644102847,52500,3.2186473382373193,0.0
175,1.7356181144714355,1.926934082294952,0.9273272261749929,3.335080145481272,1.0189676849748752,0.0,0.14733312722474293,0.1,0.003335237503051758,0.07756400108337402,0.04945153,1.2527064,2.2725835278700663,0.0,0.025720596081171707,0.0,300,0.022769451141357422,0.2718399568519222,0.29951881184326284,52800,4.181479967377583,0.0
176,1.8296310901641846,2.807775435478729,0.7477588614446736,3.7784214256005044,1.7717835118505074,0.0,0.1580583653097015,0.1,0.0032465457916259766,0.06161236763000488,0.050157186,0.7893944,2.3261027186309327,0.0,0.03743946934243838,0.0,300,0.019012451171875,0.0865485478770043,0.08357670595905141,53100,2.146071203637443,0.0
177,1.8020362854003906,1.9427088975336635,0.48852400904849386,2.565973322416919,1.1998732907014262,0.0,0.15427630330287853,0.1,0.00318145751953125,0.06333518028259277,0.04998265,0.7197967,2.287763336521206,0.0,0.025932649576710712,0.0,300,0.020277738571166992,0.23011030041872813,0.15740981560127504,53400,1.666966303781707,0.0
178,1.805769681930542,2.328228420900379,1.067806127461619,3.707533882870716,1.1685291302582508,0.0,0.15331146051861852,0.1,0.004297494888305664,0.06471776962280273,0.05044429,1.02864,2.2918098449591233,0.0,0.031102116399557324,0.0,300,0.0183258056640625,0.19829593107393179,0.1988420273647094,53700,1.7388337228323902,0.0
179,1.8041069507598877,2.5916729102735974,1.543887398077192,4.8972368739240455,0.616495417325074,0.0,0.1543459672731189,0.1,0.10066604614257812,0.10833525657653809,0.04994166,1.2703369,2.3217961514905707,0.0,0.034514326157192424,0.0,300,0.01779484748840332,0.29161321847118993,0.28418828351217507,54000,3.555455851996052,0.0
180,1.8297877311706543,2.5338185988767106,1.135924475717603,4.2044297200272265,1.082523675247567,0.0,0.1574430092068569,0.1,0.00327301025390625,0.06170177459716797,0.050287697,0.86919504,2.3429983962291847,0.0,0.0337953731763501,0.0,300,0.1302342414855957,0.19334197894150829,0.1879875659108616,54300,2.322748457878475,0.0
181,1.8558452129364014,2.3279979434134592,0.46581705596676365,3.0033314466555074,1.7092102963287037,0.0,0.15781208718467588,0.1,0.0032033920288085938,0.0635828971862793,0.04983624,0.8035108,2.3414983509476124,0.0,0.031046688158579156,0.0,300,0.017827987670898438,0.08028645883998695,0.07219554170874132,54600,2.830142327319382,0.0
182,1.7347452640533447,2.356206455583106,1.0611745893138773,3.2341413684475118,0.5668273265433112,0.0,0.15379764835943474,0.1,0.003922462463378906,0.06816887855529785,0.05012999,0.7314981,2.342969161411162,0.0,0.03133540882699489,0.0,300,0.023536205291748047,0.21863417119936687,0.21595677837965002,54900,3.581404848141355,0.0
183,1.8692679405212402,2.3619278787956026,1.0704309871926303,3.5245547569918743,0.6138374213325077,0.0,0.1517762571877129,0.1,0.0035409927368164062,0.06054043769836426,0.04995488,0.8954534,2.344865033149606,0.0,0.031542455289409334,0.0,300,0.021974563598632812,0.2096435815867245,0.1947352626426325,55200,3.7906776156715547,0.0
184,1.725754737854004,3.8159829372296556,0.7810172538587564,4.626177456658811,2.9608676999558385,0.0,0.16512105663172727,0.1,0.003125429153442383,0.06205296516418457,0.050230313,0.9485658,2.4919768235576116,0.0,0.05092748326242651,0.0,300,0.020252227783203125,0.2248806314822949,0.15363877648636126,55500,1.404992492236748,0.0
185,1.8590848445892334,2.124657241319685,1.4431743438037663,4.245378456691188,0.17085448815679463,0.0,0.1482285021646797,0.1,0.003313302993774414,0.06053733825683594,0.049710874,0.89882326,2.4552448653338192,0.0,0.02826940641955838,0.0,300,0.05603671073913574,0.42241850632225,0.4480737938554607,55800,4.038375400184976,0.0
186,2.020594835281372,2.92484915648512,1.6589291845278793,4.668286059006619,0.48346965928200364,0.0,0.15282715673671052,0.1,0.005666494369506836,0.06395077705383301,0.04975046,0.7959008,2.5022052944489497,0.0,0.03899410314104349,0.0,300,0.026563405990600586,0.30863803981164983,0.2893789120373188,56100,5.827674331736998,0.0
187,1.7936797142028809,2.9729157385959097,1.2153188633714922,4.635995855766086,1.206198775380356,0.0,0.16185140678133916,0.1,0.003098011016845703,0.059665679931640625,0.050070476,0.6775806,2.549276338863646,0.0,0.03957282091755251,0.0,300,0.036513328552246094,0.22530188753388639,0.22905665559226393,56400,2.8568530299454165,0.0
188,1.7579543590545654,2.314015274170149,0.9458821260677517,3.6873431624082644,1.1058558772583336,0.0,0.16988812725373673,0.1,0.0031120777130126953,0.06290483474731445,0.050005484,0.76614475,2.525750232394296,0.0,0.030566645913619045,0.0,300,0.028192996978759766,0.25737176034399,0.24641031587920284,56700,2.848168248330316,0.0
189,1.7561514377593994,2.6079740227173187,0.7689532770887676,3.2348257881622553,1.3165686295826526,0.0,0.15593681008121368,0.1,0.0032143592834472656,0.06338667869567871,0.050128043,0.5360167,2.5339726114265986,0.0,0.03452058980753221,0.0,300,0.018416881561279297,0.1088616834375834,0.10536039857217251,57000,2.2985982027701195,0.0
190,1.7742252349853516,2.6527906811269606,0.4972429215997787,3.3795869454223975,2.13942114776535,0.0,0.1551113270816714,0.1,0.0032711029052734375,0.06340336799621582,0.0501977,0.85373384,2.545854418396635,0.0,0.035386236322294075,0.0,300,0.018528223037719727,0.05574919998508705,0.05428925162028447,57300,2.2790847383223496,0.0
191,1.8011343479156494,1.9475047412138726,0.5309517636363624,2.5144302137399435,1.1637563116961043,0.0,0.15319861690390232,0.1,0.003248453140258789,0.0629115104675293,0.049081877,0.85057074,2.486019450678359,0.0,0.025976543914466316,0.0,300,0.03846287727355957,0.37637598383056137,0.25490958814776,57600,1.820836805088774,0.0
192,1.7834110260009766,2.336976416333305,1.888967833215322,5.151443551456399,0.25045617981983687,0.0,0.14889062957404448,0.1,0.0033783912658691406,0.06113409996032715,0.04993669,1.2514797,2.4711151472438537,0.0,0.031149772506100164,0.0,300,0.01838827133178711,0.4038366017655007,0.3949353061351423,57900,4.969929873813995,0.0
193,1.8608980178833008,2.448594489780405,0.9894191866755562,4.02364413148717,1.4922027934168773,0.0,0.16643750444823066,0.1,0.003195047378540039,0.061783790588378906,0.049919754,0.7765254,2.468863081497509,0.0,0.032425759220206796,0.0,300,0.01820683479309082,0.21658883489111563,0.21248303109044975,58200,2.9305535070979096,0.0
194,1.8697082996368408,1.413805970913339,1.048248166271171,3.157182850039946,0.48887812247325174,0.0,0.1479979271266794,0.1,0.0030701160430908203,0.060288190841674805,0.050416213,0.67721933,2.363357370439092,0.0,0.01885700165669211,0.0,300,0.01867198944091797,0.502262699578651,0.4810150857629722,58500,5.015481213099273,0.0
195,1.8275837898254395,2.0540938118071024,1.2531397091251042,4.06358061218475,0.6487328679536742,0.0,0.14846691468422665,0.1,0.0032644271850585938,0.06425356864929199,0.049863786,0.9898993,2.332431014575893,0.0,0.02729689641180706,0.0,300,0.019277572631835938,0.33399107664289424,0.3321870602963676,58800,4.143691564366313,0.0
196,1.7889857292175293,1.8779961374464822,1.0122659176221749,3.284251868269863,0.6240264197644694,0.0,0.15957789695104552,0.1,0.003361225128173828,0.06313729286193848,0.049696013,0.76915663,2.286987526862952,0.0,0.02491791673783947,0.0,300,0.03747868537902832,0.29299256418682085,0.2891697049842487,59100,3.2600655744797913,0.0
197,2.438295841217041,1.379817314483806,0.3311480332111499,1.7317711437366505,0.8541767222527558,0.0,0.14893398534699318,0.1,0.0050084590911865234,0.06483769416809082,0.05007491,0.68537384,2.196270505625037,0.0,0.01846528090199531,0.0,300,0.03823256492614746,0.2311316581993407,0.15103619958711684,59400,2.1250491882322287,0.0
198,1.7633421421051025,2.3397848340720007,0.43653098523205447,2.9997687716416044,1.919879259490972,0.0,0.16139709691926268,0.1,0.0031380653381347656,0.06028604507446289,0.049543403,0.9461657,2.2106219384697336,0.0,0.031231216006603592,0.0,300,0.01840353012084961,0.11685115513204969,0.12041418760658175,59700,1.8264905914687224,0.0
199,1.7687997817993164,1.5913284063766089,0.5210794604466706,2.478706098244503,1.1422579980414094,0.0,0.15885160435404688,0.1,0.004747867584228516,0.05996513366699219,0.05042633,0.83883727,2.1486925852604215,0.0,0.021278621365024012,0.0,300,0.22742700576782227,0.18231720756451755,0.1776205467724485,60000,3.8092797342857163,0.0
200,2.555356740951538,2.7129001604976586,1.3604115158823202,4.321008268547045,0.5571080017701336,0.0,0.15299731334875336,0.1,0.003523588180541992,0.06063723564147949,0.050341528,0.69595104,2.2051133427841454,0.0,0.035824914260470596,0.0,300,0.018285274505615234,0.35245125228173213,0.31596832891727,60300,3.4296173201290627,0.0
201,1.7957258224487305,3.1124032681653473,0.948927263390836,3.8878305379211815,1.5152830488492983,0.0,0.1568049475459536,0.1,0.09707260131835938,0.22060465812683105,0.05024536,0.82180834,2.295842335322266,0.0,0.04148825739748229,0.0,300,0.22089695930480957,0.2427024908308885,0.17073834030371715,60600,5.275140684866896,0.0
202,1.7506234645843506,2.904119919021597,1.0910487036932826,3.717984444507198,1.0315508898880767,0.0,0.14904842566734286,0.1,0.003299236297607422,0.06065511703491211,0.049820866,1.0291959,2.356670093692199,0.0,0.03877899426814966,0.0,300,0.14708256721496582,0.202251642704263,0.18053034254516326,60900,3.106757003192532,0.0
203,1.7648074626922607,2.6493025874851908,0.5909069942045304,3.308926152182688,1.8589245310604523,0.0,0.15192293935337994,0.1,0.003294706344604492,0.08878111839294434,0.050259687,1.0387475,2.3859333430714984,0.0,0.03539628040950244,0.0,300,0.0204770565032959,0.0774702797580066,0.08602235114140229,61200,3.2517405049863726,0.0
204,1.7938640117645264,3.398038214525196,1.248454345053112,5.404331677729066,1.988116722160998,0.0,0.16047880576057091,0.1,0.0031595230102539062,0.06347775459289551,0.0503394,0.8645579,2.4871438302168682,0.0,0.04481109556351535,0.0,300,0.0169522762298584,0.16364685982978286,0.15149802331882817,61500,3.0317946220955405,0.0
205,1.8778588771820068,2.2472027949007987,0.47214676163802205,2.896882869405064,1.6019114013122602,0.0,0.14554825680707553,0.1,0.0031425952911376953,0.06188154220581055,0.049896095,1.5232661,2.4631497266852613,0.0,0.030032230547882538,0.0,300,0.02183079719543457,0.26700172431064295,0.18331728634362715,61800,3.1925864646390028,0.0
206,1.79465651512146,0.78728733024081,0.23977552132455865,0.9977310424211567,0.3796393312705872,0.0,0.15522153386011484,0.1,0.0030243396759033203,0.060427188873291016,0.04937374,0.53805614,2.295563487040816,0.0,0.010493569821689343,0.0,300,0.018258094787597656,12.223312828129345,4.871833793083535,62100,2.5790349165871826,0.0
207,1.8192737102508545,1.8501723361369575,0.706293403263168,2.956230930820595,0.9942075971881967,0.0,0.150285903757098,0.1,0.003293275833129883,0.06087660789489746,0.05005836,0.9286374,2.25102437195043,0.0,0.02472468855833813,0.0,300,0.018221616744995117,0.15372927389353871,0.17500224140902274,62400,2.853794779576798,0.0
208,1.8749184608459473,2.0285129804410142,0.7251013906314234,2.724982620207794,0.9835598709990664,0.0,0.1470552435598663,0.1,0.0034630298614501953,0.06311249732971191,0.050060116,0.8477606,2.2287732327994885,0.0,0.027101891426870882,0.0,300,0.03015923500061035,0.24338536787258733,0.26389516809649616,62700,3.680017023774879,0.0
209,1.8542842864990234,1.7433432110412168,1.4326113587165183,4.171280311174209,0.5318018508649022,0.0,0.14379964667112993,0.1,0.0033614635467529297,0.062172651290893555,0.049819876,2.8551784,2.1802302306236614,0.0,0.0232586675939789,0.0,300,0.018752336502075195,0.5676405568329352,0.5384591664936629,63000,2.793758081093013,0.0
210,1.8378229141235352,2.1376354642833886,0.8354008629476716,3.350809273969563,1.3025535339752008,0.0,0.14833275473875804,0.1,0.003316640853881836,0.07385039329528809,0.050369706,1.110014,2.1759707539896342,0.0,0.028574783367603794,0.0,300,0.0325007438659668,0.2440419662906857,0.2087859266781508,63300,2.6717898383002203,0.0
211,1.8011627197265625,2.170797843831796,0.8261159881907653,3.3029811359727232,1.2647891208915123,0.0,0.1524502669369063,0.1,0.0035636425018310547,0.062073707580566406,0.049530372,2.1065066,2.1754534629738504,0.0,0.029005351295758715,0.0,300,0.2095174789428711,0.23887748970611972,0.21847181923779396,63600,3.536255356652966,0.0
212,1.771045446395874,2.3593354957223767,0.6946500768417039,2.9823203125604003,1.225666516668499,0.0,0.16632870373292533,0.1,0.003236532211303711,0.06199169158935547,0.05051169,0.7238128,2.1938416662487032,0.0,0.031520062922337236,0.0,300,0.020244121551513672,0.19141933449867798,0.16014353895897995,63900,3.882256524244161,0.0
213,1.7645211219787598,2.548304597386496,0.9030494404566966,3.901170619925464,1.3694074150349158,0.0,0.15997828567122574,0.1,0.003475666046142578,0.0636141300201416,0.049999032,1.0763339,2.2292879593624826,0.0,0.03404493616971209,0.0,300,0.020830392837524414,0.24823803941168726,0.21266660926995357,64200,3.4099362567668976,0.0
214,1.9241387844085693,3.0329485601171844,0.8656480939092362,4.195576844067503,1.802604121678863,0.0,0.16059436491072168,0.1,0.003306150436401367,0.06279397010803223,0.04977316,1.3909131,2.309654019437953,0.0,0.04046199930839582,0.0,300,0.03236699104309082,0.20687083294129738,0.15282700081991957,64500,3.633487982312666,0.0
215,1.81638765335083,2.485826610406391,0.9533864592330572,3.658800620469897,1.4750122078312615,0.0,0.15852659162269617,0.1,0.003313779830932617,0.06161856651306152,0.049999323,0.96378714,2.3272712785347967,0.0,0.03286045224251383,0.0,300,0.021796703338623047,0.16518585299050742,0.16732113561322587,64800,2.186116405696072,0.0
216,1.8797061443328857,2.0652695942474986,0.19929853907557799,2.394846591270159,1.8920156496147134,0.0,0.14979186988160983,0.1,0.0032896995544433594,0.05941605567932129,0.050115228,1.6475521,2.301071110106067,0.0,0.027468099811827892,0.0,300,0.07515072822570801,0.2605026820236567,0.17434969907174552,65100,2.3578077251129237,0.0
217,1.7951679229736328,2.4532109960483415,0.3704411953944773,2.912489814574345,2.054494635808716,0.0,0.162337959086788,0.1,0.010456562042236328,0.06858158111572266,0.049971223,0.7768389,2.3162850987002943,0.0,0.03254208661845011,0.0,300,0.02089667320251465,0.06048822314437051,0.05630062307017619,65400,2.2380205748780173,0.0
218,1.8888521194458008,2.001623110054565,1.7468812977824015,4.997642821573462,0.7521509002661941,0.0,0.15848644801016948,0.1,0.003139495849609375,0.05955910682678223,0.04977828,0.97569,2.2848188998357215,0.0,0.02648079843268161,0.0,300,0.027040958404541016,0.5019989629208843,0.4915245664910186,65700,2.6797384363970553,0.0
219,1.981410026550293,3.562933685446154,1.1641535836452848,5.515187486131695,2.526109634263108,0.0,0.15562693743137535,0.1,0.09455156326293945,0.20392870903015137,0.04974254,1.1302499,2.4126303783967646,0.0,0.047566657373518756,0.0,300,0.23336243629455566,0.24210561264856598,0.21520060680704142,66000,2.8901135569172234,0.0
220,1.8187041282653809,2.9391330876888313,0.6788970724538277,4.011674565750483,2.1291576186366177,0.0,0.15730365862293036,0.1,0.003129243850708008,0.0599668025970459,0.04966677,1.1396335,2.4652806493259716,0.0,0.03916319050392165,0.0,300,0.19741225242614746,0.11683132825001544,0.08855336515903539,66300,3.148607687318627,0.0
221,1.7948696613311768,1.2970373805750572,0.42177728625069727,1.8401871426494276,0.6881105133771194,0.0,0.16041457942230244,0.1,0.003184080123901367,0.06067967414855957,0.049680132,0.5957349,2.3484563224508803,0.0,0.017052845234231746,0.0,300,0.01955413818359375,1.0763794662292374,0.9344822474437395,66600,1.910936257910337,0.0
222,1.8457560539245605,2.238208473663688,0.6100371233947615,2.8417403463704747,1.2744542440553785,0.0,0.15826147637992233,0.1,0.0031168460845947266,0.06296873092651367,0.049785055,0.69345295,2.3374315375721615,0.0,0.029805924121087006,0.0,300,0.045847177505493164,0.11167952080248646,0.0984026947137193,66900,3.995178311888758,0.0
223,2.0094826221466064,3.4781599526571085,1.025941083946399,4.679558193341923,2.0446269392319474,0.0,0.16473140793471852,0.1,0.003403186798095703,0.061364173889160156,0.049950328,0.84786695,2.4515043790806565,0.0,0.046357239561058354,0.0,300,0.19818520545959473,0.20411254662103648,0.18709532947535476,67200,4.404217121573817,0.0
224,2.748473644256592,1.664533242712399,1.0256622155788209,3.370122473584347,0.6331702865204302,0.0,0.1580317292979921,0.1,0.0033218860626220703,0.06034660339355469,0.049846116,0.9275851,2.372807265443831,0.0,0.022174210651663164,0.0,300,0.02243661880493164,0.5045430276913208,0.4816989526778192,67500,3.354623799937683,0.0
225,1.84751558303833,2.6369712065461557,1.334573988411344,4.7585964509485095,1.142810463661498,0.0,0.14914979909245737,0.1,0.003242969512939453,0.0659949779510498,0.04937772,1.4733064,2.3992236595540635,0.0,0.03516946065596597,0.0,300,0.020277023315429688,0.2559876044453369,0.25650440020650095,67800,2.1942574804170993,0.0
226,1.7979848384857178,2.944713709947626,0.41501896077785744,3.4121431522863936,2.4135200190188657,0.0,0.15652233632977305,0.1,0.003187894821166992,0.06246829032897949,0.05030448,0.90331805,2.4537726645934197,0.0,0.03929873335203124,0.0,300,0.020342350006103516,0.09709476264278746,0.08651335558327564,68100,4.08229780785494,0.0
227,1.799405813217163,2.7017834846888578,1.7405810397213044,4.939544346227117,0.594773145233177,0.0,0.15851277813261097,0.1,0.0031790733337402344,0.0613408088684082,0.050226577,0.91519225,2.4785737466029634,0.0,0.036052256357061795,0.0,300,0.02107858657836914,0.3262509009140028,0.31972075890976503,68400,2.265106456431848,0.0
228,1.8398122787475586,0.8832756770565826,0.4673192446373339,1.6332997311201642,0.3639614358810338,0.0,0.15709648021652325,0.1,0.003169536590576172,0.06990742683410645,0.049303,0.6638148,2.319043939648325,0.0,0.011599327642837037,0.0,300,0.023638248443603516,5.2442862641665515,3.5250157030656144,68700,5.3200020528530425,0.0
229,2.111121654510498,2.4019882031762525,0.9740772480445616,3.445607121283671,0.8739613602000424,0.0,0.15996889579114976,0.1,0.0031113624572753906,0.06123208999633789,0.049477678,0.84242094,2.327338366001118,0.0,0.03188844689847576,0.0,300,0.024167299270629883,0.18687753171744978,0.21750419072739807,69000,6.740503834013391,0.0
230,1.6964738368988037,1.856417062453655,1.1456775659818064,3.3549570967347,0.5762146185941165,0.0,0.16248495696407825,0.1,0.003145933151245117,0.061248779296875,0.049738467,0.7674429,2.2802462356463717,0.0,0.024791781619219452,0.0,300,0.1033473014831543,0.30124733436824275,0.29638850742189615,69300,3.7945027466096852,0.0
231,1.8251416683197021,1.878250284090285,1.2151663871677654,3.2034830841820634,0.5444105745589836,0.0,0.15083451287710992,0.1,0.0031828880310058594,0.06139087677001953,0.049628213,0.72398365,2.240046640490763,0.0,0.02505150971409334,0.0,300,0.020777225494384766,0.31451442313299893,0.3134080182813289,69600,3.1228549566166506,0.0
232,1.785853385925293,3.0773580574230572,1.3873998118420492,4.995505960516333,1.2645293405373963,0.0,0.1593253989467066,0.1,0.06994318962097168,0.7185990810394287,0.05002431,0.8876361,2.323777782183993,0.0,0.04059178446396406,0.0,300,0.026749372482299805,0.35764923131893667,0.3146102835679469,69900,1.9887071085273493,0.0
233,1.7685177326202393,3.06590033436667,1.6537610003995584,4.563963410903395,0.38270330660299384,0.0,0.14859465667743058,0.1,0.0032303333282470703,0.061951637268066406,0.050007563,0.9041212,2.397990037402261,0.0,0.04091632846913238,0.0,300,0.04281139373779297,0.36342914848991814,0.3117971873019104,70200,6.1876616659396,0.0
234,2.0421760082244873,2.532163930335569,1.3841013807758884,4.554567168476896,0.654848006058138,0.0,0.15310689704171418,0.1,0.003252744674682617,0.0634315013885498,0.05006617,1.0872043,2.411407426695592,0.0,0.033766363970550294,0.0,300,0.18304228782653809,0.2810338915677963,0.2798986690270108,70500,2.3602209482599394,0.0
235,2.584850788116455,1.8003452481426332,0.6161763075159044,2.552225522802679,1.164312445396418,0.0,0.1510498731335513,0.1,0.003237009048461914,0.060855865478515625,0.049741562,0.9039148,2.3503012088402957,0.0,0.024054456532905832,0.0,300,0.02808356285095215,0.3207499177193914,0.28888882773182994,70800,2.605117625611669,0.0
236,2.0972225666046143,2.8871138257056486,0.46671299548061307,3.387014063833354,2.3635541437682592,0.0,0.1561306982202395,0.1,0.003378629684448242,0.06285738945007324,0.04946085,1.416492,2.403982470526831,0.0,0.03856571349744685,0.0,300,0.022532224655151367,0.08101302929230654,0.08212390786291666,71100,2.1741004413635308,0.0
237,2.0030357837677,3.3962655947105924,1.1412603497692464,4.552311074338516,1.6378944016198986,0.0,0.16328874803938054,0.1,0.003392457962036133,0.06276321411132812,0.049660753,0.8297271,2.503210782945207,0.0,0.045329770847369937,0.0,300,0.022900819778442383,0.2214324149151143,0.18944553152177943,71400,1.9429110201665278,0.0
238,2.347320556640625,3.055759176124355,1.079334414580402,4.585504351368227,1.9959678493210864,0.0,0.15077701222938322,0.1,0.08761477470397949,1.4677910804748535,0.049583763,1.1818748,2.558465622263122,0.0,0.040648260791075294,0.0,300,0.18076038360595703,0.15136198776880305,0.13114715844683303,71700,2.3558357690701723,0.0
239,3.062110662460327,2.774511012076461,1.2722788158736442,4.845657278667516,1.3833726652833793,0.0,0.16227000854773785,0.1,0.0032546520233154297,0.05991077423095703,0.04917592,0.78410286,2.5800701612444557,0.0,0.03661703139115752,0.0,300,0.07325053215026855,0.19115039389717314,0.19739552374464672,72000,2.543811139237978,0.0
240,2.6735191345214844,3.095160523424162,0.8533632029023662,4.16465468083594,1.8475770431641145,0.0,0.160182376781045,0.1,0.0031702518463134766,0.09459567070007324,0.049805317,0.8960154,2.6315791974624263,0.0,0.04114902291177592,0.0,300,0.04090690612792969,0.15894162622303795,0.15422244754726097,72300,7.525379778134077,0.0
241,2.1267619132995605,2.1874555739111976,1.030837456475952,3.1434795295749245,0.4574941618928001,0.0,0.15349745861444244,0.1,0.003232717514038086,0.06199312210083008,0.049911708,0.652725,2.5871668351073036,0.0,0.028882826677644795,0.0,300,0.25546884536743164,0.3272484587771987,0.2569084376986502,72600,2.2324700800236306,0.0
242,2.0638983249664307,2.675502904869105,0.9925064061311014,3.963470333868224,1.6438835035003183,0.0,0.1502617527927795,0.1,0.09009575843811035,0.40769314765930176,0.05030243,0.8254729,2.5960004420834837,0.0,0.03563336062874422,0.0,300,0.10628819465637207,0.13254201676246447,0.1294110491317941,72900,1.991497235625843,0.0
243,2.300131320953369,2.4744498947295828,1.2564989193645357,3.632749721886971,0.467228727140062,0.0,0.1503427955389694,0.1,0.08800864219665527,1.4848902225494385,0.049866334,0.7687729,2.5838453873480938,0.0,0.03254885158036454,0.0,300,0.21376872062683105,0.25003311233318315,0.2507612734149424,73200,2.4193823494324462,0.0
244,2.6633894443511963,2.565155132882016,0.7403496388344853,3.205297081178163,1.3056523836619058,0.0,0.15537956182363186,0.1,0.0034046173095703125,0.06205892562866211,0.049457148,0.6899582,2.581976361901486,0.0,0.03418036923418114,0.0,300,0.028188467025756836,0.11505909986026766,0.11391246543883438,73500,1.0157817036698986,0.0
245,1.9475882053375244,2.743041378405636,1.3255700465957962,4.577819616925114,1.1087186994527325,0.0,0.1441946628823145,0.1,0.003180980682373047,0.06396913528442383,0.04948771,1.8939345,2.5980828635519013,0.0,0.0364046500884995,0.0,300,0.02496647834777832,0.22693978944536397,0.22367466009497347,73800,1.1821069761205103,0.0
246,2.2243599891662598,2.1435833163989324,1.0896010238883298,3.6920812668918863,0.6131074541817048,0.0,0.14977226548293712,0.1,0.003948688507080078,0.06473183631896973,0.05020775,0.67089045,2.552632908836604,0.0,0.02814358002419497,0.0,300,0.024843215942382812,0.3335056628104306,0.3251499855798509,74100,1.723707805055245,0.0
247,2.6049444675445557,1.5720094006665908,0.8408251746267684,2.9930782962369276,0.8861702742681546,0.0,0.15102512208705027,0.1,0.09390664100646973,1.4589128494262695,0.049832147,0.84738356,2.454570558019603,0.0,0.020766095911825978,0.0,300,0.11511659622192383,0.5306325212758567,0.4272694012744042,74400,2.2864317364549818,0.0
248,2.015831470489502,2.5844832927199515,0.7778292852903956,3.4771752314903375,1.345098381685508,0.0,0.15728644670779016,0.1,0.00559544563293457,0.06269311904907227,0.04997171,0.8933955,2.4675618314896375,0.0,0.03447125191107636,0.0,300,0.024907827377319336,0.1492693846968466,0.16007936272500048,74700,2.9436979588467573,0.0
249,2.5347843170166016,3.072050965295274,1.4132747600160414,4.811945714623611,1.4389134613835086,0.0,0.15745413900966249,0.1,0.0030651092529296875,0.06458282470703125,0.04951783,1.0996429,2.528010744870201,0.0,0.04081013118096443,0.0,300,0.02567887306213379,0.27043208319519646,0.2462487859136369,75000,2.1534919467378484,0.0
250,2.671161651611328,3.3433217795210135,0.9348315623339027,4.341056151690412,2.3637549469006705,0.0,0.16231965317651548,0.1,0.003472566604614258,0.06060791015625,0.05022233,0.9950861,2.6095418483352826,0.0,0.044600907365535694,0.0,300,0.02501535415649414,0.1833171332198414,0.13656150260628727,75300,6.306196291256215,0.0
251,2.0753772258758545,1.7319096731420975,0.881622815389148,2.8008882592844717,0.5187147921379649,0.0,0.16431673160124657,0.1,0.0032434463500976562,0.059972286224365234,0.050192293,0.64956814,2.5217786308159638,0.0,0.022499545915268725,0.0,300,0.027130126953125,0.5346234308953137,0.5623847463527307,75600,2.3483933402389705,0.0
252,2.035529613494873,3.3313893565402175,1.4894243704994372,5.258652899660048,1.1198314293206326,0.0,0.15512115091456433,0.1,0.003136873245239258,0.060306549072265625,0.04981369,0.93690044,2.602739703388389,0.0,0.044121415877884415,0.0,300,0.02687811851501465,0.21511474901674016,0.20433494557316792,75900,2.1675693687540734,0.0
253,2.6895039081573486,4.1538158650638435,2.2886432526296274,6.813848629877459,0.49621291018686703,0.0,0.1602164981989033,0.1,0.0036509037017822266,0.05943775177001953,0.04986311,0.61927223,2.7578473195559345,0.0,0.05524462302731468,0.0,300,0.028306007385253906,0.3537856851351695,0.2967774150102506,76200,2.856946853031521,0.0
254,2.0568044185638428,2.3549624199029098,1.1007700656028714,3.8965278204586435,1.1438280883000271,0.0,0.15856648534249093,0.1,0.0037720203399658203,0.06115245819091797,0.049798038,0.7858362,2.717558829590632,0.0,0.031042899156667296,0.0,300,0.025205135345458984,0.3653546842425134,0.4211093339114387,76500,5.3050515779195795,0.0
255,2.080512523651123,3.4359198201045245,1.3004099635682838,4.718102493048841,1.5499183228496922,0.0,0.1541174336502017,0.1,0.004641294479370117,0.06149744987487793,0.049473446,1.1263708,2.7893949286420217,0.0,0.04581628751943562,0.0,300,0.025233030319213867,0.16176670487221412,0.1538720636577894,76800,2.3787499255928246,0.0
256,2.0095438957214355,2.1175553617629337,1.2972554326579555,4.208044613124114,0.6452469006159488,0.0,0.15349335437019773,0.1,0.00342559814453125,0.06451106071472168,0.05009851,1.0351073,2.7222109719541128,0.0,0.027893487361950985,0.0,300,0.025252342224121094,0.5099150766053302,0.38518094652017537,77100,1.873303534304667,0.0
257,1.8389289379119873,1.29245988777811,0.3413503555165105,1.8425066402932118,0.9134359515903966,0.0,0.15316089494478932,0.1,0.0033254623413085938,0.06231236457824707,0.049644858,0.83077013,2.5792358635365122,0.0,0.017031164451331043,0.0,300,0.025715112686157227,2.6796728125517606,1.1173150642323946,77400,2.4381634611358645,0.0
258,1.962376356124878,3.010661036322559,0.724602505783038,4.2373860560293535,2.3931809491080727,0.0,0.1568960111894566,0.1,0.0051288604736328125,0.06556820869445801,0.049859144,0.953029,2.6223783808151166,0.0,0.04011592579888774,0.0,300,0.027827978134155273,0.1538175598865367,0.21217402083662737,77700,2.422582225751384,0.0
259,2.632831335067749,2.985848848457304,1.3444590802812544,4.854440365656674,1.0532329336938664,0.0,0.15973102645410528,0.1,0.005647182464599609,0.18692469596862793,0.049786206,1.0223893,2.6587254275793355,0.0,0.03976586348440826,0.0,300,0.06536245346069336,0.31736928943773773,0.29636708895325153,78000,2.188383121883848,0.0
260,1.8864803314208984,3.360272088103129,1.2607555017051715,5.146162936976854,1.839831391607079,0.0,0.14806366493215212,0.1,0.08028674125671387,1.3356387615203857,0.04960189,1.043263,2.728880093631715,0.0,0.044633202847693815,0.0,300,0.049623727798461914,0.2788259311604555,0.21314902112360937,78300,2.5307177485159396,0.0
261,1.889941930770874,2.0062024678252723,1.8840187212661328,4.881938299311643,0.18921098485177718,0.0,0.1477209445465226,0.1,0.003196239471435547,0.07162213325500488,0.04983244,1.4622258,2.6566123310510705,0.0,0.026510552799346797,0.0,300,0.026453495025634766,0.5617978144669014,0.5826213245010293,78600,1.856194927350909,0.0
262,1.8960814476013184,1.5261917432142027,0.8437187869087706,2.804284922640119,0.4551375545609154,0.0,0.15279214914045475,0.1,0.003286123275756836,0.06096911430358887,0.049543954,0.774743,2.543570272267384,0.0,0.020065083752680138,0.0,300,0.027869462966918945,0.6833144187844389,0.5962971580574679,78900,1.5221272547324531,0.0
263,1.9620945453643799,1.3745105246469822,0.7757198626032891,2.5968675915875514,0.5442149976961265,0.0,0.14571583078000244,0.1,0.0031461715698242188,0.06246495246887207,0.05021908,0.7356876,2.426664297505344,0.0,0.018366500899634784,0.0,300,0.0260009765625,0.7717988490371784,0.5189084370861922,79200,3.863940580537234,0.0
264,1.8568220138549805,1.547228167566002,0.8025330102084289,2.831504603042579,0.6180013066996497,0.0,0.1503285219885824,0.1,0.003256559371948242,0.06343293190002441,0.049680926,1.4079635,2.3387206845114097,0.0,0.02042121554731284,0.0,300,0.029667377471923828,0.59524391664452,0.3749851602257882,79500,0.8893466409645342,0.0
265,1.9005763530731201,2.5021946498771994,1.5764552318276097,4.829127906585633,0.4038165917611756,0.0,0.157328758245401,0.1,0.003191709518432617,0.061367034912109375,0.0493395,1.251339,2.3550680810479885,0.0,0.0334146829731316,0.0,300,0.18567991256713867,0.3819850773621753,0.4035913852688206,79800,2.2338035535635536,0.0
266,1.837890386581421,3.320647585631435,1.3657004586030093,4.557296316182423,1.1111773478109241,0.0,0.15600808796949497,0.1,0.003185749053955078,0.061266422271728516,0.04999356,0.72598946,2.4516260315063336,0.0,0.04424738278096047,0.0,300,0.04944443702697754,0.3721457355938022,0.33649404888123524,80100,1.8915899457400196,0.0
267,1.9297983646392822,2.160728463408177,1.6680766721348754,3.8304884740142673,0.21456435440580043,0.0,0.15367618272034328,0.1,0.003516674041748047,0.06064438819885254,0.05007986,0.970017,2.422536274696518,0.0,0.02884614298415189,0.0,300,0.028034687042236328,0.42742152083173646,0.4207939122267165,80400,2.393518421492182,0.0
268,1.841320276260376,3.1992421452168633,1.064954434230639,4.288086866215947,1.554975411408232,0.0,0.16078682080497655,0.1,0.003306865692138672,0.06117606163024902,0.050327152,0.71852213,2.500206861748553,0.0,0.042351416841766784,0.0,300,0.041091203689575195,0.27104547928414907,0.22798498648480484,80700,2.0711606183431357,0.0
269,1.8638465404510498,2.489572934912095,0.6398899408212394,3.4675431110452886,1.90666948296807,0.0,0.15159190379233736,0.1,0.0035321712493896484,0.06406331062316895,0.04964552,1.319373,2.499143469064907,0.0,0.03304039229855372,0.0,300,0.027997493743896484,0.10464439979270014,0.110532688750405,81000,3.377807724918158,0.0
270,1.9336700439453125,2.6307383499827064,1.7770433474200364,5.638015519956424,1.0493946017502707,0.0,0.1524681701968535,0.1,0.003301858901977539,0.06165742874145508,0.050048944,1.1290772,2.5123029571566873,0.0,0.03494769217408314,0.0,300,0.044809579849243164,0.36647632735656865,0.35902497608274014,81300,1.5762909345372396,0.0
271,1.9593141078948975,2.582643951836877,2.440532007041484,6.455558858289058,0.40128954098095637,0.0,0.15950094329621256,0.1,0.0032608509063720703,0.0612485408782959,0.050127495,0.91319776,2.5193370566247064,0.0,0.034152461291335756,0.0,300,0.19802260398864746,0.5339616441765744,0.529042872135014,81600,1.3312714405468775,0.0
272,1.9013237953186035,3.227364197925534,2.179972967221849,5.7166361117285245,0.9791226037746389,0.0,0.15569122229577306,0.1,0.0031735897064208984,0.06139111518859863,0.049749263,0.8376512,2.5901397707547895,0.0,0.042913370240790664,0.0,300,0.04627513885498047,0.35423983133677706,0.3360780361156162,81900,3.880682852418851,0.0
273,1.9261624813079834,2.9123947072287297,1.919544357133666,5.66489224277795,0.7185691754140539,0.0,0.16028092858451418,0.1,0.00536799430847168,0.06029009819030762,0.05040371,0.83749795,2.622365264402184,0.0,0.03877813931338427,0.0,300,0.08097171783447266,0.3338418515414335,0.32926559901136015,82200,1.1755964340230804,0.0
274,1.921281099319458,1.0609055375241527,0.4557264236698083,1.7118343012738817,0.44101651897687283,0.0,0.15081319594959985,0.1,0.0041351318359375,0.060945749282836914,0.049872797,0.6182003,2.4662192917143813,0.0,0.01414885783104846,0.0,300,0.03134894371032715,3.942888063081531,2.5330057725035986,82500,1.4685312095356544,0.0
275,1.8695693016052246,3.322425886824934,1.3972411935353695,5.697245530043763,2.1179209065086075,0.0,0.16007223150079042,0.1,0.07026314735412598,0.5906226634979248,0.04980761,1.1918404,2.5518399512254364,0.0,0.044303339771444766,0.0,300,0.02928328514099121,0.21052099790502238,0.23866153940351567,82800,1.3400718138357186,0.0
276,1.944021224975586,3.135858827229154,1.6394906650464793,5.05320158717975,0.533409242233725,0.0,0.15892814791696439,0.1,0.0052564144134521484,0.05904984474182129,0.050391495,0.8051844,2.610241838825808,0.0,0.041576226151301854,0.0,300,0.02881789207458496,0.2924186731380777,0.287906240203446,83100,1.797170097641555,0.0
277,1.862579345703125,2.983621239195746,0.529129279021247,3.6434093777088217,2.186617267822146,0.0,0.1536343718539057,0.1,0.0030689239501953125,0.06053805351257324,0.050035253,0.9735074,2.647579778862802,0.0,0.03976133357158644,0.0,300,0.029270172119140625,0.07616874579036254,0.06455989692148677,83400,1.6705062205450458,0.0
278,1.7934467792510986,3.1399510259668357,1.2480227279903624,5.116933459760573,1.9372138242871564,0.0,0.1549649739660152,0.1,0.0032100677490234375,0.06013226509094238,0.049752455,1.1010468,2.6968169035732057,0.0,0.04176142630673964,0.0,300,0.039370059967041016,0.19011105878613618,0.1673332364248171,83700,1.676344090121903,0.0
279,1.7903437614440918,1.7700288249163403,1.1148908422291126,3.1637698700432106,0.21424261274579398,0.0,0.15294804327163292,0.1,0.0032231807708740234,0.06360030174255371,0.050287962,0.96950155,2.604138095707519,0.0,0.023473055436472177,0.0,300,0.031137466430664062,0.648442551658004,0.6265213863925212,84000,1.6798607117607673,0.0
280,1.7629926204681396,3.085700849796128,1.3537405758129737,5.346091255406028,1.7891989750045494,0.0,0.15042752407461474,0.1,0.003378629684448242,0.06467390060424805,0.049288068,1.5215924,2.65229437111638,0.0,0.04051328198758844,0.0,300,0.03425860404968262,0.2039180553712373,0.20559487487244194,84300,1.4130069339111941,0.0
281,1.8366150856018066,2.2101053065088845,0.6360211403589442,3.0894852548327862,1.3861757635989826,0.0,0.15955020462710193,0.1,0.07494997978210449,1.2243382930755615,0.05012703,0.717735,2.6080754646556303,0.0,0.02943812900204206,0.0,300,0.052988529205322266,0.194866985190034,0.17408245256352037,84600,1.4972700538784174,0.0
282,1.879375696182251,2.3087697621858223,1.4585763117531787,4.797000298751704,1.2421925868129675,0.0,0.15416330899561004,0.1,0.0045166015625,0.06340670585632324,0.049617298,1.1563005,2.57814489440865,0.0,0.030714446851560547,0.0,300,0.03281855583190918,0.3842414772759451,0.36457380921728283,84900,1.6157350818975817,0.0
283,2.482358932495117,1.5319890806402319,0.8475185171166344,2.758564800349432,0.7417818852472586,0.0,0.15878868121238587,0.1,0.08451461791992188,1.3129515647888184,0.049776867,0.7650762,2.473529313031808,0.0,0.020415300904342893,0.0,300,0.06458735466003418,0.629534804319005,0.46523778402134924,85200,1.2941836421364104,0.0
284,1.8325626850128174,3.690123142382286,0.5360996176358281,4.263994460820822,2.911948157827306,0.0,0.16107553848993056,0.1,0.06343269348144531,0.05920600891113281,0.050039172,1.0009471,2.595188695966856,0.0,0.04893934366390129,0.0,300,0.031304359436035156,0.23043722439486625,0.22646765449449396,85500,1.3358918664039117,0.0
285,1.8599967956542969,3.6471944633736184,1.933746319669235,5.41205061987223,0.6999261045540062,0.0,0.15402193768191144,0.1,0.06994795799255371,1.1804840564727783,0.04994388,0.772983,2.700389272707532,0.0,0.04858883456305842,0.0,300,0.03019857406616211,0.3863466467006684,0.33185571594797314,85800,1.2530336478224897,0.0
286,1.8170373439788818,3.018380938654183,1.316476707843024,4.90270103889824,1.2514999849384043,0.0,0.14874064520253913,0.1,0.0032134056091308594,0.059473514556884766,0.050011866,1.169388,2.732188439302197,0.0,0.04009189347933152,0.0,300,0.07713603973388672,0.22561438685301746,0.20567141987254836,86100,5.447250703305246,0.0
287,1.8596279621124268,3.280212740030014,1.0929909187279028,4.9176563433121645,1.8386710977814205,0.0,0.15787766503129286,0.1,0.0033566951751708984,0.06067705154418945,0.050027277,1.8178694,2.786990869374979,0.0,0.04343262658074635,0.0,300,0.033051252365112305,0.1333598426727802,0.12818149161248224,86400,0.907635005178618,0.0
288,1.9100418090820312,2.0772426240987043,0.9503259310415758,2.7481850763197078,0.4517403732409813,0.0,0.15830212548450842,0.1,0.0032911300659179688,0.06170845031738281,0.05063468,0.59498876,2.716016044847352,0.0,0.027702800492706372,0.0,300,0.034651756286621094,0.6513684146328601,0.46339048204554045,86700,1.8379752480131752,0.0
289,1.9002885818481445,4.119456548975589,1.3306083662360257,6.199915654124267,2.5786891757479617,0.0,0.15683490431012945,0.1,0.0033795833587646484,0.06098151206970215,0.049660064,0.948578,2.8563600952601758,0.0,0.054434426894001596,0.0,300,0.035806894302368164,0.18268326445195643,0.18820164862373615,87000,2.2952505213242875,0.0
290,1.9422078132629395,4.334159029002532,1.227391408486586,6.353033210145805,3.0344086451720895,0.0,0.14628707267198165,0.1,0.0033140182495117188,0.06453919410705566,0.04939316,3.8614721,3.0041399886344116,0.0,0.05747395463006129,0.0,300,0.1942765712738037,0.18988641733063255,0.1399739840876318,87300,2.1858081093866515,0.0
291,1.939678430557251,4.945679290879359,2.1221996748493215,7.868618316417555,1.9615668253687475,0.0,0.15457221854706604,0.1,0.005320310592651367,0.06722283363342285,0.050113104,1.113036,3.1982939188589063,0.0,0.06544692986401587,0.0,300,0.0714576244354248,0.2524285486171455,0.20033615467119156,87600,1.441856169763135,0.0
292,1.8535199165344238,3.039246441023418,1.2641854201482485,5.111722950404812,1.7146725445761353,0.0,0.15688609487405455,0.1,0.003217458724975586,0.06159377098083496,0.05043368,1.4185532,3.1823891710753576,0.0,0.040443271528591535,0.0,300,0.1362168788909912,0.3756908282694602,0.3429021301848122,87900,1.5378616879433664,0.0
293,1.8458597660064697,3.320234787934185,1.7249387989327973,6.169002777041671,1.68619765648225,0.0,0.15231448714592108,0.1,0.003580331802368164,0.05991172790527344,0.049882438,1.278004,3.1961737327612405,0.0,0.04422191117139146,0.0,300,0.03825187683105469,0.3787819735520266,0.3013908257143051,88200,1.6608613647763206,0.0
294,1.8190257549285889,2.1000078890265836,1.0681410991660818,3.109489100741313,0.41683573522950296,0.0,0.16486288044615222,0.1,0.0031888484954833984,0.060517311096191406,0.04978385,0.6054753,3.086557148387775,0.0,0.02805038961926324,0.0,300,0.03587651252746582,0.658828729274997,0.3768861027053499,88500,1.745723940829478,0.0
295,1.8770883083343506,3.389784103160066,1.511896166861962,4.894729282758035,1.0556349453238865,0.0,0.15435165704253645,0.1,0.0031948089599609375,0.06353259086608887,0.050235868,0.70378274,3.116879843865004,0.0,0.04499476945646908,0.0,300,0.03145647048950195,0.21231979430820797,0.24045370048551176,88800,2.0062489905483796,0.0
296,1.8504307270050049,2.9469447512214395,1.6479621182689725,5.338077975702244,1.2974402403699576,0.0,0.1647209908811886,0.1,0.0032303333282470703,0.06385946273803711,0.050404545,0.93190473,3.0998863346006478,0.0,0.03924728495416809,0.0,300,0.22940969467163086,0.33360286017497126,0.33175151067063924,89100,5.531977788001221,0.0
297,1.8623063564300537,1.811545457825661,1.2650032768522157,3.782687972989875,0.6866156267101187,0.0,0.15103184055058957,0.1,0.0033333301544189453,0.06135153770446777,0.049815573,0.70713836,2.9710522469231493,0.0,0.023838092853166685,0.0,300,0.0505681037902832,0.4855747616050023,0.4576850461452781,89400,2.333162174982367,0.0
298,1.8822872638702393,3.1126931281768773,0.3504947810531694,3.683365502494047,2.7523413628125906,0.0,0.15672586258974008,0.1,0.003960609436035156,0.06594157218933105,0.04953997,1.0124003,2.9852163350485226,0.0,0.04125292770603727,0.0,300,0.20499777793884277,0.09985059144282238,0.09446778307663617,89700,4.050505404700828,0.0
299,1.8662877082824707,1.6563677754725938,0.7136934442464196,2.4632384384498582,0.664779056719388,0.0,0.15995748277364288,0.1,0.07179856300354004,1.2198255062103271,0.049407966,0.8011923,2.85233147909093,0.0,0.021877965994838895,0.0,300,0.05412149429321289,0.5016466698955591,0.4691709306742231,90000,5.683718604360661,0.0
300,1.8590562343597412,3.8197715864963016,2.2819820294352433,7.75942929404961,2.307360526186002,0.0,0.1594902975421678,0.1,0.0035254955291748047,0.060414791107177734,0.050345197,1.43088,2.9490754898314675,0.0,0.05053956209972732,0.0,300,0.03282761573791504,0.40971250628934747,0.38862694041366125,90300,1.6709822709537578,0.0
301,1.8574912548065186,1.9607580034803829,1.1865050231544336,3.536035270935979,0.5700688010808999,0.0,0.15403072823474792,0.1,0.003097057342529297,0.0637211799621582,0.05035341,0.91963685,2.8502437411963593,0.0,0.025760407371711362,0.0,300,0.24141359329223633,0.437668089573717,0.4549259769275988,90600,2.459338655515054,0.0
302,1.8564960956573486,3.955326273152039,0.8023412289146,4.828900757445379,2.6675163101189545,0.0,0.1633924158770791,0.1,0.0032820701599121094,0.05932974815368652,0.04960024,0.77485687,2.9607519943919276,0.0,0.05267429309103923,0.0,300,0.20618438720703125,0.16851418133235213,0.14271257912381022,90900,2.2298587842460416,0.0
303,1.88722562789917,3.0901664106473627,1.0035212180153115,4.49253888415969,1.6775014932560512,0.0,0.14247659991058004,0.1,0.003229379653930664,0.05973029136657715,0.049954046,1.370454,2.973693436017471,0.0,0.04120171201340963,0.0,300,0.03209710121154785,0.11863856876783647,0.11947783525071796,91200,2.133673106659478,0.0
304,1.9584324359893799,4.040154552592963,1.0814371385214525,5.118305109317555,2.3503631204603876,0.0,0.16502025269593057,0.1,0.0031952857971191406,0.059480905532836914,0.04954857,0.7246351,3.0803395476750204,0.0,0.05363884097969393,0.0,300,0.04865527153015137,0.15542132562275204,0.12852534419563633,91500,2.378953990219489,0.0
305,1.913757085800171,2.2053215223557014,0.5118209828048038,2.9443415863607347,1.4992763879964426,0.0,0.15277442057148385,0.1,0.003086090087890625,0.06263113021850586,0.050125014,0.83242685,2.9928377451430888,0.0,0.02945475292415415,0.0,300,0.03182840347290039,0.3901093957606292,0.36741087327827526,91800,2.239893055565035,0.0
306,1.9114952087402344,1.8386889591857791,0.796891633049371,3.142675015419628,0.9960561070852452,0.0,0.15028990981665052,0.1,0.07101869583129883,1.257509469985962,0.050136715,0.77607745,2.877422866547358,0.0,0.024471994010133988,0.0,300,0.05437040328979492,0.7205404049677138,0.4489294263343198,92100,3.286368346767212,0.0
307,1.958019495010376,1.7641073874437068,1.0898709839213963,2.870848249703279,0.38158569401439096,0.0,0.1480435089196159,0.1,0.003242015838623047,0.06456708908081055,0.04968085,0.81650573,2.766091318636993,0.0,0.023513483725583123,0.0,300,0.03257632255554199,0.8030993030408251,0.478462505016067,92400,2.630572762754949,0.0
308,1.932457685470581,3.3708629824917944,1.9206417757331575,6.215571741231973,1.5062032438493171,0.0,0.1583075073736408,0.1,0.003240346908569336,0.061289310455322266,0.049969945,0.7543698,2.8265684850224733,0.0,0.0445897886754908,0.0,300,0.21320128440856934,0.35031231340897917,0.37519764339201755,92700,2.7748662405885782,0.0
309,1.9956786632537842,2.4101502555437744,0.828130636614872,3.329189584445111,1.1481838341020847,0.0,0.1527515993439394,0.1,0.07606172561645508,0.9063215255737305,0.05004643,0.6820639,2.784926662074603,0.0,0.03214941126554258,0.0,300,0.19686007499694824,0.1907485362457615,0.17922392686152136,93000,3.9030748708038185,0.0
310,1.8976798057556152,2.8473544389244476,2.2515549185718577,6.528058491517738,0.8411767096209204,0.0,0.15709033360712554,0.1,0.003453493118286133,0.0606083869934082,0.049603768,1.6111037,2.791169439759588,0.0,0.03779350111557619,0.0,300,0.05236363410949707,0.448030623489054,0.443101344754032,93300,4.144280366477665,0.0
311,1.9117388725280762,2.668439272965392,1.1594047085878265,4.289129619489029,1.3460451545634535,0.0,0.15368233527483982,0.1,0.09346961975097656,0.0642099380493164,0.049703624,1.1179783,2.7788964230801683,0.0,0.03555757743655247,0.0,300,0.03291440010070801,0.20225970440526808,0.2001837156536256,93600,4.916961859875928,0.0
312,1.9123573303222656,3.874407534570926,2.051992117754617,6.103997039969869,0.5296768684873677,0.0,0.16036853010347346,0.1,0.0034084320068359375,0.06307649612426758,0.050360918,0.7672914,2.888447534229244,0.0,0.05115768920829303,0.0,300,0.05704855918884277,0.34907356861393335,0.3115619250050589,93900,4.908911798206417,0.0
313,1.9017045497894287,2.8705635176709405,1.8709928877546393,5.768336913743219,0.8213320842105574,0.0,0.15286138790041956,0.1,0.0033829212188720703,0.0619351863861084,0.04983622,0.96012014,2.886659132573414,0.0,0.03817579420527554,0.0,300,0.2052912712097168,0.3501237781875489,0.34417027325947214,94200,4.945612112457048,0.0
314,1.8802096843719482,3.8580434086993796,1.4902509023419044,4.9508173238,1.3143503915009447,0.0,0.15948842109230185,0.1,0.003316640853881836,0.06187033653259277,0.050307203,0.76866364,2.9837975601860105,0.0,0.05133875460627276,0.0,300,0.05094337463378906,0.18539226977517312,0.1637695370034139,94500,4.026120328417009,0.0
315,1.910438060760498,3.947362018969934,1.2466508628254263,5.0544384963639155,1.8380145551417668,0.0,0.14936861157123874,0.1,0.003339052200317383,0.06206226348876953,0.049261946,0.75329,3.080154006064403,0.0,0.05243309302677737,0.0,300,0.03363442420959473,0.12822379649672677,0.1031033605204234,94800,3.8048575680998042,0.0
316,1.8459999561309814,3.1539626742602813,2.2869999204170695,6.656967644247403,0.7048320772364699,0.0,0.14861978133293827,0.1,0.003239870071411133,0.06210446357727051,0.04946561,1.028139,3.087534872883991,0.0,0.04148228972039067,0.0,300,0.032235145568847656,0.3851941993596725,0.3838863992912178,95100,5.930590296133759,0.0
317,1.9457941055297852,3.854240101426143,2.2087924349101913,6.355865848321561,0.4954055072795854,0.0,0.1538144254522934,0.1,0.0032851696014404297,0.06250262260437012,0.04980289,0.70760256,3.164205395738206,0.0,0.05110673004080936,0.0,300,0.043732643127441406,0.27816657340378687,0.2731449766192625,95400,3.3011460905061107,0.0
318,1.9007048606872559,5.150175488739745,2.701965310970767,9.183482498605567,2.140616270893768,0.0,0.13730360077196693,0.1,0.0034265518188476562,0.059592247009277344,0.049328163,3.799195,3.36280240503836,0.0,0.06862834309135463,0.0,300,0.032431602478027344,0.330616554196955,0.30234910711707874,95700,3.1656898719691724,0.0
319,1.9243404865264893,2.955972295861826,2.5873371685097006,7.3368440081974935,0.6665289890390714,0.0,0.16096184148330114,0.1,0.0032968521118164062,0.0600583553314209,0.049748376,0.866688,3.3221193941207066,0.0,0.03935008989270709,0.0,300,0.044739723205566406,0.4905586187574951,0.49560526229045326,96000,2.4216976891359283,0.0
320,1.9059221744537354,1.817281934181114,1.1599286929800638,3.4289140691680515,0.41823092010321566,0.0,0.15335652509249512,0.1,0.003217458724975586,0.05962014198303223,0.05028349,0.76899076,3.1716356481267476,0.0,0.0242156639728227,0.0,300,0.03334331512451172,1.8342721092209915,0.9681701714297047,96300,3.457481249259169,0.0
321,1.893747091293335,1.8670044989535741,0.8187779917124828,3.014469671501211,0.7187515106404727,0.0,0.16081997640994788,0.1,0.008936643600463867,0.06246495246887207,0.04972566,0.5426048,3.0411725332094304,0.0,0.02477815012462652,0.0,300,0.051114559173583984,0.8094741743983461,0.30328279576360107,96600,3.5784277416229737,0.0
322,1.9521894454956055,2.800230355323181,0.8516935893174408,4.066119753391149,1.6750069864367787,0.0,0.1659386226182096,0.1,0.003192424774169922,0.06286907196044922,0.05039383,0.9133612,3.0170783154208056,0.0,0.0370627837847404,0.0,300,0.0316472053527832,0.2550100100834688,0.3025199731455671,96900,2.156481411434036,0.0
323,1.9206666946411133,2.455048071523552,0.73667227445834,3.3876341078119614,1.3258132267868472,0.0,0.15890531242401013,0.1,0.003249645233154297,0.06388044357299805,0.049863383,0.720241,2.9608752910310803,0.0,0.03250916556375976,0.0,300,0.0430150032043457,0.16021893805159523,0.158342169539784,97200,3.0771634118706643,0.0
324,1.918426513671875,1.4065478561025047,1.046572722866361,3.024684576262955,0.22988334306411,0.0,0.15718984944002637,0.1,0.0033228397369384766,0.061716318130493164,0.049444795,0.69621444,2.805442547538223,0.0,0.018678596879027138,0.0,300,0.04560685157775879,0.5793531227163642,0.5412486829765577,97500,2.730605527786223,0.0
325,1.9820489883422852,2.6892082096336676,0.6387075650162737,3.3996542435135026,1.732190566821731,0.0,0.16322858090368664,0.1,0.0032286643981933594,0.06032848358154297,0.049726557,0.8658135,2.7938191137477673,0.0,0.03578177089694735,0.0,300,0.04045510292053223,0.16920488727374994,0.17288283584055655,97800,2.671915647988621,0.0
326,2.007063627243042,3.8287746703589938,1.4954102708604775,5.8060872021718515,1.6463122665397354,0.0,0.1502615748389426,0.1,0.0033702850341796875,0.05977940559387207,0.049824875,1.0331489,2.89731466940889,0.0,0.0510628070224572,0.0,300,0.04117989540100098,0.3769788217995438,0.33109372806070775,98100,2.0136676883893334,0.0
327,1.9586832523345947,2.733600882803932,1.6500081679498086,5.320825401002504,0.8759369370588348,0.0,0.15245993171717617,0.1,0.07298636436462402,0.523021936416626,0.04968797,1.2767816,2.880943290748394,0.0,0.03643304632235822,0.0,300,0.04546618461608887,0.35837139593877465,0.33563093573918984,98400,3.048066159174662,0.0
328,1.990365743637085,2.6441553801381197,1.423650116061792,4.690586024717714,0.6658578373034136,0.0,0.1576300441497896,0.1,0.0031213760375976562,0.06033968925476074,0.04956225,0.79371613,2.8572644996873664,0.0,0.03526137655682786,0.0,300,0.031976938247680664,0.2760503116251988,0.2747642727440695,98700,2.2169672504125866,0.0
329,2.0128092765808105,1.4654896993163387,0.14192039250102192,1.6257383829997207,1.274358472465745,0.0,0.1601605244563203,0.1,0.0031049251556396484,0.059967994689941406,0.04948384,0.56646484,2.718087019650264,0.0,0.019554305100616162,0.0,300,0.050986289978027344,1.161531998001508,1.0029227101995444,99000,3.2620361836283416,0.0
330,2.0101969242095947,2.287825889741109,0.8600622419878478,3.165287702838237,0.8606776261352697,0.0,0.1560456614776556,0.1,0.004489421844482422,0.05974411964416504,0.050421093,0.7695759,2.6750609066593487,0.0,0.03044098924182182,0.0,300,0.06237387657165527,0.19827242235085685,0.1726159039895459,99300,5.198341220965168,0.0
331,2.0652198791503906,2.079216475274567,0.5654437454296389,2.7227521117245836,1.4843175472579113,0.0,0.16750231606114513,0.1,0.003122091293334961,0.059861183166503906,0.050239477,0.6720411,2.6154764635208707,0.0,0.027691374379215407,0.0,300,0.04689526557922363,0.15793983619809387,0.13884141775159695,99600,3.6241765505729613,0.0
332,2.521080255508423,2.598671863966161,1.2748028310452457,4.730577998694441,1.4496251163903364,0.0,0.15890315042783754,0.1,0.0031173229217529297,0.06209063529968262,0.049950413,1.4155103,2.6137960035653998,0.0,0.034643098789760164,0.0,300,0.035681724548339844,0.23351962328598794,0.23704177285705655,99900,5.139547763005694,0.0
333,1.8800435066223145,2.833281596467129,1.611613462782726,5.245200370084567,0.7194814348989536,0.0,0.15923191410813928,0.1,0.0035457611083984375,0.06187844276428223,0.04978343,0.79968,2.6357445628555727,0.0,0.03749867172754715,0.0,300,0.037924766540527344,0.35028263342241883,0.33892291728969115,100200,3.9951431598893676,0.0
334,1.9311747550964355,2.3413238102485496,1.137908650852912,3.881679309432931,1.0834120325063996,0.0,0.17256767013659283,0.1,0.06906700134277344,0.06344890594482422,0.049975485,0.73032707,2.6063024875948706,0.0,0.03100208849397211,0.0,300,0.03317904472351074,0.2996751263104106,0.29742627299283253,100500,5.056165910835061,0.0
335,1.9504945278167725,3.7616510829409058,2.186292302177565,5.968539228456182,1.083822924112898,0.0,0.16609956295432945,0.1,0.0034689903259277344,0.06626129150390625,0.05022218,0.7612601,2.721837347129474,0.0,0.04953485890853278,0.0,300,0.038388729095458984,0.4153716082380914,0.3789902420696591,100800,6.2472561576393035,0.0
336,1.954847812652588,2.1673511376740056,0.5636254895055149,2.9143907331518397,1.399667604659755,0.0,0.15841640744882932,0.1,0.0033731460571289062,0.061385154724121094,0.050717257,0.89734906,2.666388726183927,0.0,0.02894472297251797,0.0,300,0.03538775444030762,0.11454771134099274,0.14640668325230147,101100,4.017857545390146,0.0
337,1.9151561260223389,2.3231996314570815,0.8802966864052552,3.5357085405846744,1.186355195914194,0.0,0.161150194978622,0.1,0.0033333301544189453,0.06205034255981445,0.049662102,0.7232433,2.6320698167112426,0.0,0.03075557719207313,0.0,300,0.043572187423706055,0.239725008192322,0.23688055567374136,101400,6.158815994280182,0.0
338,1.900073528289795,1.217283457268633,1.027506824076844,2.9223538246917484,0.18066229492421035,0.0,0.15106543810357184,0.1,0.003385305404663086,0.06178903579711914,0.049389884,0.78013706,2.4905911807669816,0.0,0.016188703279286648,0.0,300,0.2074296474456787,1.3624146408011002,1.0890826769030943,101700,6.457546014688073,0.0
339,1.9207885265350342,2.308473637348389,1.6162744291487083,3.9275419340487905,0.5476174406149765,0.0,0.16071527581436482,0.1,0.0174863338470459,0.06345534324645996,0.050208956,0.6235021,2.4723794264251224,0.0,0.03077029749211585,0.0,300,0.03685116767883301,0.3413070669910469,0.34371564691016615,102000,2.563600066006148,0.0
340,1.9176585674285889,2.024766667221168,1.9713963974985296,5.240214689596108,0.20878739191637563,0.0,0.1534242094416373,0.1,0.002951383590698242,0.06133627891540527,0.0501346,0.9111629,2.427618150504727,0.0,0.0267373798777919,0.0,300,0.03182792663574219,0.5316825548454324,0.5285408859893194,102300,1.855770412465012,0.0
341,2.19756817817688,2.103720864944891,1.2761077744785374,4.1710476282481315,0.9651821932202065,0.0,0.1592975294408908,0.1,0.005371570587158203,0.0720672607421875,0.050163027,0.8067755,2.3952284219487434,0.0,0.02768057675747292,0.0,300,0.03585457801818848,0.3138877398458214,0.3120605268319127,102600,1.3992522499026079,0.0
342,2.9218714237213135,2.8462177297830062,2.424002500346389,6.899590897583973,0.5758378700103458,0.0,0.15407178235137226,0.1,0.0034818649291992188,0.061910390853881836,0.04979019,1.3200752,2.4403273527321696,0.0,0.03792531460071168,0.0,300,0.19804859161376953,0.5051219938081685,0.49614227874551414,102900,3.4030818731545556,0.0
343,1.999194860458374,3.420525355908101,0.7338610926518687,4.2238603422201795,2.2407820441886965,0.0,0.15134942505675666,0.1,0.0033342838287353516,0.05997204780578613,0.05035366,0.743844,2.538347153049763,0.0,0.045042498414186456,0.0,300,0.19605493545532227,0.1728048952400805,0.1356529109399534,103200,1.242657927827423,0.0
344,1.9986205101013184,2.80919404463881,1.399293774425348,4.238379885519413,0.5370943775975339,0.0,0.1637578586981998,0.1,0.003467559814453125,0.06159090995788574,0.049740653,0.7750021,2.565431842208668,0.0,0.0373802074251854,0.0,300,0.04647946357727051,0.30287029063481796,0.2907843050201763,103500,4.018731029715026,0.0
345,1.947767972946167,3.1538873990811656,1.2543187032127376,4.7804354998776235,1.8329870559598322,0.0,0.1656073214600972,0.1,0.07182645797729492,1.0933871269226074,0.050205838,0.78593373,2.6242773978959177,0.0,0.04193932535810906,0.0,300,0.03284764289855957,0.236231326317963,0.2222840133911712,103800,5.998710319945439,0.0
346,2.4576923847198486,1.5183300919970866,1.1561254609060114,3.3882345993772343,0.4681108934033275,0.0,0.15256506189862462,0.1,0.07289814949035645,1.1775085926055908,0.049026933,1.4072081,2.5136826673060346,0.0,0.020254328756556667,0.0,300,0.07485842704772949,0.9330567349252447,0.87964826824042,104100,5.894485938562624,0.0
347,2.0248422622680664,4.059498034151609,1.2585257318463872,5.969411347207033,2.4870701341960904,0.0,0.1586016245406097,0.1,0.06972670555114746,0.06116461753845215,0.049926173,1.1568234,2.668264203990592,0.0,0.05410794149873036,0.0,300,0.04666447639465332,0.19657224298183626,0.19119434973475558,104400,0.9401416807075892,0.0
348,2.011532783508301,2.522554908691661,1.3514631733846167,4.758871144375022,1.2012625606959277,0.0,0.15119421013624135,0.1,0.003305673599243164,0.06110262870788574,0.05038904,0.90216684,2.653693274460699,0.0,0.03348650205640975,0.0,300,0.03235054016113281,0.24636498193855416,0.24935427664150106,104700,1.0559171308316466,0.0
349,1.8917162418365479,2.3611197557693764,1.8408709688567442,5.537584947114996,1.0449618371341567,0.0,0.15266823798304743,0.1,0.003451108932495117,0.06250739097595215,0.050069973,1.614327,2.6244359225915668,0.0,0.03147831985703411,0.0,300,0.031897783279418945,0.45086120302184796,0.4381277598357769,105000,0.9310415899980171,0.0
350,1.8890306949615479,2.6066959042728444,1.3341930676064284,4.814742290766368,1.442123770838272,0.0,0.15526197722039997,0.1,0.0043697357177734375,0.06273484230041504,0.05037295,0.9483241,2.6226619207596946,0.0,0.03447442782252995,0.0,300,0.03455090522766113,0.34427805261061906,0.3310964243529065,105300,0.9121255793331143,0.0
351,1.959836483001709,2.5987417688640635,1.450748322783246,4.886927359211295,1.0194184113543736,0.0,0.15483928989471343,0.1,0.0032951831817626953,0.06348752975463867,0.049651053,0.8759878,2.6202699055701317,0.0,0.03451106286408218,0.0,300,0.03252363204956055,0.32989782830013725,0.3212208539847597,105600,1.2455870163782468,0.0
352,1.8921313285827637,2.8358300834572487,1.250153682677716,4.682089961496759,1.4191921751881313,0.0,0.15817309156614442,0.1,0.003441333770751953,0.059224605560302734,0.04965419,1.0487009,2.6418259233588435,0.0,0.03783475815102177,0.0,300,0.06471776962280273,0.23793609112614408,0.2398426410209201,105900,0.8767618297428738,0.0
353,2.4178237915039062,3.890743677264022,1.2160786491012834,5.670507361655007,2.2514320546543747,0.0,0.15706488600429058,0.1,0.003194093704223633,0.05918717384338379,0.049929783,0.9590921,2.7667176987493614,0.0,0.051693532092229585,0.0,300,0.08532428741455078,0.24027572112525664,0.213938885288833,106200,0.7112315666493919,0.0
354,1.9721736907958984,2.6850228177256414,1.1364010713238788,4.612165379965527,1.7008719697833552,0.0,0.16032343904588992,0.1,0.003190755844116211,0.06064915657043457,0.049800407,0.8117416,2.7585482106469894,0.0,0.03571585997730536,0.0,300,0.03331565856933594,0.18669185778736594,0.19149234454973185,106500,0.6483119843366189,0.0
355,2.149794816970825,2.2734020624047857,1.9559367366413227,4.459209738580041,0.281513778392882,0.0,0.1468304921670968,0.1,0.0031571388244628906,0.06863021850585938,0.050179806,0.73281807,2.710033595822769,0.0,0.030352156653664426,0.0,300,0.031384944915771484,0.4400029806001078,0.4355331081554861,106800,0.6098871464214214,0.0
356,2.36415696144104,4.300717949214448,1.0871070006175163,5.811024369012601,3.249132399241277,0.0,0.15834536162420784,0.1,0.09273457527160645,1.5235657691955566,0.04969127,0.9064956,2.8691020311619373,0.0,0.05702751694585634,0.0,300,0.35315489768981934,0.19448927656088574,0.16097978136001345,107100,0.7749885424553632,0.0
357,2.490744113922119,2.0108754997193676,0.647399347225013,3.037972657133604,1.2681356614330614,0.0,0.1487593763131466,0.1,0.09770631790161133,1.5465679168701172,0.04964733,0.6552888,2.78327937801768,0.0,0.026600426686188734,0.0,300,0.3953852653503418,0.4013063575252939,0.4252926705769608,107400,0.7335388392967729,0.0
358,2.308846950531006,2.5414037301977483,1.0457819761771727,3.713947354259139,0.8548651027796436,0.0,0.15898176124244096,0.1,0.0036363601684570312,0.06261348724365234,0.04974513,0.6832186,2.759091813235687,0.0,0.03385091049239983,0.0,300,0.12051749229431152,0.24108223368429343,0.20589618825992925,107700,0.7938771650666808,0.0
359,2.2353224754333496,2.3405265800764923,0.432264067048773,3.0563499817341175,1.8973381417226658,0.0,0.15153296051592444,0.1,0.0031387805938720703,0.0597996711730957,0.049588755,1.3440543,2.717235289919768,0.0,0.03117626572363607,0.0,300,0.036092281341552734,0.13686458364220305,0.07490059613059906,108000,0.8618005632480243,0.0
360,2.1980011463165283,4.434671406099969,1.5019380570457423,6.9506418829307215,3.019449238161154,0.0,0.1614251204055155,0.1,0.00569605827331543,0.059978485107421875,0.050041463,0.93533987,2.8889789015377882,0.0,0.05890973872127874,0.0,300,0.061571359634399414,0.2823118191126872,0.27313983620274035,108300,0.8683309287347069,0.0
361,2.487957239151001,2.589710372121639,1.3222798583304585,3.8634574639079857,0.39775389175016396,0.0,0.15019460396030782,0.1,0.09887838363647461,0.5917012691497803,0.050123293,0.64162046,2.8590520485961735,0.0,0.03421477921248378,0.0,300,0.2550036907196045,0.22263544661493526,0.2180800036667405,108600,0.8312683154948471,0.0
362,2.8648769855499268,3.392649795596326,1.487670691718779,5.131173554212482,1.0553895311124184,0.0,0.15909110446329303,0.1,0.08429813385009766,1.4366726875305176,0.05017098,0.7025224,2.9124118232961886,0.0,0.045005801920212585,0.0,300,0.3686063289642334,0.23576032550543688,0.2239842854720781,108900,0.7642541687646646,0.0
363,2.6972482204437256,3.1679829013027576,1.6313210335058115,4.81386300660556,1.1958161794876845,0.0,0.15994485762106073,0.1,0.09442424774169922,1.0995185375213623,0.049999967,1.038193,2.9379689310968455,0.0,0.042079577910180105,0.0,300,0.07163453102111816,0.29217091450559196,0.289748599471056,109200,0.8060046783575766,0.0
