iteration,time_sampling,stoc_pol_mean,stoc_pol_std,stoc_pol_max,stoc_pol_min,rollout_success,alpha,delta,time_vpg,time_npg,kl_dist,surr_improvement,running_score,rwd_sparse,rwd_dense,success_percentage,num_samples,time_VF,VF_error_before,VF_error_after,env_samples,eval_score,eval_success
0,1.1464107036590576,0.035288151189584595,0.017376393933505114,0.06461115278186161,0.020109917628774416,0.0,0.14327358123113426,0.1,0.05587887763977051,0.057962656021118164,0.053096533,0.8807303,0.035288151189584595,0.0,0.0006474251787940058,0.0,200,0.03399348258972168,25.343291935557943,3.8716512044652465,200,0.03158078341622363,0.0
1,1.0185458660125732,0.03010426335681292,0.00999042538783214,0.04121521568071257,0.018217694526093262,0.0,0.14035514341840533,0.1,0.0027458667755126953,0.054084062576293945,0.047032736,0.5151753,0.03476976240630743,0.0,0.0005943743260699287,0.0,200,0.019530296325683594,5.4684575705435865,1.7834451965078029,400,0.028637608244814317,0.0
2,1.1158759593963623,0.03900338414901662,0.01678610243948002,0.06690587088467893,0.022031403646063447,0.0,0.16415639395400158,0.1,0.002811431884765625,0.05221104621887207,0.060216106,0.9332801,0.03519312458057835,0.0,0.0007731626917107789,0.0,200,0.014190196990966797,1.4584365764808715,2.611567676081698,600,0.02616938212291521,0.0
3,1.0651962757110596,0.03216238802902784,0.011475428108538532,0.0506542156695784,0.022365843248209043,0.0,0.14734805166760567,0.1,0.002775907516479492,0.05247998237609863,0.055526916,1.113028,0.0348900509254233,0.0,0.0006032569678259376,0.0,200,0.013852596282958984,1.8469082020905903,0.46947986564407657,800,0.02620688181759803,0.0
4,1.0944428443908691,0.0351991812612281,0.011133633733519758,0.043027225776972905,0.01600257268324378,0.0,0.14918145146989503,0.1,0.0026350021362304688,0.051357269287109375,0.049917296,0.8930429,0.03492096395900378,0.0,0.0007258087344068439,0.0,200,0.015528202056884766,0.48046382706808427,0.4095653285123296,1000,0.025231579640037614,0.0
5,1.0940589904785156,0.028080518276201335,0.011025335126501813,0.03936336953583002,0.012235581215238623,0.0,0.14700851546010454,0.1,0.003634214401245117,0.05159497261047363,0.051435098,1.0892801,0.034236919390723534,0.0,0.0005567550974093549,0.0,200,0.018612146377563477,0.4508910378081226,0.6963757961965051,1200,0.02958020809363165,0.0
6,1.123595952987671,0.035132285714619654,0.012024277478824053,0.054757983248126654,0.023010150823348438,0.0,0.14947156372987655,0.1,0.0026373863220214844,0.05274772644042969,0.05628377,1.6064302,0.03432645602311315,0.0,0.0007386029713919529,0.0,200,0.013761758804321289,0.7982277148013407,0.7210932163326046,1400,0.03269284898478906,0.0
7,1.1515531539916992,0.04238184366748217,0.00774107682531004,0.05488696124780911,0.03450563159730086,0.0,0.14652448208172128,0.1,0.0027418136596679688,0.05174064636230469,0.04903996,0.8281276,0.03513199478755005,0.0,0.0008311249194051582,0.0,200,0.013933897018432617,0.6910033566549421,0.3597722270730129,1600,0.0340426151752312,0.0
8,1.123220682144165,0.07359570960612208,0.06027080692974984,0.17402184417492667,0.026399595680746197,0.0,0.14614820579196483,0.1,0.00278472900390625,0.05338287353515625,0.053371146,1.8084604,0.03897836626940726,0.0,0.0014726673495457432,0.0,200,0.014015913009643555,0.7205568139018295,0.5349246211603592,1800,0.03457033062781593,0.0
9,1.0804989337921143,0.04931379202513487,0.01685766915351825,0.06308251759071393,0.02056462544721106,0.0,0.13822138458672556,0.1,0.0028700828552246094,0.05347609519958496,0.051002894,1.6122762,0.04001190884498002,0.0,0.0009141511662032833,0.0,200,0.013439178466796875,0.2791614647634222,0.5006673998275862,2000,0.035681014550249066,0.0
10,1.1575098037719727,0.039123939414377966,0.023665201857456696,0.07988662215254812,0.022116768247791206,0.0,0.14061472111576326,0.1,0.002725362777709961,0.05756783485412598,0.049304616,1.9241666,0.039923111901919814,0.0,0.0007838266267484832,0.0,200,0.015000581741333008,1.2694376824365121,0.8129907338163861,2200,0.03296227035782937,0.0
11,1.0698270797729492,0.05221348676509835,0.01942223774004713,0.07207615567725996,0.021328616799413724,0.0,0.1374878983298831,0.1,0.003226757049560547,0.0529475212097168,0.050662115,1.0323844,0.04115214938823767,0.0,0.001058786273042955,0.0,200,0.013711929321289062,0.28379775208445607,0.2377572510972824,2400,0.04029624428224266,0.0
12,1.1142799854278564,0.06118274530898421,0.017033190619336412,0.0814408622007919,0.034615835798786534,0.0,0.1447801901528426,0.1,0.0027070045471191406,0.05214238166809082,0.05334738,1.1459924,0.043155208980312325,0.0,0.001224464296162266,0.0,200,0.013662099838256836,0.3087560534761071,0.3570425045193585,2600,0.04995657403574614,0.0
13,1.0874593257904053,0.04764902937957893,0.028508481670752667,0.09328645978863212,0.01633118290071164,0.0,0.13557969340258333,0.1,0.002679109573364258,0.052059173583984375,0.04915949,1.3485024,0.04360459102023899,0.0,0.0009532167701507342,0.0,200,0.01309514045715332,0.44448330667494024,0.4255753623367947,2800,0.05145705349871307,0.0
14,1.163851022720337,0.11681235704217649,0.11981844418931965,0.3230153884149473,0.03209749033324086,0.0,0.14141844988023167,0.1,0.0027208328247070312,0.0513768196105957,0.04992971,1.4582307,0.050925367622432736,0.0,0.0023067360811017627,0.0,200,0.013208389282226562,0.7891663253791177,0.6684395242638349,3000,0.0555993125240313,0.0
15,1.1509921550750732,0.05218397544396052,0.015559875238188772,0.07879944563996867,0.039402213906174655,0.0,0.13377296196968982,0.1,0.002744913101196289,0.05241131782531738,0.049915433,1.4363354,0.05105122840458552,0.0,0.0010353429701997602,0.0,200,0.014282464981079102,0.7252008955936803,1.3307727383556072,3200,0.06335074304922175,0.0
16,1.1423180103302002,0.06265030229197449,0.021411168150072157,0.09943001057917357,0.045934621135358435,0.0,0.1366511287900654,0.1,0.0028209686279296875,0.05252385139465332,0.048521537,2.2045727,0.05221113579332442,0.0,0.0012222671288885044,0.0,200,0.013291597366333008,0.35151700268840314,0.2524218272620849,3400,0.06987670567613119,0.0
17,1.1381542682647705,0.08629386510916572,0.03048987052393147,0.135530197157761,0.05404409103719502,0.0,0.1408813439376019,0.1,0.0026273727416992188,0.05147886276245117,0.048478737,1.1355832,0.055619408724908545,0.0,0.0016744248311576526,0.0,200,0.014362096786499023,0.21486220310383314,0.22957179514438916,3600,0.09958765823661542,0.0
18,1.1519513130187988,0.1141217424926543,0.10718057316703039,0.2937434245793108,0.021284997961420776,0.0,0.1355050003523634,0.1,0.002785921096801758,0.05162835121154785,0.050985117,1.8101268,0.061469642101683125,0.0,0.002277599360243374,0.0,200,0.012830495834350586,0.6446957574540707,0.5850279977133449,3800,0.10186849618715255,0.0
19,1.1853315830230713,0.07544581916780921,0.017860269566438144,0.09371585045575541,0.04765273045488689,0.0,0.13913327939807854,0.1,0.0026426315307617188,0.052367448806762695,0.050322104,1.0253956,0.06286725980829573,0.0,0.0015011962357940243,0.0,200,0.01300501823425293,0.1607604979024819,0.22533579153303662,4000,0.12043849323776477,0.0
20,1.1642920970916748,0.1467530639607626,0.11116507446258653,0.3240972796714153,0.04356435001093073,0.0,0.13989116726750295,0.1,0.0027213096618652344,0.05277299880981445,0.050405875,1.8595793,0.07125584022354242,0.0,0.0029459018308245393,0.0,200,0.013353824615478516,0.555727728309808,0.49396645074082407,4200,0.13931213825040162,0.0
21,1.212153434753418,0.1688976873455415,0.22723367291548463,0.5622831418836569,0.02705948225981951,0.0,0.13106657391421717,0.1,0.0026743412017822266,0.05286359786987305,0.051854577,2.9735217,0.08102002493574234,0.0,0.003366258718797528,0.0,200,0.013707876205444336,0.7152763040773612,0.6897968952374266,4400,0.1529232605801649,0.0
22,1.186953067779541,0.18399392777855672,0.2043476307748244,0.5366038174539756,0.037896011958716745,0.0,0.14605674860054946,0.1,0.002717733383178711,0.05257368087768555,0.04985799,1.7117741,0.09131741522002378,0.0,0.0036636398818081606,0.0,200,0.01432347297668457,0.6375641385784571,0.632768535507011,4600,0.19194103909173565,0.0
23,1.188964605331421,0.1564596770085155,0.14388929437312625,0.4023265183407736,0.03779746894052812,0.0,0.1428352439685963,0.1,0.0026977062225341797,0.05212140083312988,0.049995717,1.5803119,0.09783164139887296,0.0,0.0031072565311460717,0.0,200,0.013221502304077148,0.5718794020420643,0.5400627049122286,4800,0.251232271042426,0.0
24,1.1991374492645264,0.07652070713564937,0.05141758664061191,0.16346792285128253,0.02939210886700738,0.0,0.14019243662086436,0.1,0.002646923065185547,0.05434679985046387,0.05045187,0.85253644,0.0957005479725506,0.0,0.0015180461492577389,0.0,200,0.01344752311706543,1.3885508860867724,0.3991742493464688,5000,0.21019778640676656,0.0
25,1.1823248863220215,0.05435055275267971,0.020510449926054306,0.08420512107058338,0.027362251092692212,0.0,0.1289266003362339,0.1,0.00267791748046875,0.05267691612243652,0.04980673,0.91004676,0.09156554845056351,0.0,0.0010593760416391618,0.0,200,0.015581846237182617,0.7338350476037907,0.5195552679240759,5200,0.21734532511751017,0.0
26,1.1660356521606445,0.0712664322300826,0.03779092159438075,0.1318885041617281,0.0284374512672889,0.0,0.13965970304034678,0.1,0.0029735565185546875,0.05389118194580078,0.049602885,1.1292385,0.08953563682851542,0.0,0.0014037247519978694,0.0,200,0.013318061828613281,0.6415058109533213,0.7995243218147313,5400,0.272698143329067,0.0
27,1.0962622165679932,0.047317878188239286,0.01961541343600472,0.07745496865715429,0.023939087022411678,0.0,0.1352814177116406,0.1,0.002836942672729492,0.05857968330383301,0.049373504,0.98914605,0.08531386096448781,0.0,0.0009489402417948726,0.0,200,0.014816999435424805,0.6830424186348365,0.4297490883822195,5600,0.21255598177301271,0.0
28,1.1193020343780518,0.10412012538525175,0.06897398063612298,0.2044817308701935,0.03673097613568261,0.0,0.13625289856693582,0.1,0.0026574134826660156,0.05230998992919922,0.050630108,1.7532959,0.08719448740656421,0.0,0.0021039804008446453,0.0,200,0.013788700103759766,0.7473987607016547,0.5281682850877496,5800,0.23869706809864413,0.0
29,1.1865859031677246,0.12443061574508817,0.10209307773408348,0.27916266469493506,0.008017820957468386,0.0,0.13791606029716838,0.1,0.0026972293853759766,0.05180644989013672,0.05071003,1.5368205,0.09091810024041662,0.0,0.0025176510157819574,0.0,200,0.014435768127441406,0.6580189788163864,0.5147940718166364,6000,0.29521078978924625,0.0
30,1.155137538909912,0.1819000976528632,0.08887603347776597,0.25924720448664634,0.030838239988222122,0.0,0.1462412965067474,0.1,0.002772808074951172,0.05271553993225098,0.049883354,0.8508794,0.10001629998166128,0.0,0.003607200448128678,0.0,200,0.013415098190307617,0.4226311540520972,0.3256904459269324,6200,0.26509726442773,0.0
31,1.1689372062683105,0.08778830864158804,0.03474986145340948,0.12049554691980854,0.030178447741563696,0.0,0.14660129160009594,0.1,0.002744436264038086,0.05222606658935547,0.048929796,0.7450438,0.09879350084765395,0.0,0.0017501946553620273,0.0,200,0.013492822647094727,1.2532743379313287,1.0474485524480743,6400,0.27727137192726015,0.0
32,1.1502606868743896,0.05758505324491932,0.0055895397376062245,0.06299623503224591,0.04965559934640026,0.0,0.1422105158487859,0.1,0.0027475357055664062,0.05195951461791992,0.051529974,0.9402656,0.09467265608738049,0.0,0.0011414139461215491,0.0,200,0.013728618621826172,4.024325994122159,0.7984624989463375,6600,0.38501572173945875,0.0
33,1.2480964660644531,0.08907919020769489,0.03242688477101781,0.126667225972301,0.0439269872015269,0.0,0.1461850006630925,0.1,0.002758026123046875,0.052825927734375,0.049503185,0.8687465,0.09411330949941192,0.0,0.0017498418378177386,0.0,200,0.014194965362548828,0.25697793966341576,0.3409756330336088,6800,0.3879613775228305,0.0
34,1.1922786235809326,0.10467244807170874,0.04709299833749008,0.18492788238680025,0.07005760722796954,0.0,0.1388981389575164,0.1,0.0026705265045166016,0.051882028579711914,0.04906767,1.3035405,0.0951692233566416,0.0,0.002087159211100013,0.0,200,0.013889551162719727,0.44836572941610564,0.5378610988968373,7000,0.3491887026626867,0.0
35,1.258310317993164,0.18818362306326433,0.15567992451660503,0.4325092148276733,0.03324922347414299,0.0,0.1338190052184374,0.1,0.0027666091918945312,0.05238962173461914,0.0500943,1.8669674,0.10447066332730387,0.0,0.00376721776512328,0.0,200,0.014241456985473633,0.8056764946458398,0.7275242433558947,7200,0.33176565943929115,0.0
36,1.2017779350280762,0.1025528816876762,0.06847404636498378,0.20381615331293054,0.033498120693427946,0.0,0.1357591075265504,0.1,0.0040094852447509766,0.05295920372009277,0.050414428,1.3384247,0.1042788851633411,0.0,0.0020395084691180263,0.0,200,0.013179302215576172,0.5024495921810201,0.43726901531270046,7400,0.3843091852022527,0.0
37,1.209362506866455,0.09403557747437934,0.027713549036547557,0.1403538313588098,0.06784511094432498,0.0,0.14602881777814147,0.1,0.0026857852935791016,0.055188655853271484,0.049683794,0.8539611,0.10325455439444493,0.0,0.0018015450138352416,0.0,200,0.012939453125,0.17176579198796263,0.20650175395889464,7600,0.37826068417772224,0.0
38,1.2137627601623535,0.33306860721677056,0.2458603922512319,0.7229991841741865,0.05280328031805153,0.0,0.13941179627128908,0.1,0.002620220184326172,0.05315113067626953,0.049413767,1.5081271,0.1262359596766775,0.0,0.006682111588725911,0.0,200,0.012795686721801758,0.6970120678531033,0.5746964556278717,7800,0.3892469074008614,0.0
39,1.2549147605895996,0.3144196203415802,0.17472284416880754,0.45591034967616867,0.02196105989022457,0.0,0.1386432396910204,0.1,0.0027208328247070312,0.05292320251464844,0.049594507,0.930629,0.14505432574316776,0.0,0.006258472554701291,0.0,200,0.01385188102722168,0.4658718901159058,0.3179047878645437,8000,0.8212851055406848,0.0
40,1.1653575897216797,0.16847232558587655,0.14273620752322316,0.40680807539432595,0.02852302821547308,0.0,0.14942578801167708,0.1,0.0029020309448242188,0.05423736572265625,0.04997328,1.4146011,0.14739612572743865,0.0,0.0033587177480508264,0.0,200,0.014050483703613281,0.8380718202964157,0.9211882896046757,8200,1.4479662979048067,0.0
41,1.1704697608947754,0.26529053303053896,0.21363771804434067,0.63148939091229,0.09695640743527592,0.0,0.141024124682171,0.1,0.002779245376586914,0.05341625213623047,0.049757775,1.3852997,0.15918556645774867,0.0,0.005297151095523957,0.0,200,0.015334367752075195,0.5018365268921958,0.4577528261667303,8400,1.4287571808758317,0.0
42,1.1801631450653076,0.30050692558753944,0.19038223543498317,0.6197680359541116,0.11640976599629323,0.0,0.1408190597744188,0.1,0.0028340816497802734,0.05527162551879883,0.05017251,1.5070795,0.17331770237072777,0.0,0.005975702184799096,0.0,200,0.01361703872680664,0.38215731693828814,0.3972848848327931,8600,1.2888420103463694,0.0
43,1.1913747787475586,0.6621142728898559,0.4335628499432954,1.31813365087867,0.26797563079722403,0.0,0.1396894448876727,0.1,0.0027053356170654297,0.05190634727478027,0.05046301,1.4871968,0.22219735942264057,0.0,0.013231052797241195,0.0,200,0.01508641242980957,0.6362041108551115,0.5263330716008285,8800,1.1762215551081907,0.0
44,1.1839725971221924,0.4913586040019376,0.5653531602850888,1.4535322242593063,0.05348811437013673,0.0,0.14547159977765894,0.1,0.0026540756225585938,0.052097320556640625,0.050792094,1.3777806,0.24911348388057028,0.0,0.009783918161111507,0.0,200,0.015270709991455078,0.7036548067467452,0.6648795818083526,9000,1.6162309460286914,0.0
45,1.1717314720153809,0.350728973812881,0.32331262632660024,0.8917600400162087,0.05936700082563383,0.0,0.13168490818783982,0.1,0.0027124881744384766,0.05175065994262695,0.049629927,1.60776,0.2592750328738013,0.0,0.007010315813309328,0.0,200,0.015064477920532227,0.6554080946511192,0.6781013433009042,9200,1.1599646870174802,0.0
46,1.2164289951324463,0.3564762877075551,0.26011728827418656,0.7087969945116256,0.05480264411531267,0.0,0.13448021601334814,0.1,0.002752542495727539,0.05301690101623535,0.04955682,1.0581217,0.2689951583571767,0.0,0.007088942922585471,0.0,200,0.014718055725097656,0.5197511297707855,0.4112176842308078,9400,2.1820593068177483,0.0
47,1.1607067584991455,0.2662780319797216,0.24058431427357027,0.6818882073698291,0.1092016816823335,0.0,0.1311017272573555,0.1,0.00281524658203125,0.05482602119445801,0.049691427,1.5669421,0.2687234457194312,0.0,0.005248469896307267,0.0,200,0.01761031150817871,0.6830297547212226,0.49290554089967087,9600,2.039513029314648,0.0
48,1.1712079048156738,0.36470892807410965,0.1930444424385928,0.5771005258952492,0.11400606397865334,0.0,0.1372117448814164,0.1,0.00286865234375,0.053224802017211914,0.05033943,1.0999225,0.27832199395489904,0.0,0.00727155110540624,0.0,200,0.014663934707641602,0.31896404927707234,0.3686907282036758,9800,1.7626419941034082,0.0
49,1.2038285732269287,0.45641793012602055,0.5875227850274929,1.4709345466327464,0.05577261757203555,0.0,0.13605076151482548,0.1,0.0028345584869384766,0.05316019058227539,0.04972679,1.6219655,0.2961315875720112,0.0,0.009105387868977863,0.0,200,0.013709545135498047,0.7402349305433179,0.7096395046457205,10000,2.5885087719064552,0.0
50,1.206895351409912,0.4074211028504444,0.18043352144091704,0.6072535000453144,0.11738127768583169,0.0,0.14024589465349807,0.1,0.002746105194091797,0.051740169525146484,0.050235197,0.9440744,0.3072605390998545,0.0,0.008145106373241772,0.0,200,0.014883279800415039,0.3139470622026237,0.24285201998576936,10200,1.497734571315582,0.0
51,1.192051649093628,0.44374923617636075,0.08105717143364939,0.5742687034995285,0.3517581773505804,0.0,0.14352068888865246,0.1,0.0027599334716796875,0.052916526794433594,0.050598335,0.9475448,0.3209094088075051,0.0,0.00887377547218086,0.0,200,0.013428688049316406,0.13464340753493928,0.11410849225302407,10400,1.7940484018132823,0.0
52,1.197953224182129,0.2602682272777795,0.19241149351368894,0.5637265761118684,0.04879113164413387,0.0,0.13303827816654215,0.1,0.002689361572265625,0.05180001258850098,0.05008748,1.0284098,0.3148452906545326,0.0,0.005187154881148368,0.0,200,0.013424396514892578,0.7836034826093723,0.7167044453021018,10600,1.8392028168252181,0.0
53,1.194368839263916,0.7924200261702268,0.3977624268329924,1.3538347361247602,0.23238713625341428,0.0,0.13817475471623655,0.1,0.002720355987548828,0.05756545066833496,0.0503736,1.302874,0.36260276420610205,0.0,0.015805278107708244,0.0,200,0.01594066619873047,0.4125649474553251,0.37146847426024604,10800,0.5627053085356799,0.0
54,1.238173007965088,0.8785891927066009,0.4601196338844589,1.5159045837358842,0.269303345435765,0.0,0.12783314681778257,0.1,0.0027189254760742188,0.05178952217102051,0.049071718,1.8471422,0.41420140705615194,0.0,0.0174874122345746,0.0,200,0.013374567031860352,0.41365700390295584,0.29293201763905485,11000,0.5500090056340089,0.0
55,1.2346649169921875,0.45802143007620555,0.12751911102307537,0.5938676860360627,0.2813742122654221,0.0,0.13400459567901032,0.1,0.003088235855102539,0.05169057846069336,0.050164375,0.89032257,0.4185834093581573,0.0,0.00896803705158223,0.0,200,0.013317346572875977,0.3536857901593821,0.5266842802100029,11200,0.3295637467942633,0.0
56,1.2436275482177734,0.2498950392861469,0.10758699608185657,0.4332314576546721,0.16936646821685367,0.0,0.1310936425991876,0.1,0.0026645660400390625,0.05130600929260254,0.049954463,1.0259178,0.4017145723509563,0.0,0.004836724089798614,0.0,200,0.013148784637451172,4.00517819469028,1.5588309658880501,11400,0.4288551752066317,0.0
57,1.2313385009765625,0.5885515471806722,0.41319821625429287,1.20174133857708,0.03813529607603666,0.0,0.13361613382920065,0.1,0.002641439437866211,0.0513453483581543,0.049803715,1.149499,0.4203982698339279,0.0,0.011756574794422412,0.0,200,0.013337135314941406,0.4103380983134282,0.45741018920875076,11600,0.549264378444666,0.0
58,1.2528672218322754,0.3615393436198946,0.2232351656031268,0.7459843195303095,0.2092035987745947,0.0,0.13338304826303676,0.1,0.002654552459716797,0.05141186714172363,0.049600687,1.555077,0.4145123772125246,0.0,0.007234081212632522,0.0,200,0.01277303695678711,0.3330748804251868,0.3313702949381175,11800,0.2307386152229698,0.0
59,1.2290387153625488,0.364153313699126,0.294736413134253,0.8179662911759751,0.0865905996453591,0.0,0.127058427211722,0.1,0.0028030872344970703,0.05251026153564453,0.049764764,1.748928,0.4094764708611847,0.0,0.007300304105503469,0.0,200,0.013401985168457031,0.4305343459538969,0.4563752841288455,12000,0.17537862925059308,0.0
60,1.2915081977844238,0.27963571672147725,0.18885951054005795,0.4768271767172364,0.08379688618634212,0.0,0.13600908267004305,0.1,0.002785205841064453,0.05250120162963867,0.04929243,0.9535358,0.396492395447214,0.0,0.005589740117651992,0.0,200,0.013373851776123047,0.3880948200179199,0.39627984379229403,12200,0.154428442075194,0.0
61,1.2350778579711914,0.6828038534142489,0.2584630374957423,1.00397961268438,0.32916677603709826,0.0,0.1308366978288597,0.1,0.0028350353240966797,0.053177833557128906,0.050457124,1.2316611,0.4251235412439175,0.0,0.013139266750763262,0.0,200,0.013429880142211914,0.5551360542782812,0.4784377094666139,12400,0.1389320903276858,0.0
62,1.208784580230713,0.5976789781676546,0.31978240595137175,1.087038781872669,0.2551883528731224,0.0,0.1329763544476611,0.1,0.0027313232421875,0.05282878875732422,0.050075766,1.1599952,0.4423790849362912,0.0,0.011949397193090936,0.0,200,0.013957023620605469,0.4431360004274772,0.35799326325323966,12600,0.15568132200699655,0.0
63,1.2161390781402588,0.6287187926874852,0.6084609930728314,1.6647427571945004,0.1150110283421204,0.0,0.13454952678512586,0.1,0.0027506351470947266,0.05228066444396973,0.050453596,1.5769616,0.4610130557114106,0.0,0.01237038981954256,0.0,200,0.01392221450805664,0.6208015133155308,0.5589064928908649,12800,0.1914524832674441,0.0
64,1.2177720069885254,0.6920341411578668,0.47259385899145906,1.4076183939567881,0.11015579010242513,0.0,0.1292889101007543,0.1,0.00278472900390625,0.05323624610900879,0.049407233,1.6540996,0.4841151642560562,0.0,0.013792780538353366,0.0,200,0.014336824417114258,0.4054037929170919,0.3554452805302528,13000,0.08466672637984662,0.0
65,1.1889839172363281,0.5316824160272188,0.3269958989154156,1.0177949129605615,0.11100761700210557,0.0,0.1348090680936509,0.1,0.0027391910552978516,0.053093671798706055,0.05000063,0.9943742,0.4888718894331725,0.0,0.010631247320188171,0.0,200,0.014196157455444336,0.39273156239351703,0.43165255951445436,13200,0.08455808281966487,0.0
66,1.284243106842041,1.1202279568073625,0.46782422683591174,1.9195063023052135,0.7496939788525406,0.0,0.13024652897607036,0.1,0.002712249755859375,0.05217909812927246,0.04951309,1.744115,0.5520074961705915,0.0,0.022362839130508974,0.0,200,0.013467550277709961,0.2981828947758908,0.2446883526896981,13400,0.12318250347144988,0.0
67,1.2056541442871094,0.3065753247417124,0.21567312393948937,0.6659640265921223,0.0915733006087768,0.0,0.12952918823804874,0.1,0.0026667118072509766,0.05194377899169922,0.04974423,0.8628482,0.5274642790277037,0.0,0.006143608804241326,0.0,200,0.013897895812988281,2.730798417418567,2.0914298873113766,13600,0.2548560891681488,0.0
68,1.2397825717926025,0.45473462854983954,0.25958800242996277,0.7709550483467407,0.049538516596550286,0.0,0.13544581931880464,0.1,0.0028274059295654297,0.052466392517089844,0.04988911,0.84558105,0.5201913139799172,0.0,0.009096997302611905,0.0,200,0.013488054275512695,0.6515958857135825,0.37003271763128726,13800,0.17362100198545807,0.0
69,1.2287158966064453,0.7356742658365323,0.3477690827396725,1.024124551635282,0.14226741288147135,0.0,0.12930221609087647,0.1,0.002762317657470703,0.051592111587524414,0.05085083,1.0071342,0.5417396091655788,0.0,0.014668360089127619,0.0,200,0.0215301513671875,0.26343213364891366,0.3072235114606719,14000,0.16463550653250142,0.0
70,1.216810703277588,0.47152026140347797,0.3443587276310372,1.0308932179470438,0.1455668698457472,0.0,0.1304613791844064,0.1,0.0028526782989501953,0.05321002006530762,0.04946871,1.3308657,0.5347176743893688,0.0,0.009354772847289061,0.0,200,0.01332235336303711,0.37281247983085336,0.36368201254219135,14200,0.14365102620681214,0.0
71,1.261284351348877,1.0958496254157786,1.5397950695987637,3.7579509020030226,0.05915946214205879,0.0,0.12462832410048205,0.1,0.002985715866088867,0.053609609603881836,0.048544817,1.9866394,0.5908308694920098,0.0,0.021750450592514448,0.0,200,0.015033960342407227,0.7887514230376128,0.770025438485525,14400,0.18434152210672713,0.0
72,1.271535873413086,1.0540399294752785,0.7183090918456658,2.1200819774927107,0.29088807415527373,0.0,0.1329535657720633,0.1,0.002798318862915039,0.05317997932434082,0.049310498,1.4941868,0.6371517754903367,0.0,0.02105438618534007,0.0,200,0.01328730583190918,0.5262255884904584,0.44526499084724674,14600,0.21044464039402078,0.0
73,1.2739508152008057,0.4735334803805409,0.3055703016169566,0.9901841656855005,0.1930352164082201,0.0,0.13376004208530487,0.1,0.0027468204498291016,0.052240610122680664,0.04963901,1.1251659,0.6207899459793572,0.0,0.009425114462773823,0.0,200,0.01621866226196289,0.47021773215803725,0.6233040345949394,14800,0.15347971225995968,0.0
74,1.2498831748962402,0.677731350030398,0.10981085596313586,0.8314084115956186,0.527181246536966,0.0,0.14147976410090177,0.1,0.002772808074951172,0.051688194274902344,0.049804546,1.2122931,0.6264840863844613,0.0,0.013533059228720834,0.0,200,0.015120506286621094,0.15067785208904727,0.15098116316188137,15000,0.23279334317464648,0.0
75,1.2425780296325684,0.29393847738482237,0.1435470475061637,0.5201350905233612,0.12516750278664912,0.0,0.12511274366170444,0.1,0.002791166305541992,0.05359530448913574,0.049930584,0.6694969,0.5932295254844974,0.0,0.005851600870457172,0.0,200,0.013544797897338867,2.7154116250080804,1.6456184931316356,15200,0.12941876974415992,0.0
76,1.2297248840332031,0.8773220731536138,0.5959543128660342,1.90932419222034,0.5139685047446304,0.0,0.13940967740960825,0.1,0.0026302337646484375,0.052655935287475586,0.049702547,1.2967316,0.621638780251409,0.0,0.017482999566000926,0.0,200,0.013069868087768555,0.38619311345145324,0.4150419031352742,15400,0.0867694511870456,0.0
77,1.2338979244232178,0.6960575832225779,0.5128876125044949,1.2528261157653144,0.033718835924317396,0.0,0.1298380513611204,0.1,0.0029566287994384766,0.05268406867980957,0.049802966,1.1283109,0.6290806605485258,0.0,0.013674574221973995,0.0,200,0.014778375625610352,0.37931425197058194,0.38083316710414994,15600,0.10749144567553513,0.0
78,1.18812894821167,0.514418808857724,0.14363927548524033,0.6589476430518372,0.29276784386010024,0.0,0.13620915388324575,0.1,0.0028471946716308594,0.05253314971923828,0.049740266,1.0780252,0.6176144753794457,0.0,0.01019680611701984,0.0,200,0.014666557312011719,0.19324503941301469,0.1836034407154234,15800,0.13192616122233805,0.0
79,1.2374966144561768,0.9996094211779395,0.6288188550061642,1.652146483266848,0.19886158504140644,0.0,0.13394346189030368,0.1,0.0027620792388916016,0.05269336700439453,0.049892157,1.0411167,0.6558139699592951,0.0,0.01992375947820933,0.0,200,0.014289379119873047,0.43980335637540935,0.4073422189933101,16000,0.24061966863669437,0.0
80,1.2549781799316406,1.0497953348218734,0.5537815427322266,1.7607365236344905,0.3790251671474871,0.0,0.13208279900010628,0.1,0.0028536319732666016,0.05312800407409668,0.049563598,1.3057754,0.695212106445553,0.0,0.02083186837139237,0.0,200,0.013743162155151367,0.3821956034434685,0.30269079288435924,16200,0.17748323968249058,0.0
81,1.2092156410217285,0.5101475196521844,0.26819921267027663,0.7760071302599797,0.07172380707156928,0.0,0.12808673307620072,0.1,0.0027472972869873047,0.05309462547302246,0.04941431,0.70993453,0.6767056477662161,0.0,0.010121075182835693,0.0,200,0.013745546340942383,0.4520195878868021,0.5891045437681712,16400,1.0151129395219447,0.0
82,1.2813758850097656,0.9731902545909803,0.4845333538340211,1.6348704994227616,0.2665087071861923,0.0,0.13504941793795924,0.1,0.0028083324432373047,0.05342721939086914,0.050125327,1.2263384,0.7063541084486926,0.0,0.01945105951808227,0.0,200,0.015090465545654297,0.2967722483256127,0.2931649409351806,16600,0.3154031713476548,0.0
83,1.2764694690704346,0.6085000707188504,0.19797059964961758,0.8905885599842649,0.35934824495619233,0.0,0.1278720770248527,0.1,0.003079652786254883,0.05269813537597656,0.050015155,2.0769846,0.6965687046757084,0.0,0.011907253466703143,0.0,200,0.01951289176940918,0.3778026284103266,0.30619544510133556,16800,0.40375717097726954,0.0
84,1.235107660293579,1.0329751367713658,0.3969211755127668,1.4290711046448699,0.37172447484988286,0.0,0.13365271908654194,0.1,0.0027158260345458984,0.052132606506347656,0.050182752,0.9218251,0.7302093478852741,0.0,0.020367960030508586,0.0,200,0.01550149917602539,0.2164678382663313,0.22070879393491974,17000,0.9610815957266152,0.0
85,1.2253851890563965,0.37829263483005104,0.20274636440229232,0.606824927591909,0.07207969057741023,0.0,0.13005436546543633,0.1,0.002732515335083008,0.05209040641784668,0.048636533,0.707537,0.6950176765797518,0.0,0.007540396938352633,0.0,200,0.013901233673095703,1.4531318977325625,1.1277823920987862,17200,1.06698829082875,0.0
86,1.2333214282989502,1.0672691123281743,0.5653154699697108,1.6242298112084992,0.3203343634418882,0.0,0.1315802017430356,0.1,0.002990245819091797,0.05314302444458008,0.049682774,1.1120467,0.7322428201545941,0.0,0.021319528335730385,0.0,200,0.013659954071044922,0.3523349076935397,0.36179946965148685,17400,0.5616645352471323,0.0
87,1.2665128707885742,0.6308364522322956,0.385538143234904,1.0945605737286055,0.18600972472937236,0.0,0.13668131477326959,0.1,0.002772808074951172,0.05295848846435547,0.050591156,1.1052189,0.7221021833623642,0.0,0.012509209932162061,0.0,200,0.013618230819702148,0.294066783531298,0.2846549745873236,17600,0.682837111790473,0.0
88,1.2868280410766602,1.3390261075087913,1.241788572633321,3.421235553595044,0.2901089549491751,0.0,0.1306199592040717,0.1,0.002869129180908203,0.05731987953186035,0.04986327,1.9417255,0.783794575777007,0.0,0.026551720999685925,0.0,200,0.013533830642700195,0.6087500539360767,0.5795821319891615,17800,0.45425277846653267,0.0
89,1.2934815883636475,0.8468062579828086,0.5664059817829433,1.548000215565697,0.2804154513050016,0.0,0.1319077555770723,0.1,0.0036382675170898438,0.05193376541137695,0.05031071,1.0454665,0.7900957439975871,0.0,0.016862201617599604,0.0,200,0.013236761093139648,0.36874587261038105,0.37378848244196744,18000,1.0923287446472056,0.0
90,1.3096015453338623,0.7963733834793467,0.44264826932555024,1.1978700147928407,0.07215956967361335,0.0,0.13448809686079746,0.1,0.0026111602783203125,0.055052995681762695,0.050070185,0.8000976,0.7907235079457631,0.0,0.015731515442014198,0.0,200,0.01483154296875,0.29147299869724647,0.301702232285009,18200,1.285512235187037,0.0
91,1.2922873497009277,0.3812319406173016,0.24332020359977277,0.7730803316055649,0.1672577515937341,0.0,0.13588298947322092,0.1,0.0027151107788085938,0.05174565315246582,0.05021789,0.9378804,0.7497743512129169,0.0,0.007552713565620504,0.0,200,0.014272689819335938,1.792578603664569,1.2074442232142295,18400,0.5646918729507749,0.0
92,1.3144745826721191,1.6037460301309627,0.7574768246878275,2.7416899054303703,0.7204344153359573,0.0,0.1311435657490117,0.1,0.0027272701263427734,0.051300048828125,0.049904514,1.691417,0.8351715191047215,0.0,0.03165013260270651,0.0,200,0.01349949836730957,0.4010184065683669,0.38683458949455446,18600,0.9104457794889353,0.0
93,1.268934965133667,1.5111275045660137,1.1645386099117387,3.3140112266813393,0.05773376317669886,0.0,0.1329078276353697,0.1,0.0029053688049316406,0.05529379844665527,0.049685445,1.2757686,0.9027671176508507,0.0,0.029461794312057362,0.0,200,0.012895584106445312,0.5267864451094236,0.4519411777730495,18800,0.5542950826460691,0.0
94,1.247199296951294,1.4574885383004135,0.6749758908669392,2.1422850968357574,0.5756825293405968,0.0,0.1257147118023439,0.1,0.002724885940551758,0.053252458572387695,0.0492505,1.2665383,0.958239259715807,0.0,0.02914686144293885,0.0,200,0.01433706283569336,0.2701856148394015,0.22230840781845668,19000,0.6681061626293028,0.0
95,1.2967791557312012,0.8960489407247967,0.3241154188301944,1.4288110048570195,0.5516209246239949,0.0,0.12932293048736418,0.1,0.0027916431427001953,0.05330657958984375,0.049615588,0.8127037,0.952020227816706,0.0,0.01789804892059047,0.0,200,0.013944149017333984,0.6024016991599279,0.61839753950288,19200,0.7462569509374442,0.0
96,1.2697219848632812,1.8133472984467622,0.688262267622783,2.743275653219286,0.8682039561688023,0.0,0.12896268254848178,0.1,0.002928018569946289,0.05280780792236328,0.04911336,1.1433265,1.0381529348797116,0.0,0.03621184150101994,0.0,200,0.013827323913574219,0.21985157222665166,0.219370731094214,19400,0.6054843532537906,0.0
97,1.2525782585144043,1.2835245296692748,0.5379117085097027,2.0444845702388292,0.6318204853420549,0.0,0.1352963718615268,0.1,0.0051267147064208984,0.05260658264160156,0.05009806,0.90029114,1.062690094358668,0.0,0.025238998169703483,0.0,200,0.013015031814575195,0.18699740201584464,0.1839299266583086,19600,0.4641436193255604,0.0
98,1.2851908206939697,2.2020584662755427,0.8111938410492485,3.2000986914301026,0.937044295290899,0.0,0.12800118501645602,0.1,0.0026946067810058594,0.0524592399597168,0.050441977,1.2577245,1.1766269315503552,0.0,0.04397107756356537,0.0,200,0.01600360870361328,0.24563047846786776,0.18792664348691074,19800,0.9427639146565173,0.0
99,1.2429261207580566,0.9344648764923538,0.8421266049270126,2.3624258742521316,0.21980314786680943,0.0,0.13074403254418496,0.1,0.0026807785034179688,0.05216813087463379,0.050428767,1.0758233,1.152410726044555,0.0,0.018460741233301953,0.0,200,0.02581787109375,0.8280127590478267,0.8200250889314074,20000,0.946065930390549,0.0
100,1.2770838737487793,0.5362159088886105,0.18859565522045682,0.7208197402439505,0.22253003080159586,0.0,0.1408262040333631,0.1,0.0027916431427001953,0.05218243598937988,0.05053427,0.8130714,1.0907912443289607,0.0,0.0106225792621788,0.0,200,0.014094114303588867,3.538148751701272,1.6401851359208375,20200,1.231854330644307,0.0
101,1.2980945110321045,1.2220911283342968,1.3633243085926696,3.5523487186120084,0.08569264735814215,0.0,0.1279339261963392,0.1,0.0029604434967041016,0.05193495750427246,0.049334336,1.847767,1.1039212327294943,0.0,0.02433313898070092,0.0,200,0.014649152755737305,0.5726230809465024,0.5900870853590551,20400,1.325105973871717,0.0
102,1.259502649307251,1.0181216287649137,0.7238399752361274,2.1403635866105644,0.19973629158598555,0.0,0.13239108153441775,0.1,0.0027217864990234375,0.05373358726501465,0.04964204,1.5445981,1.0953412723330362,0.0,0.01970934114670979,0.0,200,0.01382899284362793,0.4525094283377732,0.4303242534911328,20600,1.1910009896428868,0.0
103,1.2455506324768066,0.942457144340715,0.9565751490418539,2.5967344532997414,0.3140187324708912,0.0,0.13321444008505778,0.1,0.0027267932891845703,0.05207538604736328,0.04918991,1.6473001,1.0800528595338041,0.0,0.018781142478443355,0.0,200,0.013344049453735352,0.5533572446207936,0.5486633068048129,20800,0.5717869419501255,0.0
104,1.2490570545196533,0.6238355974049162,0.3545937035190692,1.112155723832434,0.204033576720475,0.0,0.12853803849369586,0.1,0.002794981002807617,0.05176043510437012,0.05010322,1.369764,1.0344311333209153,0.0,0.012381192748271649,0.0,200,0.012777566909790039,0.38644748869362644,0.35930283858347983,21000,0.6235479414830025,0.0
105,1.270550012588501,1.3490283686490216,1.1413294591670955,3.2546180957083717,0.2598349071081726,0.0,0.13273135565476638,0.1,0.0026810169219970703,0.052075862884521484,0.04985072,1.8145895,1.065890856853726,0.0,0.02669737087649613,0.0,200,0.01308298110961914,0.5405548460083479,0.5269771034675155,21200,0.35546306200417543,0.0
106,1.3440134525299072,1.288052333710678,0.4095004854947976,1.9938313897992979,0.9874768989055341,0.0,0.1320013397994509,0.1,0.0027866363525390625,0.05304431915283203,0.050364062,2.0326395,1.0881070045394212,0.0,0.025734084081699023,0.0,200,0.01336216926574707,0.20924708969960998,0.17498640825307887,21400,0.527913673890505,0.0
107,1.3137962818145752,1.2304649002275458,0.4785222867540064,1.6727347016477445,0.44041612262608415,0.0,0.13024567558259803,0.1,0.002768993377685547,0.05265617370605469,0.049431942,0.96278673,1.1023427941082335,0.0,0.0242256932998112,0.0,200,0.01625800132751465,0.22730388507841812,0.21211773376780005,21600,0.6350756586230389,0.0
108,1.318014144897461,0.8122102892385793,0.49547304684759924,1.611593551821117,0.2521681079546246,0.0,0.13460901142356416,0.1,0.0028007030487060547,0.0525202751159668,0.04935171,1.5837665,1.0733295436212682,0.0,0.015882213178082884,0.0,200,0.013407468795776367,0.4309141404412499,0.42049338174262946,21800,0.5733790247607886,0.0
109,1.2989542484283447,1.7412812852795947,1.7822979026331403,4.7702333447432475,0.25565763718766366,0.0,0.13173834458039793,0.1,0.0027921199798583984,0.0521547794342041,0.051285353,1.8770679,1.140124717787101,0.0,0.0345543686343011,0.0,200,0.012689590454101562,0.5746192850268317,0.5601150356532837,22000,0.8585351181773472,0.0
110,1.3142800331115723,1.0210843660006796,0.21097090146118375,1.3704482625467438,0.8462054626016958,0.0,0.12691698197357423,0.1,0.002775907516479492,0.052901506423950195,0.049335837,1.10183,1.1282206826084589,0.0,0.02006036707180668,0.0,200,0.013004779815673828,0.14362764178573734,0.14916666508083334,22200,1.0411295140807064,0.0
111,1.3482458591461182,1.7425271385520111,0.8862121090410057,2.858421007052957,0.3943582527880956,0.0,0.13496297067810614,0.1,0.0026814937591552734,0.05167865753173828,0.049358487,1.1954331,1.1896513282028143,0.0,0.03443624812841056,0.0,200,0.013116836547851562,0.32150952778885694,0.29999211241338597,22400,1.1395959424517492,0.0
112,1.3183345794677734,0.5123031173164444,0.1834036686556074,0.82142620339689,0.362605895899094,0.0,0.13295392438156703,0.1,0.0027298927307128906,0.05212569236755371,0.049301032,0.7653895,1.1219165071141772,0.0,0.010230566182227714,0.0,200,0.01331019401550293,2.374867611261562,1.938945880539575,22600,0.60765673955929,0.0
113,1.2904515266418457,1.4710455244607221,0.561762694770215,2.2154067197310208,0.7650540978696416,0.0,0.12780280662408974,0.1,0.005048036575317383,0.05251288414001465,0.049508456,1.7224853,1.1568294088488316,0.0,0.029291063484563284,0.0,200,0.01564931869506836,0.20079524462471668,0.21725711528587074,22800,0.7293374568263734,0.0
114,1.3307089805603027,1.4868144886988182,0.5907721035352326,2.185823198984829,0.6070401370692019,0.0,0.12423486199823458,0.1,0.002796649932861328,0.05336332321166992,0.04979297,1.3526971,1.1898279168338302,0.0,0.029272663272861207,0.0,200,0.01322317123413086,0.20831286388437617,0.20173924705793556,23000,1.0854565621272885,0.0
115,1.2462613582611084,1.4598997711923873,0.9346801781837635,2.8297598053915833,0.44075912380854815,0.0,0.12382985314645503,0.1,0.002903461456298828,0.053369760513305664,0.050059997,1.6320789,1.216835102269686,0.0,0.028885946645412292,0.0,200,0.013514280319213867,0.3844029861417034,0.3598945657874123,23200,1.0618971294446033,0.0
116,1.2859928607940674,1.413536170925449,1.262158168964149,3.1630078042688625,0.13743229662829698,0.0,0.1302629152764309,0.1,0.002847433090209961,0.053175926208496094,0.049563445,1.0935106,1.2365052091352622,0.0,0.028164870641679815,0.0,200,0.014322757720947266,0.4952044815070635,0.49143242410140947,23400,0.7777074987818166,0.0
117,1.3094568252563477,1.281070442993474,1.3083844693903912,3.533988420249823,0.3753531077393825,0.0,0.12876186849003732,0.1,0.0028104782104492188,0.05302906036376953,0.050603766,1.6261421,1.2409617325210835,0.0,0.025439524055114883,0.0,200,0.013624906539916992,0.5433965601873502,0.5410145334295082,23600,0.789633143203312,0.0
118,1.3199238777160645,0.9633328602844939,0.8055454003927346,2.3569249139976134,0.43893252890891954,0.0,0.1371464132213979,0.1,0.002850055694580078,0.05387759208679199,0.049903356,1.319459,1.2131988452974245,0.0,0.01923471099692171,0.0,200,0.013381004333496094,0.6368724659322305,0.5369339811768873,23800,0.8104176245517524,0.0
119,1.3373470306396484,1.9148632585425607,1.311918823812022,3.3313758414862087,0.24531587020702433,0.0,0.13510768081651153,0.1,0.0029511451721191406,0.05326080322265625,0.050124742,1.0297235,1.283365286621938,0.0,0.03830175701118536,0.0,200,0.014104366302490234,0.41515196000839133,0.4159828460079162,24000,0.9661719916382703,0.0
120,1.312866449356079,1.651826710597462,0.6228210136944108,2.379261530353633,0.9079091741386459,0.0,0.13431744672746077,0.1,0.0027577877044677734,0.05282163619995117,0.050164938,1.0366502,1.3202114290194904,0.0,0.032880043375913555,0.0,200,0.013562202453613281,0.22593681460904533,0.18960975963385032,24200,1.3400536672250105,0.0
121,1.3058192729949951,1.0791085029766756,0.7146930226053906,2.268044392038555,0.4141464654077326,0.0,0.13353452564749502,0.1,0.002985715866088867,0.05398988723754883,0.049709767,1.8599738,1.2961011364152089,0.0,0.02139739031737668,0.0,200,0.013486385345458984,0.4298453282248976,0.45623753105722037,24400,1.244852815128396,0.0
122,1.2983386516571045,1.0792216276909434,0.9990940491808349,2.7284661300683632,0.23445576011851008,0.0,0.130056972125176,0.1,0.0027685165405273438,0.054575204849243164,0.050322484,1.2246277,1.2744131855427823,0.0,0.021555279484360066,0.0,200,0.01388692855834961,0.5611715582942287,0.5157553097991651,24600,0.9635149201839196,0.0
123,1.3533813953399658,0.8233896405329247,0.24622133554212747,1.1803136124249427,0.49076414789083034,0.0,0.12832771427181378,0.1,0.0030159950256347656,0.05344891548156738,0.050007954,0.750381,1.2293108310417966,0.0,0.01637936703173916,0.0,200,0.013930559158325195,0.48689156436491643,0.24981099913614593,24800,1.3683438901837734,0.0
124,1.3521316051483154,1.3242693123434557,1.689061024091255,4.249250565663125,0.2984909344764737,0.0,0.13499342387569263,0.1,0.0028777122497558594,0.05310463905334473,0.05014133,1.6932532,1.2388066791719625,0.0,0.026449921804078454,0.0,200,0.014101505279541016,0.6359752251294516,0.6486083926116383,25000,3.1528097905586083,0.0
125,1.3563508987426758,0.8138901808588255,0.5872222166263078,1.7823473271717316,0.2301902598154214,0.0,0.13754562235883552,0.1,0.00275421142578125,0.053191423416137695,0.049657203,0.9659987,1.1963150293406488,0.0,0.016058699753598294,0.0,200,0.012875080108642578,0.3942527936720422,0.37244402082681777,25200,2.9587778853927227,0.0
126,1.3472776412963867,1.4406465877176848,0.858028795614479,2.9115344673483494,0.7751767931623282,0.0,0.12251743546375098,0.1,0.011083126068115234,0.05898737907409668,0.04989449,3.3175216,1.2207481851783524,0.0,0.028664262691461415,0.0,200,0.01276254653930664,0.3884636920467837,0.37503034633988835,25400,2.103955272688863,0.0
127,1.346574306488037,1.195472467672029,0.36527857475735837,1.6137888859913765,0.6151558659628297,0.0,0.13430533879667253,0.1,0.0028541088104248047,0.051949501037597656,0.04953931,0.98740405,1.21822061342772,0.0,0.023459230867915095,0.0,200,0.012516260147094727,0.14994973311700463,0.1310495479808594,25600,1.2739568972363988,0.0
128,1.3450677394866943,0.8273641223090134,0.18374856410270096,1.0314305678516833,0.5357159052516332,0.0,0.13479546030439282,0.1,0.0028617382049560547,0.052092552185058594,0.05002184,0.9564922,1.1791349643158493,0.0,0.016572237308681903,0.0,200,0.014383077621459961,0.2283003292264718,0.24905746542986604,25800,0.9887316708289768,0.0
129,1.3348701000213623,1.4755887026746257,0.47750173573486104,2.1592492946859596,0.8155159985727827,0.0,0.1299725635363259,0.1,0.0027387142181396484,0.052110910415649414,0.05044011,1.4724089,1.208780338151727,0.0,0.029077008476266247,0.0,200,0.013564825057983398,0.17348032819448295,0.15988737060314112,26000,0.7211929266668223,0.0
130,1.3274621963500977,0.8117385175175309,0.06708379014926436,0.8875826088813759,0.707173957203423,0.0,0.13939877455163888,0.1,0.0027222633361816406,0.052076101303100586,0.04960214,0.9182781,1.1690761560883074,0.0,0.015753257461329204,0.0,200,0.013223648071289062,0.16806065000466736,0.1737716883367586,26200,0.45381097651613267,0.0
131,1.7458794116973877,1.4623619583173193,1.4073332435638037,3.684640370785056,0.2415630524742109,0.0,0.1258575273903724,0.1,0.002647876739501953,0.058489322662353516,0.049688935,1.5495144,1.1984047363112087,0.0,0.02841250108599495,0.0,200,0.01418757438659668,0.5223192673530133,0.5176685601505853,26400,0.9774604121268861,0.0
132,1.3508408069610596,1.880041091017558,1.1417787490793445,3.011815211986338,0.46485382702006134,0.0,0.13027617637267294,0.1,0.0027282238006591797,0.05245327949523926,0.050115775,1.1159263,1.2665683717818434,0.0,0.03720927829364756,0.0,200,0.01990962028503418,0.3918200581551243,0.3507740580540138,26600,2.6360085802292996,0.0
133,1.3633685111999512,2.2271748115247694,1.5841961250733745,4.206822578798377,0.6066839263451931,0.0,0.12797078000860762,0.1,0.0027856826782226562,0.053518056869506836,0.05022911,1.4073895,1.3626290157561363,0.0,0.04419764530342472,0.0,200,0.013956546783447266,0.47171761353414454,0.41158048461052843,26800,1.1117691966168721,0.0
134,1.3060801029205322,2.0339110681010566,0.6978256502788086,3.0145930227835214,1.2883695574154088,0.0,0.13181268287005843,0.1,0.002919912338256836,0.05337381362915039,0.050128307,1.0988077,1.4297572209906284,0.0,0.039805946268340865,0.0,200,0.014005661010742188,0.1775655234525217,0.15199033894382746,27000,2.7356069065944637,0.0
135,1.3108978271484375,1.3522200105672517,1.5595217212635935,3.9644978822746553,0.12023312990140639,0.0,0.13045199918373718,0.1,0.0028123855590820312,0.05326676368713379,0.048771717,1.373332,1.4220034999482907,0.0,0.02677591389008641,0.0,200,0.015079259872436523,0.6763007386747916,0.6410619661333472,27200,3.6554406510339947,0.0
136,1.3202264308929443,0.9019074285488814,0.6862748191699874,2.0540541667385086,0.2669832962034303,0.0,0.13212914225115274,0.1,0.002777099609375,0.053568363189697266,0.04983158,1.497543,1.36999389280835,0.0,0.01749122995591567,0.0,200,0.014016151428222656,1.117664485740017,0.593537913289984,27400,4.389799807478467,0.0
137,1.3107202053070068,0.6134969278259048,0.37729879788331677,1.1592798851521955,0.10753898958980666,0.0,0.1300352896972985,0.1,0.002750396728515625,0.05366253852844238,0.04925278,1.3418028,1.2943441963101054,0.0,0.01220213897246903,0.0,200,0.013418197631835938,1.6621650192143576,0.6945900692658329,27600,4.864651593155401,0.0
138,1.349989414215088,1.6160536128119536,0.6410741076052688,2.7130183273815165,1.0885544316966567,0.0,0.13119218931668197,0.1,0.0028150081634521484,0.05334162712097168,0.049654618,1.2106782,1.3265151379602904,0.0,0.03205797272011374,0.0,200,0.015130281448364258,0.47765551074778345,0.43191467042351206,27800,3.594655423765676,0.0
139,1.3329980373382568,1.8500696791874134,1.4111529183450855,3.6079490584191793,0.17470355333434381,0.0,0.12780412055307566,0.1,0.0027430057525634766,0.05220794677734375,0.050003428,1.2300441,1.3788705920830029,0.0,0.03631888642644405,0.0,200,0.013013124465942383,0.6079834500070356,0.4931123992204106,28000,4.130988734735876,0.0
140,1.3790051937103271,1.6460212941648698,1.3209849254777644,3.8297818184267367,0.2815161361905759,0.0,0.12659981457171363,0.1,0.0028083324432373047,0.052895307540893555,0.04965878,2.2807894,1.4055856622911895,0.0,0.03230429676640637,0.0,200,0.013295650482177734,0.446074113981475,0.40095789512647134,28200,3.142933080359723,0.0
141,1.3539259433746338,0.9559311158074523,0.5924192097096688,1.578402293303641,0.28065131790933395,0.0,0.13527717973489672,0.1,0.0028028488159179688,0.052694082260131836,0.05022594,0.8811819,1.3606202076428158,0.0,0.01887615945859062,0.0,200,0.013630390167236328,0.44457770806255886,0.5293251424918017,28400,3.658106100406183,0.0
142,1.3251564502716064,2.4144846991740456,1.316907964185293,4.242693677555084,0.8942884659557171,0.0,0.13038275992015402,0.1,0.002746105194091797,0.05223488807678223,0.04941548,1.3062377,1.466006656795939,0.0,0.04791880150981642,0.0,200,0.013912439346313477,0.37689629279763215,0.34274305878261707,28600,4.165180723763393,0.0
143,1.337310552597046,1.1981456051216617,1.0952176899742712,2.9497044031452178,0.24331105866442998,0.0,0.12379696811198182,0.1,0.0027005672454833984,0.05200648307800293,0.04933557,1.6087209,1.439220551628511,0.0,0.023334631964886984,0.0,200,0.013405323028564453,0.5209560991843517,0.5490264148547388,28800,4.938163640542688,0.0
144,1.3522374629974365,1.9742856577695846,1.4720298980553277,4.205390455505459,0.1868766110545621,0.0,0.13252163514880055,0.1,0.002969026565551758,0.051790714263916016,0.050351802,1.3346716,1.4927270622426185,0.0,0.038276558855083735,0.0,200,0.01366734504699707,0.3848062985279057,0.3800346334103252,29000,3.021508454225637,0.0
145,1.352898120880127,1.4098847051136052,1.218208988755274,3.2875900427993265,0.12044908163964912,0.0,0.12607058816325512,0.1,0.0028047561645507812,0.053021907806396484,0.04957186,1.4059047,1.4844428265297172,0.0,0.02774690287704746,0.0,200,0.013626813888549805,0.5317866467586502,0.5116247154160483,29200,4.914844019174137,0.0
146,1.4223966598510742,1.082052818630302,0.7459652756259428,2.147778610389882,0.28758772086287887,0.0,0.12548163124532796,0.1,0.0030219554901123047,0.05324292182922363,0.049189635,1.149712,1.4442038257397756,0.0,0.021060683636448512,0.0,200,0.012883901596069336,0.673876315487743,0.5067246273543413,29400,1.9733359039830318,0.0
147,1.4123716354370117,0.8680650832593154,1.0765216821175618,2.704533752765136,0.07274274112326952,0.0,0.12895124991407725,0.1,0.002769947052001953,0.052932024002075195,0.049640864,1.415604,1.3865899514917295,0.0,0.017315065520989846,0.0,200,0.014565706253051758,0.9028814490358016,0.7200874337372186,29600,5.252857077238702,0.0
148,1.450263500213623,2.074412128731148,1.219560681452311,3.433783875786469,0.36533612772289015,0.0,0.12643327683240593,0.1,0.002731800079345703,0.054898977279663086,0.050091065,1.1976714,1.4553721692156714,0.0,0.041310938258008245,0.0,200,0.015329360961914062,0.39669125562608154,0.4197153998170952,29800,3.7099462751355787,0.0
149,1.3286185264587402,1.9630287143880767,0.8185331232517321,3.0571995183389298,0.7543475838776954,0.0,0.1336791041480182,0.1,0.002888917922973633,0.05259370803833008,0.04975258,1.0804366,1.506137823732912,0.0,0.03881230316247999,0.0,200,0.014912605285644531,0.29559587647415486,0.2694991947114539,30000,3.4731179619762744,0.0
150,1.3043057918548584,2.319997169931896,1.3308014206579855,4.051823526106927,0.7232824854386286,0.0,0.12360321398024678,0.1,0.0029685497283935547,0.05337381362915039,0.049949523,1.9606243,1.5875237583528103,0.0,0.045928416381445236,0.0,200,0.014312267303466797,0.41148189804361196,0.35630277603648836,30200,4.066513022176121,0.0
151,1.32904052734375,1.999683577955558,1.0177650169080157,3.4347587888710245,0.5870261984645752,0.0,0.12692161267390778,0.1,0.0028378963470458984,0.053136587142944336,0.05051429,1.3232743,1.6287397403130852,0.0,0.03965574045595346,0.0,200,0.013860464096069336,0.27521438580031715,0.23119543169560108,30400,4.599259241893055,0.0
152,1.349656581878662,1.571849345405976,1.3724218663557513,3.8185585086164013,0.4458800333076807,0.0,0.13214072606096433,0.1,0.002731800079345703,0.05247306823730469,0.04976612,1.579288,1.6230507008223742,0.0,0.031213525501882285,0.0,200,0.013170480728149414,0.4562843007967317,0.47601364916193656,30600,3.892261634337485,0.0
153,1.341071605682373,0.7237917959090164,0.6527666218280055,1.7909406481254149,0.16925978405798903,0.0,0.13014110394805783,0.1,0.002830982208251953,0.05203437805175781,0.05065344,1.0788164,1.5331248103310384,0.0,0.014459031551184921,0.0,200,0.01342463493347168,2.152458502629453,1.716094255435562,30800,4.268523091755057,0.0
154,1.3846964836120605,1.952248020781355,0.8661289793081962,3.1209886513220106,0.8858514778079806,0.0,0.12680354207194205,0.1,0.0027799606323242188,0.05219769477844238,0.04936104,1.8134024,1.57503713137607,0.0,0.03889729075704507,0.0,200,0.014383077621459961,0.19727326000145123,0.20679323598784846,31000,4.373291268112376,0.0
155,1.378849744796753,2.28574485123751,1.3636333529239943,3.875915452843066,0.16506367155946514,0.0,0.13476940092161083,0.1,0.0027747154235839844,0.05303502082824707,0.049594115,1.0346174,1.6461079033622141,0.0,0.0449639845656253,0.0,200,0.013558149337768555,0.36285812516284893,0.3567633680649328,31200,4.39306408351477,0.0
156,1.357659101486206,0.8143828310603406,1.0112945537652258,2.552414813442074,0.11231736732828262,0.0,0.12655616719910073,0.1,0.0028276443481445312,0.05329489707946777,0.04986007,1.3004577,1.562935396132027,0.0,0.016221521672121583,0.0,200,0.014250040054321289,1.1512594058906285,1.0743806775416584,31400,3.0503007221695526,0.0
157,1.3439245223999023,2.163865559643296,1.3881209588718144,4.31602233510019,0.6918998698299791,0.0,0.12933357510382734,0.1,0.002872943878173828,0.05208253860473633,0.04940008,1.2742035,1.623028412483154,0.0,0.0430385425673118,0.0,200,0.013239145278930664,0.38007036749270484,0.3826831631074417,31600,1.0489511667726952,0.0
158,1.3379409313201904,0.5811372345431995,0.6771029840910889,1.7438208472343248,0.09779930026388663,0.0,0.13189669245766186,0.1,0.0028383731842041016,0.05317330360412598,0.049432572,0.8646491,1.5188392946891585,0.0,0.011609942291051467,0.0,200,0.013337135314941406,1.6038404574935554,1.4550194261096492,31800,4.389104739138211,0.0
159,1.3622848987579346,1.3274904522891207,0.7162226581609935,2.3287467333063407,0.5066955516243359,0.0,0.12554816548712844,0.1,0.00276947021484375,0.054004669189453125,0.049444303,1.3371286,1.4997044104491546,0.0,0.02651885037732442,0.0,200,0.013575553894042969,0.2913793907160821,0.27694860739484883,32000,4.1511207636509395,0.0
160,1.3728358745574951,1.8895366928118507,1.5269700073735535,3.901965111617685,0.3499204292505297,0.0,0.13117866807658302,0.1,0.0033562183380126953,0.05250382423400879,0.049992397,1.0934013,1.5386876386854242,0.0,0.0373976481793836,0.0,200,0.013544321060180664,0.4438242634570112,0.4453840620689238,32200,3.1288240984886513,0.0
161,1.3942739963531494,2.546057230975308,1.172701787253788,3.854037808011264,0.7474424875492375,0.0,0.1325589944836857,0.1,0.002696990966796875,0.052809953689575195,0.050957106,0.885546,1.6394245979144126,0.0,0.050146028013724864,0.0,200,0.013323068618774414,0.3865292618677841,0.33969727510932685,32400,4.3395106474838085,0.0
162,1.3625600337982178,1.4425747891542453,1.2007116170639536,3.375282013741655,0.07944517694775281,0.0,0.12513788567284087,0.1,0.002774953842163086,0.05334329605102539,0.049994275,1.837175,1.619739617038396,0.0,0.028408901416310844,0.0,200,0.014438867568969727,0.4394503421740134,0.45447297687666105,32600,4.377504679836304,0.0
163,1.3732893466949463,0.8601059874919276,0.4341399995800635,1.3671237209868634,0.1691857099839206,0.0,0.13495896181954753,0.1,0.002660989761352539,0.05197930335998535,0.050267864,0.8036769,1.5437762540837492,0.0,0.017119910637447968,0.0,200,0.01350259780883789,1.1693089334002034,1.0939474371403233,32800,3.179565397630755,0.0
164,1.3620696067810059,1.9822394444115776,1.4694773079073133,4.115005818636833,0.4113310850692918,0.0,0.13042534710090353,0.1,0.002701997756958008,0.05248522758483887,0.04933368,1.332276,1.587622573116532,0.0,0.03934071898366617,0.0,200,0.013632059097290039,0.3888543054945459,0.3927350635348426,33000,1.7652322380368535,0.0
165,1.325927495956421,1.9442948695463422,1.3312682684551442,4.011233176356931,0.6171239516062437,0.0,0.12255009214920705,0.1,0.0029044151306152344,0.05272269248962402,0.04979123,1.5819693,1.6232898027595133,0.0,0.03875554133005385,0.0,200,0.014209747314453125,0.35393326777538403,0.34755587879528316,33200,0.10247636637238765,0.0
166,1.3507933616638184,1.6040062585817172,1.1303923620914011,3.1806954938686576,0.45095309968014596,0.0,0.1255526338082076,0.1,0.002878427505493164,0.053400516510009766,0.049886428,1.0503677,1.6213614483417338,0.0,0.03141122704621095,0.0,200,0.013612508773803711,0.35369224141598476,0.3553558641215929,33400,0.23101294641368908,0.0
167,1.3442986011505127,1.3328656587489345,0.9065011519883811,2.845250838767468,0.5400823741441957,0.0,0.13130084997168653,0.1,0.002811431884765625,0.05307912826538086,0.049720403,1.2805251,1.5925118693824538,0.0,0.02654253540696127,0.0,200,0.013827800750732422,0.4070736892755972,0.39550975896703233,33600,1.2246157447455812,0.0
168,1.4154045581817627,1.3170264531825477,0.45348519702239337,2.066937580495295,0.8736771635715012,0.0,0.1328297390360157,0.1,0.00278472900390625,0.05390572547912598,0.04965718,1.1218622,1.5649633277624633,0.0,0.025980720583353586,0.0,200,0.014347553253173828,0.16981504912764012,0.14162298791024946,33800,0.09759239182674344,0.0
169,1.328672170639038,1.478851112825892,0.9365751260398488,2.6781720781526874,0.292320570896368,0.0,0.12609196718714102,0.1,0.002770662307739258,0.05417060852050781,0.049641456,1.0060331,1.5563521062688062,0.0,0.029142387588864165,0.0,200,0.01494145393371582,0.3579440328897337,0.3534154776316496,34000,0.7797525857256161,0.0
170,1.3345930576324463,0.9973328768752845,0.5550388734586159,1.7553551429046952,0.19602952234841903,0.0,0.1348319127460515,0.1,0.003094196319580078,0.052041053771972656,0.050053846,0.82675856,1.5004501833294541,0.0,0.01953393794264836,0.0,200,0.015342235565185547,0.44148703633298525,0.37126348416726573,34200,1.3305223937066324,0.0
171,1.3251149654388428,2.185013147337276,1.4078924144805616,4.495864690125905,0.6822492385239867,0.0,0.12790099498568117,0.1,0.0027544498443603516,0.052426815032958984,0.05020833,1.3701863,1.5689064797302363,0.0,0.04327507121826425,0.0,200,0.014064311981201172,0.40700007218015094,0.40486408536228374,34400,0.5931235823591962,0.0
172,1.3565387725830078,2.2209927602162356,1.028695882833302,3.6791205819926125,1.2250663733643445,0.0,0.1251780565176526,0.1,0.0028815269470214844,0.05232882499694824,0.049522553,1.4770764,1.6341151077788363,0.0,0.04426961171703041,0.0,200,0.013150215148925781,0.3129966763506545,0.2812568575025881,34600,1.214515540842444,0.0
173,1.3699345588684082,0.9680634396931826,0.43671177749183315,1.2952907801024585,0.2213373692816124,0.0,0.1309271417370125,0.1,0.0027532577514648438,0.05240654945373535,0.049590845,1.7007402,1.567509940970271,0.0,0.019243196142007455,0.0,200,0.013744115829467773,0.5346952885813526,0.5774539483682248,34800,1.8002774586619719,0.0
174,1.3463389873504639,3.0042535198811104,1.5358363564597188,4.279699886007611,0.40194518292929676,0.0,0.12869330750667168,0.1,0.0027327537536621094,0.05333733558654785,0.050427485,0.8259349,1.711184298861355,0.0,0.05972753597404766,0.0,200,0.013315916061401367,0.39474044578337725,0.35143408874217746,35000,1.6575117949363596,0.0
175,1.3617558479309082,1.5768031202024297,0.9246885531589154,3.165889459106414,0.9144420419060845,0.0,0.1292946607527652,0.1,0.002881288528442383,0.053112030029296875,0.050440744,1.3855731,1.6977461809954626,0.0,0.03138833271082913,0.0,200,0.014003992080688477,0.295201126819043,0.3223354470876327,35200,0.6665810150586591,0.0
176,1.3292951583862305,2.84445016927181,1.5487132275648863,4.471863617172771,1.2208563781713053,0.0,0.12323371220109233,0.1,0.002853870391845703,0.05387520790100098,0.05005405,1.3856483,1.8124165798230973,0.0,0.055215221262184366,0.0,200,0.014075756072998047,0.32455395539279336,0.285299583615801,35400,0.621212188642699,0.0
177,1.3607521057128906,2.0929019196512746,1.6891730851052293,3.9271792100721687,0.2203368332608982,0.0,0.12439101171921473,0.1,0.0028676986694335938,0.055582284927368164,0.050571203,0.99589425,1.8404651138059152,0.0,0.04159846426147884,0.0,200,0.01355433464050293,0.40884430423597795,0.42626087990186967,35600,1.5699271450832224,0.0
178,1.424119472503662,2.2640278693973026,1.2457297515344194,3.990224625204751,0.4789662903933645,0.0,0.12669028945517927,0.1,0.0028905868530273438,0.052057504653930664,0.049814362,0.98789406,1.8828213893650538,0.0,0.044604534768570604,0.0,200,0.013824462890625,0.28333543705118236,0.28420763928412707,35800,0.08490395532515776,0.0
179,1.4472565650939941,1.5560060602999655,0.9501825620364349,2.6819234175867326,0.23919937143970743,0.0,0.13061157022681885,0.1,0.002753734588623047,0.05418229103088379,0.049854368,0.8810482,1.8501398564585452,0.0,0.030673079498980658,0.0,200,0.014604330062866211,0.5022426286854644,0.3847555957437991,36000,0.1123861693165875,0.0
180,1.3859374523162842,1.4283163929211804,0.8399021056183807,2.6838131614814347,0.3571085909830972,0.0,0.12985874245791929,0.1,0.002894163131713867,0.05202198028564453,0.049485687,0.7965416,1.8079575101048087,0.0,0.028485869140519766,0.0,200,0.01589512825012207,0.6319877420001302,0.41548643119633766,36200,0.09708318716895502,0.0
181,1.3959038257598877,2.005629578383674,2.0377054338059666,5.365497758472365,0.29211651796396126,0.0,0.12268514522855395,0.1,0.002804994583129883,0.05192756652832031,0.04994174,1.762776,1.8277247169326953,0.0,0.039532135701638396,0.0,200,0.013941764831542969,0.5236634277442495,0.5367622742818107,36400,0.20203455164955852,0.0
182,1.3341126441955566,1.9077841406025235,1.503956000068111,3.694469016811046,0.07874198418352832,0.0,0.12725641506946866,0.1,0.002939939498901367,0.05351543426513672,0.04969646,1.2407464,1.8357306592996783,0.0,0.03775105997199664,0.0,200,0.013906240463256836,0.43300728462098126,0.43550426543276016,36600,0.197140309775498,0.0
183,1.3404200077056885,2.2168124868870214,1.0061309301285264,3.4733993927303968,0.8902399486841782,0.0,0.11992160383847233,0.1,0.0028448104858398438,0.053116559982299805,0.049724318,2.972604,1.8738388420584127,0.0,0.04368173259212233,0.0,200,0.013699769973754883,0.2509980754126428,0.23880502142703294,36800,0.33023152329820843,0.0
184,1.4069385528564453,1.125030543095166,0.792199301735592,2.2152690198201066,0.1993178767581063,0.0,0.1303832460931822,0.1,0.0029213428497314453,0.05380892753601074,0.04984987,1.0090399,1.798958012162088,0.0,0.02189792371476481,0.0,200,0.013968467712402344,0.6021271346645777,0.5883214968135041,37000,0.33364494530072997,0.0
185,1.3377439975738525,1.4234069408278351,1.6623897050200516,4.215451682115492,0.09544608127350802,0.0,0.12471236872528452,0.1,0.0031583309173583984,0.05408167839050293,0.049994916,1.4616846,1.7614029050286628,0.0,0.028391940947971074,0.0,200,0.016469717025756836,0.5838024824119619,0.5755765743027769,37200,0.3533946962523294,0.0
186,1.3298189640045166,2.9368219187746276,1.3018192239705277,4.4190968421187975,1.035310614543659,0.0,0.12163354360200086,0.1,0.0028400421142578125,0.055144548416137695,0.050127517,1.3947098,1.8789448064032594,0.0,0.057801603491997214,0.0,200,0.015350818634033203,0.36111408020414454,0.33778649107017944,37400,0.22705418264160163,0.0
187,1.3619189262390137,1.8961007398386256,0.6346247694544014,2.6684431547446934,1.0093597277998214,0.0,0.12986873660510936,0.1,0.0027518272399902344,0.05214810371398926,0.04985764,1.1762828,1.880660399746796,0.0,0.03749804020045673,0.0,200,0.013595104217529297,0.17454364159571784,0.17280491141092452,37600,0.20495224094010742,0.0
188,1.378767728805542,1.3279293791182887,0.73769967302504,2.1495315637613235,0.5597214937454716,0.0,0.1230796879487633,0.1,0.0027375221252441406,0.05249428749084473,0.049904987,1.1764473,1.8253872976839454,0.0,0.026489184429236354,0.0,200,0.013502120971679688,0.4337757001947301,0.44197853177446167,37800,0.8196898323738274,0.0
189,1.4239635467529297,2.7116045763957173,1.5215608784462302,4.637151530951591,1.1962187747774387,0.0,0.11986115671525817,0.1,0.006191730499267578,0.05388331413269043,0.04985173,1.1558377,1.9140090255551225,0.0,0.05354536006097182,0.0,200,0.013835668563842773,0.3467158030682527,0.33007450996551896,38000,0.8710766001807265,0.0
190,1.445678472518921,1.3383340322401232,0.8255780165864134,2.7081537644731695,0.5207840063191499,0.0,0.12600881548649037,0.1,0.002877473831176758,0.0533754825592041,0.049887925,1.4524167,1.8564415262236227,0.0,0.026486857068164876,0.0,200,0.020127296447753906,0.4455270859947583,0.45924455708302164,38200,1.316101021579511,0.0
191,1.342944622039795,1.6216372276270647,0.7189661024522739,2.5667622212161096,0.6040350355680772,0.0,0.13740585824767954,0.1,0.0027811527252197266,0.05229067802429199,0.05029019,1.0364095,1.8329610963639669,0.0,0.03241155244010868,0.0,200,0.01326608657836914,0.2830236355431924,0.24975746417623063,38400,0.9935344955670727,0.0
192,1.3793597221374512,2.1410777696115866,1.3208687961447763,3.7362613460659944,0.0849412089321925,0.0,0.1314591889373245,0.1,0.0029103755950927734,0.05267143249511719,0.050247658,0.8822534,1.8637727636887287,0.0,0.04281219435493335,0.0,200,0.013995170593261719,0.31808727425727973,0.31982996505596073,38600,0.5530926951220981,0.0
193,1.4099125862121582,1.0706379526578471,0.5443589325048099,1.5493950947422972,0.19657928992736365,0.0,0.12661868583649122,0.1,0.0028543472290039062,0.05470848083496094,0.050836276,0.7530817,1.7844592825856405,0.0,0.02121138132006234,0.0,200,0.013674497604370117,0.5216512710327899,0.42997117558378883,38800,1.3825372466543422,0.0
194,1.372375726699829,2.474861922915678,1.24836959072847,4.399017245875176,1.3191964225878356,0.0,0.13076787881686233,0.1,0.0028314590454101562,0.05475902557373047,0.050472137,1.6003652,1.8534995466186444,0.0,0.048949471732812805,0.0,200,0.01347494125366211,0.3207327711393197,0.3221357438241476,39000,0.5128530350171016,0.0
195,1.4299538135528564,1.3562394691538564,0.8079880720650372,2.6158743425290267,0.5535195110405772,0.0,0.12814272335602886,0.1,0.0027348995208740234,0.05255460739135742,0.05017965,0.9120563,1.8037735388721656,0.0,0.026144248026062224,0.0,200,0.014377593994140625,0.34635589373379344,0.34406975848708815,39200,1.5388401341476186,0.0
196,1.4470798969268799,2.176561341178413,1.2892650256203682,4.074846159447613,0.9508196101072143,0.0,0.12408864113347917,0.1,0.002972126007080078,0.05292463302612305,0.049772605,1.5013744,1.8410523191027905,0.0,0.042536329315932674,0.0,200,0.01414346694946289,0.35891665648042953,0.34862517987310343,39400,1.2119258416688277,0.0
197,1.3692569732666016,1.782487826063213,1.0097879438769313,3.2675905644579237,0.7077339661100313,0.0,0.1271191810423593,0.1,0.0029201507568359375,0.0525510311126709,0.050021637,1.2069097,1.8351958697988329,0.0,0.035474439080788775,0.0,200,0.015811443328857422,0.2840883511510783,0.2818412334537724,39600,0.5285691796741244,0.0
198,1.371185302734375,1.389935196361936,1.0959222875145038,3.2231262173584487,0.3228521301859409,0.0,0.13133954110425208,0.1,0.0028142929077148438,0.053487539291381836,0.05012833,1.6450328,1.790669802455143,0.0,0.02757547360177283,0.0,200,0.013037919998168945,0.4927087390559051,0.48741227185529723,39800,0.3346550409282259,0.0
199,1.306180477142334,2.1690608175809447,1.2346497968866557,4.03906610810245,0.5804151950564135,0.0,0.13026313661284672,0.1,0.00279998779296875,0.05203747749328613,0.049210288,1.4932109,1.8285089039677234,0.0,0.04316520953667967,0.0,200,0.014029502868652344,0.2850105364094899,0.28359312902684064,40000,0.42408376761035416,0.0
200,1.3700735569000244,1.118738746017649,0.5590673751348436,1.892792587326081,0.39696881051311106,0.0,0.1217699938162351,0.1,0.0028352737426757812,0.05198860168457031,0.050345622,1.1038477,1.757531888172716,0.0,0.022080006259803026,0.0,200,0.014743328094482422,0.5198129096101183,0.4586790064726852,40200,0.2832459068020124,0.0
201,1.4159362316131592,2.5708170339070615,1.3281179478298437,4.077498976665168,1.1636226682994981,0.0,0.12205870380603694,0.1,0.0032913684844970703,0.0517575740814209,0.050162002,1.6764432,1.8388604027461506,0.0,0.051282981416516146,0.0,200,0.013136863708496094,0.3122845069853863,0.3094613045679363,40400,0.20541190162526943,0.0
202,1.3863203525543213,1.629440456973661,1.3409475509072168,3.859514914813136,0.31088943826122206,0.0,0.12469648183696386,0.1,0.0027565956115722656,0.051998138427734375,0.04984539,1.906748,1.8179184081689017,0.0,0.03247426198367009,0.0,200,0.01341700553894043,0.4116410071595706,0.4096730291515536,40600,0.1650169896479252,0.0
203,1.4160866737365723,2.2865990391852278,1.0343903589789107,3.4022509973989448,1.0428866439811197,0.0,0.12786124096022083,0.1,0.002801656723022461,0.05286359786987305,0.049852572,1.2087429,1.8647864712705344,0.0,0.045256553021477554,0.0,200,0.013512134552001953,0.25617607791945823,0.2426675173080885,40800,0.1654523249581375,0.0
204,1.3585906028747559,0.9852224235859782,0.7286449708826598,2.1946586006422386,0.25378717758569835,0.0,0.1264084537045112,0.1,0.002831697463989258,0.052933454513549805,0.05001812,0.9825134,1.7768300665020789,0.0,0.01890019323841762,0.0,200,0.013489723205566406,0.7703239611925086,0.733625172332554,41000,0.16609488450260992,0.0
205,1.3696413040161133,1.827433198856796,1.6136245266394014,4.437347403591555,0.20501187986152672,0.0,0.12603714135241484,0.1,0.0030965805053710938,0.05293560028076172,0.049911033,1.4451265,1.7818903797375507,0.0,0.036195220333440206,0.0,200,0.01540827751159668,0.4384446064475711,0.4392217586700337,41200,0.1986650059032787,0.0
206,1.4020874500274658,2.2897946551839543,0.6042022309646383,3.2548976861647736,1.6143560021655108,0.0,0.12825969318644545,0.1,0.0028586387634277344,0.05296158790588379,0.050089393,1.51803,1.8326808072821912,0.0,0.04451960565368829,0.0,200,0.014073610305786133,0.15824021973071503,0.14952874509376074,41400,0.18772584548549612,0.0
207,1.5029511451721191,1.3264549143936386,1.3341525165069816,3.5435098182664913,0.20209065412695365,0.0,0.12096482465515537,0.1,0.0028753280639648438,0.05194425582885742,0.050706223,1.5906525,1.782058217993336,0.0,0.026163209875665984,0.0,200,0.015474557876586914,0.5972608518311943,0.5907191287646543,41600,0.334505303708829,0.0
208,1.474926471710205,1.7179212379797937,1.2723049722730801,3.8624238385360194,0.5392092822717388,0.0,0.13389587643872397,0.1,0.002939939498901367,0.05277538299560547,0.049646582,1.3324567,1.7756445199919817,0.0,0.03384171014775022,0.0,200,0.015548467636108398,0.4019632250668767,0.39804408101092126,41800,0.26862510584669613,0.0
209,1.3865594863891602,1.2923307406271556,0.5625905993911552,1.9032799830697964,0.4070881764297266,0.0,0.1288727353262854,0.1,0.0030748844146728516,0.052529096603393555,0.04996514,0.7126049,1.727313142055499,0.0,0.025123154939682566,0.0,200,0.015110015869140625,0.28719286986910403,0.26029484068099984,42000,0.7832420774621424,0.0
210,1.418309211730957,1.27088714893389,0.601913740118209,1.8312028936397915,0.3331889734290981,0.0,0.12304833847029031,0.1,0.0027053356170654297,0.05455899238586426,0.050195776,0.7597231,1.6816705427433383,0.0,0.025152846470318783,0.0,200,0.0160369873046875,0.26501271029642526,0.23273277121213568,42200,0.437324981088522,0.0
211,1.478069543838501,1.954639302614214,1.454334596609041,3.831770941222399,0.3442456857371766,0.0,0.12020063128401869,0.1,0.0029754638671875,0.05363893508911133,0.049330674,1.3229195,1.7089674187304258,0.0,0.03865452799967506,0.0,200,0.013739585876464844,0.4006296284526538,0.4050760766300494,42400,1.0081741894302245,0.0
212,1.3607969284057617,0.7354270550333268,0.37109298165519333,1.3504985466356576,0.3596337682535811,0.0,0.12779588925723023,0.1,0.00281524658203125,0.05236387252807617,0.04992344,0.90331423,1.611613382360716,0.0,0.014590243985103672,0.0,200,0.013500213623046875,1.2506403412588891,1.0580056213116882,42600,0.2916183541696678,0.0
213,1.3643569946289062,1.1037645127801974,0.44387918202037435,1.8459281433135777,0.6790474957448988,0.0,0.12253281967258839,0.1,0.0028617382049560547,0.05337643623352051,0.05076446,1.1226249,1.560828495402664,0.0,0.02176759835725284,0.0,200,0.013475894927978516,0.2680643970463322,0.21349887696459374,42800,0.9395632044821444,0.0
214,1.3691225051879883,1.976870004204865,1.2850039231678991,3.7012830797030905,0.1427152556451486,0.0,0.1278529637440015,0.1,0.0027382373809814453,0.05227828025817871,0.04902167,1.0368558,1.6024326462828842,0.0,0.039140151070314017,0.0,200,0.01809382438659668,0.3902990704475367,0.39672064414347313,43000,0.6556463149763211,0.0
215,1.45931077003479,1.0766350086927718,0.4155070206077471,1.5410900403749868,0.40352512414243624,0.0,0.13637952939963421,0.1,0.0040395259857177734,0.05193209648132324,0.049239766,0.8104538,1.549852882523873,0.0,0.021425810371675208,0.0,200,0.01497793197631836,0.24454008497827037,0.2326407715617046,43200,0.4532188471066321,0.0
216,1.4117543697357178,0.546941521390651,0.301980731598506,1.0614761585900243,0.2875908046735975,0.0,0.12600725086735426,0.1,0.0027627944946289062,0.05256032943725586,0.04994377,0.7381127,1.449561746410551,0.0,0.010826520039311175,0.0,200,0.015727519989013672,2.0369739344994686,1.6662238099333568,43400,0.2647932919853114,0.0
217,1.512727975845337,1.29554829291363,0.6860829141782009,2.187420390865008,0.3326249514766799,0.0,0.13308751753384598,0.1,0.0027883052825927734,0.05342221260070801,0.049852453,0.7683566,1.434160401060859,0.0,0.025581312339591038,0.0,200,0.014594316482543945,0.25264167342455085,0.2631884684494696,43600,1.5516671037608265,0.0
218,1.3625409603118896,1.570840280763649,0.9826188942192073,3.0572083742809273,0.3138209937702705,0.0,0.12547758499525627,0.1,0.002780914306640625,0.052329301834106445,0.04990165,1.2799654,1.4478283890311383,0.0,0.03126892601110498,0.0,200,0.013850212097167969,0.35023129921060064,0.35259559832676174,43800,1.4359641605201103,0.0
219,1.4036388397216797,3.131763290175153,1.1218695759823782,4.446303538535081,1.3641994154865287,0.0,0.1289923929784539,0.1,0.0027561187744140625,0.05240345001220703,0.049952913,1.1203641,1.6162218791455398,0.0,0.06227513180770239,0.0,200,0.014597177505493164,0.48365717961400617,0.43204946336801786,44000,2.0427382749880247,0.0
220,1.4051711559295654,1.8033980477852216,1.1346981905891105,2.94018292886258,0.3164934204719601,0.0,0.12236499908689422,0.1,0.003317117691040039,0.05161881446838379,0.049975533,1.1338031,1.6349394960095083,0.0,0.03568636052215946,0.0,200,0.01298379898071289,0.32766946655870605,0.2859679448287163,44200,2.5826295572147884,0.0
221,1.4367291927337646,2.443258296965009,1.6933652616250376,4.9043467447603435,0.3147416856250407,0.0,0.12136142978989865,0.1,0.002727031707763672,0.0525665283203125,0.05006576,1.5756756,1.7157713761050584,0.0,0.048435749238940645,0.0,200,0.01573801040649414,0.45346188883434413,0.40085204111786626,44400,2.9969906506237556,0.0
222,1.4241118431091309,2.047910573453927,1.788465147026743,5.039809443111584,0.3177698259356875,0.0,0.1298915741093116,0.1,0.0027687549591064453,0.05326962471008301,0.049949404,1.5982624,1.7489852958399452,0.0,0.03997977696819657,0.0,200,0.013596057891845703,0.4709805482497374,0.461996604386644,44600,3.0386470485950494,0.0
223,1.478546380996704,2.0943502239434446,1.139743760215885,3.2857134556821346,0.5002850406199575,0.0,0.12763520542074797,0.1,0.002863168716430664,0.05315351486206055,0.049625203,1.1004078,1.7835217886502952,0.0,0.04177834593852571,0.0,200,0.013390064239501953,0.2637415065492851,0.27459951221481577,44800,3.2631738444512064,0.0
224,1.4118506908416748,1.5618931265101224,0.9802902451491137,2.986853242006624,0.2430306605113134,0.0,0.12376707439282814,0.1,0.0028543472290039062,0.05184745788574219,0.049443386,1.1076704,1.761358922436278,0.0,0.03075638573696082,0.0,200,0.01519155502319336,0.5840272661487175,0.5026153432406942,45000,2.193829546839953,0.0
225,1.4039514064788818,1.4044815832267608,0.3605035109164105,1.868402018570194,0.8691410313854637,0.0,0.13460327803115407,0.1,0.0028853416442871094,0.052623748779296875,0.049762,0.9244859,1.7256711885153262,0.0,0.02771328299926483,0.0,200,0.014775991439819336,0.491463612840974,0.2500206939716801,45200,1.3250821188157103,0.0
226,1.3487465381622314,1.2268576768958082,1.0893763737742288,3.0745435648832133,0.41713662954012803,0.0,0.1271119382770902,0.1,0.002973318099975586,0.05482935905456543,0.05027276,0.9780428,1.6757898373533744,0.0,0.024333729148326554,0.0,200,0.013226985931396484,0.5880486647883815,0.48732874139290666,45400,1.421145394438031,0.0
227,1.3991377353668213,1.3893231528302639,0.9615755439832477,2.910183118953313,0.4344805297434365,0.0,0.12359679877672851,0.1,0.0028471946716308594,0.052088022232055664,0.049837243,1.595248,1.6471431689010634,0.0,0.027409958199011902,0.0,200,0.013793468475341797,0.3545474082939549,0.3417318436609552,45600,1.5692510989750972,0.0
228,1.3758330345153809,1.3587645013521537,1.6834581851417885,4.246263497930562,0.11910237091024586,0.0,0.1264653426051746,0.1,0.0028221607208251953,0.0523226261138916,0.04984024,1.608291,1.6183053021461724,0.0,0.026925792619603144,0.0,200,0.013708829879760742,0.6371146157248861,0.6379839321849682,45800,0.4741619294376426,0.0
229,1.466386318206787,0.5012460874979578,0.3871738556381287,1.1112153828630826,0.06603480556320813,0.0,0.1313513020795889,0.1,0.0028076171875,0.05298900604248047,0.049814086,0.74442476,1.506599380681351,0.0,0.010017125197408553,0.0,200,0.013850927352905273,1.7184663568589016,1.1648986734470554,46000,1.2415779265676474,0.0
230,1.4222877025604248,0.20938124710535566,0.12434328300728584,0.38568239938752297,0.08733094083642565,0.0,0.12354354840142642,0.1,0.002879619598388672,0.052913665771484375,0.049600016,0.8795651,1.3768775673237514,0.0,0.004160603298821844,0.0,200,0.014271259307861328,14.40790158221467,7.64210809863822,46200,2.500798634143315,0.0
231,1.3587350845336914,0.6935076582016325,0.6585276439554091,1.8239379563969655,0.1749792061694622,0.0,0.12188836525666324,0.1,0.0028982162475585938,0.05316662788391113,0.04948927,1.3220906,1.3085405764115396,0.0,0.01383594815045291,0.0,200,0.014819860458374023,0.5458442394680978,0.5513975622860311,46400,2.7851305428270408,0.0
232,1.402555227279663,2.8871925467762223,0.8779735181654018,4.234666579528644,1.965265472930946,0.0,0.12476654814269618,0.1,0.0028176307678222656,0.05209922790527344,0.04993853,3.431355,1.466405773448008,0.0,0.05652436230456915,0.0,200,0.013989686965942383,0.6891975335352959,0.6129584732661238,46600,0.7841312305186907,0.0
233,1.3987457752227783,0.5809406063336361,0.6073303133044144,1.5780751853307242,0.03271014153236401,0.0,0.1275068743908804,0.1,0.0026574134826660156,0.052124738693237305,0.05014045,1.0179372,1.3778592567365708,0.0,0.010709808366025234,0.0,200,0.013623714447021484,0.6432273493234179,0.6670395338807605,46800,0.4082575481225929,0.0
234,1.4219768047332764,1.8115743046122936,0.8125258340309491,3.1159753784183657,1.0110597768161245,0.0,0.12030962256207448,0.1,0.002791166305541992,0.05199003219604492,0.04947202,2.3886294,1.421230761524143,0.0,0.035679149567511205,0.0,200,0.013566255569458008,0.401489640250928,0.3300531559076434,47000,0.5689873173908868,0.0
235,1.5224864482879639,1.845786131804725,1.0845174886958542,3.533270971501151,0.668396457452236,0.0,0.1339703348542509,0.1,0.0028624534606933594,0.05213022232055664,0.050172444,1.5430827,1.4636862985522012,0.0,0.036532179521551494,0.0,200,0.014937639236450195,0.4103374095519844,0.3560802349907586,47200,0.350571879297297,0.0
236,1.438560962677002,2.0803956730650093,1.1645511413963283,4.0793209507291746,1.2126041038494577,0.0,0.12610551509367235,0.1,0.002893209457397461,0.052674293518066406,0.049490277,2.105522,1.5253572360034822,0.0,0.04147538472835205,0.0,200,0.013778448104858398,0.3914353516468348,0.33591476878042886,47400,0.660774019000078,0.0
237,1.4037246704101562,3.0367679480250915,1.5628002119892344,4.975451678229587,1.3166335937966744,0.0,0.13140385716830028,0.1,0.0028619766235351562,0.05343461036682129,0.049951624,1.2432874,1.6764983072056432,0.0,0.0597472908645221,0.0,200,0.014770984649658203,0.43948763327730495,0.34971658584372545,47600,0.5246477748138794,0.0
238,1.4245836734771729,1.0871675185345135,0.821643972249297,2.2043483317863988,0.04945188703895536,0.0,0.12124335314267608,0.1,0.0027992725372314453,0.05270695686340332,0.04977794,1.0149938,1.6175652283385302,0.0,0.021401380892248446,0.0,200,0.013639211654663086,0.6402801893548089,0.861472825767098,47800,2.092563829903319,0.0
239,1.420006275177002,2.544749720118876,1.6915946753082227,5.056789040202672,0.9007510073786643,0.0,0.12462075125045281,0.1,0.0028333663940429688,0.052892446517944336,0.049264193,1.6453967,1.710283677516565,0.0,0.050858480722716155,0.0,200,0.013897180557250977,0.3726280672246666,0.361743404378267,48000,1.7532408831408561,0.0
240,1.4860317707061768,1.1254600426019505,0.6016275145267715,2.0078247389834614,0.49208343687385653,0.0,0.13127427301554387,0.1,0.0026617050170898438,0.05287981033325195,0.05006267,1.0007471,1.6518013140251038,0.0,0.022100887786399927,0.0,200,0.013049125671386719,1.085370712432311,0.942939020226427,48200,0.6183178344666825,0.0
241,1.8879656791687012,1.670553094117232,0.5837972061859011,2.316611151099571,0.8539364351269917,0.0,0.1261685219110873,0.1,0.0026786327362060547,0.052028656005859375,0.049731847,0.89167756,1.6536764920343168,0.0,0.03323131833791852,0.0,200,0.013569116592407227,0.22619748530101458,0.16690721488996876,48400,0.6022460475376236,0.0
242,1.374715805053711,1.5072563954619393,1.111809869226148,2.9788888799781725,0.08048263118963637,0.0,0.12754273699045426,0.1,0.0028226375579833984,0.056145429611206055,0.05011643,1.1335816,1.639034482377079,0.0,0.029664647386322213,0.0,200,0.014004230499267578,0.4643672134485009,0.4167110857385004,48600,0.6193605225847211,0.0
243,1.419844388961792,1.452946670686066,0.6194078866158109,2.16435325177474,0.46067944873944383,0.0,0.12704627613926492,0.1,0.0028793811798095703,0.05341625213623047,0.049574446,0.8563477,1.6204257012079777,0.0,0.028407603730261376,0.0,200,0.014198780059814453,0.195904327966752,0.16679343160829482,48800,0.9747939263270454,0.0
244,1.3789410591125488,2.2562206209452116,1.4447669570195403,4.170412826921865,0.554596159564589,0.0,0.12022276046976367,0.1,0.002889871597290039,0.051909685134887695,0.049823605,2.0531275,1.6840051931817013,0.0,0.04441562647092294,0.0,200,0.016660690307617188,0.3775917461076956,0.38619727638861395,49000,1.0550754381539333,0.0
245,1.4685492515563965,0.5037325991969526,0.2043816014281933,0.7645625851894997,0.19201010479200054,0.0,0.12862097988298316,0.1,0.0028333663940429688,0.052049875259399414,0.050228015,0.80977196,1.5659779337832265,0.0,0.010072817600322814,0.0,200,0.01403045654296875,3.471344565071417,2.827960660695145,49200,1.642832996556275,0.0
246,1.4661152362823486,1.9203747619842872,1.245044273764123,3.545431268844209,0.311052604442273,0.0,0.12001201764367901,0.1,0.0029265880584716797,0.05405759811401367,0.05001061,3.3957984,1.6014176166033325,0.0,0.03784166488820212,0.0,200,0.012910604476928711,0.3964641728050859,0.4053354795912192,49400,1.1979688232647148,0.0
247,1.4203360080718994,1.077853391875917,0.6597245380658924,2.155566738021805,0.504876347647981,0.0,0.13063825160936093,0.1,0.0027768611907958984,0.05279183387756348,0.049942687,1.3303131,1.5490611941305912,0.0,0.021437984231791392,0.0,200,0.013385534286499023,0.35512293253135413,0.3464317316395866,49600,1.3602284511833105,0.0
248,1.4635505676269531,1.1259573313861313,0.27290024260286266,1.4696707765633246,0.8394784048478063,0.0,0.12553940481042927,0.1,0.0028421878814697266,0.052068233489990234,0.049403053,0.87869734,1.5067508078561453,0.0,0.022148650070480374,0.0,200,0.016776084899902344,0.12862462138095856,0.11400027191905965,49800,1.7826844601484948,0.0
249,1.4762392044067383,1.5365988430462687,0.253326923314682,1.8738228131159915,1.1652510082879943,0.0,0.13208317807921124,0.1,0.0028314590454101562,0.052953481674194336,0.05041022,1.0650059,1.5097356113751577,0.0,0.030314048796883902,0.0,200,0.01350092887878418,0.09266373674652457,0.09413093302630295,50000,0.47791303733520557,0.0
250,1.436901330947876,2.6929072106493863,0.9018031666462821,3.4795654822183435,1.2764857253454893,0.0,0.12612177452084178,0.1,0.002766132354736328,0.05236101150512695,0.050418824,1.1287649,1.6280527713025805,0.0,0.052413096572705015,0.0,200,0.01401519775390625,0.37093797749504137,0.33288354235867085,50200,0.5688238725122856,0.0
251,1.3811306953430176,0.957522714345551,0.7043178303203864,2.142562139601779,0.2896140311037352,0.0,0.12246461720706796,0.1,0.002792835235595703,0.05257225036621094,0.04979682,2.022692,1.5609997656068777,0.0,0.01810969585211801,0.0,200,0.013675928115844727,0.5259167529484952,0.5672498270862363,50400,1.9431522780780002,0.0
252,1.4307849407196045,0.9569008681268542,0.6672748263477636,1.9867512247660126,0.33891102179892685,0.0,0.12406894328130769,0.1,0.002724170684814453,0.055686235427856445,0.049569294,1.3660241,1.5005898758588754,0.0,0.019083885646999553,0.0,200,0.013471841812133789,0.6028847441910888,0.6022020944850494,50600,2.0018286901481672,0.0
253,1.4512343406677246,2.649889901442634,1.0834298648645087,3.761689616006311,1.4136835308011417,0.0,0.12170751786813996,0.1,0.0027141571044921875,0.05807757377624512,0.04991615,1.5394696,1.6155198784172513,0.0,0.0527076206358146,0.0,200,0.013713836669921875,0.3241593073885997,0.3069449693378358,50800,1.8843936655005364,0.0
254,1.4520041942596436,0.9049649364540128,1.0869939143527612,2.775648737728211,0.0811183489423347,0.0,0.11782454921493203,0.1,0.002900838851928711,0.05342292785644531,0.04958149,1.7574152,1.5444643842209276,0.0,0.018048364076388993,0.0,200,0.013811349868774414,0.8178792780231191,0.8339488769896798,51000,1.6588798300454248,0.0
255,1.4457693099975586,1.7392874893076067,0.9829382969471905,3.14009384191983,0.5298929280509608,0.0,0.132845074091931,0.1,0.0028824806213378906,0.05350351333618164,0.049823135,1.3300289,1.5639466947295955,0.0,0.03451894088107303,0.0,200,0.013776779174804688,0.31058510673202,0.3098931095497493,51200,2.9633395627835513,0.0
256,1.5386147499084473,1.4732200127038126,1.6068245750524743,4.177050987059306,0.21490308654666485,0.0,0.12263849915051264,0.1,0.002781391143798828,0.05206179618835449,0.049341973,2.1246424,1.5548740265270173,0.0,0.02907355531678287,0.0,200,0.013257980346679688,0.5631290066727098,0.5603732483383352,51400,2.393207064341835,0.0
257,1.4976544380187988,1.688352275339628,1.2088260021970716,3.581669369002202,0.3251513229625906,0.0,0.12832672673673787,0.1,0.002904653549194336,0.05250096321105957,0.04951027,1.6561799,1.5682218514082784,0.0,0.033100519892551736,0.0,200,0.014585256576538086,0.39616143578319785,0.39399671938534125,51600,3.3299926044629964,0.0
258,1.419712781906128,0.6848565948886413,0.17182931119853487,0.8903812097678099,0.4229244512803122,0.0,0.1244568318122576,0.1,0.0027992725372314453,0.051966190338134766,0.049675636,1.0539887,1.4798853257563147,0.0,0.013110169916964051,0.0,200,0.013062477111816406,1.3946673479921987,1.2141078508402912,51800,3.2467024925963717,0.0
259,1.4619231224060059,1.919941081161536,1.4518772894268424,4.022387113731384,0.4500434515772479,0.0,0.12110414933648037,0.1,0.0028405189514160156,0.052269697189331055,0.049843375,1.6543959,1.523890901296837,0.0,0.03827895434074065,0.0,200,0.01473093032836914,0.4054348182045005,0.41220637682774114,52000,3.3643226548151723,0.0
260,1.5118708610534668,2.382379885872731,1.175201194381878,4.266687858654493,1.1966159186871592,0.0,0.1312955829344003,0.1,0.005068302154541016,0.053679466247558594,0.048941344,1.7214819,1.6097397997544265,0.0,0.046802634000297605,0.0,200,0.013033151626586914,0.3282516900715336,0.31154356261960336,52200,3.3886463408030103,0.0
261,1.4548101425170898,1.6525467509967364,0.9143738380302133,3.022394471974559,0.6286793043443142,0.0,0.1250211594324064,0.1,0.002794981002807617,0.0517733097076416,0.049395744,1.2217474,1.6140204948786576,0.0,0.03265723759257212,0.0,200,0.014868736267089844,0.2725196554956646,0.26654312208266034,52400,3.5584244637754985,0.0
262,1.477085828781128,1.1639583650491232,0.8819512371828081,2.47281937208897,0.21848816487585207,0.0,0.12649626974333897,0.1,0.002843141555786133,0.05231642723083496,0.049628485,1.2651464,1.5690142818957042,0.0,0.022599416526380027,0.0,200,0.013375520706176758,0.44179061350879295,0.4472843284840981,52600,3.14121018184925,0.0
263,1.4384267330169678,0.949798040978416,0.5017963437151066,1.5535139287942172,0.1916912764097617,0.0,0.12493897231250163,0.1,0.0028176307678222656,0.053850650787353516,0.050214764,0.9205154,1.5070926578039754,0.0,0.018838004485175093,0.0,200,0.01331019401550293,0.5945892364138807,0.5157700322186176,52800,2.723331220557807,0.0
264,1.4036283493041992,2.5759112160392834,1.5276511530901304,4.547454852848524,0.44487619874877343,0.0,0.12671218422616065,0.1,0.002763509750366211,0.05237126350402832,0.04967339,1.3763973,1.6139745136275063,0.0,0.05114444622460043,0.0,200,0.013672828674316406,0.3972286769631293,0.39143951028888807,53000,2.6475295909195142,0.0
265,1.3986625671386719,2.290951008718309,1.4844897442400407,4.191424495344393,0.6423044487782265,0.0,0.12573062622443523,0.1,0.0029304027557373047,0.0518498420715332,0.049135752,1.2290077,1.6816721631365867,0.0,0.04545639834014278,0.0,200,0.013865947723388672,0.39450117895833986,0.37111358511963194,53200,2.9624981381777515,0.0
266,1.5336127281188965,2.1328983120089027,0.9980199423347955,3.201393538326942,1.0180181306948817,0.0,0.12398492864813834,0.1,0.0027747154235839844,0.05382204055786133,0.049944367,1.2926804,1.7267947780238182,0.0,0.04183187040205038,0.0,200,0.013960599899291992,0.2236623247672869,0.2060393757398138,53400,2.8237353027927057,0.0
267,1.401237964630127,2.619575200704934,1.7771920360634141,5.571833523480023,0.9368896326600086,0.0,0.12054218820199875,0.1,0.002874135971069336,0.051939964294433594,0.04978185,2.8764188,1.81607282029193,0.0,0.05183180564050307,0.0,200,0.015026569366455078,0.38743305907198117,0.360963483380979,53600,2.652987532515858,0.0
268,1.4352750778198242,2.734988905596944,1.1981756405264439,4.28860587664456,1.030411752565088,0.0,0.1254097144322319,0.1,0.0028913021087646484,0.053052425384521484,0.05023924,1.3484782,1.9079644288224316,0.0,0.054019332154717936,0.0,200,0.014642953872680664,0.24031667758341577,0.2027396852301869,53800,3.9142034847011082,0.0
269,1.449798822402954,0.7156994284990117,0.22469363738244288,1.0072218259732337,0.43827693507212956,0.0,0.12914883358945775,0.1,0.0028734207153320312,0.053323984146118164,0.05035274,0.98408896,1.7887379287900897,0.0,0.014304844948878544,0.0,200,0.015407085418701172,5.338528737527533,4.666140334155351,54000,3.627334864197497,0.0
270,1.4647128582000732,1.734815802205042,1.1636958286214905,3.3648285973266905,0.162988447887774,0.0,0.13023922299590832,0.1,0.002871990203857422,0.05216264724731445,0.0500977,1.1545324,1.7833457161315849,0.0,0.03463887764667991,0.0,200,0.013372421264648438,0.3913701477444966,0.3435273319716692,54200,2.9093439060822015,0.0
271,1.4232964515686035,1.7531815311910048,0.7433357653320214,2.823625241989057,0.7876592928846367,0.0,0.13428474666178847,0.1,0.0027341842651367188,0.05198216438293457,0.050052967,0.7534197,1.7803292976375271,0.0,0.03471562030775268,0.0,200,0.01465463638305664,0.18543672667757097,0.1734828047350471,54400,3.4478926254668174,0.0
272,1.508239507675171,2.99577234765287,1.0873639566491589,3.8509272496069706,1.1808209397477814,0.0,0.12011584349514298,0.1,0.0028481483459472656,0.05460619926452637,0.049747676,1.0056243,1.9018736026390615,0.0,0.05977669477803209,0.0,200,0.015583276748657227,0.2742203771671204,0.27421869119694353,54600,2.782265077181458,0.0
273,1.4530999660491943,1.853163747559117,1.246652170941016,3.717930446992698,0.3330251072759445,0.0,0.12426270797844137,0.1,0.0029141902923583984,0.0542752742767334,0.050304957,1.2083641,1.897002617131067,0.0,0.03613238478544982,0.0,200,0.016704559326171875,0.33929001757258903,0.33048659050071644,54800,2.615807044135243,0.0
274,1.4547414779663086,1.3035344259399726,0.7435683426593537,2.12502748831339,0.1570436442604773,0.0,0.1280487528394477,0.1,0.002736806869506836,0.05210757255554199,0.04977614,0.931169,1.8376557980119574,0.0,0.025981406361078374,0.0,200,0.013959169387817383,0.4598613274116179,0.44247180272153536,55000,2.2137980961074786,0.0
275,1.4308364391326904,2.383541382351554,0.941673242010829,3.666309254746078,1.0305812316896423,0.0,0.12663423919708647,0.1,0.0028543472290039062,0.05354046821594238,0.050200187,1.0674682,1.8922443564459173,0.0,0.04713507378066706,0.0,200,0.013610363006591797,0.2110609221724821,0.2063929678612521,55200,2.002746160069702,0.0
276,1.412581443786621,1.4583706369212739,0.9839529479502349,2.9830068658401294,0.4688894688399951,0.0,0.12373303342609039,0.1,0.0027899742126464844,0.05237722396850586,0.049723916,1.2407347,1.8488569844934528,0.0,0.02901345385507017,0.0,200,0.013979196548461914,0.3877779062985182,0.385096896295297,55400,1.8147820226029365,0.0
277,1.4542412757873535,1.0658181947391538,0.7835929275830363,2.0070818657758123,0.06931600494357479,0.0,0.12639809137700034,0.1,0.002920866012573242,0.052431583404541016,0.050162185,0.8907621,1.770553105518023,0.0,0.021124028189242514,0.0,200,0.013672828674316406,0.7449047887428398,0.6524846893248687,55600,1.7351747516595435,0.0
278,1.4348163604736328,2.4997749815905617,1.6142403408949642,4.840746424315067,0.5932074045744226,0.0,0.12494868221801057,0.1,0.002901315689086914,0.05603194236755371,0.04994086,1.5608732,1.843475293125277,0.0,0.049847417735114335,0.0,200,0.013993501663208008,0.36312412676299205,0.3701186612465342,55800,1.8617860928347243,0.0
279,1.494682788848877,2.519923476169631,1.4269260535823876,3.9734313992526067,0.4907905594984616,0.0,0.12596347471064812,0.1,0.002910137176513672,0.053215742111206055,0.05025568,1.0653111,1.9111201114297125,0.0,0.050093309132528754,0.0,200,0.01460886001586914,0.3542445072740391,0.3423254406954991,56000,1.9313998050740642,0.0
280,1.5630273818969727,1.2503922672317873,1.2034410239701994,3.248184651137648,0.24150161399444015,0.0,0.12145635518878971,0.1,0.002933502197265625,0.0564112663269043,0.050092522,1.3917098,1.8450473270099201,0.0,0.024754377177760373,0.0,200,0.016177654266357422,0.5894526442715554,0.5988808459876366,56200,2.0991603642429393,0.0
281,1.4444348812103271,2.7264426686595886,1.2921959223056878,4.387355834133698,1.1195554700435535,0.0,0.1298168954972274,0.1,0.0028951168060302734,0.05813765525817871,0.04986742,1.4123237,1.933186861174887,0.0,0.053846787869369146,0.0,200,0.014745473861694336,0.2804003928285479,0.26442345310688325,56400,2.1082933263461974,0.0
282,1.5341551303863525,1.9573101896499008,0.7683833323043593,3.1325819055862407,1.0579926768493937,0.0,0.12396299561000872,0.1,0.004349470138549805,0.05295276641845703,0.050138086,2.8574939,1.9355991940223884,0.0,0.03873756726421595,0.0,200,0.013402462005615234,0.19701827924435047,0.19576685884650585,56600,1.6388957249414435,0.0
283,1.434337854385376,1.69849692105575,0.7620641076422072,2.967914760793867,0.9351219137252804,0.0,0.13497654718563665,0.1,0.0028858184814453125,0.05733752250671387,0.04976441,1.2566835,1.9118889667257246,0.0,0.033584975247988855,0.0,200,0.015985727310180664,0.220471066223379,0.22780504282696604,56800,1.2121293213017106,0.0
284,1.4549283981323242,2.3558942923854307,1.3008735232895312,4.09239507678244,0.9059922466301874,0.0,0.11687252627469007,0.1,0.0028450489044189453,0.05286240577697754,0.04993609,1.6479578,1.9562894992916955,0.0,0.04678075776602586,0.0,200,0.01396799087524414,0.25817192453889504,0.2543736441397517,57000,1.2844342486957523,0.0
285,1.451246738433838,3.114415346113162,1.1213644937545642,4.547442687749219,1.5863032558685537,0.0,0.12434882463387718,0.1,0.0027577877044677734,0.052785634994506836,0.049681734,1.2453171,2.072102083973842,0.0,0.06123917730944848,0.0,200,0.013234376907348633,0.2379282906978486,0.2067123155440096,57200,1.5843271158128636,0.0
286,1.4436991214752197,1.1770439705909492,0.5519079325098328,1.7508748122531554,0.5362282800182111,0.0,0.126485649398999,0.1,0.0028028488159179688,0.05277442932128906,0.050053086,0.6758595,1.982596272635553,0.0,0.02338066602502791,0.0,200,0.013482332229614258,0.8433529972129882,0.8723443008978006,57400,1.4917689172430677,0.0
287,1.4740231037139893,2.3908456110944942,1.0499383990319089,3.940117480848692,1.2500539580009637,0.0,0.1284816854153911,0.1,0.002780914306640625,0.0532529354095459,0.049514245,1.8318677,2.023421206481447,0.0,0.047495188468359054,0.0,200,0.015154361724853516,0.20225857231048816,0.200207056277699,57600,1.3028821202785852,0.0
288,1.5647006034851074,1.4807392478069492,1.4014350674755836,3.8046450246685115,0.22064608357310592,0.0,0.1276822471341805,0.1,0.003394603729248047,0.05621838569641113,0.049944,1.4810557,1.9691530106139972,0.0,0.029251346903743973,0.0,200,0.01620006561279297,0.5862977224359761,0.5430499746404005,57800,1.5219830120404536,0.0
289,1.5284597873687744,1.7548935726512007,1.172341810998481,3.525381749325342,0.3384054179041803,0.0,0.12274678940039438,0.1,0.002733469009399414,0.05327796936035156,0.049770255,1.3643528,1.9477270668177176,0.0,0.034415214855286716,0.0,200,0.01332235336303711,0.3607502821807527,0.3325874045707669,58000,2.8508688932393293,0.0
290,1.506772756576538,3.5371508099830944,0.2482589158175547,3.9131696422015905,3.2179629337269096,0.0,0.12633834586426926,0.1,0.0028231143951416016,0.053610801696777344,0.04946959,1.2275623,2.1066694411342555,0.0,0.0705078848546909,0.0,200,0.012952566146850586,0.21160568961897624,0.19790615779637546,58200,2.2006229529400043,0.0
291,1.4573290348052979,2.195461754031042,0.8411309116844401,3.3020476183389422,1.1165369052626841,0.0,0.1309729108141519,0.1,0.002821683883666992,0.05174565315246582,0.05029738,1.3198066,2.1155486724239343,0.0,0.04315389051929697,0.0,200,0.013470649719238281,0.20296039555487452,0.18866870664623112,58400,4.214064758756538,0.0
292,1.5594239234924316,2.4479303852731435,0.6428699476681967,3.386882641667557,1.7189311273740908,0.0,0.1275900627619579,0.1,0.0030515193939208984,0.05256962776184082,0.050124332,1.2138783,2.148786843708855,0.0,0.04842476941172192,0.0,200,0.013853788375854492,0.14453519478891463,0.12380853707012797,58600,3.465033708391012,0.0
293,1.4507875442504883,2.1045891558331795,1.3870058784363997,3.8705414419293356,0.41815346812511395,0.0,0.12889283553386577,0.1,0.0027832984924316406,0.05283713340759277,0.049801383,1.1246107,2.1443670749212878,0.0,0.041444301910440656,0.0,200,0.013376951217651367,0.3230094977312765,0.33331398549555347,58800,2.7750811552796706,0.0
294,1.5436978340148926,2.206106886999923,1.583140424678246,4.259569366166047,0.3679355968200757,0.0,0.12745239427842406,0.1,0.0028977394104003906,0.05320286750793457,0.049746286,1.0298831,2.150541056129151,0.0,0.04397686668064417,0.0,200,0.014681339263916016,0.3740094691164168,0.37194174583269307,59000,2.4235046729165957,0.0
295,1.5722665786743164,2.3051282520968375,1.4806997144460523,4.713920339148371,0.7381824109098032,0.0,0.12373174174200596,0.1,0.002735614776611328,0.05332469940185547,0.049343947,1.6090293,2.1659997757259197,0.0,0.045690482609269105,0.0,200,0.01487588882446289,0.32145801701406435,0.3157826820779322,59200,2.6389578001162657,0.0
296,1.4896814823150635,2.3487083220746343,0.957051840874601,3.371979868809327,0.8011553297993549,0.0,0.12280279506481707,0.1,0.002871274948120117,0.05294060707092285,0.050160013,0.7057092,2.1842706303607913,0.0,0.04660305485779763,0.0,200,0.016094446182250977,0.16353032279467414,0.16116210779857404,59400,2.8266309091050013,0.0
297,1.5248222351074219,2.030224929907423,1.9590841384585038,5.301539222816259,0.44296173052040533,0.0,0.12847532966516467,0.1,0.002742290496826172,0.05264472961425781,0.049426764,1.8395298,2.1688660603154544,0.0,0.03953367863160185,0.0,200,0.013552665710449219,0.5295847648278234,0.5167271642137099,59600,2.7387729126377187,0.0
298,1.584247350692749,1.2488463074354406,0.712806712282469,1.8822778622728413,0.1001224743641025,0.0,0.12523054158773542,0.1,0.0027341842651367188,0.05253243446350098,0.049465865,1.1455437,2.076864085027453,0.0,0.024569660512775458,0.0,200,0.013200759887695312,0.6647981329368011,0.492169145117832,59800,2.50909160559823,0.0
299,1.5197689533233643,1.4854537296302783,1.2000206925513746,3.4639723922213173,0.34694765200798067,0.0,0.12932476113298785,0.1,0.0026831626892089844,0.05403780937194824,0.049838066,1.3258437,2.017723049487736,0.0,0.029292276554535278,0.0,200,0.014376640319824219,0.5001099666764688,0.4525103970056165,60000,3.2851248679858283,0.0
300,1.5314457416534424,1.3668964300373065,1.2719366240219425,3.496327967717348,0.13285883477632177,0.0,0.13342607912032362,0.1,0.0027761459350585938,0.05271291732788086,0.050384827,1.3100212,1.9526403875426928,0.0,0.027043715213021232,0.0,200,0.014158248901367188,0.5319695385718907,0.4985107262724296,60200,3.5460577713248167,0.0
301,1.4585304260253906,1.7990096564882054,1.1313170714718224,3.374669075133997,0.34212621156637557,0.0,0.12348879534929538,0.1,0.0030317306518554688,0.05441164970397949,0.050239973,1.2428353,1.9372773144372442,0.0,0.03393743744374848,0.0,200,0.014297246932983398,0.3189778059070908,0.32815709345879357,60400,3.156149638329639,0.0
302,1.436607837677002,1.8331563614939876,1.1502114019700953,3.6141478140082617,0.5947702401152583,0.0,0.13251463864385307,0.1,0.0028519630432128906,0.05364584922790527,0.050843284,1.5065445,1.9268652191429185,0.0,0.036572374921994846,0.0,200,0.014256477355957031,0.31970190139175464,0.31847085839758904,60600,1.9014648351401642,0.0
303,1.4344754219055176,1.9723121057300141,0.6490655361775821,2.8129267645233673,0.9938050424722102,0.0,0.1301086761480796,0.1,0.0028505325317382812,0.0533144474029541,0.04960434,1.0215652,1.931409907801628,0.0,0.03914457456995367,0.0,200,0.015206098556518555,0.19264958853486625,0.17505803471488637,60800,3.1473503417844726,0.0
304,1.4275860786437988,2.6937309712540696,1.5377547101597573,4.344541160249398,0.7042838571123323,0.0,0.12582164251898031,0.1,0.0028650760650634766,0.05398869514465332,0.0495944,1.2454628,2.0076420141468723,0.0,0.053483234082820616,0.0,200,0.013473033905029297,0.4019045227733825,0.36255711829207093,61000,4.229078699675736,0.0
305,1.4997379779815674,2.1854859418769492,1.7388380154507834,4.8992345485886135,0.4720985004578037,0.0,0.1225618057888296,0.1,0.0027472972869873047,0.052559852600097656,0.04972681,1.6294036,2.02542640691988,0.0,0.04327588742342147,0.0,200,0.016446828842163086,0.43258390585284895,0.4093329295119034,61200,3.843987194736849,0.0
306,1.501455307006836,1.7602025814363786,1.2286764265756196,3.5087190613502206,0.48406537233776376,0.0,0.12189252748720279,0.1,0.0030426979064941406,0.053913116455078125,0.049925584,2.0496469,1.99890402437153,0.0,0.035168299574015696,0.0,200,0.014575481414794922,0.41112909312768836,0.4301978419522481,61400,3.828356710651193,0.0
307,1.4825923442840576,2.6940649792333073,0.6482455552387112,3.749821603473777,1.988483348881257,0.0,0.12706285820851992,0.1,0.0028450489044189453,0.05226540565490723,0.050006557,0.9509723,2.0684201198577075,0.0,0.05342625019345712,0.0,200,0.013817787170410156,0.11705109648410403,0.10295679774110124,61600,3.557838584401934,0.0
308,1.4960370063781738,2.756427481949978,0.8056674684654777,3.8972348769415928,1.950638905720582,0.0,0.12678616236428256,0.1,0.002737283706665039,0.052374839782714844,0.049687248,1.9262233,2.1372208560669343,0.0,0.054572873554324164,0.0,200,0.013727903366088867,0.13161371689168966,0.110883235780911,61800,3.6230370872775697,0.0
309,1.516000747680664,2.6456426480092765,1.8406047483517605,5.034006820625423,0.7553463839885528,0.0,0.1252308506289592,0.1,0.002650022506713867,0.05176115036010742,0.049661282,1.2330548,2.1880630352611687,0.0,0.05187948036695224,0.0,200,0.013808012008666992,0.35321570467853447,0.346674469350888,62000,3.399150297516394,0.0
310,1.5095312595367432,2.528659204241543,1.575611066569993,4.569498304213327,0.6268438206592956,0.0,0.121244955147685,0.1,0.0027680397033691406,0.053217411041259766,0.04967923,1.3215338,2.2221226521592063,0.0,0.050197556620412656,0.0,200,0.013609170913696289,0.2880528718699162,0.2897780577484194,62200,3.5389870795712057,0.0
311,1.4868309497833252,2.697814247538939,1.8363059855138775,5.454867853194682,0.37535487287400154,0.0,0.129671240337924,0.1,0.0027332305908203125,0.053171634674072266,0.04994437,1.2494128,2.2696918116971796,0.0,0.05306531540551331,0.0,200,0.014480352401733398,0.3500469193432292,0.34784401095218065,62400,4.5000339762427535,0.0
312,1.4469630718231201,1.7319475298193656,0.9160045653795833,3.2297104152494382,0.9848911836337854,0.0,0.13377878969732052,0.1,0.0027990341186523438,0.0529632568359375,0.05010074,1.0335513,2.215917383509398,0.0,0.034163081059731676,0.0,200,0.013654947280883789,0.6229567266418796,0.4456769509735951,62600,3.1302731384760474,0.0
313,1.4722492694854736,1.8517718408700024,0.5754379123182634,2.7232759418212833,1.2840791500676123,0.0,0.12809280082432264,0.1,0.002759218215942383,0.05315756797790527,0.04989464,0.9172086,2.1795028292454584,0.0,0.03649746286525537,0.0,200,0.014401912689208984,0.2972024643495715,0.16160355881035,62800,3.9392667666977945,0.0
314,1.472120761871338,2.138151712487185,1.572690575569349,4.489876664424327,0.6254177782782676,0.0,0.12811423273759584,0.1,0.0028417110443115234,0.05308246612548828,0.050130773,1.2734638,2.175367717569631,0.0,0.042536224172616655,0.0,200,0.013553857803344727,0.3568769647609155,0.36259774260260075,63000,3.568450609476301,0.0
315,1.4701087474822998,2.643513444518086,1.0709020854402214,4.214778187756673,1.3767413595322502,0.0,0.12706862017579254,0.1,0.0027391910552978516,0.052893877029418945,0.049817104,1.4677032,2.2221822902644766,0.0,0.052830824331991426,0.0,200,0.014004945755004883,0.22407793241787977,0.22830089695297062,63200,4.277794197459704,0.0
316,1.5476179122924805,1.9247548822701142,1.0427966650405938,2.67290275134483,0.12545992521418464,0.0,0.12401557625290514,0.1,0.0028688907623291016,0.053070068359375,0.050039444,0.8840004,2.1924395494650404,0.0,0.037784000415235025,0.0,200,0.013406753540039062,0.28157115671681593,0.26865649462618807,63400,4.326987058010315,0.0
317,1.5162432193756104,2.6038670326181874,1.463108389497739,4.554992951001386,0.5959369221393618,0.0,0.12254138260889648,0.1,0.0026612281799316406,0.05166316032409668,0.049781922,1.3926079,2.233582297780355,0.0,0.051857203038196784,0.0,200,0.01349329948425293,0.31741308170998583,0.2961454335999457,63600,2.546624479450153,0.0
318,1.4851372241973877,1.5828391702388536,1.0641830838926172,2.930911625227471,0.3401769792761751,0.0,0.13189610162751395,0.1,0.002722501754760742,0.052774906158447266,0.04964639,0.97953516,2.168507985026205,0.0,0.03103045714148571,0.0,200,0.013349294662475586,0.4024977725173211,0.41497058091546435,63800,4.034862246068544,0.0
319,1.3917922973632812,1.9027342607512938,0.7503263642369385,2.5339469377354034,0.641108472771864,0.0,0.13038760075498518,0.1,0.002886056900024414,0.053401947021484375,0.049898375,0.89642286,2.141930612598714,0.0,0.03758043066452705,0.0,200,0.0148468017578125,0.168293650517771,0.1661507672932356,64000,3.301872241850278,0.0
320,1.4642126560211182,1.0264795147424781,0.8803008534412842,2.4470391128514297,0.22316308460482673,0.0,0.1294111786301181,0.1,0.0029718875885009766,0.05224871635437012,0.0497278,1.1014838,2.0303855028130906,0.0,0.02026839870555791,0.0,200,0.013791084289550781,1.0575060696089826,0.869715984053308,64200,3.713144669993831,0.0
321,1.436058521270752,2.2483538904763365,1.111641450094292,4.015995129072215,1.1450161269654942,0.0,0.12420067579208124,0.1,0.0028295516967773438,0.054036617279052734,0.049769692,2.3199434,2.052182341579415,0.0,0.04466717209991833,0.0,200,0.01616835594177246,0.24243916856859407,0.25458430451948466,64400,3.9583598072578794,0.0
322,1.5058269500732422,1.257886374944334,0.7856156176273854,2.058559543241358,0.3214213021232612,0.0,0.12889298869495913,0.1,0.002846240997314453,0.05318474769592285,0.049577784,1.187316,1.9727527449159072,0.0,0.02492302792461454,0.0,200,0.014868497848510742,0.4099908824370328,0.3601748640207383,64600,4.187145383618874,0.0
323,1.4711458683013916,2.6500809006960058,1.1130760621531843,3.7953298886016276,0.9381016368266123,0.0,0.13161946660358584,0.1,0.0027539730072021484,0.05231833457946777,0.049656134,0.8887787,2.0404855604939174,0.0,0.052772217347493086,0.0,200,0.013926267623901367,0.2770702437082636,0.27938909446173343,64800,4.094167037377144,0.0
324,1.4658546447753906,1.5997376299456034,1.2258962194225356,3.619810571865427,0.3122453986787974,0.0,0.12246560686631511,0.1,0.002733945846557617,0.05274629592895508,0.0494442,1.7823583,1.996410767439086,0.0,0.03170725913434157,0.0,200,0.014366626739501953,0.37749065771994733,0.3769690664575816,65000,4.039015066203501,0.0
325,1.484065055847168,2.8480728297694893,0.8927552445070415,3.9859642233616404,1.7658922375226416,0.0,0.12576498672784253,0.1,0.0028069019317626953,0.05593466758728027,0.05017051,1.3666666,2.0815769736721266,0.0,0.055916513919953025,0.0,200,0.014171838760375977,0.28198279056896913,0.24734058397096473,65200,4.0616095691726795,0.0
326,1.4879446029663086,1.810526921652388,1.229293562785143,3.877485772921275,0.8307856341252448,0.0,0.12450411199008815,0.1,0.002878904342651367,0.052545785903930664,0.04938081,3.0129964,2.054471968470153,0.0,0.03609020036114255,0.0,200,0.014027118682861328,0.34852572108919805,0.3604051771393423,65400,4.018395145108888,0.0
327,1.5546634197235107,3.0909524975179443,1.300289019349026,4.706909505786296,1.2773949424606759,0.0,0.12298752974523759,0.1,0.0026984214782714844,0.05187201499938965,0.050379273,1.3943399,2.1581200213749323,0.0,0.06131630117278847,0.0,200,0.014360189437866211,0.2902941975261139,0.25878373157126516,65600,3.6221162086312666,0.0
328,1.4592063426971436,2.458655878121337,0.6487217453539165,3.426493867413914,1.776036360321801,0.0,0.12681583271082844,0.1,0.002742767333984375,0.051819801330566406,0.049957156,1.4672608,2.1881736070495728,0.0,0.048875949722661335,0.0,200,0.0161130428314209,0.11164093868597703,0.10056852339465949,65800,4.318414114707114,0.0
329,1.4832355976104736,2.1018476817089202,1.254193824308523,4.240224716208481,1.1616721318806877,0.0,0.12656208284137185,0.1,0.002834320068359375,0.05180072784423828,0.049741577,1.6822988,2.1795410145155074,0.0,0.041510413616574926,0.0,200,0.015375852584838867,0.2740630393854851,0.2858532278051521,66000,4.562576828790831,0.0
330,1.5552887916564941,3.777087384212498,1.1136241994734892,5.248751570515482,2.122293177143964,0.0,0.1246655161641928,0.1,0.002882719039916992,0.05365347862243652,0.049592745,2.317558,2.3392956514852066,0.0,0.07505932544711105,0.0,200,0.01509404182434082,0.20249169827342328,0.16339095048358046,66200,3.107471959390715,0.0
331,1.5614607334136963,2.311751081774089,1.0362288735813148,4.098954407458108,1.5960710594514558,0.0,0.1227846873168675,0.1,0.0027942657470703125,0.05334615707397461,0.049282,1.4687986,2.3365411945140946,0.0,0.045610847332059716,0.0,200,0.014860391616821289,0.2066441947187246,0.23282303502105767,66400,2.7611925286607746,0.0
332,1.551321268081665,2.4700276462304167,1.5384474137852922,4.282152232684645,0.37655232740730127,0.0,0.12372782177365142,0.1,0.002779245376586914,0.05515575408935547,0.04991725,0.89929384,2.349889839685727,0.0,0.04844224341971955,0.0,200,0.014386415481567383,0.30205177602007954,0.2933047186161225,66600,2.8378428453239226,0.0
333,1.5809903144836426,2.433625772283416,1.6832039061299462,4.681955987684722,0.22179563780579922,0.0,0.12233668927289854,0.1,0.0025942325592041016,0.05206918716430664,0.050102882,1.5032805,2.3582634329454955,0.0,0.04829836371189508,0.0,200,0.014903545379638672,0.36955591178580494,0.35029238123219303,66800,3.3104265561087267,0.0
334,1.4564948081970215,1.7876913145121858,1.326349292343261,3.826511429586497,0.16550591849971222,0.0,0.12552577916374943,0.1,0.0028526782989501953,0.05339956283569336,0.050135527,1.9115851,2.3012062211021647,0.0,0.03567565389293579,0.0,200,0.015585184097290039,0.5507959238373477,0.4427828554230007,67000,3.2689961507654774,0.0
335,1.466113805770874,1.8035291482375682,0.9274262847301755,3.0129032320618365,0.40797092507200106,0.0,0.11759371498754828,0.1,0.002845287322998047,0.05272316932678223,0.05000939,0.98197615,2.251438513815705,0.0,0.03556371668673783,0.0,200,0.015408992767333984,0.33647760598320403,0.2773339586548441,67200,0.9040224869869804,0.0
336,1.4718163013458252,3.674727097505862,1.7607510114411709,6.427250470241518,1.9652532463929704,0.0,0.1234384600569001,0.1,0.0029020309448242188,0.056372880935668945,0.05012987,1.7184715,2.393767372184721,0.0,0.07264494074038186,0.0,200,0.01583242416381836,0.3441244458597362,0.34474901898017335,67400,2.6418662174810654,0.0
337,1.4524497985839844,2.1970366424475336,1.837063132861897,4.826676280608823,0.2544678980765455,0.0,0.12071888958499691,0.1,0.0027723312377929688,0.05286049842834473,0.049718942,1.4279382,2.374094299211002,0.0,0.043228406375709585,0.0,200,0.015463590621948242,0.4582862374272959,0.45456141921109294,67600,2.875700409222363,0.0
338,1.4644551277160645,2.0067811111598886,1.423477803810499,4.207642063308028,0.3808367705149724,0.0,0.12369476976393289,0.1,0.002856731414794922,0.05196118354797363,0.049934223,1.2964092,2.337362980405891,0.0,0.03995725960030286,0.0,200,0.017554283142089844,0.3549552123973801,0.35666744466506495,67800,3.455992276079165,0.0
339,1.4213440418243408,2.2858995709698653,1.425942092909345,3.9974978053144503,0.13459455693807879,0.0,0.12306959840084962,0.1,0.0029366016387939453,0.05310821533203125,0.049529605,1.0250587,2.3322166394622883,0.0,0.04538697081651518,0.0,200,0.015437841415405273,0.28206307933734287,0.28168650603076884,68000,2.581232620692751,0.0
340,1.4198341369628906,1.7612683526644997,0.7483421584125022,2.9109728212355965,1.0475639743861866,0.0,0.12350906709930158,0.1,0.0028650760650634766,0.052777767181396484,0.049709395,1.1514665,2.2751218107825095,0.0,0.03444062843844998,0.0,200,0.015761375427246094,0.24225335351275895,0.2280765584041347,68200,3.1405018940114444,0.0
341,1.4405229091644287,3.437556487508263,1.8008526296666014,5.222755778256579,1.1553739081210008,0.0,0.12566983906768217,0.1,0.0027179718017578125,0.05258321762084961,0.049998447,1.0572451,2.3913652784550847,0.0,0.0682921402732692,0.0,200,0.015297174453735352,0.3185862425148588,0.304299536647096,68400,3.0184736334735565,0.0
342,1.460824966430664,1.5247449661987462,0.6202995699451848,2.3194305592135813,0.6502642668753035,0.0,0.12777924241663097,0.1,0.002821207046508789,0.0520479679107666,0.050175287,0.86632353,2.304703247229451,0.0,0.029536598315554604,0.0,200,0.015301227569580078,0.42633086407362825,0.44438167014889174,68600,3.2587407720422923,0.0
343,1.5292887687683105,1.7983265287892591,1.2327665095848854,3.57937713553809,0.15477917830005444,0.0,0.12807854724169948,0.1,0.0027573108673095703,0.052031517028808594,0.05051242,0.98353827,2.254065575385432,0.0,0.035011279277034756,0.0,200,0.015401840209960938,0.3809321889499041,0.3620333257763867,68800,3.5713775181367637,0.0
344,1.5233216285705566,2.6425334800995746,1.633372395005111,4.712586502656601,0.48325994552155727,0.0,0.12567139115146606,0.1,0.0029325485229492188,0.052076101303100586,0.049875755,1.2570058,2.292912365856846,0.0,0.051825360847245885,0.0,200,0.01659560203552246,0.3268812605181476,0.33009377572384796,69000,3.5725175470293884,0.0
345,1.443983554840088,1.9319704486301963,1.0069566741524247,2.9470143924778056,0.2957548811999214,0.0,0.13590879054854071,0.1,0.002834796905517578,0.05262303352355957,0.05015104,0.7497319,2.256818174134181,0.0,0.038333785593802315,0.0,200,0.015597820281982422,0.23215849354033788,0.22558736049694084,69200,3.177647856167186,0.0
346,1.5323195457458496,2.583201641000046,1.3747614733294615,4.288670154573113,0.5870343100299237,0.0,0.13042451134584965,0.1,0.0028781890869140625,0.05287885665893555,0.04962712,0.91090935,2.2894565208207673,0.0,0.05098360985724432,0.0,200,0.01573634147644043,0.271112175120572,0.26944131369537555,69400,3.3097466615907347,0.0
347,1.511364221572876,3.2782258446038837,1.2073396161622898,4.364460879324778,1.2550791952864788,0.0,0.12608328333505275,0.1,0.00278472900390625,0.05142474174499512,0.050382387,0.7813666,2.388333453199079,0.0,0.06477415301923684,0.0,200,0.016248226165771484,0.22888912874835013,0.20425626997105575,69600,4.159375275813226,0.0
348,1.4978272914886475,2.65669166211568,1.8031635984447731,4.7187906048503185,0.2261674296175154,0.0,0.12504668446992503,0.1,0.002783060073852539,0.051792144775390625,0.049680304,1.0097096,2.415169274090739,0.0,0.05264957722284484,0.0,200,0.015604496002197266,0.3374479963203125,0.330819286994734,69800,3.678090225982764,0.0
349,1.4320292472839355,1.9130412591527406,1.5776131491342054,3.6221741383981665,0.3072290357242655,0.0,0.12219925831498663,0.1,0.0029227733612060547,0.0531458854675293,0.05082487,1.2277752,2.364956472596939,0.0,0.03810306902596608,0.0,200,0.016470909118652344,0.4823058892735945,0.48577376530729216,70000,3.396010274629717,0.0
350,1.500309944152832,3.0553518395176162,1.7217024736945312,4.847714273657143,0.32907402710047423,0.0,0.12620807377956558,0.1,0.002811908721923828,0.05305767059326172,0.05057247,0.94251406,2.433996009289007,0.0,0.060908090650134014,0.0,200,0.016428709030151367,0.27162220268722287,0.26563137574296114,70200,2.3470698525829636,0.0
351,1.4560341835021973,2.0109820672221987,1.7403489609128233,4.940244796863559,0.3707465574361981,0.0,0.11920138712254248,0.1,0.00284576416015625,0.054323673248291016,0.049423285,2.2509003,2.391694615082326,0.0,0.0401200905089061,0.0,200,0.01652050018310547,0.473061909119858,0.4665989069076911,70400,2.948597117894781,0.0
352,1.4978196620941162,2.8969555390378234,1.2002567577751868,4.715642780279662,1.7052651819183395,0.0,0.12154720503345708,0.1,0.0028111934661865234,0.052306413650512695,0.049341645,1.8239183,2.442220707477876,0.0,0.0573494113382263,0.0,200,0.015994548797607422,0.1713660344307457,0.17197125498937268,70600,1.7253287256815526,0.0
353,1.4518404006958008,1.9471369705801256,1.5001312648134326,4.430521044068979,0.5472377670083922,0.0,0.12263548687184148,0.1,0.0029098987579345703,0.05272698402404785,0.050013524,1.5045042,2.3927123337881016,0.0,0.03875217380146218,0.0,200,0.01708364486694336,0.4099187586534682,0.3938455197702172,70800,3.381512644201185,0.0
354,1.4418249130249023,2.6450671162736095,1.127887900063436,3.9926368082797654,0.864038860947547,0.0,0.12334965088944824,0.1,0.003133058547973633,0.054882049560546875,0.050443254,0.88961774,2.4179478120366524,0.0,0.05268735556909648,0.0,200,0.016733169555664062,0.18761474637683315,0.18838224957690286,71000,2.1530097727296202,0.0
355,1.4681308269500732,1.9888936676212376,0.08518055628251459,2.1345171023803537,1.920843377208676,0.0,0.126832538734053,0.1,0.0027539730072021484,0.05208325386047363,0.049815807,0.9213932,2.3750423975951107,0.0,0.03909946969721613,0.0,200,0.016142606735229492,0.09534214947930023,0.07376853769521063,71200,1.8894068029705158,0.0
356,1.5460882186889648,2.700957778039729,1.4870823920133667,4.364097105827586,0.6201050288682033,0.0,0.12864986583671928,0.1,0.0027878284454345703,0.05417680740356445,0.05013263,0.87131166,2.4076339356395726,0.0,0.05297793105879675,0.0,200,0.02091193199157715,0.2748739274554024,0.27535238554712393,71400,1.6565297527656462,0.0
357,1.5222663879394531,1.5821409449049977,0.840944365805702,2.6433276105340093,0.7318400713337463,0.0,0.1210083019186613,0.1,0.0028171539306640625,0.053444623947143555,0.04972225,0.8597137,2.3250846365661153,0.0,0.030570085421711184,0.0,200,0.020334243774414062,0.42131677638010184,0.3747188529351475,71600,1.5357911835313622,0.0
358,1.5583550930023193,1.8369532487985332,0.6250226421029962,2.533102648899958,1.1700434929477166,0.0,0.13056108987344672,0.1,0.002992391586303711,0.05200505256652832,0.049954824,1.8001084,2.2762714977893572,0.0,0.0365047774663029,0.0,200,0.01716780662536621,0.18797733275451922,0.1556068563473011,71800,1.3629189075648107,0.0
359,1.5718989372253418,1.5220386327069277,1.61942524897229,4.294611380695223,0.3869022622530904,0.0,0.12209338147310032,0.1,0.002794504165649414,0.052425384521484375,0.05040194,1.2954161,2.2008482112811145,0.0,0.030211157347738996,0.0,200,0.01686406135559082,0.5670238577532929,0.5417763206042724,72000,3.0517816109416454,0.0
360,1.5275683403015137,1.9297574748602466,1.4459726742929784,4.371782023280518,0.6099736684173245,0.0,0.12497848641587736,0.1,0.0028238296508789062,0.05275702476501465,0.04978376,1.7506452,2.1737391376390276,0.0,0.03831193301661764,0.0,200,0.017419099807739258,0.37474477126074346,0.37858150743118385,72200,0.6148632260202064,0.0
361,1.5673134326934814,1.6893574260744408,1.604933470630078,4.429595829431516,0.3549109000210856,0.0,0.12937880275914004,0.1,0.0029077529907226562,0.052793025970458984,0.050156187,1.2360864,2.125300966482569,0.0,0.03337243481611136,0.0,200,0.017033100128173828,0.45874777151497054,0.4576391717649556,72400,0.8739510755950545,0.0
