iteration,time_sampling,stoc_pol_mean,stoc_pol_std,stoc_pol_max,stoc_pol_min,rollout_success,alpha,delta,time_vpg,time_npg,kl_dist,surr_improvement,running_score,rwd_sparse,rwd_dense,success_percentage,num_samples,time_VF,VF_error_before,VF_error_after,env_samples,eval_score,eval_success
0,1.6536259651184082,-0.9999595507044081,1.5297914823972872e-06,-0.9999579203171105,-0.9999619056662441,0.0,0.04903470729112944,0.1,0.015201568603515625,0.02776932716369629,0.041433454,8.846875,-0.9999595507044081,0.0,-0.03999970755221548,0.0,4,0.0013184547424316406,0.8222467752925481,0.8222467752925481,4,-0.9997281528086758,0.0
1,1.6277379989624023,-0.99957448543075,0.0006610233763942064,-0.9984295740135702,-0.9999614928792289,0.0,0.06477451609542755,0.1,0.0014615058898925781,0.027385234832763672,0.04970348,5.508496,-0.9999210441770423,0.0,-0.03999983977050994,0.0,4,0.001127481460571289,0.8220137630637668,0.8220137630637668,8,-0.9998786879220618,0.0
2,1.5765187740325928,-0.9998296357146821,0.00021459505954057428,-0.9994583401618258,-0.9999617693579206,0.0,0.05965244738186701,0.1,0.0015292167663574219,0.027412891387939453,0.047430627,7.316775,-0.9999119033308063,0.0,-0.039999333401118796,0.0,4,0.0012073516845703125,0.8221712408261419,0.8221712408261419,12,-0.9999079060160883,0.0
3,1.370664119720459,-0.9999590090675099,5.31818163854439e-06,-0.999949982251038,-0.9999637475051579,0.0,0.053814988750101815,0.1,0.0016906261444091797,0.030716896057128906,0.047893256,7.3107104,-0.9999166139044767,0.0,-0.039999328759637784,0.0,4,0.0013265609741210938,0.8220369272430634,0.8220369272430634,16,-0.9999117514005168,0.0
4,1.6969048976898193,-0.9999611133546085,1.257146445522888e-06,-0.9999598557791156,-0.9999630988036114,0.0,0.06475900675493386,0.1,0.00139617919921875,0.026994943618774414,0.051402412,1.6818534,-0.9999210638494899,0.0,-0.03999955276024305,0.0,4,0.0011134147644042969,0.8220438201848462,0.8220438201848462,20,-0.9998427342146202,0.0
5,1.5523769855499268,-0.9995581453345923,0.000685788467496793,-0.9983704353942529,-0.9999622097497358,0.0,0.06902772821921774,0.1,0.0014491081237792969,0.02799391746520996,0.048914656,3.8767447,-0.9998847719980002,0.0,-0.03999789448640129,0.0,4,0.0012440681457519531,0.8218439569325042,0.8218439569325042,24,-0.9999092636119992,0.0
6,1.6070046424865723,-0.9999431304227551,1.392646816274877e-05,-0.9999218526736151,-0.9999588526824355,0.0,0.059605893378665224,0.1,0.00144195556640625,0.02962660789489746,0.046147518,7.108091,-0.9998906078404757,0.0,-0.03999984588077939,0.0,4,0.0012805461883544922,0.8221381667339298,0.8221381667339298,28,-0.9999096054465236,0.0
7,1.5079071521759033,-0.9998878681397001,4.733368856916234e-05,-0.9998431215365868,-0.9999600550230534,0.0,0.08940522808668697,0.1,0.0016243457794189453,0.027358293533325195,0.04901021,1.7040297,-0.9998903338703982,0.0,-0.039999918231691016,0.0,4,0.0012700557708740234,0.8221464681941285,0.8221464681941285,32,-0.9997621571994033,0.0
8,1.5311279296875,-0.9999568933949841,7.396387484632525e-06,-0.999944426629787,-0.999963774039949,0.0,0.05856418357653536,0.1,0.0014331340789794922,0.027453184127807617,0.050535172,2.2225032,-0.9998969898228568,0.0,-0.039999679547895836,0.0,4,0.0011675357818603516,0.8222706299330207,0.8222706299330207,36,-0.9998909325755552,0.0
9,1.4890806674957275,-0.9991903975694387,0.0013297695951879922,-0.99688719845514,-0.9999642756010267,0.0,0.05501431853155177,0.1,0.0013356208801269531,0.027092695236206055,0.04832542,10.562765,-0.999826330597515,0.0,-0.039998539244061354,0.0,4,0.0012214183807373047,0.8219321295344406,0.8219321295344406,40,-0.999905291221428,0.0
10,1.5138568878173828,-0.9999380809841236,4.094334437265365e-05,-0.9998673397109183,-0.9999641185865722,0.0,0.06982732525187939,0.1,0.0014014244079589844,0.02748250961303711,0.04998163,1.8930988,-0.9998375056361759,0.0,-0.03999950748592828,0.0,4,0.0011603832244873047,0.8221422658649279,0.8221422658649279,44,-0.9999227060880981,0.0
11,1.8449103832244873,-0.99953949759941,0.000424191140124042,-0.9988333193516548,-0.9999612480981308,0.0,0.0661687385775543,0.1,0.001500844955444336,0.027557849884033203,0.05025129,2.27649,-0.9998077048324994,0.0,-0.039999873624563434,0.0,4,0.0011889934539794922,0.8218931618578551,0.8218931618578551,48,-0.9998796671216955,0.0
12,1.7262005805969238,-0.9997287721497761,0.0002742792855769213,-0.9992711948428803,-0.9999513523015355,0.0,0.06032374473000483,0.1,0.0015668869018554688,0.02747511863708496,0.053929828,7.8848076,-0.999799811564227,0.0,-0.03999733931472458,0.0,4,0.0010955333709716797,0.8221637017055793,0.8221637017055793,52,-0.9999605016232439,0.0
13,1.5646390914916992,-0.9999525589844982,8.414449684068671e-06,-0.9999418942586074,-0.9999626830085968,0.0,0.05628917103916872,0.1,0.0014507770538330078,0.02674269676208496,0.048742957,6.708998,-0.9998150863062542,0.0,-0.03999956358615349,0.0,4,0.0010998249053955078,0.8220449484037634,0.8220449484037634,56,-0.9999471302383393,0.0
14,1.567007064819336,-0.9999587722171116,3.59174736540183e-06,-0.9999528299291016,-0.9999623779151392,0.0,0.05782858859891413,0.1,0.0014801025390625,0.02758479118347168,0.047176145,4.926018,-0.9998294548973399,0.0,-0.03999985945235665,0.0,4,0.001100301742553711,0.8222572189273255,0.8222572189273255,60,-0.999892983476164,0.0
15,1.5473206043243408,-0.9999599793875236,2.995376378374568e-06,-0.9999561213998305,-0.999963510603755,0.0,0.060902874331614974,0.1,0.0014033317565917969,0.027651548385620117,0.04921177,7.450035,-0.9998425073463583,0.0,-0.039999781298412536,0.0,4,0.0012438297271728516,0.822234595080589,0.822234595080589,64,-0.999884865369113,0.0
16,1.7166264057159424,-0.9995477424910251,0.0007163562948182206,-0.998306982206616,-0.9999646178484138,0.0,0.05636568283209035,0.1,0.0014662742614746094,0.02979445457458496,0.0485866,6.345877,-0.999813030860825,0.0,-0.039999738714518965,0.0,4,0.0015950202941894531,0.8219021837913842,0.8219021837913842,68,-0.9999204930767456,0.0
17,1.6636626720428467,-0.999057741249324,0.0015623111690574174,-0.9963517526646453,-0.9999652622499502,0.0,0.04618642601114682,0.1,0.0014612674713134766,0.027148008346557617,0.061666347,49.70414,-0.9997375018996749,0.0,-0.039999890813544464,0.0,4,0.0011839866638183594,0.8219224117303064,0.8219224117303064,72,-0.9999162087735208,0.0
18,1.9601285457611084,-0.9999502666270883,1.3611158937509332e-05,-0.9999270895181471,-0.9999604702718687,0.0,0.056691173252313994,0.1,0.0014407634735107422,0.027189016342163086,0.04872662,6.6591196,-0.9997587783724163,0.0,-0.03999996951666562,0.0,4,0.0012240409851074219,0.8222325116004001,0.8222325116004001,76,-0.9989374093519978,0.0
19,1.7069520950317383,-0.9997435366860392,0.0003707000892754655,-0.9991014857415632,-0.9999621722603285,0.0,0.0586497358129407,0.1,0.0014307498931884766,0.02744913101196289,0.04761719,7.915309,-0.9997572542037787,0.0,-0.03999994247277064,0.0,4,0.0011889934539794922,0.8220832064903714,0.8220832064903714,80,-0.9989275664547979,0.0
20,1.607609510421753,-0.9997592576083211,0.0001669962820016502,-0.9994976993748295,-0.9999615886478441,0.0,0.06088853797998098,0.1,0.0013699531555175781,0.026498079299926758,0.053568594,4.181853,-0.999757454544233,0.0,-0.039999667032560804,0.0,4,0.0010750293731689453,0.8221311865436939,0.8221311865436939,84,-0.9999446529725265,0.0
21,1.686403751373291,-0.9996974758906878,0.0004385674118612553,-0.9989379382930108,-0.9999612476805633,0.0,0.06536436853933306,0.1,0.001405954360961914,0.027166366577148438,0.05216296,4.770134,-0.9997514566788785,0.0,-0.03999887702565505,0.0,4,0.001087188720703125,0.8219718153215799,0.8219718153215799,88,-0.9999597399454817,0.0
22,1.6499345302581787,-0.9999495674699649,1.5355298186652122e-05,-0.9999231862616305,-0.9999603715180563,0.0,0.04480916518175165,0.1,0.0015091896057128906,0.026992321014404297,0.04763122,33.653,-0.9997712677579873,0.0,-0.03999989141882855,0.0,4,0.0011909008026123047,0.8221628108615857,0.8221628108615857,92,-0.9997799835043799,0.0
23,1.6167516708374023,-0.9999251300560111,3.319593477314518e-05,-0.9998732288782666,-0.9999642327288647,0.0,0.05069123320542537,0.1,0.0015265941619873047,0.027991056442260742,0.048509628,11.89033,-0.9997866539877897,0.0,-0.03999981070354839,0.0,4,0.0014297962188720703,0.822125801177627,0.822125801177627,96,-0.9999319051654992,0.0
24,1.6799235343933105,-0.9999452869064864,1.6600159520476805e-05,-0.9999183451266542,-0.999959814815242,0.0,0.055243391245952976,0.1,0.0014910697937011719,0.028185129165649414,0.047473684,3.6047833,-0.9998025172796593,0.0,-0.03999993999390762,0.0,4,0.001434326171875,0.8220219240041047,0.8220219240041047,100,-0.9998454157700055,0.0
25,1.5518150329589844,-0.9999355904571593,4.0084508696317665e-05,-0.9998663225449966,-0.9999618006363309,0.0,0.056378354071922154,0.1,0.0015172958374023438,0.026407480239868164,0.051358297,7.4124355,-0.9998158245974094,0.0,-0.03999974226059559,0.0,4,0.001081228256225586,0.8221632145678665,0.8221632145678665,104,-0.9991437191039808,0.0
26,1.6848993301391602,-0.9999583082173586,2.821485000005988e-06,-0.9999551475329089,-0.9999622167477746,0.0,0.051501981366059546,0.1,0.0013861656188964844,0.026789426803588867,0.05147809,1.0144204,-0.9998300729594044,0.0,-0.039999848804468274,0.0,4,0.0011746883392333984,0.8220213635807976,0.8220213635807976,108,-0.9999132907150133,0.0
27,1.573779582977295,-0.9999316659037996,5.1736624837952647e-05,-0.9998421345442472,-0.9999636736812112,0.0,0.05612720199070463,0.1,0.0016007423400878906,0.028210163116455078,0.051976673,9.831805,-0.9998402322538439,0.0,-0.03999981560871787,0.0,4,0.0012006759643554688,0.8222208318507768,0.8222208318507768,112,-0.999777344917422,0.0
28,1.7916698455810547,-0.999961592243694,1.0599152324432727e-06,-0.9999601085389151,-0.9999627521839243,0.0,0.060903524951538536,0.1,0.0015430450439453125,0.027322769165039062,0.051609945,3.170333,-0.999852368252829,0.0,-0.03999996938127383,0.0,4,0.0012781620025634766,0.8221119550297382,0.8221119550297382,116,-0.9998906814520284,0.0
29,1.618769884109497,-0.99947401040379,0.0008364703991880974,-0.9980252381138468,-0.9999642154348036,0.0,0.047900907155947366,0.1,0.0014100074768066406,0.02805042266845703,0.04826621,14.084725,-0.9998145324679251,0.0,-0.03999995967752049,0.0,4,0.001253366470336914,0.8221261809149744,0.8221261809149744,120,-0.9994564722337143,0.0
30,1.6391043663024902,-0.9999608997279044,3.301354831192121e-06,-0.9999552421470084,-0.9999632630905859,0.0,0.04259383284696307,0.1,0.0016226768493652344,0.027858495712280273,0.05752041,1.0597454,-0.999829169193923,0.0,-0.03999994369653753,0.0,4,0.0012288093566894531,0.8220126894814306,0.8220126894814306,124,-0.9998190129677429,0.0
31,1.4638426303863525,-0.9997205026608151,0.0003527889876963493,-0.9991139431738898,-0.9999586682700006,0.0,0.06895233623619068,0.1,0.0014829635620117188,0.02795100212097168,0.047313064,2.5406923,-0.9998183025406122,0.0,-0.03999901360951487,0.0,4,0.0013380050659179688,0.8221359651120949,0.8221359651120949,128,-0.9999380420078006,0.0
32,1.452993631362915,-0.9998383040698899,0.00018760130023834753,-0.9995144245815422,-0.9999614322880632,0.0,0.07423874794623445,0.1,0.0014309883117675781,0.02677607536315918,0.0508309,3.0130532,-0.99982030269354,0.0,-0.03999988953765471,0.0,4,0.0011181831359863281,0.8221330558942868,0.8221330558942868,132,-0.9998552266093896,0.0
33,1.508178949356079,-0.9999569267407132,5.30951635047852e-06,-0.9999487503132252,-0.9999635393616775,0.0,0.049750089970108845,0.1,0.0015647411346435547,0.029150962829589844,0.052582044,2.4148428,-0.9998339650982573,0.0,-0.03999985016286367,0.0,4,0.001314401626586914,0.8221998731214387,0.8221998731214387,136,-0.9995989830911881,0.0
34,1.6519734859466553,-0.9998758425043569,7.299706591955853e-05,-0.9997563293934679,-0.999939270144512,0.0,0.044200393113985305,0.1,0.0014607906341552734,0.0276181697845459,0.047830485,6.8669214,-0.9998381528388673,0.0,-0.0399998806068524,0.0,4,0.001299142837524414,0.8222031154449728,0.8222031154449728,140,-0.9998976800778533,0.0
35,1.309525966644287,-0.9996360773711882,0.0004788868330288852,-0.9988122726124904,-0.9999633038221452,0.0,0.049573142708132456,0.1,0.0015454292297363281,0.026795625686645508,0.045366388,11.904659,-0.9998179452920994,0.0,-0.03999995798500153,0.0,4,0.0012044906616210938,0.8221167756844716,0.8221167756844716,144,-0.9997912561375054,0.0
36,1.4948220252990723,-0.9998511957905488,0.00014937274393472073,-0.9995972973399967,-0.9999593743733415,0.0,0.047880206667014716,0.1,0.0015006065368652344,0.02710700035095215,0.050245933,2.4842992,-0.9998212703419443,0.0,-0.039998905740895374,0.0,4,0.0012619495391845703,0.8220238392667437,0.8220238392667437,148,-0.9999110887776879,0.0
37,1.5649092197418213,-0.9998016329670902,0.00021348303904468663,-0.9994328233358227,-0.9999388637706179,0.0,0.050271205558233965,0.1,0.0015189647674560547,0.027098894119262695,0.050328907,7.416517,-0.999819306604459,0.0,-0.03999923226900165,0.0,4,0.0013108253479003906,0.8221786954840286,0.8221786954840286,152,-0.9998273123074702,0.0
38,1.6745877265930176,-0.9999124718634048,5.1968190348221954e-05,-0.9998243066723922,-0.9999571013444992,0.0,0.06129210552970355,0.1,0.0015196800231933594,0.028087139129638672,0.050516404,2.0424101,-0.9998286231303535,0.0,-0.03999934121365359,0.0,4,0.001196146011352539,0.8220465265641161,0.8220465265641161,156,-0.9999229524802947,0.0
39,1.4777231216430664,-0.9999192389308756,4.577517807192486e-05,-0.9998429263305164,-0.9999583798897846,0.0,0.0537988516954426,0.1,0.0014548301696777344,0.027532100677490234,0.049145173,2.6926565,-0.9998376847104057,0.0,-0.03999992447508756,0.0,4,0.0011522769927978516,0.822073744855421,0.822073744855421,160,-0.9998298057088747,0.0
40,1.5802874565124512,-0.99990692790127,9.400988860837494e-05,-0.9997441031373349,-0.999962247979491,0.0,0.06797581166281483,0.1,0.001405954360961914,0.026834487915039062,0.04814103,3.5033638,-0.9998446090294921,0.0,-0.03999992774702722,0.0,4,0.0012052059173583984,0.8221811329945743,0.8221811329945743,164,-0.9999467602413016,0.0
41,1.8453564643859863,-0.9999494793496764,1.5254269305488413e-05,-0.9999236973706214,-0.9999625910406209,0.0,0.05544711576404202,0.1,0.0015714168548583984,0.026617765426635742,0.04979732,4.40739,-0.9998550960615106,0.0,-0.039999975367829066,0.0,4,0.0011997222900390625,0.8220575556239335,0.8220575556239335,168,-0.9996937624944945,0.0
42,1.5225486755371094,-0.9998027976013166,0.00018221491740449868,-0.9995200032212093,-0.9999641883895802,0.0,0.06359036172928423,0.1,0.0014102458953857422,0.028064966201782227,0.05298452,1.3218668,-0.9998498662154912,0.0,-0.03999850255017333,0.0,4,0.0013179779052734375,0.8220151315708554,0.8220151315708554,172,-0.9998537593198203,0.0
43,1.5102424621582031,-0.9999527488308747,1.37707514763973e-05,-0.9999295341176231,-0.9999656173213065,0.0,0.06822386582638701,0.1,0.001627206802368164,0.027983427047729492,0.05052495,2.194172,-0.9998601544770296,0.0,-0.039999744483896676,0.0,4,0.001134634017944336,0.8222348813891394,0.8222348813891394,176,-0.9994975345730827,0.0
44,1.5537595748901367,-0.9997276439068156,0.00025359577800017916,-0.9993419425675589,-0.9999584956303444,0.0,0.053469970636823176,0.1,0.0016028881072998047,0.02785325050354004,0.051131047,12.297757,-0.9998469034200083,0.0,-0.03999997138672766,0.0,4,0.0011980533599853516,0.8220523736480637,0.8220523736480637,180,-0.9999446513025075,0.0
45,1.5591719150543213,-0.9986190643568249,0.002294046090719666,-0.9946458130935676,-0.9999638611661701,0.0,0.05888041532919445,0.1,0.001378774642944336,0.02752399444580078,0.04577919,7.7809443,-0.9997241195136899,0.0,-0.03999990628017962,0.0,4,0.0011658668518066406,0.8217147191162983,0.8217147191162983,184,-0.9999254492073559,0.0
46,1.5912330150604248,-0.9999598856223648,3.06390697157652e-06,-0.9999546221902353,-0.9999620988411684,0.0,0.056696590085553424,0.1,0.0015146732330322266,0.027005434036254883,0.050868955,1.8045526,-0.9997476961245574,0.0,-0.039999204503156485,0.0,4,0.0011644363403320312,0.8221751817053585,0.8221751817053585,188,-0.9998949556265102,0.0
47,1.5900356769561768,-0.9999565403942986,7.554280506525758e-06,-0.9999450263398582,-0.9999662260173223,0.0,0.05455001796603288,0.1,0.001566171646118164,0.030274152755737305,0.05162842,1.7636995,-0.9997685805515315,0.0,-0.039999465337843695,0.0,4,0.0012218952178955078,0.822121776286813,0.822121776286813,192,-0.9998150240447261,0.0
48,1.3481454849243164,-0.999954873649062,3.846651590197315e-06,-0.999948594519882,-0.9999585726196727,0.0,0.05411327712885752,0.1,0.0015163421630859375,0.027327299118041992,0.042439062,6.665969,-0.9997872098612846,0.0,-0.03999948426823778,0.0,4,0.0013115406036376953,0.8222224599312441,0.8222224599312441,196,-0.9998673820562042,0.0
49,1.9261515140533447,-0.9999379486930093,3.44444132852076e-05,-0.9998784861515637,-0.999961759459906,0.0,0.0618055175634008,0.1,0.0015406608581542969,0.027478456497192383,0.051614434,2.557018,-0.999802283744457,0.0,-0.039999698431124525,0.0,4,0.001186370849609375,0.8221371458287138,0.8221371458287138,200,-0.9997431474554265,0.0
50,1.4863502979278564,-0.9995652434757052,0.0006188458255064639,-0.9984943620348157,-0.9999602964548007,0.0,0.06858446743435875,0.1,0.0014927387237548828,0.027293920516967773,0.047476515,3.9626334,-0.9997785797175819,0.0,-0.03999966810318964,0.0,4,0.0011873245239257812,0.8220015826579775,0.8220015826579775,204,-0.9999377421113853,0.0
51,1.4963464736938477,-0.9999026284260368,9.981290262223756e-05,-0.9997297660947,-0.9999621809386112,0.0,0.05994232584862901,0.1,0.0014832019805908203,0.0317387580871582,0.046820324,3.8638465,-0.9997909845884274,0.0,-0.03999984298397399,0.0,4,0.0015375614166259766,0.8220792829118233,0.8220792829118233,208,-0.9999096861799989,0.0
52,1.547532320022583,-0.9999567382070473,7.521201576085787e-06,-0.9999439000168224,-0.9999623992900326,0.0,0.07026039647232372,0.1,0.0013620853424072266,0.027128219604492188,0.04906452,2.1801114,-0.9998075599502895,0.0,-0.03999994743077413,0.0,4,0.0011928081512451172,0.822121661077118,0.822121661077118,212,-0.9998352937878886,0.0
53,1.6216461658477783,-0.9998648861794426,0.00015736146433349392,-0.9995925044183245,-0.9999603683572109,0.0,0.05577116379952398,0.1,0.0015478134155273438,0.028803348541259766,0.048813637,8.922337,-0.9998132925732047,0.0,-0.039999424798805354,0.0,4,0.0011615753173828125,0.8219219183626146,0.8219219183626146,216,-0.999947482806327,0.0
54,1.3753998279571533,-0.9999069510012432,8.986048485551687e-05,-0.9997513960699806,-0.9999628398246558,0.0,0.05692183754625817,0.1,0.0014767646789550781,0.02661609649658203,0.048580725,7.5543685,-0.9998226584160086,0.0,-0.039997456850815905,0.0,4,0.0011050701141357422,0.8221754907010453,0.8221754907010453,220,-0.9997664752498402,0.0
55,1.5516846179962158,-0.9999134386651163,5.966363579536072e-05,-0.9998141673907208,-0.9999602008029489,0.0,0.054292972202732506,0.1,0.0015742778778076172,0.027133941650390625,0.05330689,3.3194394,-0.9998317364409194,0.0,-0.03999978254548919,0.0,4,0.001249551773071289,0.8221412577467795,0.8221412577467795,224,-0.9999471153256004,0.0
56,1.7072794437408447,-0.9999557546167892,6.6134099598262725e-06,-0.9999445698965899,-0.9999617559706269,0.0,0.05319817179720913,0.1,0.0014677047729492188,0.027675628662109375,0.046258897,8.682357,-0.9998441382585064,0.0,-0.039999858463120305,0.0,4,0.0012538433074951172,0.8222638490834113,0.8222638490834113,228,-0.9998774117964008,0.0
57,1.5239951610565186,-0.9992780561179883,0.001184385529668569,-0.9972266414202222,-0.9999634338419161,0.0,0.05518993771931846,0.1,0.0014238357543945312,0.027581453323364258,0.05162554,6.706317,-0.9997875300444545,0.0,-0.039999111947139857,0.0,4,0.0011494159698486328,0.8220903859219106,0.8220903859219106,232,-0.9999400351451309,0.0
58,1.6802783012390137,-0.9998524080975368,0.00018511897302887526,-0.9995317888977218,-0.9999614195696713,0.0,0.05819610593744397,0.1,0.0015499591827392578,0.02733635902404785,0.05130063,2.531421,-0.9997940178497627,0.0,-0.039999888527084304,0.0,4,0.0011746883392333984,0.8220395270144307,0.8220395270144307,236,-0.9998106571000401,0.0
59,1.5513007640838623,-0.9999506051832032,8.642786901981274e-06,-0.9999389530294809,-0.9999596422743116,0.0,0.06315962201630344,0.1,0.0013861656188964844,0.02729654312133789,0.049370803,4.1611633,-0.9998096765831068,0.0,-0.03999911280243594,0.0,4,0.001142263412475586,0.8223234852076028,0.8223234852076028,240,-0.9999180751735995,0.0
60,1.5312881469726562,-0.9999406449198212,3.229510729321438e-05,-0.9998848327126222,-0.9999625047357339,0.0,0.05552086399738581,0.1,0.0015654563903808594,0.029350757598876953,0.0476088,9.227924,-0.9998227734167783,0.0,-0.03999993259039672,0.0,4,0.001180410385131836,0.822246902068936,0.822246902068936,244,-0.9999309800984465,0.0
61,1.5584697723388672,-0.9997087176649175,0.00031780608361312024,-0.9991801574140362,-0.9999644343760152,0.0,0.06266298534566064,0.1,0.0015003681182861328,0.025919198989868164,0.053337954,4.8447795,-0.9998113678415922,0.0,-0.039999900826783424,0.0,4,0.00110626220703125,0.821958740018205,0.821958740018205,248,-0.9984075557323675,0.0
62,1.6015164852142334,-0.9996387478968056,0.0005525776526915778,-0.9986816629742734,-0.9999602918971859,0.0,0.06006138037637288,0.1,0.001529693603515625,0.02831745147705078,0.048709538,5.4904623,-0.9997941058471136,0.0,-0.03999987767853126,0.0,4,0.0012822151184082031,0.8222525556666598,0.8222525556666598,252,-0.9998939079345215,0.0
63,1.4238247871398926,-0.9999552030234777,1.1365489081061808e-05,-0.9999356648441082,-0.9999631133617046,0.0,0.05046597873187502,0.1,0.0015344619750976562,0.027327775955200195,0.05304543,1.0005053,-0.99981021556475,0.0,-0.03999942449373837,0.0,4,0.001276254653930664,0.8219326229209017,0.8219326229209017,256,-0.9997867184101615,0.0
64,1.5538914203643799,-0.9999489250346171,1.3354158981062989e-05,-0.9999291763932026,-0.9999624998729961,0.0,0.061619781143908,0.1,0.0016515254974365234,0.027307510375976562,0.048670802,1.0110784,-0.9998240865117367,0.0,-0.03999997010655182,0.0,4,0.0011818408966064453,0.8219266383519193,0.8219266383519193,260,-0.9996397042869883,0.0
65,1.4822969436645508,-0.9998906286758952,0.00010137766510773118,-0.9997171183821887,-0.9999630866519387,0.0,0.04463883125147233,0.1,0.0015561580657958984,0.029431819915771484,0.051466044,4.4299192,-0.9998307407281526,0.0,-0.039999930656423724,0.0,4,0.0013120174407958984,0.8221668790556166,0.8221668790556166,264,-0.9999575901266917,0.0
66,1.4776182174682617,-0.9998265162494566,0.000215755555714594,-0.9994537088053064,-0.9999635306714667,0.0,0.053554607330195875,0.1,0.0013649463653564453,0.02679276466369629,0.05415585,12.777612,-0.999830318280283,0.0,-0.03999932797199176,0.0,4,0.0010929107666015625,0.8219925738753728,0.8219925738753728,268,-0.9998494842668183,0.0
67,1.9622118473052979,-0.9999605189775411,1.3301892825182764e-06,-0.9999582541092955,-0.9999616132474021,0.0,0.0566685790295289,0.1,0.0013701915740966797,0.02679610252380371,0.050286427,3.0345147,-0.9998433383500089,0.0,-0.03999964837277309,0.0,4,0.0011413097381591797,0.8221484608785664,0.8221484608785664,272,-0.9999003365829049,0.0
68,1.513951301574707,-0.9999584406791064,5.078144210032155e-06,-0.9999501538674704,-0.9999629665555418,0.0,0.05043975377431427,0.1,0.0015642642974853516,0.029364824295043945,0.04740731,9.766485,-0.9998548485829187,0.0,-0.03999990008451582,0.0,4,0.001276254653930664,0.8221998877619492,0.8221998877619492,276,-0.9998470823178808,0.0
69,1.5163052082061768,-0.9999116543799227,6.778797350047533e-05,-0.9997957932864405,-0.9999608928852373,0.0,0.049330992521937934,0.1,0.0015110969543457031,0.028135299682617188,0.050166346,2.6401217,-0.9998605291626191,0.0,-0.03999994809854523,0.0,4,0.0011570453643798828,0.8220629429866787,0.8220629429866787,280,-0.9998256200112138,0.0
70,1.6032979488372803,-0.9998900472734338,8.515562637225401e-05,-0.9997499527612101,-0.9999599026822366,0.0,0.050176896813669915,0.1,0.0015635490417480469,0.028162717819213867,0.051542275,4.717242,-0.9998634809737006,0.0,-0.03999991178677524,0.0,4,0.001226663589477539,0.8221021712081505,0.8221021712081505,284,-0.9997344790618948,0.0
71,1.7651793956756592,-0.999958308424667,6.869636906862813e-07,-0.999957521493009,-0.9999590881993623,0.0,0.045007195109456055,0.1,0.0015745162963867188,0.028757572174072266,0.049600787,2.3625562,-0.9998729637187973,0.0,-0.03999964805578588,0.0,4,0.001280069351196289,0.8220703030749484,0.8220703030749484,288,-0.9998701925029924,0.0
72,1.5510926246643066,-0.9999439673834887,3.0983644098297245e-05,-0.9998904167677747,-0.9999650623058391,0.0,0.04232115092071457,0.1,0.001421213150024414,0.027987003326416016,0.05073391,15.595691,-0.9998800640852664,0.0,-0.03999907434916404,0.0,4,0.0012924671173095703,0.8221846027712993,0.8221846027712993,292,-0.9999555542045727,0.0
73,1.377671241760254,-0.9998178414577061,0.00013588166740693318,-0.9996074316561361,-0.9999585692605621,0.0,0.052126342768258574,0.1,0.0013890266418457031,0.027741193771362305,0.052076735,1.4201772,-0.9998738418225104,0.0,-0.03999950708892476,0.0,4,0.001255035400390625,0.8220039850396661,0.8220039850396661,296,-0.9999406257589252,0.0
74,1.736076831817627,-0.9999396095048385,3.819933818704948e-05,-0.9998734497850381,-0.9999622902399834,0.0,0.05145750992931817,0.1,0.0014100074768066406,0.02679610252380371,0.051495835,2.4761314,-0.9998804185907432,0.0,-0.03999883665053189,0.0,4,0.0011327266693115234,0.8219517016215523,0.8219517016215523,300,-0.999952038121334,0.0
75,1.5860474109649658,-0.9996087947038053,0.0005848305838956111,-0.9985964791431883,-0.9999647033113761,0.0,0.06534720754136973,0.1,0.0015614032745361328,0.027164697647094727,0.048218027,3.7290437,-0.9998532562020495,0.0,-0.0399999331824404,0.0,4,0.0011219978332519531,0.8220219164503753,0.8220219164503753,304,-0.9993691678838524,0.0
76,1.8846056461334229,-0.999956406006336,9.377376064909831e-06,-0.9999408018881735,-0.999964520613916,0.0,0.06585351713141431,0.1,0.001415252685546875,0.027344226837158203,0.05147194,0.99696213,-0.9998635711824782,0.0,-0.03999996984970014,0.0,4,0.0010781288146972656,0.8221214954342873,0.8221214954342873,308,-0.9999402899369203,0.0
77,1.4239780902862549,-0.9990101626294876,0.0016412722101296804,-0.9961673961934066,-0.9999592094902603,0.0,0.04402939016920216,0.1,0.0016384124755859375,0.026976823806762695,0.049221553,25.501211,-0.9997782303271792,0.0,-0.039999917092202616,0.0,4,0.0011658668518066406,0.821986344863672,0.821986344863672,312,-0.9999081144365595,0.0
78,1.477656602859497,-0.9999544382045076,1.288311848051782e-05,-0.9999323210545101,-0.9999645829938668,0.0,0.06220716949441991,0.1,0.0014340877532958984,0.02670598030090332,0.05341664,1.5513296,-0.9997958511149121,0.0,-0.03999993946406087,0.0,4,0.00113677978515625,0.8222034747853135,0.8222034747853135,316,-0.9996839119019422,0.0
79,1.4308910369873047,-0.9999262331150254,3.546623506760166e-05,-0.9998757779019656,-0.9999602120250084,0.0,0.07137329127889318,0.1,0.0014407634735107422,0.027384281158447266,0.053512998,3.0833704,-0.9998088893149235,0.0,-0.03999927622794371,0.0,4,0.0012285709381103516,0.8222010679935021,0.8222010679935021,320,-0.9998743857152355,0.0
80,1.6397712230682373,-0.9996084727169464,0.0006104122355023487,-0.9985512119901931,-0.9999627537077542,0.0,0.067394002024672,0.1,0.0014340877532958984,0.02718830108642578,0.049594726,3.3408067,-0.9997888476551258,0.0,-0.03999997058945278,0.0,4,0.0011200904846191406,0.8220609203221856,0.8220609203221856,324,-0.9990905175553503,0.0
81,1.5822980403900146,-0.9999493655120817,8.547771913428084e-06,-0.999937529782789,-0.9999612722083211,0.0,0.05545770201824309,0.1,0.0014872550964355469,0.027484655380249023,0.05164519,1.2073249,-0.9998048994408214,0.0,-0.03999925540039305,0.0,4,0.0012085437774658203,0.8219679289481312,0.8219679289481312,328,-0.999931307735018,0.0
82,1.4885342121124268,-0.9999553871587976,1.0100028052893867e-05,-0.9999379472623062,-0.9999624499344562,0.0,0.058374795086207666,0.1,0.0015120506286621094,0.02729964256286621,0.050150678,1.8036072,-0.999819948212619,0.0,-0.039999929886741226,0.0,4,0.0012574195861816406,0.8220015573413693,0.8220015573413693,332,-0.9999447965386423,0.0
83,1.5307848453521729,-0.9999193229662044,5.121314003530027e-05,-0.9998332619489607,-0.9999597171621362,0.0,0.05612851730679651,0.1,0.0014395713806152344,0.026610851287841797,0.04977509,3.9280028,-0.9998298856879775,0.0,-0.03999988459498327,0.0,4,0.0010972023010253906,0.8221569279716722,0.8221569279716722,336,-0.9999195013650951,0.0
84,1.623966932296753,-0.999960163766501,1.8714138592602595e-06,-0.9999581997369227,-0.9999631338508765,0.0,0.040263089381446855,0.1,0.001569509506225586,0.0273740291595459,0.05213637,1.0893178,-0.9998429134958299,0.0,-0.03999987310454712,0.0,4,0.0013010501861572266,0.8220996817882581,0.8220996817882581,340,-0.999753384147828,0.0
85,1.590395212173462,-0.9999412082746182,3.170732243382152e-05,-0.9998868650620938,-0.9999661793346546,0.0,0.051785288730630624,0.1,0.001581430435180664,0.028969764709472656,0.048951335,8.1557865,-0.9998527429737087,0.0,-0.03999984555783882,0.0,4,0.0011200904846191406,0.8221667468850273,0.8221667468850273,344,-0.999923246641467,0.0
86,1.6182639598846436,-0.9999503088987532,1.616308417732438e-05,-0.9999224000274876,-0.9999614449160812,0.0,0.06033575012742605,0.1,0.0015265941619873047,0.027313709259033203,0.049396396,5.913246,-0.9998624995662133,0.0,-0.03999997471501168,0.0,4,0.0013535022735595703,0.8221087600547093,0.8221087600547093,348,-0.9998972739875436,0.0
87,1.6782536506652832,-0.9999552793035607,5.865885411712783e-06,-0.999947155126423,-0.9999614121150464,0.0,0.0573081637653732,0.1,0.001560211181640625,0.027916431427001953,0.05133117,1.9190984,-0.999871777539948,0.0,-0.039999898329392436,0.0,4,0.0011990070343017578,0.8219778987377735,0.8219778987377735,352,-0.9998612649145909,0.0
88,1.5524868965148926,-0.9998574051637308,0.0001633629188610885,-0.9995750570597706,-0.9999612732582936,0.0,0.04953951897632397,0.1,0.001377105712890625,0.027112722396850586,0.05017192,3.3896677,-0.9998703403023264,0.0,-0.03999992887995079,0.0,4,0.0011339187622070312,0.8220758900986833,0.8220758900986833,356,-0.9998230699451174,0.0
89,1.6416165828704834,-0.9998968501402627,7.216439084119029e-05,-0.999782355151656,-0.9999596807971782,0.0,0.04587788755692547,0.1,0.0014908313751220703,0.026958703994750977,0.04886496,9.821343,-0.9998729912861201,0.0,-0.039999689843918974,0.0,4,0.0011255741119384766,0.8220041453758268,0.8220041453758268,360,-0.999777279965738,0.0
90,1.8686037063598633,-0.9999447821725509,1.861752538111791e-05,-0.9999128057496369,-0.99995926419874,0.0,0.05217425195819308,0.1,0.0013873577117919922,0.027895212173461914,0.05392147,1.9795575,-0.9998801703747631,0.0,-0.039999839945843524,0.0,4,0.001203775405883789,0.8220740226870616,0.8220740226870616,364,-0.99992133656338,0.0
91,1.6227173805236816,-0.9997498031546774,0.00027983795095915497,-0.9992788974625468,-0.9999635285341995,0.0,0.053531489532288416,0.1,0.0014276504516601562,0.026914119720458984,0.05003385,5.3923264,-0.9998671336527545,0.0,-0.03999996895454001,0.0,4,0.0012602806091308594,0.8221040299321222,0.8221040299321222,368,-0.9999478271634135,0.0
92,1.5441324710845947,-0.9995440293171929,0.0007181802288481881,-0.9983001057073981,-0.9999598400671736,0.0,0.0688674110518786,0.1,0.0015439987182617188,0.028605222702026367,0.049294345,2.6699216,-0.9998348232191984,0.0,-0.039999849623956814,0.0,4,0.0012335777282714844,0.821922153914877,0.821922153914877,372,-0.9995240595104266,0.0
93,1.47300124168396,-0.9999515437003077,7.79069202024391e-06,-0.9999382795555725,-0.9999581497761962,0.0,0.0498780009562332,0.1,0.001415252685546875,0.026619911193847656,0.05064109,2.0680263,-0.9998464952673094,0.0,-0.039998989695969614,0.0,4,0.0010826587677001953,0.8220670118578839,0.8220670118578839,376,-0.9998001717629593,0.0
94,1.4000067710876465,-0.9996153500743157,0.00043580277350169276,-0.9988955718062558,-0.9999648645572465,0.0,0.052785550080316636,0.1,0.0014641284942626953,0.027802705764770508,0.048949018,7.446512,-0.99982338074801,0.0,-0.03999963176318435,0.0,4,0.0011553764343261719,0.8218165277682976,0.8218165277682976,380,-0.9999470581180439,0.0
95,1.3683760166168213,-0.9999500359259481,1.7700645639177314e-05,-0.999919779269067,-0.999963797077944,0.0,0.05850815151586684,0.1,0.0014865398406982422,0.026969194412231445,0.050829828,1.2117338,-0.9998360462658039,0.0,-0.039999899042369294,0.0,4,0.001102447509765625,0.8222473784903391,0.8222473784903391,384,-0.9998394720358997,0.0
96,1.4616343975067139,-0.999942408217176,2.4722176952922877e-05,-0.9998999418855108,-0.9999616117264962,0.0,0.045203826594288996,0.1,0.0014619827270507812,0.0275876522064209,0.052119352,2.0911295,-0.9998466824609411,0.0,-0.039999954287753874,0.0,4,0.0011463165283203125,0.8220179143030943,0.8220179143030943,388,-0.9998628876150906,0.0
97,1.5827836990356445,-0.9999578791952182,2.9328423232816465e-06,-0.9999547864728351,-0.9999621579457891,0.0,0.05202930706704719,0.1,0.0014722347259521484,0.0281219482421875,0.05057911,3.1904516,-0.9998578021343688,0.0,-0.03999965215581361,0.0,4,0.0012903213500976562,0.8221198584435959,0.8221198584435959,392,-0.999944753525564,0.0
98,1.6555047035217285,-0.9999596747328732,5.210022812857071e-06,-0.9999508136873745,-0.9999634920129243,0.0,0.05263839433581466,0.1,0.0014927387237548828,0.02711009979248047,0.050250266,5.2358627,-0.9998679893942193,0.0,-0.03999934793857521,0.0,4,0.0012347698211669922,0.822169693645329,0.822169693645329,396,-0.9999193338341819,0.0
99,1.5935168266296387,-0.9999601831901388,3.444822000563232e-06,-0.9999562222700109,-0.9999648980754048,0.0,0.0528836540133618,0.1,0.0015041828155517578,0.026895523071289062,0.051543955,8.026086,-0.9998772087738113,0.0,-0.039999949354118124,0.0,4,0.0011441707611083984,0.8221867923181965,0.8221867923181965,400,-0.999837520092258,0.0
100,1.5530991554260254,-0.9991181685462706,0.0013824038378849875,-0.9967255955000074,-0.9999607695384432,0.0,0.042736089067650196,0.1,0.0014109611511230469,0.027181625366210938,0.04619117,28.307163,-0.9998013047510572,0.0,-0.03999996225515026,0.0,4,0.0012285709381103516,0.8220174102718331,0.8220174102718331,404,-0.9998722003921174,0.0
101,1.556567907333374,-0.9999569452531367,8.487280386233877e-06,-0.9999426169939081,-0.9999635566011196,0.0,0.054400161171341256,0.1,0.001337289810180664,0.02645587921142578,0.05030304,2.685498,-0.9998168688012652,0.0,-0.03999973825587709,0.0,4,0.0013740062713623047,0.8221228188793738,0.8221228188793738,408,-0.9998873746405731,0.0
102,1.5639140605926514,-0.999938280117169,3.367054546186522e-05,-0.999879962437604,-0.9999580595095632,0.0,0.06317340180966172,0.1,0.0014629364013671875,0.026363611221313477,0.048709653,2.0139327,-0.9998290099328555,0.0,-0.03999995834060103,0.0,4,0.0010902881622314453,0.8221322060415738,0.8221322060415738,412,-0.9999355261219364,0.0
103,1.5734367370605469,-0.9998126020100819,0.00023232912561214385,-0.9994104178450247,-0.9999583893644444,0.0,0.05311008152842571,0.1,0.0014796257019042969,0.027408838272094727,0.048770044,4.9810047,-0.9998273691405781,0.0,-0.03999921565998151,0.0,4,0.0014095306396484375,0.8218634247193537,0.8218634247193537,416,-0.9995499564855912,0.0
104,1.7050437927246094,-0.9999499562406867,1.7393023352022272e-05,-0.9999201287742001,-0.9999635406658312,0.0,0.05483019770826036,0.1,0.0015590190887451172,0.027743101119995117,0.05111102,3.3060436,-0.999839627850589,0.0,-0.03999981612219023,0.0,4,0.0014033317565917969,0.8222363187389606,0.8222363187389606,420,-0.9999379837197079,0.0
105,1.5259110927581787,-0.9990754462415147,0.0015016011401382087,-0.9964748154208181,-0.9999597147671917,0.0,0.0453883283841349,0.1,0.0014755725860595703,0.02752971649169922,0.0484114,19.396585,-0.9997632096896816,0.0,-0.03999996252091817,0.0,4,0.0011658668518066406,0.8220051698468883,0.8220051698468883,424,-0.9999353220328905,0.0
106,1.4530348777770996,-0.9999571800868479,5.635987458381668e-06,-0.9999492259732188,-0.9999650299309579,0.0,0.04909918216585597,0.1,0.0015461444854736328,0.02788996696472168,0.050798535,3.4592452,-0.9997826067293982,0.0,-0.039998112582096186,0.0,4,0.0011861324310302734,0.8220206517707825,0.8220206517707825,428,-0.9999251505082074,0.0
107,1.4744791984558105,-0.9999316963856651,2.8069361980308167e-05,-0.999896069478103,-0.9999617278880117,0.0,0.043523384390266436,0.1,0.0015850067138671875,0.028030872344970703,0.052749664,0.9074573,-0.999797515695025,0.0,-0.0399999513583661,0.0,4,0.0012271404266357422,0.8220045566538859,0.8220045566538859,432,-0.9998167656317657,0.0
108,1.4136083126068115,-0.9999491922616017,2.3678101087297173e-05,-0.9999081999185426,-0.9999640325756418,0.0,0.05043158306352759,0.1,0.0014872550964355469,0.02752399444580078,0.050155334,5.31258,-0.9998126833516827,0.0,-0.039999967854287236,0.0,4,0.0011935234069824219,0.8221447408291771,0.8221447408291771,436,-0.9999145900004458,0.0
109,1.5295207500457764,-0.9997590988049676,0.0003496910261688837,-0.9991534465631133,-0.9999653581616743,0.0,0.061670487781161805,0.1,0.0015797615051269531,0.028188467025756836,0.04716507,5.321477,-0.9998073248970112,0.0,-0.03999979648344011,0.0,4,0.0014197826385498047,0.8221689516690505,0.8221689516690505,440,-0.9998825552876536,0.0
110,1.4969253540039062,-0.9999024100321949,5.411225960052093e-05,-0.9998239728605987,-0.9999530702691797,0.0,0.05207117169736119,0.1,0.0014295578002929688,0.027413368225097656,0.049317595,6.6736503,-0.9998168334105296,0.0,-0.03999894830189821,0.0,4,0.0012590885162353516,0.8220582237330009,0.8220582237330009,444,-0.9999499731102883,0.0
111,1.478064775466919,-0.9999171701841065,7.015295622469403e-05,-0.999796149541438,-0.9999647726824759,0.0,0.05393776376735312,0.1,0.0014767646789550781,0.027035236358642578,0.049559824,3.8330936,-0.9998268670878874,0.0,-0.03999875906495301,0.0,4,0.00121307373046875,0.8221591453516617,0.8221591453516617,448,-0.9999204858856016,0.0
112,1.7672030925750732,-0.9999528602356643,1.2999761281267138e-05,-0.9999305609252644,-0.9999625957717266,0.0,0.06902975460658663,0.1,0.0014972686767578125,0.028673648834228516,0.05030147,3.4919674,-0.9998394664026651,0.0,-0.03999987869756898,0.0,4,0.0011181831359863281,0.82208874880789,0.82208874880789,452,-0.9999584981914323,0.0
113,1.645066499710083,-0.9998812898138294,0.00012204161656114271,-0.999671147055373,-0.999962778477689,0.0,0.05230925385582498,0.1,0.0022857189178466797,0.027315378189086914,0.049711943,2.2254972,-0.9998436487437816,0.0,-0.03999995405770208,0.0,4,0.0012943744659423828,0.8219038610819306,0.8219038610819306,456,-0.999623334920361,0.0
114,1.8613972663879395,-0.9990261244889554,0.0015763561491737269,-0.9962962324941826,-0.9999619905339943,0.0,0.052428344159591043,0.1,0.0014500617980957031,0.026880979537963867,0.047661174,5.8739,-0.999761896318299,0.0,-0.03999990135674866,0.0,4,0.0010721683502197266,0.8220424646567192,0.8220424646567192,460,-0.999870728899821,0.0
115,1.5239903926849365,-0.9999510633238891,1.7576754872432072e-05,-0.9999206637927862,-0.9999620918323846,0.0,0.053949006052546405,0.1,0.0014448165893554688,0.026296138763427734,0.05064422,8.376155,-0.9997808130188581,0.0,-0.039999900379595756,0.0,4,0.0012500286102294922,0.8221113009616334,0.8221113009616334,464,-0.999948287125097,0.0
116,1.7222340106964111,-0.9974570032679071,0.0043049939412545014,-0.9900006277129141,-0.9999613171645276,0.0,0.04528741550546585,0.1,0.0014710426330566406,0.027109622955322266,0.049981892,16.053429,-0.9995484320437631,0.0,-0.039999928810367714,0.0,4,0.0012242794036865234,0.821679638842965,0.821679638842965,468,-0.9999193215997514,0.0
117,1.759610891342163,-0.9999615375218117,1.5626845909293443e-06,-0.9999599927000218,-0.9999634970367108,0.0,0.06215953499862234,0.1,0.0013778209686279297,0.027093172073364258,0.048952304,3.5181932,-0.999589742591568,0.0,-0.039999925077581024,0.0,4,0.0012874603271484375,0.8218962676353706,0.8218962676353706,472,-0.9985872315670025,0.0
118,1.7261621952056885,-0.9996987517454468,0.000384029454858605,-0.9990381353588036,-0.9999600217925517,0.0,0.044163129520936845,0.1,0.0013766288757324219,0.026948928833007812,0.047304697,24.492905,-0.9996006435069559,0.0,-0.03999943921081634,0.0,4,0.0011756420135498047,0.8221328136602923,0.8221328136602923,476,-0.9999473935789075,0.0
119,1.7916159629821777,-0.9999564469996074,6.571472365689471e-06,-0.9999452582413708,-0.9999616891679424,0.0,0.05748367711883559,0.1,0.0014371871948242188,0.02735447883605957,0.050461415,7.288673,-0.9996362238562211,0.0,-0.03999994410657999,0.0,4,0.0011136531829833984,0.8222487730365868,0.8222487730365868,480,-0.9999457616807103,0.0
120,1.786789894104004,-0.9999443730660026,2.817232943015678e-05,-0.9998955810950139,-0.9999610256929632,0.0,0.04369012448684827,0.1,0.001537322998046875,0.027143001556396484,0.051907316,0.6863365,-0.9996670387771993,0.0,-0.03999997202745619,0.0,4,0.0012049674987792969,0.8220386439341772,0.8220386439341772,484,-0.9999249360447386,0.0
121,1.5735929012298584,-0.9998379688261262,0.00016108956498460278,-0.9995613117453614,-0.9999639747527262,0.0,0.05896892934414931,0.1,0.0014519691467285156,0.027524709701538086,0.050083585,4.0939755,-0.999684131782092,0.0,-0.039999963988943545,0.0,4,0.001199960708618164,0.8220886492381312,0.8220886492381312,488,-0.9998415113893131,0.0
122,1.652928352355957,-0.9995510478761742,0.0007051684834085885,-0.9983296638234749,-0.99995963934869,0.0,0.05559580204886308,0.1,0.0014717578887939453,0.028823137283325195,0.049072742,8.440707,-0.9996708233915004,0.0,-0.039999613416406954,0.0,4,0.0012781620025634766,0.8220473183248199,0.8220473183248199,492,-0.9985313725313677,0.0
123,1.6632416248321533,-0.9999603338734533,2.5505195112593315e-06,-0.999957385124048,-0.9999644152163052,0.0,0.04360768337627773,0.1,0.001447916030883789,0.02806568145751953,0.047780216,27.790531,-0.9996997744396957,0.0,-0.0399992073251561,0.0,4,0.001287221908569336,0.8220282353803332,0.8220282353803332,496,-0.9999545980321317,0.0
124,1.4749934673309326,-0.9996333024661053,0.0004583617675136392,-0.9988426686445764,-0.9999615956406949,0.0,0.05078552177414321,0.1,0.001636505126953125,0.027495861053466797,0.04864078,11.128391,-0.9996931272423367,0.0,-0.039999873763470375,0.0,4,0.0012218952178955078,0.8221281467357876,0.8221281467357876,500,-0.9991730351435059,0.0
125,1.6716399192810059,-0.9998600582880506,0.00015823148178181754,-0.9995860809769319,-0.9999551480952515,0.0,0.062111655557267505,0.1,0.0015265941619873047,0.027112245559692383,0.051241823,6.4023523,-0.9997098203469081,0.0,-0.03999956006949918,0.0,4,0.0010385513305664062,0.8218872490092755,0.8218872490092755,504,-0.99922347871017,0.0
126,1.8210012912750244,-0.9999256849056555,3.601136779922023e-05,-0.9998703933092172,-0.9999591993999386,0.0,0.051240547315737565,0.1,0.001619577407836914,0.027682781219482422,0.04938505,5.519917,-0.9997314068027829,0.0,-0.039999964213843,0.0,4,0.001123189926147461,0.8221245017066512,0.8221245017066512,508,-0.9997506202126144,0.0
127,1.8092923164367676,-0.9985100865940788,0.002453433144667531,-0.9942612050810191,-0.9999651532241436,0.0,0.04355871486512573,0.1,0.0014657974243164062,0.027634859085083008,0.049723882,23.217022,-0.9996092747819125,0.0,-0.039999635934932096,0.0,4,0.00119781494140625,0.8218674268858641,0.8218674268858641,512,-0.9999265514269492,0.0
128,1.5983304977416992,-0.999782205844974,0.00030795644729647435,-0.9992488202228751,-0.9999630435221243,0.0,0.05104370356505992,0.1,0.0014989376068115234,0.02675938606262207,0.047845032,9.314001,-0.9996265678882188,0.0,-0.03999982540281728,0.0,4,0.0011832714080810547,0.8221162168143984,0.8221162168143984,516,-0.9999350031888338,0.0
129,1.6594843864440918,-0.9985360046858265,0.0024166008898641343,-0.994350620068186,-0.9999627637923698,0.0,0.0401850160231368,0.1,0.0015377998352050781,0.02748727798461914,0.04617408,31.60054,-0.9995175115679795,0.0,-0.03999996878730445,0.0,4,0.001230478286743164,0.8218001696970858,0.8218001696970858,520,-0.999959724572624,0.0
130,1.5855388641357422,-0.999947848356608,1.0572820280200292e-05,-0.9999349025946571,-0.9999615357539506,0.0,0.04492601365066375,0.1,0.0014538764953613281,0.027492761611938477,0.050861068,1.9241432,-0.9995605452468425,0.0,-0.03999988820436612,0.0,4,0.0012288093566894531,0.8219686395313333,0.8219686395313333,524,-0.9992001208819699,0.0
131,2.0455596446990967,-0.9997953463686822,0.0002618506700541293,-0.9993430057509276,-0.9999626041488234,0.0,0.0489622874446021,0.1,0.0014171600341796875,0.02758955955505371,0.048129883,15.357024,-0.9995840253590265,0.0,-0.03999977941507187,0.0,4,0.0011970996856689453,0.8221744904259901,0.8221744904259901,528,-0.9990814466089722,0.0
132,1.7631638050079346,-0.9999614275284232,5.923533402043308e-06,-0.9999511722046759,-0.9999650759346341,0.0,0.0541609841215396,0.1,0.0014014244079589844,0.027208566665649414,0.05050779,2.8217154,-0.9996217655759662,0.0,-0.03999995611728647,0.0,4,0.001219034194946289,0.8220237293379062,0.8220237293379062,532,-0.9999425561951839,0.0
133,1.6292588710784912,-0.9999588829593883,2.7562458707451973e-06,-0.9999545225761572,-0.9999621015802693,0.0,0.049928974144710175,0.1,0.0013971328735351562,0.027336835861206055,0.050812434,2.178608,-0.9996554773143084,0.0,-0.039999795596938746,0.0,4,0.00121307373046875,0.8221544944476294,0.8221544944476294,536,-0.9997030376589943,0.0
134,1.9443600177764893,-0.9999596702281743,1.7358462997195681e-06,-0.9999575449562135,-0.9999621883323149,0.0,0.0457812034990989,0.1,0.0014095306396484375,0.02764606475830078,0.050021507,5.055947,-0.999685896605695,0.0,-0.03999980622501404,0.0,4,0.0011889934539794922,0.8221307686756006,0.8221307686756006,540,-0.9999353438856861,0.0
135,1.825833797454834,-0.9997286807955572,0.00022585508614350136,-0.9994556472760256,-0.9999587414037805,0.0,0.05862359884858601,0.1,0.0016009807586669922,0.026766061782836914,0.049661893,1.9528832,-0.9996901750246813,0.0,-0.039999914875636554,0.0,4,0.0012652873992919922,0.8221102841690004,0.8221102841690004,544,-0.9994907189866492,0.0
136,1.8128013610839844,-0.9999326250676155,5.002084555174033e-05,-0.9998461611374745,-0.9999658088380947,0.0,0.053421587210442385,0.1,0.0016350746154785156,0.02701115608215332,0.049372666,11.267899,-0.9997144200289747,0.0,-0.039999953488862074,0.0,4,0.0013496875762939453,0.8220373638891203,0.8220373638891203,548,-0.9999300457165932,0.0
137,1.6492903232574463,-0.9991634168009886,0.0008894871326119083,-0.9978099483074003,-0.9999639876703468,0.0,0.05414218163736286,0.1,0.0014102458953857422,0.02753138542175293,0.051555518,3.2614088,-0.9996593197061762,0.0,-0.03999995694634639,0.0,4,0.0011749267578125,0.8219936847929232,0.8219936847929232,552,-0.9998134247879295,0.0
138,1.8611774444580078,-0.9999525866929393,1.2074699711746055e-05,-0.9999318165088207,-0.9999617546465962,0.0,0.07233458325062965,0.1,0.0014562606811523438,0.02770709991455078,0.05094977,2.3034098,-0.9996886464048524,0.0,-0.03999996045412053,0.0,4,0.0012552738189697266,0.8220615306744303,0.8220615306744303,556,-0.9998965669231529,0.0
139,1.7260615825653076,-0.9999438190676888,2.1456405253239945e-05,-0.9999090395811072,-0.9999616957642852,0.0,0.054911744152434334,0.1,0.0014958381652832031,0.027564525604248047,0.05069322,7.983186,-0.9997141636711361,0.0,-0.03999997576119026,0.0,4,0.001140594482421875,0.8222223433632097,0.8222223433632097,560,-0.9999000961229702,0.0
140,1.8416588306427002,-0.9996518757603376,0.0005341488085438391,-0.9987267123290868,-0.9999638561343207,0.0,0.06136254186120703,0.1,0.0014901161193847656,0.026953458786010742,0.049059846,6.078308,-0.9997079348800563,0.0,-0.03999968868979946,0.0,4,0.0012819766998291016,0.8221245674919186,0.8221245674919186,564,-0.9998225995764344,0.0
141,1.6883020401000977,-0.999956446018998,2.7205951547532895e-06,-0.9999535256905054,-0.9999604657842827,0.0,0.05884584212366641,0.1,0.0014460086822509766,0.026605606079101562,0.04917348,2.550335,-0.9997327859939504,0.0,-0.03999995191714583,0.0,4,0.00109100341796875,0.8221356825760041,0.8221356825760041,568,-0.9999432953734216,0.0
142,1.4867916107177734,-0.9997749381536418,0.0003258324568046412,-0.9992105856162312,-0.9999652344183323,0.0,0.05515555300873662,0.1,0.0040776729583740234,0.02781963348388672,0.047380324,9.517687,-0.9997370012099196,0.0,-0.03999986959304989,0.0,4,0.0012793540954589844,0.8222370061224166,0.8222370061224166,572,-0.9999248308495493,0.0
143,1.4794974327087402,-0.9999573129469174,5.529117206258463e-06,-0.9999485675576323,-0.9999637774366303,0.0,0.05081868208235425,0.1,0.0016145706176757812,0.02786850929260254,0.050884433,12.366383,-0.9997590323836194,0.0,-0.03999982730074644,0.0,4,0.001180887222290039,0.8223291361827868,0.8223291361827868,576,-0.9999109127190797,0.0
144,1.707688808441162,-0.9999040141175672,5.7616689812047475e-05,-0.9998459792713941,-0.9999640909190239,0.0,0.04978353269881548,0.1,0.001603841781616211,0.027709007263183594,0.049806044,0.9646305,-0.9997735305570142,0.0,-0.03999981768584471,0.0,4,0.0012083053588867188,0.8222160532129501,0.8222160532129501,580,-0.999328007849567,0.0
145,1.6142454147338867,-0.9999531769190863,1.0700300832900587e-05,-0.9999402768452739,-0.9999645694288106,0.0,0.057423642818324724,0.1,0.0017004013061523438,0.028656482696533203,0.049043156,5.263197,-0.9997914951932214,0.0,-0.039999910961238824,0.0,4,0.0012722015380859375,0.822233946161054,0.822233946161054,584,-0.9999467833464001,0.0
146,1.7330570220947266,-0.9999294672470516,5.87806596044883e-05,-0.9998276716880816,-0.9999650076444546,0.0,0.045225265278636816,0.1,0.0016231536865234375,0.02814960479736328,0.04977498,26.757267,-0.9998052923986045,0.0,-0.039999865890410734,0.0,4,0.001249074935913086,0.8221368277818927,0.8221368277818927,588,-0.9997467488307766,0.0
147,1.6763701438903809,-0.9999209801222702,6.762191322648914e-05,-0.9998038597538466,-0.9999606471123188,0.0,0.05969450713828474,0.1,0.0016095638275146484,0.02786087989807129,0.050827615,4.7570643,-0.999816861170971,0.0,-0.03999851732240692,0.0,4,0.0013620853424072266,0.822024294848886,0.822024294848886,592,-0.9997932051045563,0.0
148,1.5955874919891357,-0.9999598263416625,1.8044900631136486e-06,-0.9999582235562958,-0.9999628121335411,0.0,0.04207315551003705,0.1,0.001463174819946289,0.02814793586730957,0.0489729,30.210802,-0.9998311576880401,0.0,-0.039999911870244015,0.0,4,0.001146078109741211,0.8221399909391842,0.8221399909391842,596,-0.9995442778910179,0.0
149,1.647341012954712,-0.9999603944055637,1.704589579970528e-06,-0.9999579647246446,-0.9999621087893849,0.0,0.05027325812830005,0.1,0.0014712810516357422,0.0269467830657959,0.04841615,16.351809,-0.9998440813597924,0.0,-0.0399999520034348,0.0,4,0.0014035701751708984,0.8221902748465441,0.8221902748465441,600,-0.9990160616175139,0.0
150,1.629176378250122,-0.999083031064366,0.0008248703733256511,-0.997867215463176,-0.9999589476217636,0.0,0.048797321675959814,0.1,0.0014116764068603516,0.026674270629882812,0.04856255,16.965038,-0.9997679763302498,0.0,-0.03999997059349013,0.0,4,0.001107931137084961,0.8220101502885142,0.8220101502885142,604,-0.9999355929075368,0.0
151,1.6293373107910156,-0.9997102454536158,0.0003979730330830432,-0.9990214785183815,-0.999962093976188,0.0,0.06880952243191087,0.1,0.001600027084350586,0.029443025588989258,0.048981667,3.377811,-0.9997622032425865,0.0,-0.03999876249095849,0.0,4,0.0011947154998779297,0.8221252786502534,0.8221252786502534,608,-0.9998277573826679,0.0
152,1.8624086380004883,-0.9999601615086896,9.215508091092446e-07,-0.9999595138920911,-0.9999617494587898,0.0,0.05716394106030952,0.1,0.0013778209686279297,0.026651382446289062,0.049403656,5.388413,-0.9997819990691967,0.0,-0.0399999675288174,0.0,4,0.001088857650756836,0.8220611251142345,0.8220611251142345,612,-0.9998064343907523,0.0
153,1.55904221534729,-0.9998538597625932,0.00018625482523717613,-0.999531278111097,-0.9999644788282152,0.0,0.05285380832332369,0.1,0.0014002323150634766,0.026719331741333008,0.047711276,10.149535,-0.9997891851385363,0.0,-0.03999946155434789,0.0,4,0.0012886524200439453,0.8220603290351165,0.8220603290351165,616,-0.9998611645564978,0.0
154,1.6953635215759277,-0.9996415016861409,0.0005386992302157564,-0.9987085613001558,-0.9999604391968915,0.0,0.05222202999972026,0.1,0.001569986343383789,0.029526948928833008,0.04956273,5.992242,-0.9997744167932967,0.0,-0.039999858812990195,0.0,4,0.0012726783752441406,0.8221610776180738,0.8221610776180738,620,-0.9995996118062883,0.0
155,1.6319007873535156,-0.9998597877763442,0.0001627777939825558,-0.9995780900603737,-0.999959490420663,0.0,0.04401864758267968,0.1,0.0015611648559570312,0.027463436126708984,0.047682233,34.468723,-0.9997829538916014,0.0,-0.03999704987938098,0.0,4,0.0012493133544921875,0.8221358235139211,0.8221358235139211,624,-0.9998082548258612,0.0
156,1.7313270568847656,-0.999163863713401,0.0008158683693430967,-0.9978159119817882,-0.9999614437487985,0.0,0.054664926385188134,0.1,0.001455545425415039,0.027136802673339844,0.048988134,6.405424,-0.9997210448737814,0.0,-0.03999987436232405,0.0,4,0.0012028217315673828,0.8218774697040739,0.8218774697040739,628,-0.9998813368368981,0.0
157,1.6660547256469727,-0.9999536801677176,1.0871855927960944e-05,-0.9999350271577525,-0.9999623173102179,0.0,0.04926519538485484,0.1,0.0014531612396240234,0.028275251388549805,0.050866418,1.1379632,-0.9997443084031751,0.0,-0.03999997121459162,0.0,4,0.0012764930725097656,0.822146271516241,0.822146271516241,632,-0.9991496278296085,0.0
158,1.909574031829834,-0.999942259832141,3.644937448921766e-05,-0.9998791576412882,-0.9999651263703639,0.0,0.056460085746629085,0.1,0.0016047954559326172,0.02720332145690918,0.050318304,2.567645,-0.9997641035460716,0.0,-0.039999781970357466,0.0,4,0.0013239383697509766,0.8223352820447303,0.8223352820447303,636,-0.9999468196242706,0.0
159,1.3687405586242676,-0.9999631976672956,1.7415408710496532e-06,-0.9999606971182193,-0.9999650327282124,0.0,0.05791718278789372,0.1,0.0016162395477294922,0.027598857879638672,0.050457336,2.2765112,-0.9997840129581941,0.0,-0.039999830704161896,0.0,4,0.0011920928955078125,0.8220980214281794,0.8220980214281794,640,-0.9997204998600931,0.0
160,1.5431156158447266,-0.9999535003231863,1.3068531830045053e-05,-0.9999323282577404,-0.9999643441753394,0.0,0.05316795699900198,0.1,0.001504659652709961,0.027014970779418945,0.053014252,1.8188598,-0.9998009616946933,0.0,-0.03999997106494031,0.0,4,0.0013647079467773438,0.8220231128679469,0.8220231128679469,644,-0.9999328649721911,0.0
161,1.4550271034240723,-0.9999591115320884,3.1251585830274e-06,-0.9999561911517063,-0.9999642761031347,0.0,0.05640586144272233,0.1,0.001661539077758789,0.028229475021362305,0.05078941,1.6070756,-0.9998167766784328,0.0,-0.03999986762903458,0.0,4,0.0012676715850830078,0.8221020036618452,0.8221020036618452,648,-0.9997686047245025,0.0
162,1.3398969173431396,-0.999294184897259,0.0009655589778572723,-0.997639390594445,-0.9999660623735374,0.0,0.06628256299305059,0.1,0.0015659332275390625,0.02742147445678711,0.048619404,4.4253592,-0.9997645175003155,0.0,-0.039999781386243854,0.0,4,0.0011539459228515625,0.8221767558577949,0.8221767558577949,652,-0.999959888005233,0.0
163,1.424753189086914,-0.9999606082565451,3.543751897037926e-06,-0.9999553874764884,-0.9999640479615479,0.0,0.052551337725457045,0.1,0.0015878677368164062,0.027276277542114258,0.05026569,2.687495,-0.9997841265759384,0.0,-0.0399969693015928,0.0,4,0.0012140274047851562,0.8220859028746378,0.8220859028746378,656,-0.9999391132922176,0.0
164,1.5251972675323486,-0.9999137679636466,6.545279737098544e-05,-0.9998034890962633,-0.9999661873720556,0.0,0.0571942600104218,0.1,0.0015001296997070312,0.02693009376525879,0.049379997,6.513526,-0.9997970907147093,0.0,-0.03999986855338321,0.0,4,0.0011932849884033203,0.8222856424972168,0.8222856424972168,660,-0.9996977904206118,0.0
165,1.532810926437378,-0.9998994733588451,0.00010334809452925713,-0.9997205743031907,-0.9999643368470614,0.0,0.054087626746878954,0.1,0.0016045570373535156,0.028037309646606445,0.048724964,5.425587,-0.999807328979123,0.0,-0.03999997108585439,0.0,4,0.0010743141174316406,0.821881244836249,0.821881244836249,664,-0.999911101427494,0.0
166,1.4760551452636719,-0.9999595696403031,4.2060192348734444e-06,-0.9999536201921115,-0.9999638223117524,0.0,0.05447463589644143,0.1,0.0016434192657470703,0.030157804489135742,0.04936583,3.3294432,-0.9998225530452409,0.0,-0.03999997541115384,0.0,4,0.0012946128845214844,0.8221565967715666,0.8221565967715666,668,-0.998744669868934,0.0
167,1.3041551113128662,-0.9997989575065961,0.0002826919014733588,-0.9993093345212629,-0.9999654630940182,0.0,0.04242346129534239,0.1,0.0015785694122314453,0.026949405670166016,0.04872647,42.716244,-0.9998201934913764,0.0,-0.03999909205083204,0.0,4,0.0011856555938720703,0.8221031073791715,0.8221031073791715,672,-0.9998849084557407,0.0
168,1.5867955684661865,-0.9999608602018927,1.9497408962995247e-06,-0.9999582265375435,-0.9999627939174598,0.0,0.042040535881266994,0.1,0.0014827251434326172,0.02724599838256836,0.050966956,2.970273,-0.999834260162428,0.0,-0.03999988507153251,0.0,4,0.001238107681274414,0.8220027731160271,0.8220027731160271,676,-0.9999326067829862,0.0
169,1.5287678241729736,-0.998861089388706,0.0017276198876701168,-0.9958728368504668,-0.9999649268940245,0.0,0.06469519282642983,0.1,0.0015494823455810547,0.028586149215698242,0.05044378,4.5122023,-0.9997369430850559,0.0,-0.03999957413312968,0.0,4,0.00119781494140625,0.8220473611393054,0.8220473611393054,680,-0.9998847906207587,0.0
170,1.653148889541626,-0.9998327663691815,0.00010236246531717472,-0.9997015864556151,-0.9999526460411492,0.0,0.06025067981104119,0.1,0.0014584064483642578,0.02733016014099121,0.05096088,0.95339257,-0.9997465254134685,0.0,-0.0399992307909643,0.0,4,0.0012600421905517578,0.8221616217121762,0.8221616217121762,684,-0.9999441266792912,0.0
171,1.7362637519836426,-0.9999604126780164,4.623396201511413e-06,-0.9999530350218007,-0.9999646563179503,0.0,0.05228923520446586,0.1,0.0013890266418457031,0.027068614959716797,0.04911241,3.863384,-0.9997679141399234,0.0,-0.03999983023865443,0.0,4,0.0010974407196044922,0.82213978571608,0.82213978571608,688,-0.9998519037570732,0.0
172,1.4849038124084473,-0.9999598165522152,3.704798037257195e-06,-0.9999541700397028,-0.999963511442546,0.0,0.0584304121752421,0.1,0.0014576911926269531,0.02705693244934082,0.051135045,3.6190205,-0.9997871043811526,0.0,-0.039999790563608334,0.0,4,0.0012326240539550781,0.8221112591919628,0.8221112591919628,692,-0.999831161798908,0.0
173,1.84389328956604,-0.9999441505618931,3.151661129952248e-05,-0.9998896582751537,-0.9999649715106869,0.0,0.052818202881225615,0.1,0.0014240741729736328,0.0299379825592041,0.050207794,1.9697022,-0.9998028089992267,0.0,-0.03999971284958905,0.0,4,0.0012691020965576172,0.8221033565526406,0.8221033565526406,696,-0.9998439083223577,0.0
174,1.5193932056427002,-0.9999316048421629,4.460982554113111e-05,-0.9998554124014154,-0.999965150176108,0.0,0.05760176450857717,0.1,0.0013649463653564453,0.026827096939086914,0.04860142,6.033701,-0.9998156885835203,0.0,-0.03999969047516143,0.0,4,0.0010981559753417969,0.822265975963621,0.822265975963621,700,-0.9998393462247569,0.0
175,1.4972105026245117,-0.9999274697090272,5.813102134205752e-05,-0.9998267997952526,-0.9999624611553826,0.0,0.055153332098268774,0.1,0.0015034675598144531,0.028176069259643555,0.050382808,1.8130882,-0.9998268666960711,0.0,-0.03999974898873456,0.0,4,0.0013437271118164062,0.8221051674780877,0.8221051674780877,704,-0.9997622661225858,0.0
176,1.7332837581634521,-0.999942633998012,2.8740736790113925e-05,-0.9998932818769568,-0.9999648923651652,0.0,0.043317637568943294,0.1,0.0016074180603027344,0.029194355010986328,0.051869825,1.0725721,-0.9998384434262653,0.0,-0.03999996840309088,0.0,4,0.0013298988342285156,0.8220011185214476,0.8220011185214476,708,-0.999902651782707,0.0
177,1.7106621265411377,-0.9999516086060583,2.0139996086005143e-05,-0.999916728823895,-0.9999637133566861,0.0,0.05835691043955906,0.1,0.0015163421630859375,0.02775263786315918,0.049536835,1.7931099,-0.9998497599442446,0.0,-0.03999995837629579,0.0,4,0.0012390613555908203,0.8220497950546682,0.8220497950546682,712,-0.999767032173188,0.0
178,1.4939043521881104,-0.9999516327048469,9.070730009510975e-06,-0.9999360801234409,-0.9999584201729557,0.0,0.0555350106321007,0.1,0.0015630722045898438,0.027591228485107422,0.04982546,3.214134,-0.9998599472203049,0.0,-0.03999987280759689,0.0,4,0.0012345314025878906,0.8222492620983572,0.8222492620983572,716,-0.9999464703479871,0.0
179,1.419480800628662,-0.999826062362212,0.00023231353442487693,-0.9994237514535373,-0.9999643563385248,0.0,0.059881021795011445,0.1,0.0015859603881835938,0.028565406799316406,0.047706142,5.284678,-0.9998565587344956,0.0,-0.03999973360862062,0.0,4,0.0013434886932373047,0.8220242652347793,0.8220242652347793,720,-0.9999219838527243,0.0
180,1.4234654903411865,-0.9996720644934289,0.0005013696102972746,-0.9988036864416785,-0.9999663845972608,0.0,0.06106542763948787,0.1,0.0014605522155761719,0.02764749526977539,0.04834613,5.668392,-0.999838109310389,0.0,-0.039999249437406084,0.0,4,0.0011820793151855469,0.822149095610982,0.822149095610982,724,-0.9999110325540023,0.0
181,1.3959014415740967,-0.9999611672485096,1.795659102562289e-06,-0.9999582501214939,-0.9999629405635047,0.0,0.06145723059798722,0.1,0.0016429424285888672,0.027915477752685547,0.05086349,2.8802223,-0.999850415104201,0.0,-0.03999995709165019,0.0,4,0.0013425350189208984,0.8222568849464138,0.8222568849464138,728,-0.9998189144319166,0.0
182,1.579932451248169,-0.9999125082021434,7.55175688870301e-05,-0.9997819421765131,-0.999963404175856,0.0,0.05504817552952407,0.1,0.0015492439270019531,0.027707576751708984,0.05000144,5.9181104,-0.9998566244139953,0.0,-0.03999990309142917,0.0,4,0.0012619495391845703,0.8220907225537559,0.8220907225537559,732,-0.9998542488465678,0.0
183,1.553884744644165,-0.9999583987291576,6.650018992576075e-06,-0.9999469419552058,-0.9999627816781334,0.0,0.05452559686930889,0.1,0.0014681816101074219,0.02739405632019043,0.049827024,2.4311697,-0.9998668018455115,0.0,-0.039999971875411655,0.0,4,0.001112222671508789,0.8221230297843957,0.8221230297843957,736,-0.9999289120741061,0.0
184,1.430842638015747,-0.999881726196141,9.469256633198785e-05,-0.9997197216987332,-0.9999597620099212,0.0,0.050887140748057516,0.1,0.0016472339630126953,0.028845787048339844,0.050252374,7.132211,-0.9998682942805744,0.0,-0.03999978224125141,0.0,4,0.0011897087097167969,0.8222483782218211,0.8222483782218211,740,-0.9998825868623048,0.0
185,1.5745139122009277,-0.9998884820522405,9.583354073446454e-05,-0.9997265162342552,-0.9999631000419507,0.0,0.06791533030053298,0.1,0.0015244483947753906,0.027324914932250977,0.048970133,3.3057268,-0.999870313057741,0.0,-0.03999981388805357,0.0,4,0.0011577606201171875,0.8221533574688457,0.8221533574688457,744,-0.9999050922895879,0.0
186,2.080165386199951,-0.999945170656644,2.4862419598909763e-05,-0.999902298937771,-0.9999629859425139,0.0,0.05436549596298302,0.1,0.0014586448669433594,0.028117895126342773,0.04901292,6.173298,-0.9998777988176313,0.0,-0.03999993194521301,0.0,4,0.0013475418090820312,0.822026818684821,0.822026818684821,748,-0.9999328719893382,0.0
187,1.4278316497802734,-0.9997098207384347,0.0004374085968951313,-0.9989522190803526,-0.9999664102367469,0.0,0.061345317862697084,0.1,0.0014421939849853516,0.02739715576171875,0.04780396,5.806024,-0.9998610010097116,0.0,-0.03999902111342299,0.0,4,0.0012569427490234375,0.8219266401239768,0.8219266401239768,752,-0.9997846157513739,0.0
188,1.6155836582183838,-0.9999423091427443,1.3358567625823782e-05,-0.9999285531612849,-0.9999631916393048,0.0,0.05314088464873327,0.1,0.0014369487762451172,0.027573585510253906,0.048555106,8.83304,-0.9998691318230148,0.0,-0.03999924317510169,0.0,4,0.0011644363403320312,0.8222272871459247,0.8222272871459247,756,-0.9990908630811667,0.0
189,1.8624763488769531,-0.9999607361606005,1.2495102706268377e-06,-0.9999596259490531,-0.9999628171913002,0.0,0.0476083444555598,0.1,0.0015683174133300781,0.028217315673828125,0.049564227,11.405326,-0.9998782922567735,0.0,-0.03999996299233357,0.0,4,0.0012738704681396484,0.8223154623900709,0.8223154623900709,760,-0.9999070818673488,0.0
190,1.6990907192230225,-0.9999612727956673,5.170427127610965e-06,-0.9999528948913747,-0.9999657578111099,0.0,0.0614212121591831,0.1,0.0016748905181884766,0.02800154685974121,0.049782343,3.0673013,-0.999886590310663,0.0,-0.03999834684778732,0.0,4,0.001275777816772461,0.8218917013911885,0.8218917013911885,764,-0.9994862895027592,0.0
191,1.530632495880127,-0.9992907962307904,0.0010120873181929263,-0.9975415665889427,-0.999947757338385,0.0,0.061561590699349675,0.1,0.0015501976013183594,0.02713179588317871,0.04970652,4.173638,-0.9998270109026758,0.0,-0.03999947119402846,0.0,4,0.0012049674987792969,0.8221627232796596,0.8221627232796596,768,-0.9991260183111011,0.0
192,1.4631373882293701,-0.9999587647690156,4.3051966913108525e-06,-0.9999521149699271,-0.999964075653113,0.0,0.05292131996570343,0.1,0.0015654563903808594,0.0283815860748291,0.05114472,3.4699523,-0.9998401862893098,0.0,-0.03999908740526749,0.0,4,0.00115203857421875,0.822123097412853,0.822123097412853,772,-0.9999148003992628,0.0
193,1.5036277770996094,-0.999915685826271,6.526144542346777e-05,-0.9998045446195067,-0.9999649952610763,0.0,0.045176436197881725,0.1,0.0014586448669433594,0.026647090911865234,0.051736478,4.044046,-0.999847736243006,0.0,-0.0399999430082854,0.0,4,0.0010764598846435547,0.8220383936225399,0.8220383936225399,776,-0.9999570330730463,0.0
194,1.5182521343231201,-0.9999606909390331,2.3121751723914036e-06,-0.9999567217149812,-0.9999623118547105,0.0,0.04820675558363833,0.1,0.0014336109161376953,0.028033971786499023,0.05305257,0.76626647,-0.9998590317126088,0.0,-0.039999389857083574,0.0,4,0.0011746883392333984,0.822002660455218,0.822002660455218,780,-0.9999087127568718,0.0
195,1.4508121013641357,-0.9999120384675051,8.735836916504865e-05,-0.9997607410644518,-0.9999640684433748,0.0,0.05843181624586245,0.1,0.0014796257019042969,0.027336597442626953,0.049075615,1.6848096,-0.9998643323880985,0.0,-0.03999994897837236,0.0,4,0.0011963844299316406,0.8222500233400604,0.8222500233400604,784,-0.9999494603232036,0.0
196,1.4833500385284424,-0.9999611947822497,4.129164531181224e-06,-0.9999548016315327,-0.9999658008586574,0.0,0.05017306120101457,0.1,0.0013425350189208984,0.027031421661376953,0.048659153,11.315202,-0.9998740186275136,0.0,-0.03999994837235213,0.0,4,0.0010776519775390625,0.8222201762308502,0.8222201762308502,788,-0.9998191234106836,0.0
197,1.51755690574646,-0.9999521535465472,1.3384918519677653e-05,-0.9999290257836675,-0.9999609833122243,0.0,0.047319396231315286,0.1,0.0014677047729492188,0.02736830711364746,0.052562296,1.1274378,-0.999881832119417,0.0,-0.03999958629094151,0.0,4,0.0013055801391601562,0.8220774067541851,0.8220774067541851,792,-0.9998847812121342,0.0
198,1.5314373970031738,-0.9992572972491673,0.0007563537832347373,-0.9980079047731494,-0.9999595093560201,0.0,0.0523282897437348,0.1,0.001531839370727539,0.027968168258666992,0.048471764,13.164184,-0.999819378632392,0.0,-0.03999913714895291,0.0,4,0.0012595653533935547,0.8219041241423031,0.8219041241423031,796,-0.999864028582203,0.0
199,1.3795762062072754,-0.9999372400189929,3.0567266185373006e-05,-0.9998850182147967,-0.9999626111506392,0.0,0.05645084678575538,0.1,0.0014367103576660156,0.026561975479125977,0.05011382,1.338606,-0.9998311647710522,0.0,-0.03999962797592822,0.0,4,0.0010750293731689453,0.8221414920985249,0.8221414920985249,800,-0.999730664354074,0.0
200,1.3815770149230957,-0.9999603476848264,2.4017848021063447e-06,-0.99995739340354,-0.9999633049048327,0.0,0.052040760377643845,0.1,0.00151824951171875,0.02794814109802246,0.04945392,7.2198005,-0.9998440830624296,0.0,-0.03999996617216154,0.0,4,0.001255035400390625,0.821964811010536,0.821964811010536,804,-0.9998992155758447,0.0
201,1.4374794960021973,-0.999954771717378,5.794340238494755e-06,-0.9999490468894996,-0.9999624650327914,0.0,0.05437832356592516,0.1,0.001459360122680664,0.026984214782714844,0.050332732,4.7530184,-0.9998551519279245,0.0,-0.03999880303482471,0.0,4,0.001142740249633789,0.8220499060915812,0.8220499060915812,808,-0.9999206329225755,0.0
202,1.6349568367004395,-0.9998599872280547,0.00010168689542453633,-0.9997390244450375,-0.9999616449754951,0.0,0.06190840863743358,0.1,0.0015087127685546875,0.0268251895904541,0.04918229,2.850263,-0.9998556354579375,0.0,-0.03999709585657489,0.0,4,0.0012516975402832031,0.8221251168886711,0.8221251168886711,812,-0.999715497545174,0.0
203,1.6455249786376953,-0.9998569429065008,0.00017617589670911277,-0.9995518180340861,-0.9999614028018708,0.0,0.05154598576243494,0.1,0.0015249252319335938,0.027277469635009766,0.048967794,13.148941,-0.9998557662027939,0.0,-0.03999996199595287,0.0,4,0.0012891292572021484,0.8219760328818356,0.8219760328818356,816,-0.9999189519859906,0.0
204,1.6620302200317383,-0.9998967413245283,7.810465593051301e-05,-0.9997704729496601,-0.9999629695918069,0.0,0.049122031781014056,0.1,0.0014486312866210938,0.028048276901245117,0.0512346,2.245464,-0.9998598637149674,0.0,-0.03999982698606216,0.0,4,0.0012722015380859375,0.8221502240832296,0.8221502240832296,820,-0.9998074029077731,0.0
205,1.656646728515625,-0.9999549901539111,7.907467304905317e-06,-0.9999414861881524,-0.9999612773887927,0.0,0.047513371542270935,0.1,0.001558542251586914,0.02712869644165039,0.047054533,1.9136561,-0.9998693763588618,0.0,-0.03999990320291589,0.0,4,0.0013098716735839844,0.8220100522459323,0.8220100522459323,824,-0.9998717822066742,0.0
206,1.5031449794769287,-0.9999241341455853,3.0846614001907364e-05,-0.9998821675956981,-0.9999597716050692,0.0,0.04920300711502266,0.1,0.001444101333618164,0.02808213233947754,0.047930665,13.130798,-0.9998748521375341,0.0,-0.03999929823802143,0.0,4,0.0012009143829345703,0.8221035624258765,0.8221035624258765,828,-0.9998951091418767,0.0
207,1.6369001865386963,-0.9991308092266122,0.0008509861971444781,-0.9979660832706743,-0.9999611180520989,0.0,0.05903709869399771,0.1,0.0014567375183105469,0.027611970901489258,0.046888374,3.0433962,-0.999800447846442,0.0,-0.03999989618674927,0.0,4,0.001180887222290039,0.821897749062466,0.821897749062466,832,-0.9995938206627942,0.0
208,1.5581140518188477,-0.9999612315245809,2.3118400300173373e-06,-0.9999589882226816,-0.9999650802659075,0.0,0.05581761655710901,0.1,0.0015671253204345703,0.02663564682006836,0.050431587,8.518821,-0.9998165262142559,0.0,-0.03999995413782245,0.0,4,0.001186370849609375,0.822238308045363,0.822238308045363,836,-0.9999479173787872,0.0
209,1.5066423416137695,-0.9997260167109865,0.0003857619029954174,-0.9990584704451846,-0.9999637403225448,0.0,0.04141327433860003,0.1,0.001524209976196289,0.02780604362487793,0.047552325,14.153682,-0.999807475263929,0.0,-0.039999973286037806,0.0,4,0.0011942386627197266,0.8221249159273478,0.8221249159273478,840,-0.9997569633394243,0.0
210,1.8083953857421875,-0.9999605857348819,1.7172505230826055e-06,-0.9999585276382945,-0.9999632915972307,0.0,0.05624863518247139,0.1,0.0013816356658935547,0.02733778953552246,0.04868496,8.510788,-0.9998227863110243,0.0,-0.03999990734554065,0.0,4,0.0011081695556640625,0.8221020464018542,0.8221020464018542,844,-0.9996898843115445,0.0
211,1.8488423824310303,-0.9999611374340933,1.9474183904554816e-06,-0.999958260225285,-0.9999637212385994,0.0,0.051116474913372525,0.1,0.0014190673828125,0.027205944061279297,0.049051337,9.794623,-0.9998366214233312,0.0,-0.039999928263645075,0.0,4,0.0012257099151611328,0.8221395036834344,0.8221395036834344,848,-0.9995926090735706,0.0
212,1.5678126811981201,-0.9999345527774403,3.877769075236055e-05,-0.9998683566846664,-0.9999623458257036,0.0,0.04612994142961564,0.1,0.0013630390167236328,0.02662038803100586,0.048196793,18.127266,-0.9998464145587421,0.0,-0.03999996448299214,0.0,4,0.0010924339294433594,0.8221050684600325,0.8221050684600325,852,-0.9998093351060638,0.0
213,1.484985589981079,-0.9999591649765798,6.384486237663849e-06,-0.9999483918666379,-0.9999639763942716,0.0,0.052950575135886066,0.1,0.001462697982788086,0.027286052703857422,0.05036987,4.259727,-0.999857689600526,0.0,-0.03999996333374307,0.0,4,0.0010762214660644531,0.8219738048098391,0.8219738048098391,856,-0.9999179483500727,0.0
214,1.5480384826660156,-0.9999622359501805,1.0629019367235716e-06,-0.9999611905470267,-0.9999639261670379,0.0,0.04823644963971275,0.1,0.0015664100646972656,0.02802419662475586,0.05053883,2.7259405,-0.9998681442354914,0.0,-0.03999984307270159,0.0,4,0.0012247562408447266,0.8220327783257714,0.8220327783257714,860,-0.9999493638505911,0.0
215,1.5554070472717285,-0.999879899675253,0.00013852831239864416,-0.9996399674813619,-0.9999614597938766,0.0,0.05201765459841297,0.1,0.001544952392578125,0.027696847915649414,0.051479466,3.0269887,-0.9998693197794676,0.0,-0.039999965494035956,0.0,4,0.0012552738189697266,0.8221081531867759,0.8221081531867759,864,-0.9995921039537441,0.0
216,1.4342551231384277,-0.9999015394321034,9.968633514103043e-05,-0.999729018948768,-0.9999632622565875,0.0,0.053802124878752106,0.1,0.0014157295227050781,0.027622222900390625,0.050635815,3.8066967,-0.9998725417447312,0.0,-0.03999983542049431,0.0,4,0.001207113265991211,0.8220024026311048,0.8220024026311048,868,-0.999923461393161,0.0
217,1.5253074169158936,-0.9999622765711718,2.3781819112681817e-06,-0.9999594792082707,-0.9999647654878894,0.0,0.04827901811172837,0.1,0.0015363693237304688,0.027489662170410156,0.043978363,6.7379475,-0.9998815152273752,0.0,-0.03999988518050885,0.0,4,0.001241922378540039,0.8222264590388815,0.8222264590388815,872,-0.9999097135570388,0.0
218,1.7294633388519287,-0.9998825234888727,0.0001219234922309885,-0.9996719528544866,-0.9999616791799308,0.0,0.0650267552995442,0.1,0.0015239715576171875,0.027410268783569336,0.05018732,2.6553726,-0.999881616053525,0.0,-0.03999982454909662,0.0,4,0.0011010169982910156,0.8219873451970887,0.8219873451970887,876,-0.9997226003613635,0.0
219,1.5928480625152588,-0.9999348754913404,4.8701209419365936e-05,-0.999850567223781,-0.9999650915884686,0.0,0.05848990170170589,0.1,0.0016498565673828125,0.028905153274536133,0.05004637,2.1859603,-0.9998869419973065,0.0,-0.03999992183909964,0.0,4,0.001176595687866211,0.822024518914231,0.822024518914231,880,-0.9998528075988805,0.0
220,1.3960955142974854,-0.9999624374652933,1.497822329716495e-06,-0.9999603052934409,-0.9999639952474602,0.0,0.06547029266998058,0.1,0.0015447139739990234,0.027677297592163086,0.049694158,2.7941089,-0.9998944915441053,0.0,-0.039999500021805634,0.0,4,0.0012469291687011719,0.8221580913490826,0.8221580913490826,884,-0.9999273039560399,0.0
221,1.7033741474151611,-0.9999608110465441,3.429463462080876e-06,-0.9999563727437313,-0.9999659584337801,0.0,0.04678956332939978,0.1,0.0014028549194335938,0.027257204055786133,0.051559553,0.8881842,-0.9999011234943491,0.0,-0.03999944689452446,0.0,4,0.0011553764343261719,0.8219892311908179,0.8219892311908179,888,-0.9998040752579223,0.0
222,1.7795307636260986,-0.9999561541795057,2.9019970511069213e-06,-0.9999539389745677,-0.9999611463068145,0.0,0.06596217226442556,0.1,0.0014224052429199219,0.0272367000579834,0.050829224,1.7065629,-0.9999066265628648,0.0,-0.03999983738485462,0.0,4,0.001222372055053711,0.8222731071264714,0.8222731071264714,892,-0.9998171090347802,0.0
223,1.6476960182189941,-0.9998635420820301,0.00016267656588220465,-0.9995818803866647,-0.9999643485039102,0.0,0.05312113428777016,0.1,0.001440286636352539,0.027171850204467773,0.047400817,13.566757,-0.9999023181147814,0.0,-0.03999977678086324,0.0,4,0.001195669174194336,0.8222592738991131,0.8222592738991131,896,-0.9998927650549744,0.0
224,1.4604802131652832,-0.9999612814692389,1.2692964207431888e-06,-0.999960041858525,-0.9999630791484588,0.0,0.05490038168033269,0.1,0.001508474349975586,0.026563405990600586,0.04915218,4.765231,-0.9999082144502272,0.0,-0.03999997397731549,0.0,4,0.001123666763305664,0.8220782081598133,0.8220782081598133,900,-0.9993767400993528,0.0
225,1.4549262523651123,-0.9999573853624228,1.0354922411325831e-05,-0.9999396008097245,-0.9999652613807222,0.0,0.04495511847536528,0.1,0.001378774642944336,0.02671504020690918,0.05135347,0.92477435,-0.9999131315414468,0.0,-0.03999983794191362,0.0,4,0.0010933876037597656,0.8220967496498831,0.8220967496498831,904,-0.9999528877365319,0.0
226,1.555311918258667,-0.9998570932195798,0.0001665159635185584,-0.9995693501242982,-0.9999643060610561,0.0,0.04501997628892084,0.1,0.0014781951904296875,0.027507543563842773,0.047185756,22.46292,-0.9999075277092602,0.0,-0.03999992223369932,0.0,4,0.0012602806091308594,0.8221243756875187,0.8221243756875187,908,-0.9999455553017306,0.0
227,1.466733455657959,-0.9997882008440613,0.00020301595294287323,-0.9994553390174232,-0.9999553187534678,0.0,0.05421057985188025,0.1,0.001478433609008789,0.026653766632080078,0.05044864,2.0910633,-0.9998955950227404,0.0,-0.03999993138491935,0.0,4,0.0014503002166748047,0.8219608066711345,0.8219608066711345,912,-0.9999096970079813,0.0
228,1.4987132549285889,-0.9999420918245157,1.2639510689526893e-05,-0.9999254607080241,-0.9999609227063375,0.0,0.05110113573088876,0.1,0.0015676021575927734,0.027910470962524414,0.04828641,8.374572,-0.9999002447029179,0.0,-0.03999943130397274,0.0,4,0.00128173828125,0.8220570709983378,0.8220570709983378,916,-0.9995438854369038,0.0
229,1.5597717761993408,-0.9999068415055465,5.002600801797582e-05,-0.9998413229205785,-0.9999616019595525,0.0,0.057860299467268624,0.1,0.0015382766723632812,0.02879476547241211,0.050284512,2.6625497,-0.9999009043831808,0.0,-0.039999931217879064,0.0,4,0.0012664794921875,0.8222019176905783,0.8222019176905783,920,-0.9997822797345033,0.0
230,1.4246923923492432,-0.9999563776959021,7.264635493353826e-06,-0.9999440183375969,-0.9999624615836358,0.0,0.05473769853607768,0.1,0.0016260147094726562,0.02830672264099121,0.051276803,6.208953,-0.9999064517144529,0.0,-0.03999992025221927,0.0,4,0.0012302398681640625,0.8220290789659743,0.8220290789659743,924,-0.9999279983767894,0.0
231,1.47310471534729,-0.9999601289398441,2.421270659379262e-06,-0.9999583576807154,-0.9999642806147082,0.0,0.044528941785280995,0.1,0.0015096664428710938,0.027022123336791992,0.048920754,21.186138,-0.999911819436992,0.0,-0.039998832517316674,0.0,4,0.0010857582092285156,0.8222433404387308,0.8222433404387308,928,-0.9999113194238687,0.0
232,1.5469324588775635,-0.999950222330452,9.59552143978637e-06,-0.9999357429059699,-0.999962388074652,0.0,0.05795000290563529,0.1,0.0014884471893310547,0.02800464630126953,0.047075063,9.595606,-0.9999156597263381,0.0,-0.039999056066768714,0.0,4,0.0011539459228515625,0.822299909970754,0.822299909970754,932,-0.9999103405399206,0.0
233,1.553300380706787,-0.9995085670477156,0.0004748719876596798,-0.9988528278968238,-0.9999625747832268,0.0,0.06319100440766422,0.1,0.0015032291412353516,0.02816033363342285,0.050093047,2.1174278,-0.9998749504584759,0.0,-0.03999982904975587,0.0,4,0.0012698173522949219,0.8219842857433022,0.8219842857433022,936,-0.999927036073725,0.0
234,1.7724361419677734,-0.9999581666756662,3.4549014026857896e-06,-0.9999554740199978,-0.9999640307411601,0.0,0.04475258786121911,0.1,0.0015208721160888672,0.02757716178894043,0.05193562,1.0022897,-0.9998832720801949,0.0,-0.03999852793700061,0.0,4,0.0012700557708740234,0.8219591376873164,0.8219591376873164,940,-0.9998420570752832,0.0
235,1.7539732456207275,-0.999818016421423,0.00024648584356663604,-0.999391098404619,-0.9999622499194574,0.0,0.06154948805621347,0.1,0.0015041828155517578,0.026762962341308594,0.049195282,4.7951674,-0.9998767465143178,0.0,-0.0399985928099447,0.0,4,0.00110626220703125,0.8219732815286155,0.8219732815286155,944,-0.999468158525004,0.0
236,1.6437888145446777,-0.9999228341984141,6.104564398454545e-05,-0.9998177122954104,-0.9999644978834106,0.0,0.06580209939863611,0.1,0.001562356948852539,0.027683019638061523,0.049510203,5.133665,-0.9998813552827275,0.0,-0.039999956634436715,0.0,4,0.0012848377227783203,0.8221656903418217,0.8221656903418217,948,-0.9998995844563329,0.0
237,1.8911585807800293,-0.9999598572168922,3.897184049972432e-06,-0.9999552070876614,-0.9999651428310825,0.0,0.05011559874893107,0.1,0.0014078617095947266,0.02840280532836914,0.04945319,4.672193,-0.999889205476144,0.0,-0.03999996900363192,0.0,4,0.0012500286102294922,0.8220800450599262,0.8220800450599262,952,-0.9999348906970216,0.0
238,1.6877918243408203,-0.9999568014813427,2.292753164726485e-06,-0.9999532180792363,-0.9999593558822599,0.0,0.04832396792555541,0.1,0.001397848129272461,0.026952266693115234,0.051632937,2.3803194,-0.9998959650766639,0.0,-0.039999965071186055,0.0,4,0.001123189926147461,0.8221972781044555,0.8221972781044555,956,-0.9999476766100038,0.0
239,1.5577585697174072,-0.998058822922183,0.0031811857901171345,-0.9925505503426821,-0.9999595860556127,0.0,0.062899481236014,0.1,0.0014510154724121094,0.027013778686523438,0.04864064,5.8977304,-0.9997122508612158,0.0,-0.039999655883760164,0.0,4,0.0012278556823730469,0.8218110290131425,0.8218110290131425,960,-0.999923224004923,0.0
240,1.8076565265655518,-0.9999098357305507,8.078269471947826e-05,-0.9997700304360542,-0.9999603881663224,0.0,0.055807429558345,0.1,0.0014777183532714844,0.0280306339263916,0.051218785,1.03281,-0.9997320093481494,0.0,-0.039998636880593255,0.0,4,0.0012912750244140625,0.8220206843669512,0.8220206843669512,964,-0.9998275446756425,0.0
241,1.576026439666748,-0.9999443900035323,3.396509420400253e-05,-0.9998856034407113,-0.9999660984975154,0.0,0.05387493360862204,0.1,0.0015017986297607422,0.027322053909301758,0.048838243,9.129106,-0.9997532474136878,0.0,-0.03999994077280353,0.0,4,0.0012042522430419922,0.8221640064449292,0.8221640064449292,968,-0.9997828119521892,0.0
242,1.5160183906555176,-0.999818144561639,0.00011137255271049071,-0.9996557180056183,-0.9999638286557322,0.0,0.0547444222017702,0.1,0.0014786720275878906,0.02692270278930664,0.05080794,2.305836,-0.999759737128483,0.0,-0.03999997119817006,0.0,4,0.0011730194091796875,0.8220454016039432,0.8220454016039432,972,-0.9997854488632285,0.0
243,1.5965416431427002,-0.9999530960602605,9.712163391162704e-06,-0.9999378176373879,-0.9999619220317921,0.0,0.06227402095440229,0.1,0.0015118122100830078,0.027323007583618164,0.048790142,4.07127,-0.9997790730216608,0.0,-0.039999819319949406,0.0,4,0.0012590885162353516,0.8221453441553369,0.8221453441553369,976,-0.9998298708190588,0.0
244,1.668342113494873,-0.9998765192331748,8.62963163707264e-05,-0.9997822181664644,-0.9999661169695901,0.0,0.04860784051752012,0.1,0.0014853477478027344,0.027340412139892578,0.05022545,2.5231376,-0.9997888176428122,0.0,-0.039999637950418235,0.0,4,0.001172780990600586,0.8220224846991003,0.8220224846991003,980,-0.9997960038170342,0.0
245,1.757819414138794,-0.9998364520605669,0.00012532719891194987,-0.9996606825333065,-0.999960538810142,0.0,0.045607382359978174,0.1,0.0015614032745361328,0.02727222442626953,0.04882385,8.789648,-0.9997935810845878,0.0,-0.039999911387340006,0.0,4,0.0012288093566894531,0.8220386798237199,0.8220386798237199,984,-0.9997968242535448,0.0
246,1.522254467010498,-0.9999612546797985,1.7581445446291896e-06,-0.9999591210342018,-0.9999637757333293,0.0,0.05674076815867098,0.1,0.0015501976013183594,0.028236865997314453,0.04887464,5.8490195,-0.9998103484441089,0.0,-0.039999935528307676,0.0,4,0.0012707710266113281,0.8220747508225296,0.8220747508225296,988,-0.9999071423647173,0.0
247,1.5683772563934326,-0.999396190131796,0.00093130633265973,-0.9977842188663646,-0.9999652739830485,0.0,0.056823654545237,0.1,0.0014715194702148438,0.02672290802001953,0.04709201,5.9195666,-0.9997689326128776,0.0,-0.039999943498311465,0.0,4,0.0012328624725341797,0.822089307021051,0.822089307021051,992,-0.9997070642553799,0.0
248,1.4258759021759033,-0.9999541557919335,1.0532636367473167e-05,-0.9999369147345378,-0.9999655243219643,0.0,0.053153798365231555,0.1,0.0015614032745361328,0.03011178970336914,0.05053564,2.6109676,-0.9997874549307831,0.0,-0.03999980041431122,0.0,4,0.0012428760528564453,0.8220140470937886,0.8220140470937886,996,-0.9998177585983146,0.0
249,1.4907352924346924,-0.9999530847869296,8.261565716434854e-06,-0.9999403807168412,-0.9999612773613775,0.0,0.0578504373008414,0.1,0.0014281272888183594,0.028467416763305664,0.04702407,1.5004668,-0.9998040179163978,0.0,-0.03999945101917184,0.0,4,0.0012629032135009766,0.8221024737903323,0.8221024737903323,1000,-0.9999223440155198,0.0
