iteration,time_sampling,stoc_pol_mean,stoc_pol_std,stoc_pol_max,stoc_pol_min,rollout_success,alpha,delta,time_vpg,time_npg,kl_dist,surr_improvement,running_score,rwd_sparse,rwd_dense,success_percentage,num_samples,time_VF,VF_error_before,VF_error_after,env_samples,eval_score,eval_success
0,1.3431501388549805,75.32001300310715,0.03858464598502391,75.36972392778843,75.26555727380915,0.0,0.16315467044777374,0.1,0.03141951560974121,0.05856800079345703,0.053899974,0.5592753,75.32001300310715,0.0,0.9907789514736793,0.0,300,0.01998281478881836,0.9979030116882345,0.9914062201816688,300,75.29724125789483,0.0
1,1.2528655529022217,75.22366907677399,0.1600672143963555,75.34187358495323,74.94845155760879,0.0,0.1628124598836381,0.1,0.005054473876953125,0.05791068077087402,0.051368453,0.52921784,75.31037861047383,0.0,0.9896292985804394,0.0,300,0.01741480827331543,0.9914616403083515,0.9824017562444454,600,75.29523270913111,0.0
2,1.2956562042236328,75.311452430594,0.019865607353449072,75.33390851448301,75.28593678828038,0.0,0.17269095020392475,0.1,0.002923250198364258,0.05739021301269531,0.050993104,0.55798954,75.31048599248585,0.0,0.9906606377867663,0.0,300,0.017821073532104492,0.9827941625818005,0.9677520003809175,900,75.30342305304258,0.0
3,1.3617360591888428,75.33452810546727,0.06927883872431874,75.41570729761044,75.26477765485657,0.0,0.1769875348186992,0.1,0.0031266212463378906,0.05778193473815918,0.052579608,0.56721985,75.31289020378401,0.0,0.9909682953574634,0.0,300,0.018129587173461914,0.9672443508114685,0.9405159263304481,1200,75.29470540770352,0.0
4,1.354567050933838,75.27426513894069,0.148320689933554,75.3782207184442,75.01944788389595,0.0,0.18002581046109778,0.1,0.002863168716430664,0.05599617958068848,0.051918823,0.58433515,75.30902769729968,0.0,0.9902476335879078,0.0,300,0.01693105697631836,0.9404447295339963,0.8969438978862359,1500,75.31998576712513,0.0
5,1.390852689743042,75.19226383854011,0.23800243548025127,75.48717152582016,74.89551874248735,0.0,0.17202760964994326,0.1,0.002809762954711914,0.05697917938232422,0.05092975,0.5910319,75.29735131142374,0.0,0.9891930915662794,0.0,300,0.0166776180267334,0.8988834750852446,0.8346195689933775,1800,75.32898398831053,0.0
6,1.3835842609405518,75.15352810296612,0.23479227385612703,75.46991636655109,74.89769610676156,0.0,0.1765575106374952,0.1,0.0028541088104248047,0.055757761001586914,0.05059825,0.5232062,75.28296899057798,0.0,0.9886598290960433,0.0,300,0.016993999481201172,0.8310023921861581,0.739288635258747,2100,75.33732080688982,0.0
7,1.4465303421020508,75.25145534767526,0.06325586696032054,75.31825017076406,75.16449462907275,0.0,0.16415218601241988,0.1,0.0030035972595214844,0.05595660209655762,0.049361836,0.5406239,75.27981762628772,0.0,0.9898858657807664,0.0,300,0.017377138137817383,0.7391572179751428,0.6206654113222838,2400,75.35088346416845,0.0
8,1.424159049987793,75.04778136676383,0.20424411109002344,75.39371117196329,74.87800257502109,0.0,0.17740865399910927,0.1,0.002887248992919922,0.05530500411987305,0.050411433,0.58924574,75.25661400033533,0.0,0.9873749076284529,0.0,300,0.0169374942779541,0.618160972398729,0.48201147850005893,2700,75.25420865542834,0.0
9,1.4656810760498047,75.09551688005114,0.19794361654746503,75.41665726214865,74.89472077917816,0.0,0.1739514608969468,0.1,0.0028121471405029297,0.05544900894165039,0.05194862,0.6451183,75.24050428830692,0.0,0.9880182410741385,0.0,300,0.017454862594604492,0.4819810046099717,0.3443381990215539,3000,75.04201579171878,0.0
10,1.4179892539978027,75.24267835267713,0.08323101000294104,75.30087096962536,75.09979567492701,0.0,0.16872175283263463,0.1,0.0029180049896240234,0.05707859992980957,0.05180497,0.71633756,75.24072169474394,0.0,0.9898355506284554,0.0,300,0.017701148986816406,0.33981542070853993,0.2288647441750622,3300,74.99654687201998,0.0
11,1.423349380493164,75.37770313573633,0.0580821305914066,75.4210538513412,75.27898082193883,0.0,0.1868404411973112,0.1,0.0028557777404785156,0.06322026252746582,0.0513366,0.6810018,75.25441983884318,0.0,0.9915502867565738,0.0,300,0.01703786849975586,0.2345456837865221,0.1727496925545819,3600,74.98989713817149,0.0
12,1.3785958290100098,75.21479401892518,0.15513357272172051,75.38846157787243,74.98147934452211,0.0,0.17494862753781104,0.1,0.0029091835021972656,0.056099653244018555,0.049926884,0.6027351,75.25045725685138,0.0,0.9895216620034367,0.0,300,0.01699376106262207,0.1783230867069107,0.1646568095430282,3900,75.36441152899819,0.0
13,1.3641457557678223,75.10384519469635,0.16777280186053597,75.37662903407195,74.93977596244595,0.0,0.16867384399117888,0.1,0.0029783248901367188,0.05845808982849121,0.050883792,0.6128584,75.23579605063588,0.0,0.9881333667856032,0.0,300,0.01808786392211914,0.17472816854679402,0.165322726468615,4200,75.36832062374428,0.0
14,1.4008469581604004,75.15984071855607,0.1340211997028743,75.30734539012379,74.94653872972826,0.0,0.16329355950965094,0.1,0.0028514862060546875,0.05729365348815918,0.05058196,0.6861132,75.22820051742791,0.0,0.9888654403867563,0.0,300,0.017338275909423828,0.18059796418994714,0.15533771081253223,4500,75.38289784492476,0.0
15,1.4042088985443115,75.24073132542553,0.1581280994628752,75.38399483820977,74.97296187277955,0.0,0.1689030547346387,0.1,0.0030851364135742188,0.05764293670654297,0.049507238,1.7326823,75.22945359822768,0.0,0.989799855517701,0.0,300,0.017621517181396484,0.1362078649612726,0.12230989592433028,4800,75.40352821335411,0.0
16,1.4749138355255127,75.19604587133578,0.17787791100215222,75.39619133328046,74.93791389482749,0.0,0.1702732813542529,0.1,0.002888202667236328,0.05573534965515137,0.05031178,0.8393031,75.22611282553848,0.0,0.9893203107563102,0.0,300,0.01546931266784668,0.1319547415427709,0.12049814927593673,5100,75.42017250062187,0.0
17,1.3709616661071777,75.15696304397633,0.21003483975110937,75.42432988121382,74.89557584782848,0.0,0.15957037433221052,0.1,0.0028116703033447266,0.05631685256958008,0.050754074,0.9547987,75.21919784738228,0.0,0.9888059517520975,0.0,300,0.017276763916015625,0.12027322667940132,0.1097089393001336,5400,75.4809577257099,0.0
18,1.4671227931976318,75.19079076295924,0.19946947209403276,75.4717310173284,74.97597961485576,0.0,0.1655561792731816,0.1,0.002798795700073242,0.05772280693054199,0.050516214,1.3374288,75.21635713893997,0.0,0.9892832890823047,0.0,300,0.016941070556640625,0.11272632122301032,0.10275483403401081,5700,75.11623507661558,0.0
19,1.4136700630187988,75.12666236657891,0.16120806048543845,75.30471580046382,74.89988693891105,0.0,0.16826113525549416,0.1,0.002904653549194336,0.05618548393249512,0.048908066,0.7733668,75.20738766170386,0.0,0.9883771775987475,0.0,300,0.017255067825317383,0.1033591458267315,0.0959896451992897,6000,75.3703549349818,0.0
20,1.3908238410949707,75.269403693496,0.2070588859600458,75.46108168952826,74.92214923282536,0.0,0.17400931128628228,0.1,0.002835512161254883,0.05533432960510254,0.05120575,1.3789666,75.21358926488308,0.0,0.990236873307588,0.0,300,0.017322063446044922,0.10111742119669176,0.09600756823072057,6300,75.47615112245124,0.0
21,1.3953711986541748,75.26219967643397,0.10341360233008319,75.38783679385364,75.10038742002426,0.0,0.16427791514065604,0.1,0.0027337074279785156,0.05668497085571289,0.05016916,1.8715332,75.21845030603818,0.0,0.990174134548418,0.0,300,0.0168764591217041,0.08618408349848225,0.08182177820721923,6600,75.35688749923774,0.0
22,1.4177658557891846,74.99344112520373,0.03940555518919009,75.06050813442448,74.95926440576355,0.0,0.16013827474591374,0.1,0.0028998851776123047,0.056305646896362305,0.049709138,3.4030817,75.19594938795474,0.0,0.9867312242011486,0.0,300,0.019487619400024414,0.09048072414889698,0.08675977345895892,6900,75.31717083270222,0.0
23,1.432558536529541,75.33829208979625,0.044903787533631494,75.39660715346896,75.2750563713364,0.0,0.17599238277969087,0.1,0.0030748844146728516,0.055853843688964844,0.050242003,1.1469321,75.21018365813889,0.0,0.9910530883842741,0.0,300,0.01763439178466797,0.08300788297415068,0.07986430208436084,7200,75.30068532093948,0.0
24,1.4182415008544922,75.18243742236409,0.15906867247597714,75.35852677798096,74.93979835705115,0.0,0.17012759598714214,0.1,0.0027420520782470703,0.055895090103149414,0.04922031,1.3102653,75.20740903456141,0.0,0.9891671753566957,0.0,300,0.016962051391601562,0.07680191961200354,0.07402337256866821,7500,74.91718806092432,0.0
25,1.4163236618041992,75.22938777347916,0.17499489363642584,75.37992658656067,74.93156329134234,0.0,0.1673649020982253,0.1,0.006777763366699219,0.055715322494506836,0.050106667,2.990012,75.20960690845318,0.0,0.9896872571292143,0.0,300,0.017255544662475586,0.0694094994162405,0.06745160848464361,7800,74.9256656282772,0.0
26,1.4320344924926758,75.1490964340111,0.19340737247558382,75.34863646203267,74.94158298711766,0.0,0.16064094019777916,0.1,0.0028777122497558594,0.06000328063964844,0.050505552,1.9420463,75.20355586100898,0.0,0.9886516650372996,0.0,300,0.015587568283081055,0.06964744370146023,0.06763126186171486,8100,74.92873222351209,0.0
27,1.4770739078521729,75.12947097642106,0.16540387547690694,75.32731549429865,74.88656139813929,0.0,0.16831057451983564,0.1,0.0028886795043945312,0.05606985092163086,0.050442968,1.5596535,75.1961473725502,0.0,0.9884595525190268,0.0,300,0.016991376876831055,0.07636600455115153,0.07415080065834055,8400,74.95490406496629,0.0
28,1.4030323028564453,75.2379543736805,0.1981495937459583,75.45820196275635,74.91642705470848,0.0,0.15669617923431828,0.1,0.0030858516693115234,0.059593915939331055,0.048778184,2.5503926,75.20032807266324,0.0,0.9897421374857847,0.0,300,0.020053863525390625,0.07067627356561754,0.06846336754029518,8700,74.94307620030733,0.0
29,1.567288875579834,75.21364711819706,0.14313855067334702,75.35103344052976,74.97337963198824,0.0,0.1715356769826399,0.1,0.0029222965240478516,0.05869436264038086,0.05096712,1.090591,75.20165997721662,0.0,0.9895130117548356,0.0,300,0.01759624481201172,0.06985932965107368,0.06779202556887727,9000,75.29628842966748,0.0
30,1.526693344116211,75.33093497593511,0.036841288641504405,75.37784478372171,75.28831504197453,0.0,0.15977044613401198,0.1,0.002923727035522461,0.05691790580749512,0.049373876,1.9040352,75.21458747708847,0.0,0.9909676516714836,0.0,300,0.020643234252929688,0.0677689748099604,0.06539886233143964,9300,75.30454888807984,0.0
31,1.501558542251587,75.33100329466583,0.04891574766199871,75.3913451025462,75.25688496444482,0.0,0.1671520978630073,0.1,0.002977609634399414,0.05583977699279785,0.049992837,2.0355277,75.2262290588462,0.0,0.9909522647482447,0.0,300,0.01754593849182129,0.06862065802346062,0.06704954004609902,9600,75.31039419364232,0.0
32,1.3383522033691406,75.28966533011422,0.04652458159625935,75.34857696086671,75.21968055499408,0.0,0.17428329279972107,0.1,0.0029859542846679688,0.06034398078918457,0.05089431,0.8132473,75.23257268597301,0.0,0.990585939249087,0.0,300,0.017414331436157227,0.0650241347124292,0.06294942919191691,9900,75.31006664459599,0.0
33,1.334974765777588,75.11775462214722,0.18348812395147213,75.34824628006598,74.90737698680276,0.0,0.15316698581419552,0.1,0.002927064895629883,0.05785655975341797,0.0498922,2.9469635,75.22109087959043,0.0,0.9882817078413788,0.0,300,0.01773691177368164,0.053993515236613526,0.05168707016693975,10200,75.19538353212683,0.0
34,1.3485255241394043,75.13011715836454,0.15798405840025317,75.31877824978457,74.916583143127,0.0,0.15506383596267673,0.1,0.0031392574310302734,0.05611443519592285,0.050422136,2.184636,75.21199350746785,0.0,0.988421337022585,0.0,300,0.01719522476196289,0.0671478196621819,0.06451467927767594,10500,75.2217840275362,0.0
35,1.379915714263916,75.11289024641229,0.19234015302064653,75.30945253581076,74.90058197774461,0.0,0.15625385268928732,0.1,0.003101825714111328,0.05571699142456055,0.04998177,2.225873,75.2020831813623,0.0,0.988166462213441,0.0,300,0.017912864685058594,0.05268620294976735,0.05039691575829225,10800,75.28836510803363,0.0
36,1.5064971446990967,75.16607083990287,0.15454392727255004,75.2926653944346,74.90924996903279,0.0,0.14807864219466663,0.1,0.002839326858520508,0.061866044998168945,0.050844453,54.541218,75.19848194721635,0.0,0.9888684565015957,0.0,300,0.019970178604125977,0.051876464402602136,0.05028459500452878,11100,75.27949963490707,0.0
37,1.4270567893981934,74.98661416231138,0.10605729232602654,75.09146117815713,74.81615720963448,0.0,0.16000821840660234,0.1,0.0031189918518066406,0.0575413703918457,0.048894405,1.3087496,75.17729516872586,0.0,0.9866028044048856,0.0,300,0.01573944091796875,0.055698283622768574,0.053480780318654164,11400,75.29252464286368,0.0
38,1.4235715866088867,75.22608615012815,0.17810359281739,75.37595902714236,74.92713478484077,0.0,0.16923167245482804,0.1,0.0029649734497070312,0.05733680725097656,0.0500635,1.4488182,75.1821742668661,0.0,0.9896413030299299,0.0,300,0.018816232681274414,0.04860053884998954,0.04648887811280081,11700,75.29159220530462,0.0
39,1.4690947532653809,75.38835515490445,0.031040618399310077,75.41182527526067,75.33601082752072,0.0,0.1539189243054695,0.1,0.0028977394104003906,0.05760812759399414,0.05017076,3.194076,75.20279235566994,0.0,0.9916649219502185,0.0,300,0.01718926429748535,0.05300895690269268,0.05109282793586561,12000,75.27957975794097,0.0
40,1.4036357402801514,75.21008061289037,0.17330076690889096,75.36537585780756,74.91624019747907,0.0,0.1638182778259856,0.1,0.0027649402618408203,0.05686593055725098,0.049965013,1.2574321,75.20352118139199,0.0,0.9894159742846583,0.0,300,0.018543243408203125,0.05476721467719893,0.052201237368288446,12300,75.29409054432674,0.0
41,1.4259345531463623,75.1973833382865,0.19392405765770082,75.41970080574613,74.95372469435401,0.0,0.15961310221699937,0.1,0.0029549598693847656,0.06250739097595215,0.04974932,1.5985837,75.20290739708145,0.0,0.9892935983036255,0.0,300,0.016920804977416992,0.04507283451443696,0.04210870777827458,12600,75.29498391748885,0.0
42,1.4571516513824463,75.22338936975164,0.15136853195669156,75.33565986768463,74.96261835562987,0.0,0.17125902832253276,0.1,0.0028848648071289062,0.05726885795593262,0.049104102,1.5834677,75.20495559434846,0.0,0.989566216565604,0.0,300,0.01702260971069336,0.05003576031935061,0.04863419100531715,12900,75.2882634423115,0.0
43,1.481452226638794,75.24778485281276,0.09238167154072234,75.31474836224362,75.08851336456675,0.0,0.16123091071961768,0.1,0.0029077529907226562,0.057233572006225586,0.050394353,4.760679,75.20923852019489,0.0,0.9899010535028545,0.0,300,0.01666402816772461,0.0456978274631175,0.04413025790153309,13200,75.26008164272471,0.0
44,1.3769340515136719,75.29526068046798,0.031978725628257154,75.32013453465424,75.24058189031015,0.0,0.15068209867756321,0.1,0.0030999183654785156,0.05883169174194336,0.050264142,3.5865495,75.21784073622219,0.0,0.9905766588675662,0.0,300,0.01783442497253418,0.03984644316155178,0.03778683234254312,13500,75.26923737353331,0.0
45,1.4002704620361328,75.07661979530846,0.17333901255132214,75.25507297988447,74.82824061915817,0.0,0.16319974771394438,0.1,0.002959728240966797,0.05735921859741211,0.050651733,1.4196029,75.20371864213082,0.0,0.9877887501891207,0.0,300,0.017222166061401367,0.045629833186093205,0.043392987452315464,13800,75.28237658358407,0.0
46,1.4293558597564697,75.24880389826791,0.17605382892846713,75.39258331579987,74.94741010817101,0.0,0.17470858255248148,0.1,0.0030944347381591797,0.05704307556152344,0.04905782,1.8454219,75.20822716774454,0.0,0.9898940876449833,0.0,300,0.01738429069519043,0.04707232694949397,0.04467281210784581,14100,75.28489842653366,0.0
47,1.3803837299346924,75.22422238107478,0.19230050409899113,75.3786509658148,74.89544872241343,0.0,0.15080755330311715,0.1,0.002841949462890625,0.05718421936035156,0.05067938,4.8401794,75.20982668907757,0.0,0.989596832483171,0.0,300,0.01720142364501953,0.03887814030620278,0.03741515478829557,14400,75.27318686740544,0.0
48,1.3764429092407227,75.26257271067936,0.13281467408978884,75.36922561069629,75.03814621904395,0.0,0.15036709098360115,0.1,0.0029706954956054688,0.06072425842285156,0.049277622,2.9475288,75.21510129123776,0.0,0.9901012360320482,0.0,300,0.019175052642822266,0.039449732732121774,0.03772307110028149,14700,75.2773960560992,0.0
49,1.440368890762329,75.18335115668555,0.15590873803810418,75.39605449215429,75.02704891228433,0.0,0.16479604847872856,0.1,0.002934694290161133,0.05961871147155762,0.05032614,2.4533107,75.21192627778254,0.0,0.9891111078620999,0.0,300,0.017213106155395508,0.03975151377396081,0.03715779886605703,15000,75.26691013776535,0.0
50,1.4277582168579102,75.18437544601659,0.10583454035208383,75.27922452491876,75.02231621908656,0.0,0.1621232371697884,0.1,0.0028176307678222656,0.06125330924987793,0.0504414,3.3948257,75.20917119460594,0.0,0.9891467943677901,0.0,300,0.017275333404541016,0.03389311253752395,0.031376838754440375,15300,75.26881312156571,0.0
51,1.4320924282073975,75.33999534768076,0.03694478839349054,75.39728882189578,75.29404604249386,0.0,0.17326650095370286,0.1,0.002977609634399414,0.05686759948730469,0.049552046,2.1506813,75.22225360991342,0.0,0.991044860510229,0.0,300,0.017175912857055664,0.03414744828870701,0.03216202351279452,15600,75.27839820396824,0.0
52,1.4491875171661377,75.27410076474004,0.02603707152859497,75.31037415878556,75.23675602525358,0.0,0.16827510132314283,0.1,0.00299835205078125,0.056940555572509766,0.049423385,1.4362239,75.22743832539608,0.0,0.9902724072739701,0.0,300,0.0172731876373291,0.028388983482063486,0.02576630552706425,15900,75.27249073953706,0.0
53,1.4351890087127686,75.16246283452838,0.19047864110596133,75.36650564565717,74.93270331394405,0.0,0.18250393419736333,0.1,0.002974987030029297,0.055665016174316406,0.05061621,0.87967193,75.22094077630932,0.0,0.9888067103579787,0.0,300,0.017299175262451172,0.03663147975945554,0.03529087229531442,16200,75.27113915121085,0.0
54,1.4413933753967285,75.21254463728545,0.1531931989816186,75.32218982595452,74.94844337674478,0.0,0.16679008257706943,0.1,0.0029425621032714844,0.056233882904052734,0.050625682,2.8955948,75.22010116240693,0.0,0.9894508232050745,0.0,300,0.016793489456176758,0.023959288976039717,0.021180807896336702,16500,75.27479527316633,0.0
55,1.4278035163879395,75.2160505091707,0.14637435343325228,75.34618423034888,74.9681396920081,0.0,0.16667110076690905,0.1,0.002887248992919922,0.05616593360900879,0.050758302,2.282217,75.21969609708331,0.0,0.9895410359117859,0.0,300,0.0166928768157959,0.030825059665986823,0.027990289551244548,16800,75.28997245189639,0.0
56,1.4257786273956299,75.35843006283892,0.06662391941728743,75.46322563914725,75.28519205608954,0.0,0.16347637261370315,0.1,0.002875804901123047,0.05659961700439453,0.04984653,2.6211195,75.23356949365888,0.0,0.9913038484148116,0.0,300,0.018164634704589844,0.023883465484990034,0.02311167796500145,17100,75.29911439104352,0.0
57,1.4571692943572998,75.29151762185612,0.05253501138453114,75.37670546689274,75.23373505226964,0.0,0.17752782900063616,0.1,0.0033087730407714844,0.055130720138549805,0.049444724,9.510917,75.23936430647859,0.0,0.9904450553826589,0.0,300,0.016273975372314453,0.025098625341458316,0.023384757109152384,17400,75.29167235417755,0.0
58,1.4437668323516846,75.22196902950759,0.08415916223567584,75.35355876822938,75.12539575741147,0.0,0.15458400112131038,0.1,0.0028471946716308594,0.057091712951660156,0.05027143,4.9021883,75.2376247787815,0.0,0.9895585732762491,0.0,300,0.0173797607421875,0.025707218787611428,0.02243465698552306,17700,75.28806697081212,0.0
59,1.5167105197906494,75.31731505811332,0.029125419360547068,75.34701432803988,75.28359879055289,0.0,0.17370384427238464,0.1,0.0028734207153320312,0.057311296463012695,0.049719512,1.8507624,75.24559380671468,0.0,0.9907341578444848,0.0,300,0.01809239387512207,0.02112156954641553,0.0202517699454116,18000,75.29934589679536,0.0
60,1.4106147289276123,75.29906874673229,0.01429430770271189,75.32253677982101,75.28620747327633,0.0,0.15874696472786598,0.1,0.002977609634399414,0.05981707572937012,0.05026697,13.542206,75.25094130071645,0.0,0.9905069890016425,0.0,300,0.017055273056030273,0.026942914780144395,0.0219704530776918,18300,75.3021947293196,0.0
61,1.4154348373413086,75.31470016607831,0.03913478335035177,75.3803251207756,75.28443380153612,0.0,0.1553866100126,0.1,0.0029654502868652344,0.0570223331451416,0.049520914,3.7854695,75.25731718725264,0.0,0.9907783003733566,0.0,300,0.01768350601196289,0.019656997292616718,0.01963614743850408,18600,75.28906626276229,0.0
62,1.4575302600860596,75.16514625708434,0.11427342679402183,75.28528854262895,75.0221016870295,0.0,0.16708412349331558,0.1,0.0029761791229248047,0.06094074249267578,0.050666973,2.1187327,75.24810009423581,0.0,0.9888755124326944,0.0,300,0.017592191696166992,0.018840440678860395,0.017287520308762638,18900,75.29481848611181,0.0
63,1.4753236770629883,75.2703777302452,0.050492662474845226,75.314206701421,75.18750178518503,0.0,0.17398279903972774,0.1,0.0029397010803222656,0.057035207748413086,0.049819376,2.9111342,75.25032785783675,0.0,0.9902090511404877,0.0,300,0.01704120635986328,0.017753482013658367,0.01697484265705544,19200,75.28232598642946,0.0
64,1.432072401046753,75.14211124105198,0.13456604269079575,75.29673344450498,74.97410941174624,0.0,0.17297173293142465,0.1,0.0030927658081054688,0.056726932525634766,0.049372666,1.4530351,75.23950619615827,0.0,0.9886072245428557,0.0,300,0.017229795455932617,0.020624787676103887,0.01890025988689388,19500,75.26231657838625,0.0
65,1.4550836086273193,75.21271532171708,0.1380111281748902,75.31132987089336,74.97504526255835,0.0,0.16502200446361776,0.1,0.0028886795043945312,0.05663752555847168,0.049731404,9.290365,75.23682710871415,0.0,0.9894526716616666,0.0,300,0.01729893684387207,0.01639022262893499,0.014535579868932752,19800,75.31177590820293,0.0
66,1.4805877208709717,75.29230193526625,0.1456953163928838,75.42672840643246,75.05398619847591,0.0,0.15731060065974892,0.1,0.002910137176513672,0.06484079360961914,0.04970359,4.271506,75.24237459136937,0.0,0.9905182803566615,0.0,300,0.017614126205444336,0.019651088802182623,0.016057564072319144,20100,75.31667579245382,0.0
67,1.4585049152374268,75.2788777136863,0.0039785309505159586,75.28334367820473,75.27337546561863,0.0,0.18270315391967804,0.1,0.0031158924102783203,0.05680036544799805,0.049124524,1.1607473,75.24602490360105,0.0,0.9902619002381781,0.0,300,0.01913619041442871,0.01722557487448203,0.015229606696846741,20400,75.29815977676255,0.0
68,1.5255203247070312,75.13134232421021,0.24350184794793395,75.3691427755993,74.72473104355805,0.0,0.16296902208591119,0.1,0.002965211868286133,0.0565638542175293,0.05100602,1.0284561,75.23455664566197,0.0,0.9885248212527592,0.0,300,0.01771688461303711,0.02096679600686972,0.017435955912650698,20700,75.28513735091734,0.0
69,1.6057252883911133,75.27244949298735,0.047683288501488265,75.32271745458165,75.19971049834363,0.0,0.1645957680807371,0.1,0.0027740001678466797,0.05675387382507324,0.049658187,3.908191,75.2383459303945,0.0,0.9902405634050132,0.0,300,0.017138004302978516,0.0152841864585743,0.013580026386814886,21000,75.29371052196281,0.0
70,1.5521440505981445,75.21611515322469,0.20783578924434634,75.4264575877829,74.87072283431968,0.0,0.17176233113193884,0.1,0.0032188892364501953,0.05552816390991211,0.050145626,0.80532295,75.23612285267751,0.0,0.9894921699291213,0.0,300,0.01710057258605957,0.013492330382489044,0.011523948634262924,21300,75.29114860381792,0.0
71,1.5473830699920654,75.16603131221966,0.1843568380643334,75.40594334580322,74.91495145511279,0.0,0.1714733336851821,0.1,0.0028426647186279297,0.05522441864013672,0.049647857,1.1527368,75.22911369863174,0.0,0.9889025909589225,0.0,300,0.017017364501953125,0.01492043147472987,0.01341826242839192,21600,75.3019052903996,0.0
72,1.842824935913086,75.47385988619678,0.13665085442321426,75.6167300228987,75.31732713866454,0.0,0.17172410568336988,0.1,0.002818584442138672,0.056114912033081055,0.049866345,1.1206907,75.25358831738825,0.0,0.9928762768540014,0.0,300,0.02106785774230957,0.013588045257721833,0.011925130058193685,21900,75.3016162630062,0.0
73,1.4274871349334717,75.11091263736778,0.12284299565289693,75.32059498299101,75.00708869025206,0.0,0.16076030216577789,0.1,0.0030019283294677734,0.059880733489990234,0.050507274,1.5757153,75.2393207493862,0.0,0.9882166531944909,0.0,300,0.01781439781188965,0.020740924570031394,0.019354548247999728,22200,75.34637373097003,0.0
74,1.4361023902893066,75.33188389583334,0.10401433024835943,75.50145811314879,75.22907888411842,0.0,0.1744349725669777,0.1,0.002907991409301758,0.05911874771118164,0.050206512,1.53806,75.24857706403091,0.0,0.9910165074038997,0.0,300,0.01719832420349121,0.011022183952524016,0.010293205425671529,22500,75.31982873210657,0.0
75,1.4550540447235107,75.23870695507465,0.09983801267623366,75.32464781052735,75.06990645496862,0.0,0.18325994953387723,0.1,0.003045797348022461,0.056960105895996094,0.049769744,0.71565294,75.2475900531353,0.0,0.989782742641885,0.0,300,0.01731395721435547,0.016633560366194088,0.014138927180117215,22800,75.32161938580384,0.0
76,1.4818010330200195,75.35321888223059,0.1632271760468864,75.62087701773932,75.17941762540038,0.0,0.18099374414641795,0.1,0.0028913021087646484,0.059781551361083984,0.049527224,0.92428875,75.25815293604484,0.0,0.9913419886228703,0.0,300,0.016864776611328125,0.009966660244475423,0.00946727817081643,23100,75.34866103539899,0.0
77,1.4974682331085205,75.20437290944051,0.11896806561595415,75.28586540204103,74.99888613930139,0.0,0.1733436108383249,0.1,0.002916097640991211,0.0561978816986084,0.05046636,0.7451021,75.2527749333844,0.0,0.9893994791103224,0.0,300,0.017401933670043945,0.01039277110377347,0.010023869605077222,23400,75.33281836657763,0.0
78,1.4593079090118408,75.32237814039509,0.06351142852785929,75.42872669712693,75.26073942208426,0.0,0.18097910795066244,0.1,0.0029897689819335938,0.056079864501953125,0.050105017,1.6135877,75.25973525408547,0.0,0.9909174243012304,0.0,300,0.017032384872436523,0.012249104841840072,0.010353995684976322,23700,75.35046690701039,0.0
79,1.4947447776794434,75.16484191896481,0.21680439558113088,75.43726089667238,74.93094954094241,0.0,0.18121247266157584,0.1,0.002926349639892578,0.05611467361450195,0.050417088,0.7927148,75.2502459205734,0.0,0.9888891672872329,0.0,300,0.017189979553222656,0.011412678473598968,0.010897549161105238,24000,75.35838670737506,0.0
80,1.556230068206787,75.26561511546397,0.18734075042000708,75.42548919026204,74.94836619337877,0.0,0.18452506085168396,0.1,0.0028853416442871094,0.05601978302001953,0.04996155,0.77083,75.25178284006248,0.0,0.9901604203124406,0.0,300,0.016941070556640625,0.01116599075892498,0.010520039027407632,24300,75.36381082583853,0.0
81,1.5546603202819824,75.31979753963235,0.18775850477882336,75.4463926100477,74.99521255358576,0.0,0.16127409174367632,0.1,0.0028820037841796875,0.05643200874328613,0.050346907,1.5655967,75.25858431001947,0.0,0.990883580270675,0.0,300,0.017366409301757812,0.014881859558851754,0.013439997828280939,24600,75.36572190312822,0.0
82,1.4896044731140137,75.18056762079388,0.08511945259581649,75.28674380111956,75.0549825044067,0.0,0.17469410308641625,0.1,0.0030171871185302734,0.05644965171813965,0.050076555,1.2290307,75.2507826410969,0.0,0.9891086383799654,0.0,300,0.016710281372070312,0.011611089117142315,0.011215398209867406,24900,75.35955212559053,0.0
83,1.6097996234893799,75.15519636793333,0.15703650621193743,75.34774919791688,74.97093551518464,0.0,0.16788068483234936,0.1,0.002933979034423828,0.0565950870513916,0.050131813,0.8296194,75.24122401378054,0.0,0.9888103769485552,0.0,300,0.01866936683654785,0.009500501506562736,0.006105678026324862,25200,75.35062383066789,0.0
84,1.5959889888763428,75.33636958858371,0.035396518895650236,75.36884460108948,75.27840291778865,0.0,0.1721322587689403,0.1,0.002835512161254883,0.055303335189819336,0.049623836,2.2324476,75.25073857126085,0.0,0.9910131681200816,0.0,300,0.016903162002563477,0.013593359095131582,0.010209221381670545,25500,75.38483767738812,0.0
85,1.5198781490325928,75.19786532482055,0.08964922676794515,75.2905244705074,75.10175924779024,0.0,0.18351769475070026,0.1,0.0028870105743408203,0.05520367622375488,0.050832245,0.6313603,75.24545124661682,0.0,0.9893205524935635,0.0,300,0.017343759536743164,0.012559918491816655,0.011039506698188347,25800,75.37766667143707,0.0
86,1.530585765838623,75.27446517120102,0.1469558071081276,75.4032088280367,75.0252690979978,0.0,0.2004499698142432,0.1,0.0028285980224609375,0.05489158630371094,0.050142206,0.7014679,75.24835263907524,0.0,0.9902493843742585,0.0,300,0.016663074493408203,0.011875994404032454,0.010283113145587166,26100,75.36650981448055,0.0
87,1.7264807224273682,75.23670610716826,0.12590981792853154,75.33238051124879,75.02008323528912,0.0,0.16927906950485513,0.1,0.0027704238891601562,0.05723285675048828,0.048744388,0.50104505,75.24718798588454,0.0,0.9897525115739282,0.0,300,0.016034364700317383,0.00909599508853787,0.00892493498563271,26400,75.3256131986219,0.0
88,1.5846483707427979,75.16617086090264,0.2470412385953785,75.44600032459697,74.91545709576882,0.0,0.1752488944150446,0.1,0.002755880355834961,0.05559849739074707,0.049583875,0.9847046,75.23908627338635,0.0,0.9889153756986092,0.0,300,0.016674518585205078,0.010700757932858913,0.009396410203551689,26700,75.36554496456009,0.0
89,1.465794324874878,75.2090243868565,0.15318575722644356,75.38079257105093,75.0091216587841,0.0,0.16912872695147252,0.1,0.0033388137817382812,0.05731320381164551,0.050378382,1.0994257,75.23608008473337,0.0,0.9894867876702409,0.0,300,0.019635677337646484,0.0058974060885347455,0.005779142156199637,27000,75.35271150531136,0.0
90,1.5469005107879639,75.24175878161907,0.18320724032717792,75.41684058904936,74.93501116332175,0.0,0.1810174480381864,0.1,0.003019571304321289,0.06076550483703613,0.049918823,0.67084974,75.23664795442195,0.0,0.9898530244929934,0.0,300,0.01784372329711914,0.008219189512367527,0.0068110675297527665,27300,75.30248745183145,0.0
91,1.5316979885101318,75.28164325034854,0.01754816813254215,75.30387970208265,75.26103621738484,0.0,0.1764831299138492,0.1,0.0031652450561523438,0.057134389877319336,0.05014128,0.9606591,75.24114748401462,0.0,0.9903273423991159,0.0,300,0.019105195999145508,0.009266250836860904,0.00901244972926472,27600,75.31142203698833,0.0
92,1.561640739440918,75.18154358488509,0.154799612280541,75.33863316843163,74.92952938873594,0.0,0.18639173491897792,0.1,0.0031120777130126953,0.057971954345703125,0.049796794,0.539505,75.23518709410166,0.0,0.9890706275879183,0.0,300,0.018005847930908203,0.007571253920185978,0.007289071056394035,27900,75.30182582831591,0.0
93,1.5277059078216553,75.35404623702193,0.05966604012589234,75.45208786961942,75.29085465716383,0.0,0.18510760124285283,0.1,0.0030813217163085938,0.05786728858947754,0.04979006,0.6965361,75.24707300839368,0.0,0.9912370469418497,0.0,300,0.017054080963134766,0.0133600818261995,0.011940954317421338,28200,75.29335979246956,0.0
94,1.6163742542266846,75.38210162025388,0.1612110860124421,75.65889706686677,75.27024448173866,0.0,0.18958184197913233,0.1,0.0030891895294189453,0.05723309516906738,0.050363757,1.3886292,75.26057586957971,0.0,0.9916269525832362,0.0,300,0.01716327667236328,0.008455255196537963,0.0085362630683564,28500,75.29803324780177,0.0
95,1.5410642623901367,75.22952617034085,0.14649522732478454,75.33233401911296,74.97738263473909,0.0,0.1970506108136104,0.1,0.0029451847076416016,0.05766177177429199,0.049305152,0.595976,75.25747089965581,0.0,0.9896605667076023,0.0,300,0.018033266067504883,0.007542095176056204,0.006327832176690368,28800,75.2825306728772,0.0
96,1.5800418853759766,75.22291691624227,0.12388365753717237,75.3906123493649,75.08100898770905,0.0,0.1683811614379561,0.1,0.002832651138305664,0.05585932731628418,0.04922104,0.8854812,75.25401550131447,0.0,0.9896649776934487,0.0,300,0.0169827938079834,0.010254726370091928,0.008295700425507887,29100,75.2854344803684,0.0
97,1.5440549850463867,75.22598799239995,0.14792959791411583,75.34953322646595,74.97321526595624,0.0,0.1790515387169129,0.1,0.0028543472290039062,0.060900211334228516,0.050549325,0.7087151,75.25121275042302,0.0,0.9896378262091934,0.0,300,0.017183303833007812,0.011050849695380475,0.009548423409930062,29400,75.27755061879905,0.0
98,1.530674934387207,75.17028736805678,0.16297074642117482,75.33788867123579,74.90258192392834,0.0,0.17858353525824622,0.1,0.0029501914978027344,0.05623912811279297,0.049856503,0.6265091,75.2431202121864,0.0,0.9890280485536547,0.0,300,0.016976594924926758,0.015331559602217501,0.013601759400931699,29700,75.27877788556758,0.0
99,1.5960793495178223,75.33379846833756,0.07663497866310368,75.46620445345718,75.28496431348084,0.0,0.1870582449699381,0.1,0.002858400344848633,0.05613374710083008,0.05059005,0.85733724,75.25218803780152,0.0,0.9909615505053467,0.0,300,0.016830921173095703,0.014234386510184485,0.012873671321492051,30000,75.28090661518304,0.0
100,1.5720465183258057,75.2072999798314,0.12280675925091089,75.35739377400935,75.03301414875983,0.0,0.1908218432625784,0.1,0.0032219886779785156,0.05572652816772461,0.050541215,0.48925328,75.2476992320045,0.0,0.9894355454127834,0.0,300,0.0175018310546875,0.012820170275090052,0.007563559866746002,30300,75.28029937558577,0.0
101,1.587505578994751,75.168211468356,0.11230744656522647,75.27743321453336,75.02033049629232,0.0,0.17695813854135797,0.1,0.002892732620239258,0.05543708801269531,0.050037567,0.71155,75.23975045563965,0.0,0.9889389797256263,0.0,300,0.017183303833007812,0.012821231278739654,0.013244367528383054,30600,75.2780303993417,0.0
102,1.5729243755340576,75.29886773949814,0.055201530589009076,75.36149900811394,75.21266927288876,0.0,0.19734996856126333,0.1,0.00292205810546875,0.05725455284118652,0.051319256,0.65729845,75.2456621840255,0.0,0.9905590076155825,0.0,300,0.017704486846923828,0.01142965537650555,0.008112026754013155,30900,75.28779048770127,0.0
103,1.5594918727874756,75.33197469185708,0.05003480135733292,75.4173104347453,75.2920780253981,0.0,0.18425261354567926,0.1,0.003037691116333008,0.05673408508300781,0.04967135,0.62848306,75.25429343480866,0.0,0.9909702898954745,0.0,300,0.016912460327148438,0.00985855358537609,0.010587324137107963,31200,75.2841623973343,0.0
104,1.6175346374511719,75.15563209919252,0.1306401786006997,75.34224701302266,74.9772879315372,0.0,0.19687099017681112,0.1,0.0027790069580078125,0.056632280349731445,0.05066315,0.4686941,75.24442730124704,0.0,0.9888245314076627,0.0,300,0.017426013946533203,0.013569190290359863,0.010610873587157624,31500,75.29212675756253,0.0
105,1.570749044418335,75.2976319182201,0.012659760309672625,75.31359976993718,75.27947083348694,0.0,0.18520664743572057,0.1,0.0028777122497558594,0.057405948638916016,0.050102826,0.65629977,75.24974776294435,0.0,0.9904929545702789,0.0,300,0.01664257049560547,0.006883208295674215,0.006659806775481307,31800,75.28764533762269,0.0
106,1.6065797805786133,75.31473978129267,0.05131055242916152,75.39983169605806,75.26472192425939,0.0,0.19344638637921494,0.1,0.0031456947326660156,0.06025362014770508,0.050164156,0.65236056,75.2562469647792,0.0,0.9908027875098893,0.0,300,0.017224550247192383,0.019641420379147272,0.011934640547608162,32100,75.29015131359765,0.0
107,1.529240369796753,75.31749348035052,0.03197109674824338,75.36655832486436,75.2865499014176,0.0,0.18828197498416754,0.1,0.003050088882446289,0.06055855751037598,0.049667746,0.65187204,75.26237161633632,0.0,0.9908271559533194,0.0,300,0.018450260162353516,0.01278443113434652,0.014698606567682451,32400,75.28696450827611,0.0
108,1.5129244327545166,75.30361881316985,0.01847325104830085,75.33531620256929,75.28979654176388,0.0,0.193038480600249,0.1,0.0031158924102783203,0.05774950981140137,0.049507476,0.6329864,75.26649633601969,0.0,0.9905808348890497,0.0,300,0.017024993896484375,0.005969686113988209,0.005092193050882716,32700,75.2840721948194,0.0
109,1.6130645275115967,75.34345600645861,0.1030633250884385,75.50122389938694,75.22799858949871,0.0,0.18412275698623218,0.1,0.002995014190673828,0.05677485466003418,0.04981599,0.54434466,75.27419230306359,0.0,0.9911181798170416,0.0,300,0.021537303924560547,0.008622497638559929,0.00792497341645806,33000,75.28172488857726,0.0
110,1.5249276161193848,75.35162163594684,0.11185495813615078,75.52057808783223,75.22583156288813,0.0,0.20489486779653887,0.1,0.0030345916748046875,0.05777859687805176,0.050308675,0.5376262,75.28193523635193,0.0,0.9912397883978464,0.0,300,0.01609945297241211,0.012462467318882644,0.00873006232012531,33300,75.28172916226899,0.0
111,1.5875566005706787,75.30913538857706,0.06338077388258588,75.39462566608773,75.21684426589832,0.0,0.19960948226084255,0.1,0.002889871597290039,0.059922218322753906,0.05014572,0.49437392,75.28465525157443,0.0,0.9907207609962391,0.0,300,0.016306161880493164,0.013326918623584656,0.010972114521989524,33600,75.2752336047403,0.0
112,1.599470853805542,75.23413698560942,0.09310452171113215,75.3107976322105,75.07494665542937,0.0,0.1858142312021163,0.1,0.0029277801513671875,0.05733990669250488,0.049429405,0.665079,75.27960342497794,0.0,0.989728239510153,0.0,300,0.017443180084228516,0.017031306221582165,0.016892882595589798,33900,75.27249355917694,0.0
113,1.558656930923462,75.25522958594362,0.06188803765654596,75.30516761358867,75.15233074622405,0.0,0.19870212819956962,0.1,0.002925872802734375,0.05867266654968262,0.049618088,0.67058796,75.27716604107451,0.0,0.9900069090225037,0.0,300,0.01758742332458496,0.010786323961103735,0.010022516313665603,34200,75.27279203061971,0.0
114,1.5431690216064453,75.24866452513157,0.09537670919696711,75.30683835707143,75.08358384924858,0.0,0.1893087389298776,0.1,0.002923727035522461,0.058208465576171875,0.05030396,0.6738007,75.2743158894802,0.0,0.9899114935231131,0.0,300,0.01584935188293457,0.010451888487644253,0.009883708744800919,34500,75.2727816082523,0.0
115,1.619192123413086,75.23835115065553,0.0809047594997235,75.29139868764652,75.09840155537455,0.0,0.20248082408950435,0.1,0.0028786659240722656,0.056183576583862305,0.04991659,0.5504188,75.27071941559774,0.0,0.9897842358408877,0.0,300,0.01760411262512207,0.012445278255417271,0.00993218691959787,34800,75.2700434186664,0.0
116,1.5581088066101074,75.29120388478346,0.021659946065497218,75.32780639431552,75.27346346669046,0.0,0.18395071646350342,0.1,0.0029294490814208984,0.056088924407958984,0.051178932,0.54615515,75.27276786251632,0.0,0.990416683243772,0.0,300,0.017063379287719727,0.019847553125771394,0.01341529619451415,35100,75.27656301887728,0.0
117,1.5360753536224365,75.27507480685013,0.05611779158447775,75.34740912732262,75.19048928501915,0.0,0.17722973012293008,0.1,0.002804994583129883,0.05686211585998535,0.04956899,1.1229744,75.2729985569497,0.0,0.9902776668695824,0.0,300,0.017601490020751953,0.012473533957072638,0.00836979459968928,35400,75.27055304360343,0.0
118,1.553518533706665,75.28217340950866,0.028482045666632438,75.31188603309427,75.2404695859577,0.0,0.18030099971834423,0.1,0.002844095230102539,0.0585787296295166,0.050985623,0.5355904,75.2739160422056,0.0,0.9903465888312701,0.0,300,0.016842365264892578,0.009398923886904949,0.00954761036526919,35700,75.27486213565953,0.0
119,1.5710053443908691,75.34917778639931,0.050688081150750706,75.41373658682956,75.28709605362027,0.0,0.1926487912623591,0.1,0.0027923583984375,0.055769920349121094,0.04924131,0.60696065,75.28144221662498,0.0,0.9911754106060092,0.0,300,0.01658177375793457,0.009463447761240397,0.006384769465637331,36000,75.2759117361119,0.0
120,1.6285572052001953,75.29822408122382,0.05660107223992172,75.3748522454138,75.21507702141415,0.0,0.19174616240074774,0.1,0.0027947425842285156,0.05584311485290527,0.049016465,0.61904377,75.28312040308487,0.0,0.9905128781841428,0.0,300,0.016590356826782227,0.009476543448610588,0.009831995008514104,36300,75.27159402499191,0.0
121,1.5050580501556396,75.266461695122,0.014740045990583692,75.28477278823317,75.24702723373898,0.0,0.18624928804752025,0.1,0.0030307769775390625,0.05660748481750488,0.050045803,0.65617317,75.28145453228859,0.0,0.9901257369858087,0.0,300,0.01777482032775879,0.005798888539773728,0.004242506319696435,36600,75.2732399852673,0.0
122,1.5858612060546875,75.15953882691812,0.13297724065594527,75.28602592611068,74.96640001104801,0.0,0.20009766097875414,0.1,0.0031800270080566406,0.057172298431396484,0.049537107,0.5277113,75.26926296175155,0.0,0.9887848853706603,0.0,300,0.017856359481811523,0.006697223996217581,0.006711581842147344,36900,75.2738959671541,0.0
123,1.5309455394744873,75.04250654830565,0.14222687885391566,75.18768792062457,74.86469007817415,0.0,0.18458245278026508,0.1,0.002878427505493164,0.05640983581542969,0.050583836,0.50033236,75.24658732040697,0.0,0.9873112524193499,0.0,300,0.017110586166381836,0.008404686004863333,0.006459875291420008,37200,75.27002464528516,0.0
124,1.5902905464172363,75.30219629214498,0.05689580602464916,75.40056762251284,75.26546876653806,0.0,0.17802372726113339,0.1,0.0031828880310058594,0.05641484260559082,0.050194383,0.72664344,75.25214821758078,0.0,0.9905700929146235,0.0,300,0.01806473731994629,0.01278243426693263,0.007123154615853057,37500,75.26938651301951,0.0
125,1.5244882106781006,75.32679538858042,0.07930868150631994,75.46272014185485,75.26297271775982,0.0,0.19044376826872503,0.1,0.003016948699951172,0.057618141174316406,0.05023841,0.55116946,75.25961293468076,0.0,0.9908969663131977,0.0,300,0.017435073852539062,0.0073029960931127935,0.008098532403650138,37800,75.2709286461609,0.0
126,1.5355236530303955,75.19651368633893,0.1461980916415893,75.29246000775835,74.94405212302732,0.0,0.19888972913292235,0.1,0.0029745101928710938,0.057456016540527344,0.049660046,0.4741717,75.25330300984658,0.0,0.9892012320774389,0.0,300,0.016117095947265625,0.01440792582831881,0.010388952316592022,38100,75.27206562941589,0.0
127,1.5928857326507568,75.30687238790897,0.04398216650743176,75.37532360525655,75.26621162479039,0.0,0.19147782979543568,0.1,0.0028192996978759766,0.05599331855773926,0.04960499,0.603976,75.25865994765283,0.0,0.9906425129473839,0.0,300,0.017541885375976562,0.009534109312429343,0.009975561922899764,38400,75.27005795446783,0.0
128,1.5728404521942139,75.2168667206147,0.16050416800091558,75.37870813687657,74.94991141157801,0.0,0.18825508689145098,0.1,0.0029442310333251953,0.05710482597351074,0.0499844,0.68076295,75.25448062494903,0.0,0.9895068849096593,0.0,300,0.01790142059326172,0.008097050442268775,0.005633888686311515,38700,75.26883045445415,0.0
129,1.6057531833648682,75.255754032974,0.03733038248983104,75.2886935080383,75.19428577130411,0.0,0.1881359157566011,0.1,0.0029680728912353516,0.057753801345825195,0.050665777,0.5302519,75.25460796575152,0.0,0.9899706335571389,0.0,300,0.017822265625,0.007484197417199842,0.007748550370747716,39000,75.26637228313983,0.0
130,1.5934789180755615,75.29123417850559,0.02254779000581188,75.32212437329909,75.26455850226915,0.0,0.18360860851491928,0.1,0.0029833316802978516,0.057546377182006836,0.049310185,0.49703518,75.25827058702693,0.0,0.990431891936866,0.0,300,0.016959428787231445,0.007310590971946737,0.004882685613831433,39300,75.26659305441662,0.0
131,1.63167142868042,75.28842260235244,0.013573239520393158,75.30730068644354,75.27440715475005,0.0,0.1962264631141847,0.1,0.0028963088989257812,0.055716514587402344,0.049908705,0.69038546,75.26128578855949,0.0,0.9903837511677065,0.0,300,0.02503180503845215,0.00816608884597315,0.008067117792369722,39600,75.26763088444419,0.0
132,1.6050751209259033,75.27897067226169,0.04245260378697132,75.34761191695459,75.23124250447495,0.0,0.19044268139119166,0.1,0.0028533935546875,0.05716371536254883,0.05079917,0.4857631,75.26305427692971,0.0,0.9902916258043284,0.0,300,0.017052888870239258,0.004533984634148393,0.004445913505721248,39900,75.26554511277605,0.0
133,1.642500400543213,75.27036323309932,0.046647882097839606,75.33416675259917,75.20323112934368,0.0,0.19593542739901093,0.1,0.0029430389404296875,0.05751848220825195,0.049921058,0.6091534,75.26378517254666,0.0,0.9901542132213799,0.0,300,0.017351627349853516,0.010929169049627251,0.010472165789570031,40200,75.26673407019283,0.0
134,1.625532627105713,75.2518263348236,0.07111791164296082,75.3107860440799,75.13054812407253,0.0,0.1848931872417962,0.1,0.002975940704345703,0.0550541877746582,0.0499031,0.6424311,75.26258928877435,0.0,0.9899412744465622,0.0,300,0.01693272590637207,0.006468563637090781,0.00628208224707675,40500,75.26588578573195,0.0
135,1.5548195838928223,75.28250327708564,0.015299045358178213,75.30778794786161,75.27011426124284,0.0,0.18390354967416386,0.1,0.0033452510833740234,0.06282663345336914,0.049776454,0.5231884,75.26458068760547,0.0,0.9902787926347385,0.0,300,0.018129587173461914,0.007329639341593065,0.006193314054266395,40800,75.26585081758978,0.0
136,1.6161949634552002,75.23330260531058,0.16719619646045794,75.40452165272386,74.95659684677086,0.0,0.18959973881710832,0.1,0.002916097640991211,0.056850433349609375,0.05053816,0.592521,75.26145287937598,0.0,0.989643685868977,0.0,300,0.01731109619140625,0.005608394680283409,0.004816296336327404,41100,75.26598749005952,0.0
137,1.6179406642913818,75.22216015538838,0.09175862303084403,75.28303918271256,75.06358659441749,0.0,0.18767049001056862,0.1,0.0035135746002197266,0.0586698055267334,0.05080315,0.47358054,75.25752360697723,0.0,0.9895717970815427,0.0,300,0.018508434295654297,0.012047127981047354,0.009277552079909915,41400,75.26585860531351,0.0
138,1.5623533725738525,75.25263631919388,0.05051965620629764,75.28302458705012,75.16514381812149,0.0,0.18521611466995838,0.1,0.0031824111938476562,0.05775594711303711,0.04955501,0.6123718,75.2570348781989,0.0,0.9899225209941199,0.0,300,0.017153263092041016,0.005989680500000144,0.005868217275379403,41700,75.26563259464702,0.0
139,1.5916924476623535,75.26720189356806,0.08990391095410988,75.39201723598893,75.1491070965433,0.0,0.1937121646603099,0.1,0.003094196319580078,0.05760669708251953,0.049899552,0.609615,75.25805157973582,0.0,0.9901251735150718,0.0,300,0.017122268676757812,0.007895826458508686,0.007308245208080562,42000,75.26587138342663,0.0
140,1.7001914978027344,75.30744681648304,0.03589815970927936,75.35961027276561,75.26298014153082,0.0,0.19280494922014682,0.1,0.003126382827758789,0.05738997459411621,0.04984511,0.53881234,75.26299110341054,0.0,0.9906315122520803,0.0,300,0.01737380027770996,0.005779599986531171,0.00533034244865827,42300,75.26591706438946,0.0
141,1.697788953781128,75.162291546417,0.14027076612103848,75.29078095893249,74.93725252042006,0.0,0.18842355002665623,0.1,0.0031890869140625,0.05678057670593262,0.049535036,0.56590515,75.25292114771119,0.0,0.98884082774381,0.0,300,0.01693868637084961,0.00571922682292388,0.005377678025172167,42600,75.26505542987047,0.0
142,1.5687651634216309,75.25768452437107,0.017874814413367263,75.27247082951288,75.22747787875556,0.0,0.19517400526356934,0.1,0.002965211868286133,0.055977582931518555,0.048946228,0.49351364,75.25339748537718,0.0,0.9899779311267003,0.0,300,0.016930103302001953,0.007028699908908541,0.005943256452190387,42900,75.26511329244418,0.0
143,1.5826802253723145,75.23670730471412,0.08332412695357971,75.29749288259553,75.09447260928292,0.0,0.18816910645808343,0.1,0.0029065608978271484,0.05760359764099121,0.050506406,0.55020165,75.25172846731087,0.0,0.9897090120606449,0.0,300,0.020734786987304688,0.008659772190347663,0.005615946521684817,43200,75.26439667684565,0.0
144,1.632298469543457,75.27601353685108,0.028721049949000873,75.30373385046333,75.23113385676949,0.0,0.1951346127236319,0.1,0.002925872802734375,0.05742454528808594,0.049958486,0.53839904,75.2541569742649,0.0,0.9902572338876114,0.0,300,0.01760077476501465,0.0048763292412431995,0.005568271741061104,43500,75.26443096785036,0.0
145,1.6874678134918213,75.29078948271626,0.02197084888374736,75.32647573533423,75.26840920273659,0.0,0.19096734527142945,0.1,0.0029430389404296875,0.05794215202331543,0.05027239,0.5636425,75.25782022511005,0.0,0.9904132101983487,0.0,300,0.017882108688354492,0.009077951019185229,0.008263478769953776,43800,75.26480978413133,0.0
146,1.5865564346313477,75.27280537862391,0.03285340196494135,75.31908009905585,75.22856165804261,0.0,0.1916531465449987,0.1,0.0028395652770996094,0.05661773681640625,0.050252225,0.60102504,75.25931874046144,0.0,0.9901883074195568,0.0,300,0.017055988311767578,0.007487068902001554,0.006767727106019579,44100,75.26467063019108,0.0
147,1.646418571472168,75.28150765008024,0.019760704750073865,75.3133641907188,75.26409754549736,0.0,0.19184584522780343,0.1,0.002851724624633789,0.05722546577453613,0.049889013,0.47386032,75.26153763142332,0.0,0.9902879952037356,0.0,300,0.01732158660888672,0.0076703611280900625,0.006224468608004284,44400,75.26466840551974,0.0
148,1.6030676364898682,75.16517238265716,0.15577152746229134,75.3355575855212,74.92604959621279,0.0,0.20258070949376575,0.1,0.0028481483459472656,0.055249929428100586,0.049248196,0.49641296,75.25190110654671,0.0,0.988821600067746,0.0,300,0.016538381576538086,0.007199869310336871,0.006928791328543073,44700,75.26499523246467,0.0
149,1.6632897853851318,75.31863164346028,0.07236341808727975,75.44339219764947,75.26689082735027,0.0,0.18129329585660386,0.1,0.0028634071350097656,0.06037616729736328,0.05020121,0.588633,75.25857416023808,0.0,0.9907911392156707,0.0,300,0.017008543014526367,0.008970441066128924,0.008538821772574165,45000,75.26466096965248,0.0
150,1.6497795581817627,75.23543153628808,0.06407759622988146,75.28021611396927,75.12485964018329,0.0,0.1851866574068821,0.1,0.0031270980834960938,0.05704808235168457,0.050212875,0.5745999,75.25625989784308,0.0,0.9897250261157929,0.0,300,0.017419815063476562,0.005391223509732718,0.004426420829463431,45300,75.26454184677712,0.0
151,1.6243791580200195,75.2556270467015,0.05224048032480152,75.30897808558989,75.16904906147222,0.0,0.1793891100716268,0.1,0.00690913200378418,0.05678200721740723,0.050805,0.6170612,75.25619661272893,0.0,0.9899691025151304,0.0,300,0.017008304595947266,0.005980593882323404,0.005461873035749035,45600,75.26467248965596,0.0
152,1.8077621459960938,75.29373849056937,0.029248398048260363,75.33999073883565,75.26660157257588,0.0,0.19757867135108345,0.1,0.003028392791748047,0.05636191368103027,0.04934982,0.4507344,75.25995080051298,0.0,0.9904475356044413,0.0,300,0.017116546630859375,0.006651183708221087,0.0058627956757335824,45900,75.26543090327958,0.0
153,2.533212661743164,75.29126350762131,0.018341753936520606,75.31318422271305,75.27234342343345,0.0,0.18260896825063705,0.1,0.003000497817993164,0.05834555625915527,0.050360013,0.62342507,75.2630820712238,0.0,0.9904186192928953,0.0,300,0.017495155334472656,0.005657424577751706,0.005277591970862734,46200,75.2649345853781,0.0
154,1.5825927257537842,75.28525804942358,0.012023436238709573,75.29786680358843,75.26747060640609,0.0,0.19235422034467703,0.1,0.0030405521392822266,0.05688786506652832,0.049788833,0.53222066,75.26529966904378,0.0,0.9903324165058915,0.0,300,0.017166852951049805,0.005707350072220323,0.005098144713421219,46500,75.26498085880368,0.0
155,1.6032991409301758,75.27816830728483,0.01629294276852212,75.3049323556766,75.26104374197867,0.0,0.17848205171445786,0.1,0.003078460693359375,0.05644822120666504,0.05017233,0.48892614,75.26658653286789,0.0,0.9902494008117796,0.0,300,0.01619410514831543,0.006477172115177083,0.005587878191407333,46800,75.26526974471317,0.0
156,1.6088573932647705,75.28641775966761,0.01733112547102836,75.3133912357626,75.26987028494247,0.0,0.18197036298942224,0.1,0.003219127655029297,0.05640745162963867,0.050595112,0.60666084,75.26856965554786,0.0,0.9903646255980215,0.0,300,0.0177762508392334,0.002655625968645625,0.002742129907961057,47100,75.26446485222412,0.0
157,1.5978751182556152,75.26300538314553,0.012781615989533772,75.27704818142335,75.24251999719645,0.0,0.19871919831609572,0.1,0.0030341148376464844,0.05685019493103027,0.050062325,0.5585702,75.26801322830764,0.0,0.9900789035475902,0.0,300,0.017122745513916016,0.008491400047243924,0.007380264983964575,47400,75.2645327804073,0.0
158,1.623124122619629,75.30359822353417,0.02865629529776881,75.33971756684751,75.26432810948285,0.0,0.18496379878667404,0.1,0.0031037330627441406,0.061121225357055664,0.049887545,0.59288704,75.27157172783029,0.0,0.9905739901144974,0.0,300,0.017338991165161133,0.007793519401593817,0.006786940220145502,47700,75.26439857466494,0.0
159,1.6222131252288818,75.26289873922688,0.021306137761053903,75.29473139646824,75.24257674198556,0.0,0.1883695604365478,0.1,0.0031900405883789062,0.06029486656188965,0.05054749,0.5137239,75.27070442896996,0.0,0.9900338514528758,0.0,300,0.017330169677734375,0.004815161838746046,0.0039714549528336906,48000,75.2637750933604,0.0
160,1.6731982231140137,75.29580172232923,0.021287092792789807,75.33133973368392,75.27692740273496,0.0,0.19150563715900362,0.1,0.003053426742553711,0.05699276924133301,0.049840767,0.47141743,75.27321415830589,0.0,0.9904870065942771,0.0,300,0.016812801361083984,0.00569838875943442,0.005695686166090971,48300,75.26449721442053,0.0
161,1.6182358264923096,75.23711717195407,0.07995622422604715,75.30986654528073,75.10252719446937,0.0,0.19150216266901737,0.1,0.00307464599609375,0.05831098556518555,0.049817663,0.6401127,75.26960445967072,0.0,0.9897451418445574,0.0,300,0.0169980525970459,0.008071671153341462,0.007870170909436142,48600,75.26495193946731,0.0
162,1.6342813968658447,75.28250395216884,0.016330760564050632,75.29906927127755,75.26600991143695,0.0,0.19076149618345162,0.1,0.0029206275939941406,0.05648541450500488,0.050152052,0.56474406,75.27089440892054,0.0,0.9902921905332123,0.0,300,0.0170745849609375,0.00889150189222378,0.0058593353869324976,48900,75.26502626721094,0.0
163,1.6174061298370361,75.3048707535241,0.03088135368472817,75.35769541377054,75.27969190861644,0.0,0.19350553506268284,0.1,0.0028815269470214844,0.06222248077392578,0.050207764,0.59497964,75.2742920433809,0.0,0.9906040218524239,0.0,300,0.01672530174255371,0.004431733658720076,0.004734237877519475,49200,75.26424618667865,0.0
164,1.6291406154632568,75.29158857028833,0.06197684180425182,75.39744333706135,75.23959076319215,0.0,0.18466579217741771,0.1,0.002889394760131836,0.05860400199890137,0.049260084,0.5164954,75.27602169607164,0.0,0.9904448486406074,0.0,300,0.016993284225463867,0.007653497193672501,0.005901865814688143,49500,75.26414398347801,0.0
165,1.6339902877807617,75.2787291901426,0.005333569957449639,75.28720285973985,75.2729323541273,0.0,0.2007303086394094,0.1,0.002963542938232422,0.05790567398071289,0.04967586,0.5642488,75.27629244547873,0.0,0.9902633154226193,0.0,300,0.017256975173950195,0.007852152539826528,0.006226013984329806,49800,75.26436285657061,0.0
166,1.6416592597961426,75.27009006910664,0.046864273440732414,75.29824236131917,75.18893435179484,0.0,0.18698018179669462,0.1,0.0028443336486816406,0.05547738075256348,0.05055387,0.7209496,75.27567220784152,0.0,0.9901869309453761,0.0,300,0.016806364059448242,0.007751760728485608,0.0076649293570922265,50100,75.26339294762397,0.0
167,1.6103143692016602,75.24774360486586,0.021817420590660528,75.26993986018645,75.21340997285289,0.0,0.18827694651241092,0.1,0.002893686294555664,0.05656003952026367,0.050283164,0.47270304,75.27287934754396,0.0,0.989860802246558,0.0,300,0.01686263084411621,0.005219023268206961,0.0048475291944547385,50400,75.26324011205598,0.0
168,1.6296257972717285,75.20612182707792,0.0936266743278922,75.26794473836006,75.04458460515588,0.0,0.18492451744613017,0.1,0.0028281211853027344,0.057031869888305664,0.050318263,0.4635228,75.26620359549736,0.0,0.9893339892277349,0.0,300,0.019472599029541016,0.00594408519624953,0.005274651882552253,50700,75.26352301008328,0.0
169,1.62384033203125,75.25490404602293,0.028063640607068053,75.284488071178,75.20885132437753,0.0,0.19113653398056057,0.1,0.002966642379760742,0.056769371032714844,0.049571004,0.71569407,75.26507364054991,0.0,0.9899855153330419,0.0,300,0.017231464385986328,0.008591376961184458,0.007409946285077339,51000,75.2638488327605,0.0
170,1.7362675666809082,75.32030581270986,0.06883696543450023,75.43744502006204,75.2654488581335,0.0,0.19794831544590283,0.1,0.003074169158935547,0.056662797927856445,0.049457874,0.4905422,75.27059685776591,0.0,0.9908113011471781,0.0,300,0.016946792602539062,0.007500341786387158,0.006939138189094119,51300,75.26477892359307,0.0
171,1.6414592266082764,75.26536732022932,0.017047063729692963,75.2797627130892,75.2363511149529,0.0,0.19415684910373565,0.1,0.0029058456420898438,0.05610942840576172,0.048972856,0.6302902,75.27007390401225,0.0,0.9900879160996039,0.0,300,0.015672683715820312,0.009633777447805712,0.008947847343843044,51600,75.26531339306779,0.0
172,1.6382997035980225,75.29164775304797,0.017339534815109987,75.31643294902307,75.27066617612877,0.0,0.18754828828179693,0.1,0.0032176971435546875,0.059868812561035156,0.049758133,0.48658305,75.27223128891582,0.0,0.9904045889076873,0.0,300,0.017910480499267578,0.007074212270540712,0.005799820245988421,51900,75.264007686548,0.0
173,1.599304437637329,75.27518636605464,0.006673826637656204,75.28581447052942,75.2689537529146,0.0,0.19058605449146837,0.1,0.0030791759490966797,0.05660581588745117,0.04987488,0.6084658,75.2725267966297,0.0,0.9902055380949698,0.0,300,0.016773223876953125,0.004982865872076486,0.004571907005744038,52200,75.26408717490382,0.0
174,1.586571455001831,75.27809078384897,0.020939919379655707,75.3137537448627,75.2604368001259,0.0,0.19213502229641516,0.1,0.002900362014770508,0.05661821365356445,0.050623443,0.74468285,75.27308319535163,0.0,0.9902765135239725,0.0,300,0.019452333450317383,0.006333890805972108,0.005764859223906653,52500,75.26433567329465,0.0
175,1.6283953189849854,75.27093973987846,0.03931696595342696,75.3139821262909,75.20689119568902,0.0,0.19283758729672326,0.1,0.0031113624572753906,0.0566248893737793,0.05008372,0.51604927,75.27286884980431,0.0,0.9901851558634935,0.0,300,0.017020702362060547,0.007607851669675266,0.005773646870892068,52800,75.26421797967917,0.0
176,1.6753883361816406,75.20983568919985,0.06716061307116886,75.28050003933268,75.13968664969812,0.0,0.1924781256834886,0.1,0.0029811859130859375,0.05606675148010254,0.04979597,0.51807165,75.26656553374387,0.0,0.9894374765269186,0.0,300,0.017682790756225586,0.00452734410918229,0.004556747269517129,53100,75.26471665262,0.0
177,1.6634454727172852,75.30334927693734,0.06322267366025876,75.41251142747959,75.2588543622487,0.0,0.185918714255095,0.1,0.0032074451446533203,0.06339097023010254,0.04983721,0.46662104,75.27024390806322,0.0,0.9905806219090922,0.0,300,0.017158985137939453,0.005800779709531604,0.004852540128894474,53400,75.26446264763273,0.0
178,1.6595191955566406,75.19031117406777,0.09116341146421343,75.28541881869035,75.06155893463712,0.0,0.18628317764793867,0.1,0.003017902374267578,0.0561373233795166,0.049991302,0.6257697,75.26225063466369,0.0,0.9891487692611862,0.0,300,0.01699066162109375,0.005924434062970813,0.004939236460878709,53700,75.26498647784102,0.0
179,1.6597297191619873,75.3064323169329,0.06231324409453332,75.41354788727787,75.25861942320441,0.0,0.1809998866112213,0.1,0.0029642581939697266,0.05637097358703613,0.04938536,0.68433887,75.2666688028906,0.0,0.990611785774384,0.0,300,0.016379833221435547,0.007886353840803929,0.006328773344434648,54000,75.26450485787812,0.0
180,1.6391074657440186,75.25572143939354,0.050232865594605,75.31040066504885,75.18610537316206,0.0,0.18352873286609397,0.1,0.0028018951416015625,0.05558609962463379,0.0498465,0.5138834,75.2655740665409,0.0,0.9899496914853332,0.0,300,0.016798973083496094,0.004458784840119278,0.0037582618598933086,54300,75.2647353478469,0.0
181,1.6728487014770508,75.26052400007293,0.03058494847452167,75.2883451366054,75.21078685428822,0.0,0.1786663425876421,0.1,0.0029184818267822266,0.05615353584289551,0.050238367,0.687908,75.2650690598941,0.0,0.9900259932423963,0.0,300,0.017278194427490234,0.00464204515151981,0.0048412852842780844,54600,75.2646811701388,0.0
182,1.6683385372161865,75.24850064319838,0.04116690126340698,75.28499634343383,75.1786314578025,0.0,0.17947449081414427,0.1,0.0028934478759765625,0.055991411209106445,0.04984785,0.7907998,75.26341221822453,0.0,0.9898687486647406,0.0,300,0.016834020614624023,0.0059872525405795405,0.005149132443164423,54900,75.26616240372846,0.0
183,1.6886837482452393,75.25370101701608,0.030222527174749284,75.27425813191863,75.20150125084773,0.0,0.18649740452629032,0.1,0.0029363632202148438,0.056018829345703125,0.050136607,0.65763265,75.2624410981037,0.0,0.9899412453402805,0.0,300,0.017151594161987305,0.008988443638863523,0.008530754705584714,55200,75.26496929914153,0.0
184,1.705467700958252,75.256110093255,0.03269895332410939,75.29648728331966,75.21035832786049,0.0,0.1944189648601064,0.1,0.002944469451904297,0.05609869956970215,0.050210353,0.6019743,75.26180799761883,0.0,0.9899516691609399,0.0,300,0.01670527458190918,0.005893853477106049,0.005117399183303868,55500,75.26423946432728,0.0
185,1.6638636589050293,75.29383944382256,0.05904702862876893,75.37483443635988,75.21621695412959,0.0,0.18727704711848264,0.1,0.002826690673828125,0.05733633041381836,0.04971407,0.58592373,75.26501114223922,0.0,0.9904654683539269,0.0,300,0.016644716262817383,0.0038360361328611237,0.0038670319618532745,55800,75.26411114912982,0.0
186,1.7323203086853027,75.16093618365578,0.14795112612114955,75.2702686954372,74.90687507357558,0.0,0.18462485482211194,0.1,0.002826213836669922,0.05541872978210449,0.05008618,0.69375247,75.25460364638087,0.0,0.9887742753343163,0.0,300,0.018138885498046875,0.010806043360639492,0.009555977896944071,56100,75.26378615824397,0.0
187,1.691047191619873,75.2573399585175,0.013646935894527831,75.27773072525677,75.24232329008085,0.0,0.19163719562057646,0.1,0.0029108524322509766,0.05548810958862305,0.049466584,0.57126427,75.25487727759455,0.0,0.9899846795168356,0.0,300,0.01665329933166504,0.008041178522471095,0.0072320151774123995,56400,75.26385017464578,0.0
188,1.7052958011627197,75.28868346302121,0.02591375158928542,75.32255248703407,75.25376178107442,0.0,0.17696973936807722,0.1,0.002980470657348633,0.05577349662780762,0.049684588,0.70818365,75.25825789613721,0.0,0.9904369370299569,0.0,300,0.0165250301361084,0.008560143811570534,0.005639897606144843,56700,75.26345731502474,0.0
189,1.6321804523468018,75.2966836737384,0.02032925477660686,75.32768186909685,75.27404563900039,0.0,0.18692724401525868,0.1,0.003119945526123047,0.05739259719848633,0.049945056,0.60015106,75.26210047389733,0.0,0.9904848557023509,0.0,300,0.017578125,0.008241051490936825,0.006793460546803482,57000,75.26427401993193,0.0
190,1.6533699035644531,75.28074879356218,0.018713141769242245,75.31298445672364,75.26728322279045,0.0,0.19075123567447297,0.1,0.0029761791229248047,0.0569148063659668,0.05072281,0.57468224,75.26396530586382,0.0,0.9902760889097313,0.0,300,0.016945600509643555,0.007513762572316161,0.007584686197936851,57300,75.26349562145346,0.0
191,1.7357747554779053,75.25929181892045,0.07330772740199575,75.38047160657271,75.19091074994107,0.0,0.1862657182260973,0.1,0.0029714107513427734,0.0566258430480957,0.050014883,0.4821657,75.26349795716948,0.0,0.9900529289407363,0.0,300,0.017779827117919922,0.0044448828539562935,0.003993876320457074,57600,75.2637705651381,0.0
192,1.6403579711914062,75.24987647794084,0.08845015001774631,75.34911512287199,75.1072974441237,0.0,0.19041737558042146,0.1,0.0031194686889648438,0.0563044548034668,0.050061114,0.56632435,75.26213580924662,0.0,0.989906292735228,0.0,300,0.01724863052368164,0.0037720347203202263,0.003401039468697812,57900,75.26293075738886,0.0
193,1.6790070533752441,75.26754726467988,0.04904993681410643,75.32375210761023,75.1892288655581,0.0,0.19710541452031255,0.1,0.003038644790649414,0.05673623085021973,0.049870312,0.48390397,75.26267695478994,0.0,0.9901389138289814,0.0,300,0.017318248748779297,0.0066807587108108114,0.0057157795136162865,58200,75.26267617209682,0.0
194,1.6874613761901855,75.281056066421,0.016846984533632894,75.30193152830573,75.26125507645651,0.0,0.18328865824375512,0.1,0.002966642379760742,0.056252241134643555,0.050287735,0.6208639,75.26451486595305,0.0,0.9902773980289569,0.0,300,0.01751255989074707,0.008815390564771743,0.008458475257913127,58500,75.26188046296659,0.0
195,1.728759765625,75.26088087213905,0.032631865607574126,75.28512739966274,75.20469851114272,0.0,0.1957660626275787,0.1,0.0030176639556884766,0.056403160095214844,0.04990221,0.4621808,75.26415146657165,0.0,0.9900331848192355,0.0,300,0.016833066940307617,0.005588397370515826,0.004261543957868669,58800,75.26190814390483,0.0
196,1.705779790878296,75.22490151924099,0.09340686264445582,75.29309749434752,75.06393097869096,0.0,0.19005013103425775,0.1,0.0030612945556640625,0.056122779846191406,0.050230235,0.5705789,75.26022647183859,0.0,0.9895691667213876,0.0,300,0.01738572120666504,0.0028558890015371167,0.0030551930370291205,59100,75.26136995534831,0.0
197,1.6757712364196777,75.27750038964388,0.007542541610365743,75.28474684962734,75.26485584273578,0.0,0.1952324291577814,0.1,0.002929210662841797,0.05620098114013672,0.049948152,0.66789305,75.26195386361913,0.0,0.990230584008419,0.0,300,0.017108917236328125,0.006821094600464844,0.006481837398535967,59400,75.26113892470663,0.0
198,1.6932554244995117,75.25505447068454,0.04072821486751492,75.31006319906534,75.198873337801,0.0,0.1899631151143616,0.1,0.0029380321502685547,0.055365562438964844,0.05031132,0.5343307,75.26126392432568,0.0,0.9899596936210161,0.0,300,0.016659259796142578,0.005161820751563574,0.004964416125372338,59700,75.26134594463544,0.0
199,1.670691967010498,75.27709981782193,0.006034243448548168,75.28202814228268,75.26677830560561,0.0,0.18029576651737145,0.1,0.0029091835021972656,0.05849623680114746,0.050742965,0.6459526,75.26284751367531,0.0,0.9902340974976801,0.0,300,0.01708698272705078,0.0039929834541905015,0.003753824288246994,60000,75.26149620161712,0.0
200,1.726752519607544,75.21062203125531,0.10457305360774861,75.27470275331291,75.0295985539674,0.0,0.17184205256413243,0.1,0.002972841262817383,0.057314395904541016,0.050098393,0.669894,75.25762496543331,0.0,0.9894245281987541,0.0,300,0.01771688461303711,0.004931306299988768,0.004752971135199172,60300,75.2607975637452,0.0
201,1.7408764362335205,75.28462687464098,0.014734412470522356,75.30440081352988,75.2695094810533,0.0,0.17661469766450896,0.1,0.0029425621032714844,0.05723261833190918,0.049632568,0.69500095,75.26032515635409,0.0,0.9903355408179008,0.0,300,0.017133235931396484,0.007425817551872229,0.007287357246920112,60600,75.26122921858108,0.0
202,1.677642583847046,75.27082778182731,0.0154787835829966,75.28592895761444,75.2477618755744,0.0,0.1918483872706659,0.1,0.0029180049896240234,0.05724287033081055,0.050053522,0.6344916,75.26137541890141,0.0,0.9901572230603738,0.0,300,0.017301559448242188,0.006969808721591188,0.006550325342453706,60900,75.26126277293142,0.0
203,1.7174029350280762,75.17275885537425,0.1670571086831157,75.27902242244524,74.88359714220962,0.0,0.17849099918621864,0.1,0.0030257701873779297,0.056407928466796875,0.050102483,0.6188621,75.2525137625487,0.0,0.9889184810886347,0.0,300,0.017010927200317383,0.00452679953310683,0.0042813563438937816,61200,75.26164164536752,0.0
204,1.7026443481445312,75.27291847577231,0.005268697259018555,75.28073390099995,75.26786810217445,0.0,0.17978398370864376,0.1,0.0029761791229248047,0.055708885192871094,0.049778413,0.83321375,75.25455423387106,0.0,0.9901774924398228,0.0,300,0.01694631576538086,0.0051513315033330995,0.003858322294108049,61500,75.2619514082833,0.0
205,1.6783726215362549,75.27064476555856,0.01635536730561624,75.29585576840104,75.25117656170804,0.0,0.18851548608653215,0.1,0.002933025360107422,0.056827545166015625,0.05018145,0.7200497,75.25616328703981,0.0,0.99015493507276,0.0,300,0.017609119415283203,0.006161470087915377,0.005858118353677973,61800,75.26143832900765,0.0
206,1.8096680641174316,75.12893833336634,0.1236266480351617,75.27041169684512,74.93203162606585,0.0,0.18421396232988335,0.1,0.002863645553588867,0.057764530181884766,0.04994055,0.5932266,75.24344079167247,0.0,0.9883883389162255,0.0,300,0.01705336570739746,0.010801716423395467,0.008017298950716525,62100,75.2611611375145,0.0
207,1.8017196655273438,75.27402104433331,0.007889209534595626,75.28312962683043,75.2660754720433,0.0,0.18702242561271562,0.1,0.002862215042114258,0.05660581588745117,0.050279,0.6176527,75.24649881693855,0.0,0.9901905801093426,0.0,300,0.017159223556518555,0.008043465311194547,0.006760950854051063,62400,75.26076855085333,0.0
208,1.6356849670410156,75.27952682283451,0.015509659709316191,75.3054149904435,75.26746487049789,0.0,0.19042495638654514,0.1,0.003172636032104492,0.05846071243286133,0.049600676,0.6428401,75.24980161752816,0.0,0.9902636003962719,0.0,300,0.0170290470123291,0.004449781136304334,0.0042596894045814244,62700,75.26004846110347,0.0
209,1.6813287734985352,75.20201370059257,0.0680764996812264,75.26637385734925,75.1016047420378,0.0,0.1782109927643346,0.1,0.002939462661743164,0.0564723014831543,0.050151944,0.5573342,75.24502282583461,0.0,0.9892871029544188,0.0,300,0.017215728759765625,0.006997256409925749,0.004281471726791216,63000,75.26001048700753,0.0
210,1.6326887607574463,75.26873363458424,0.004898616802184491,75.27581314070967,75.26205146794106,0.0,0.18014157437091813,0.1,0.0031189918518066406,0.05649900436401367,0.04972263,0.8318754,75.24739390670958,0.0,0.9901212218375867,0.0,300,0.017022132873535156,0.005675056362979513,0.0039188237695899075,63300,75.26002690319488,0.0
211,1.703906536102295,75.19597083101014,0.12731757923531523,75.27772124266606,74.97580225052053,0.0,0.19145746327353974,0.1,0.0029888153076171875,0.05680418014526367,0.05018015,0.58653224,75.24225159913964,0.0,0.9892128848689407,0.0,300,0.017627954483032227,0.0093148771688373,0.008816695708137472,63600,75.26017082582676,0.0
212,1.6716804504394531,75.26402247738136,0.020857625480172972,75.28419506634174,75.229306340784,0.0,0.18617736382627542,0.1,0.0031392574310302734,0.0563969612121582,0.05061055,0.51665163,75.2444286869638,0.0,0.9900719668778878,0.0,300,0.01775836944580078,0.005941959551667223,0.0036030164778403984,63900,75.26029427830731,0.0
213,1.7218780517578125,75.13533784419303,0.08884882969568346,75.27682536420133,75.03870902767477,0.0,0.17925038386092185,0.1,0.0029439926147460938,0.05594682693481445,0.05022211,0.75727713,75.23351960268673,0.0,0.9884126176320133,0.0,300,0.01698756217956543,0.005620694040662008,0.0051511310011011875,64200,75.25976930879179,0.0
214,1.6944396495819092,75.18475438267956,0.12689738269030823,75.29140662978138,74.97028021416435,0.0,0.194863985509528,0.1,0.0030243396759033203,0.05578470230102539,0.049317107,0.6211984,75.22864308068601,0.0,0.9890942074021182,0.0,300,0.017155885696411133,0.004310270686329641,0.004234240062725313,64500,75.26015614482677,0.0
215,1.6817052364349365,75.27052238533581,0.006999582174817468,75.2823874247667,75.26440161207681,0.0,0.19696120360509567,0.1,0.0029478073120117188,0.06056332588195801,0.049982246,0.5767519,75.23283101115099,0.0,0.9901492825875104,0.0,300,0.017582416534423828,0.005294962190481758,0.004779958764278723,64800,75.26023002363625,0.0
216,1.6793601512908936,75.24235927796765,0.22262569280350605,75.45169312878302,74.87396536705714,0.0,0.18060966147043844,0.1,0.002846240997314453,0.05736351013183594,0.050474476,0.5372608,75.23378383783266,0.0,0.9898068348367235,0.0,300,0.017680883407592773,0.0056320820883456356,0.004733457814111877,65100,75.26015263231741,0.0
217,1.7019071578979492,75.28902996826693,0.03758983171482763,75.3539701416596,75.26498928203343,0.0,0.17920381078155395,0.1,0.0034570693969726562,0.056012630462646484,0.049546417,0.6637152,75.23930845087608,0.0,0.9903555164102812,0.0,300,0.017168283462524414,0.009453702038460698,0.007725593172184372,65400,75.26019063197488,0.0
218,1.703925609588623,75.22820856810273,0.05913638253607155,75.2915986067058,75.14639390186193,0.0,0.1897139982520086,0.1,0.0055637359619140625,0.05632615089416504,0.049822487,0.5513205,75.23819846259875,0.0,0.9896482015008126,0.0,300,0.017391443252563477,0.005279501374052347,0.004707006162195516,65700,75.26045122968506,0.0
219,1.7714574337005615,75.25039474701296,0.029459269817201345,75.28119332882072,75.21492606911173,0.0,0.19231864712322436,0.1,0.0028624534606933594,0.055672645568847656,0.049927305,0.5151763,75.23941809104018,0.0,0.9899062720241061,0.0,300,0.01956033706665039,0.0066507789755406365,0.0038861183075504188,66000,75.26044265573817,0.0
220,1.7473101615905762,75.07684637209616,0.19714331214676267,75.40986215516597,74.89481435486819,0.0,0.17900697344840835,0.1,0.0030884742736816406,0.05660843849182129,0.04961318,0.672394,75.22316091914578,0.0,0.9877207169694537,0.0,300,0.01712346076965332,0.00902979122750754,0.00695464883152066,66300,75.2598695141203,0.0
221,1.7530686855316162,75.17898460771785,0.184011595390111,75.32907816616309,74.86396867770252,0.0,0.1804122833284316,0.1,0.0030019283294677734,0.05582761764526367,0.050527234,0.5666966,75.218743288003,0.0,0.9890080721320885,0.0,300,0.017556190490722656,0.011188804809058988,0.005785755882093128,66600,75.25944415805657,0.0
222,1.68906569480896,75.29303260457525,0.03723570250674043,75.35645564538959,75.26614789798768,0.0,0.1947538374096927,0.1,0.0029053688049316406,0.05839061737060547,0.05064961,0.62975776,75.22617221966023,0.0,0.9904278292684635,0.0,300,0.01938343048095703,0.0076831759581947575,0.006634666326524512,66900,75.2591508008898,0.0
223,1.7420573234558105,75.27802296560449,0.010244936018204302,75.2882079927536,75.26594175875859,0.0,0.19151524113074453,0.1,0.0029196739196777344,0.0556788444519043,0.04904378,0.67902523,75.23135729425466,0.0,0.9902392793315212,0.0,300,0.019757747650146484,0.008289903990228173,0.007578690500393133,67200,75.2595066160065,0.0
224,1.7290904521942139,75.25835361649956,0.013437111756134545,75.27111293271432,75.2358028815864,0.0,0.19352009096666545,0.1,0.0028667449951171875,0.05584073066711426,0.049796194,0.76838374,75.23405692647916,0.0,0.9899911073578651,0.0,300,0.01842212677001953,0.0055379358232025945,0.0037003014929189964,67500,75.25963470891499,0.0
225,1.7445423603057861,75.27463225056829,0.0830961726370501,75.37620916099658,75.14781271957447,0.0,0.1847696797945,0.1,0.002994537353515625,0.056194305419921875,0.050367795,0.5062944,75.23811445888808,0.0,0.9902104778923861,0.0,300,0.01808333396911621,0.003732136544730943,0.0039007670928866835,67800,75.25947586151538,0.0
226,1.6734516620635986,75.25811501626504,0.02551694898822419,75.29722206598375,75.23425575110426,0.0,0.1843118712884791,0.1,0.0029137134552001953,0.057779550552368164,0.050521046,0.5565172,75.24011451462577,0.0,0.9900213267788385,0.0,300,0.01773214340209961,0.0057731353110928255,0.004500598945204427,68100,75.25949924232226,0.0
227,1.6472952365875244,75.28328867673899,0.018419421672160388,75.30847318894888,75.2652935082263,0.0,0.18826576915373142,0.1,0.0029671192169189453,0.057029008865356445,0.04997029,0.60055625,75.2444319308371,0.0,0.9903099363489626,0.0,300,0.019776105880737305,0.007256180327665402,0.005602160354284063,68400,75.25953945197615,0.0
228,1.6998047828674316,75.27056774291613,0.011988336386960109,75.28816894407367,75.25431801173906,0.0,0.19460866917547914,0.1,0.003052234649658203,0.056348323822021484,0.049791124,0.61107695,75.24704551204499,0.0,0.9901749155023717,0.0,300,0.01980280876159668,0.0037923014089566664,0.003874499402597109,68700,75.26014021265385,0.0
229,1.6936683654785156,75.20528965326046,0.18891804362700143,75.33802396752553,74.87943139408779,0.0,0.18483941963146536,0.1,0.0030291080474853516,0.058095455169677734,0.05030749,0.44023845,75.24286992616655,0.0,0.9893511204905658,0.0,300,0.018473386764526367,0.005204908445239557,0.004249113707045298,69000,75.26014215734118,0.0
230,1.6767470836639404,75.27909939603629,0.009892592670096591,75.29070828071418,75.26590952821212,0.0,0.18241575058103615,0.1,0.003026247024536133,0.056913137435913086,0.05004993,0.7171065,75.24649287315353,0.0,0.9902518699645201,0.0,300,0.018715620040893555,0.0052576825195453135,0.004830530064494775,69300,75.26009287716376,0.0
231,1.642514944076538,75.25682232287936,0.02766044935558491,75.28703970655144,75.21695968525714,0.0,0.19444693422283713,0.1,0.003054380416870117,0.05630683898925781,0.04978543,0.55087143,75.2475258181261,0.0,0.9899678232576029,0.0,300,0.020156145095825195,0.004355926946066971,0.004284027715783569,69600,75.2602175255583,0.0
232,1.651219367980957,75.31188120344225,0.05271462244427008,75.40180438127035,75.26708482083026,0.0,0.20286695133890773,0.1,0.0029363632202148438,0.05669975280761719,0.04988475,0.59796214,75.25396135665773,0.0,0.9906762669758791,0.0,300,0.018706321716308594,0.0042735194370249014,0.0036104170259752934,69900,75.26001354430818,0.0
233,1.6927299499511719,75.23391500648367,0.06322026880512177,75.28567500092633,75.12568646814307,0.0,0.18056965675655876,0.1,0.0028858184814453125,0.05568361282348633,0.049546275,0.77938336,75.25195672164033,0.0,0.989731963298059,0.0,300,0.021521568298339844,0.004047780903482209,0.0037737672133557484,70200,75.25996194059022,0.0
234,1.7168223857879639,75.28497432871413,0.02652769368759782,75.33067876556167,75.26583657333597,0.0,0.19248227415493147,0.1,0.002865314483642578,0.05605912208557129,0.050155554,0.62590426,75.25525848234771,0.0,0.9903306922912944,0.0,300,0.0177609920501709,0.005380266050233883,0.0047887822362541535,70500,75.25964470409929,0.0
235,1.7300586700439453,75.09142937857264,0.16919712261877465,75.34850476005691,74.88293599572933,0.0,0.17531794754709004,0.1,0.0028412342071533203,0.05607271194458008,0.048918016,0.7623858,75.23887557197021,0.0,0.9878358496476815,0.0,300,0.017849206924438477,0.0049684541290127915,0.004809591383206901,70800,75.25974224870241,0.0
236,1.7398426532745361,75.24964586080047,0.0661866690519694,75.31935757818755,75.1407523467868,0.0,0.17967571113874212,0.1,0.0028982162475585938,0.05596184730529785,0.049871597,0.6796302,75.23995260085324,0.0,0.98988412250069,0.0,300,0.018488168716430664,0.005193323906778558,0.00494494771615198,71100,75.26055224302368,0.0
237,1.7066504955291748,75.28287106793994,0.016211758870893805,75.30762841206517,75.26646434516593,0.0,0.18744017173078426,0.1,0.0029942989349365234,0.055719614028930664,0.050290294,0.5515944,75.24424444756191,0.0,0.990298578882732,0.0,300,0.018038272857666016,0.0034071201932273838,0.0032872628290589448,71400,75.26036185869815,0.0
238,1.7920751571655273,75.21781199357144,0.08759130418565654,75.27765019682576,75.0664320752374,0.0,0.17731948657924254,0.1,0.00305938720703125,0.05570650100708008,0.049507197,0.7254423,75.24160120216287,0.0,0.9894859267264025,0.0,300,0.018837690353393555,0.004832270358689083,0.004537567599012226,71700,75.26054253217082,0.0
239,1.8115699291229248,75.26101921736752,0.05730499970320027,75.3277991228192,75.16953901008534,0.0,0.19244370711812733,0.1,0.0030183792114257812,0.059026241302490234,0.049826946,0.59381294,75.24354300368334,0.0,0.9900220445973186,0.0,300,0.01847696304321289,0.0052741215071824546,0.004509095934846761,72000,75.26054905607147,0.0
240,1.7698588371276855,75.2552871798,0.03596046295431265,75.29300635104771,75.19607978302278,0.0,0.19380232877638148,0.1,0.0028405189514160156,0.05585837364196777,0.04981788,0.5327356,75.24471742129501,0.0,0.9899560527154044,0.0,300,0.017918109893798828,0.0064418615379612755,0.005082504095630426,72300,75.26079922248356,0.0
241,1.742058277130127,75.27483998524119,0.008045385239747533,75.28758054840796,75.26527840176341,0.0,0.18550037480079087,0.1,0.002792835235595703,0.055948734283447266,0.049555626,0.5806231,75.24772967768963,0.0,0.9902016604676032,0.0,300,0.018175601959228516,0.002777608394728112,0.0028560189028876827,72600,75.26030598664069,0.0
242,1.7589006423950195,75.16598169064662,0.1697595636855558,75.26980678346798,74.87202953137175,0.0,0.18693130856625045,0.1,0.0028858184814453125,0.05923819541931152,0.050267983,0.60608834,75.23955487898533,0.0,0.9888287050912048,0.0,300,0.01786947250366211,0.008404835069037362,0.005540260563845835,72900,75.25965424979448,0.0
243,1.7317883968353271,75.27294834721069,0.0057374856937384795,75.27781512640227,75.26365641588187,0.0,0.1858547558310968,0.1,0.0031104087829589844,0.055734872817993164,0.04975335,0.6434545,75.24289422580787,0.0,0.9901779446459911,0.0,300,0.018517732620239258,0.00922698363764569,0.00651726344450598,73200,75.25927835384196,0.0
244,1.659355640411377,75.27183485639222,0.010245538261516226,75.2882838385126,75.2618306419977,0.0,0.18783474849515963,0.1,0.003258228302001953,0.05808305740356445,0.049921308,0.62575436,75.24578828886632,0.0,0.9901610281865988,0.0,300,0.01902914047241211,0.004511595908944745,0.004163661894612085,73500,75.25932287438629,0.0
245,1.6926987171173096,75.22755258961715,0.04171477740724457,75.26745505146621,75.16932673592932,0.0,0.18494751461787862,0.1,0.0030307769775390625,0.057718515396118164,0.04963566,0.5446506,75.2439647189414,0.0,0.9896163555970596,0.0,300,0.018435239791870117,0.004022118834568014,0.003902132892645907,73800,75.25903225182833,0.0
246,1.6942565441131592,75.18656509241004,0.1364794812566439,75.26781918284703,74.95019015936835,0.0,0.18075390031307728,0.1,0.003091573715209961,0.05761885643005371,0.05011192,0.6512779,75.23822475628826,0.0,0.9891030832594275,0.0,300,0.01868724822998047,0.005451674646660244,0.00485075910908584,74100,75.25905415332032,0.0
247,1.7375004291534424,75.28853088686225,0.020599791022720776,75.31594733271015,75.26209649586448,0.0,0.1949842351555922,0.1,0.0030422210693359375,0.056159257888793945,0.04999464,0.54294616,75.24325536934566,0.0,0.9903807340203311,0.0,300,0.019201993942260742,0.0037733795398763943,0.00324750019657573,74400,75.25896777845675,0.0
248,1.7517216205596924,75.32011914091856,0.07313249260964656,75.44576611641153,75.27057334447257,0.0,0.1873044425944829,0.1,0.0030431747436523438,0.05763435363769531,0.049504854,0.5848002,75.25094174650295,0.0,0.99076687497179,0.0,300,0.019089698791503906,0.004233807299157039,0.004168352527250346,74700,75.25937288208561,0.0
249,1.7858760356903076,75.25047196279624,0.05745798889169741,75.28791067704549,75.15105904296624,0.0,0.1847396758639667,0.1,0.0029633045196533203,0.05799221992492676,0.050174046,0.76143956,75.25089476813228,0.0,0.9898931774157993,0.0,300,0.019605636596679688,0.0063573030122826835,0.0054786035154890346,75000,75.25936253784401,0.0
250,1.7489938735961914,75.2787193902143,0.022595006800347917,75.30409252195253,75.24519636822437,0.0,0.18864935286610002,0.1,0.0030760765075683594,0.05740928649902344,0.049760964,0.5741291,75.25367723034049,0.0,0.9902934148605549,0.0,300,0.01851940155029297,0.005475739186482134,0.0038092108720653634,75300,75.25893392798694,0.0
251,1.7279667854309082,75.10551974812962,0.18543847521342338,75.30903466733137,74.86450076086285,0.0,0.17199413771793307,0.1,0.0028924942016601562,0.0563654899597168,0.050249413,1.0408927,75.2388614821194,0.0,0.9880673659382604,0.0,300,0.01895618438720703,0.005410976065637115,0.003594772561628713,75600,75.25915099891677,0.0
252,1.7578487396240234,75.26907742263899,0.0033788478578438254,75.27216220875131,75.26336263267564,0.0,0.1813477168182411,0.1,0.00307464599609375,0.05725455284118652,0.04986025,0.62061733,75.24188307617136,0.0,0.9901259615985905,0.0,300,0.019458293914794922,0.00443663777325201,0.004248578005008613,75900,75.25941777108338,0.0
253,1.7245380878448486,75.2775320760904,0.007157047595938493,75.2877722308837,75.26826691131946,0.0,0.18407313056757232,0.1,0.0029740333557128906,0.05659008026123047,0.04988945,0.636619,75.24544797616326,0.0,0.9902311772319423,0.0,300,0.018680095672607422,0.0032053540425559,0.003025015256186784,76200,75.25956543744392,0.0
254,1.7780308723449707,75.26281738174302,0.018865076860575765,75.28736852220369,75.2361868247703,0.0,0.18190513958384696,0.1,0.0030074119567871094,0.05610013008117676,0.049597982,0.6041078,75.24718491672124,0.0,0.9900963076312902,0.0,300,0.018765926361083984,0.007767261384633179,0.006861717884308559,76500,75.25981648813072,0.0
255,1.8083510398864746,75.22516343149654,0.07427250174707725,75.27164080105364,75.09665588275274,0.0,0.1882718388887063,0.1,0.002939939498901367,0.057363271713256836,0.04996372,0.62083715,75.24498276819878,0.0,0.9895816541305211,0.0,300,0.019436359405517578,0.007843472325779742,0.0035416446140110035,76800,75.2593751932816,0.0
256,1.8052036762237549,75.27961602745172,0.010536736475268132,75.29214743891104,75.26856515514679,0.0,0.18550535148059244,0.1,0.0028793811798095703,0.05587506294250488,0.049782727,0.7587775,75.24844609412409,0.0,0.9902606614045348,0.0,300,0.018723487854003906,0.004032338540662014,0.0030512164261250747,77100,75.25960893103431,0.0
257,1.830394983291626,75.24805720205613,0.04744216117452228,75.28504139522792,75.16693636474564,0.0,0.1867821374468885,0.1,0.002863168716430664,0.05679607391357422,0.05112462,0.8591558,75.2484072049173,0.0,0.9899150690220073,0.0,300,0.021726369857788086,0.00495673898107278,0.004722604755631123,77400,75.00090712584482,0.0
258,2.3597965240478516,75.25181096278027,0.03547727844920728,75.28850980915283,75.19313225118391,0.0,0.17808299093709604,0.1,0.002960205078125,0.05614137649536133,0.04926958,0.63533324,75.24874758070361,0.0,0.989907378922253,0.0,300,0.019125938415527344,0.0028115512854533843,0.00301427284706986,77700,75.02149962293974,0.0
259,1.7181134223937988,75.19944128580123,0.12138356743462411,75.27362908278096,74.98924514237989,0.0,0.18272191400570198,0.1,0.003117799758911133,0.05680990219116211,0.04947683,0.60022897,75.24381695121338,0.0,0.9892527323828089,0.0,300,0.01886463165283203,0.006285640006570542,0.0035257749250432787,78000,75.00146014673,0.0
260,1.6751065254211426,75.19790186318875,0.14186843504573096,75.28902442019574,74.95243418168313,0.0,0.18287739403424225,0.1,0.002946615219116211,0.05682802200317383,0.04934425,0.57787794,75.23922544241091,0.0,0.9892280893278289,0.0,300,0.01897263526916504,0.0038907138094967774,0.003269423255319433,78300,75.08047768388495,0.0
261,1.7352066040039062,75.27249499365861,0.007147519579059863,75.27997181333527,75.26180036290489,0.0,0.1861287636630154,0.1,0.002952098846435547,0.05780816078186035,0.050231718,0.78829944,75.24255239753569,0.0,0.9901712343503808,0.0,300,0.019923686981201172,0.01827237378765583,0.009440232674730206,78600,75.06527908614807,0.0
262,1.7384364604949951,75.184309939622,0.18474524856492505,75.33057014510113,74.86723599515116,0.0,0.18723862912662287,0.1,0.0030355453491210938,0.05750560760498047,0.049699638,0.5898144,75.23672815174432,0.0,0.9890619602149062,0.0,300,0.019347429275512695,0.014275561739962108,0.006017505513364856,78900,75.25964529646735,0.0
263,1.7002894878387451,75.29275607459334,0.027361361046580466,75.32089789599615,75.2599409141342,0.0,0.1766332665108189,0.1,0.0030574798583984375,0.05783510208129883,0.04981251,0.752378,75.24233094402922,0.0,0.9904399901978508,0.0,300,0.01973128318786621,0.004191969244982646,0.006520884575489948,79200,75.25949607275824,0.0
264,1.7982428073883057,75.27565776208041,0.020003575994186017,75.30976376628426,75.26110612085297,0.0,0.1741165639211334,0.1,0.0029878616333007812,0.05684852600097656,0.05099687,0.6849703,75.24566362583434,0.0,0.9902141404641128,0.0,300,0.019288301467895508,0.011526214585420174,0.0036941969086270524,79500,75.25928277393405,0.0
265,1.7309257984161377,75.26156065069954,0.02636971115190413,75.2821930733536,75.21662025100876,0.0,0.17889792731416942,0.1,0.002871274948120117,0.05690169334411621,0.050412178,0.6205568,75.24725332832087,0.0,0.9900689643395821,0.0,300,0.0196685791015625,0.0060093810030761394,0.004217391451375884,79800,75.2595063465907,0.0
266,1.7360968589782715,75.2742338284544,0.008829243047127466,75.289054893049,75.26616215922479,0.0,0.19093717432619553,0.1,0.003113269805908203,0.056463003158569336,0.049525063,0.49567062,75.24995137833422,0.0,0.9901943133544231,0.0,300,0.02014327049255371,0.0044432827848539394,0.004845696613955267,80100,75.2591854789381,0.0
267,1.8347198963165283,75.31591908615405,0.05264001716568099,75.40459827720834,75.2703901229529,0.0,0.1815336059789061,0.1,0.0030193328857421875,0.058141231536865234,0.05009336,0.66482645,75.25654814911621,0.0,0.9907383907239049,0.0,300,0.020601987838745117,0.005585482242978207,0.004152594617776256,80400,75.25905518982675,0.0
268,1.817082166671753,75.26892042595136,0.01309928649112109,75.28936619502903,75.2554490938722,0.0,0.1797608856630148,0.1,0.0029993057250976562,0.06370782852172852,0.04994009,0.7364426,75.25778537679973,0.0,0.990128066127375,0.0,300,0.022076845169067383,0.00832916931200641,0.005818886693271099,80700,75.25867166621208,0.0
269,1.8256895542144775,75.19106033075896,0.09878793267815622,75.27190422048204,75.02950464893296,0.0,0.18314817877146622,0.1,0.0029022693634033203,0.05778360366821289,0.049805723,0.5973421,75.25111287219566,0.0,0.989168136430143,0.0,300,0.021371126174926758,0.007656497500980425,0.006329162417652859,81000,75.25881473494825,0.0
270,1.836543321609497,75.2542936487508,0.029483491211616395,75.27571011097893,75.20355392987236,0.0,0.17526174100271796,0.1,0.002943277359008789,0.057730674743652344,0.049715076,0.97799295,75.25143094985118,0.0,0.9899847680630817,0.0,300,0.020745277404785156,0.004865229844673059,0.004654410740546342,81300,75.25892959137832,0.0
271,1.797178030014038,75.27209622877238,0.006991384853878879,75.28413360678834,75.26739259385545,0.0,0.19141974296962463,0.1,0.0029544830322265625,0.05736088752746582,0.049805474,0.4556581,75.25349747774331,0.0,0.9901626351943535,0.0,300,0.02100992202758789,0.0032585416768733384,0.003116454566175944,81600,75.25921657999814,0.0
272,1.8473148345947266,75.20126657354237,0.0758890180246645,75.27857546119523,75.09818882631347,0.0,0.1773337313018491,0.1,0.0030074119567871094,0.056896209716796875,0.049872793,0.5582787,75.24827438732322,0.0,0.989321206946177,0.0,300,0.0209200382232666,0.005837928022695368,0.004332678603453083,81900,75.25511198356627,0.0
273,1.876143217086792,75.28221622947487,0.013897861595817107,75.29919883189187,75.26059040624935,0.0,0.16764498345229753,0.1,0.0030059814453125,0.05688738822937012,0.050105087,0.5179386,75.25166857153839,0.0,0.9902973366563419,0.0,300,0.020121097564697266,0.006954787077448851,0.00508652125270694,82200,75.25956200543486,0.0
274,1.8562467098236084,75.29724815382892,0.03630028460142444,75.3595912425541,75.27142062895474,0.0,0.1892023306024613,0.1,0.0026874542236328125,0.060266733169555664,0.05013509,0.67395264,75.25622652976745,0.0,0.9904964688837798,0.0,300,0.019917726516723633,0.0050076579743502875,0.003785998020905161,82500,75.24523936156501,0.0
275,1.7178280353546143,75.24590233477284,0.03451806229972311,75.27324779655382,75.18667297293527,0.0,0.18032024560716056,0.1,0.0032889842987060547,0.05707263946533203,0.049911555,0.7229405,75.255194110268,0.0,0.989885205796274,0.0,300,0.020718097686767578,0.004149319946368674,0.004440920033214067,82800,75.25444853108864,0.0
276,1.7689573764801025,75.28684769614293,0.09333644321407905,75.4376453788108,75.18166313175013,0.0,0.19720512002741394,0.1,0.0029823780059814453,0.060837507247924805,0.049870476,0.5985959,75.25835946885549,0.0,0.9903684606309375,0.0,300,0.023163795471191406,0.007760801911522811,0.006327052552816174,83100,75.25400909957398,0.0
277,1.723609447479248,75.27242147091032,0.00574813089923643,75.28227360080312,75.26788888299932,0.0,0.17501797166853017,0.1,0.0031287670135498047,0.057730674743652344,0.050154135,0.7975267,75.25976566906097,0.0,0.990170714158251,0.0,300,0.020967960357666016,0.00478590101510133,0.004185386325886689,83400,75.2470261698973,0.0
278,1.7499797344207764,75.31859595967806,0.06921943349784386,75.43749748803337,75.26447825243032,0.0,0.18249657222434548,0.1,0.0030755996704101562,0.05831646919250488,0.05029535,0.6604609,75.26564869812267,0.0,0.9907820132861797,0.0,300,0.019949674606323242,0.00529760330172458,0.005157913142535475,83700,75.23908644811448,0.0
279,1.8132996559143066,75.16957765536412,0.1299001891513605,75.30324413911916,74.97380353819953,0.0,0.170830184331967,0.1,0.0030672550201416016,0.05697464942932129,0.04983814,0.7808471,75.25604159384683,0.0,0.9889399027922423,0.0,300,0.021090984344482422,0.003437186758838742,0.002866995459240366,84000,75.2317731097695,0.0
280,1.7850260734558105,75.28289210416143,0.033272119909048166,75.31529507336398,75.23447900462142,0.0,0.17872804051035052,0.1,0.0031044483184814453,0.059755563735961914,0.049916927,1.0996318,75.2587266448783,0.0,0.990349935112285,0.0,300,0.021074295043945312,0.003617158841324436,0.0032160744671435744,84300,75.23846028452407,0.0
281,1.7780110836029053,75.25502416445642,0.09970560324990571,75.37756048982057,75.0996646263753,0.0,0.18134204360787576,0.1,0.002929210662841797,0.05673408508300781,0.04993491,0.64579254,75.25835639683612,0.0,0.9899781773928977,0.0,300,0.020763397216796875,0.00796394535070845,0.007212558818141995,84600,75.23829107189525,0.0
282,1.850851058959961,75.25621229780884,0.03527543979183439,75.29374195404475,75.21704351252623,0.0,0.1783031005563036,0.1,0.0029850006103515625,0.05605649948120117,0.049776074,0.6136403,75.2581419869334,0.0,0.9899990601231026,0.0,300,0.02063441276550293,0.005941660290023767,0.005283531170935075,84900,75.24706438738336,0.0
283,1.8249928951263428,75.24532508821301,0.03833175960452431,75.27183847547346,75.17912975579256,0.0,0.18078980800916844,0.1,0.002904176712036133,0.05630803108215332,0.049553376,0.58184105,75.25686029706135,0.0,0.9898290793953161,0.0,300,0.02109694480895996,0.0032584578105185036,0.0025926072738319825,85200,75.25025122362192,0.0
284,1.8680055141448975,75.26277000776032,0.005529357097890863,75.26887362167918,75.25508670038644,0.0,0.17738212783911994,0.1,0.0028696060180664062,0.0562286376953125,0.050697282,0.7175493,75.25745126813125,0.0,0.9900130861236399,0.0,300,0.021623611450195312,0.004060258705210119,0.0036599526219036923,85500,75.25194063681697,0.0
285,1.8547637462615967,75.26609545358644,0.008203843845555465,75.2799083832863,75.25884416497121,0.0,0.18645252495292666,0.1,0.0028498172760009766,0.056260108947753906,0.04963567,0.5830405,75.25831568667677,0.0,0.9900863270100804,0.0,300,0.02140641212463379,0.005023469913308467,0.004680058355661637,85800,75.25169496416437,0.0
286,1.805955171585083,75.28055335514934,0.016737672026274148,75.30795875174631,75.26472253412724,0.0,0.18922382729309375,0.1,0.0028836727142333984,0.057680368423461914,0.049905732,0.5158478,75.26053945352403,0.0,0.9902794268486977,0.0,300,0.021543502807617188,0.002853134427712182,0.0022590916627235657,86100,75.25019445506395,0.0
287,1.9219202995300293,75.26154955706598,0.002242248626689386,75.2648684307465,75.2587720829779,0.0,0.17821424492875798,0.1,0.002867460250854492,0.06115865707397461,0.049698967,0.6126045,75.26064046387823,0.0,0.9900257620532504,0.0,300,0.022044897079467773,0.002526071508606378,0.0025266970923976968,86400,75.2462315506497,0.0
288,1.8887243270874023,75.27840310912042,0.021756013518573255,75.31473123494102,75.25907394717929,0.0,0.18861814724027517,0.1,0.002811908721923828,0.05927252769470215,0.04953783,0.60213053,75.26241672840246,0.0,0.9902413241503223,0.0,300,0.02537989616394043,0.01082632959912743,0.004905408687420707,86700,75.2532084983674,0.0
289,1.8912687301635742,75.28247434687579,0.02626400505418279,75.32719307538804,75.26085186120058,0.0,0.16601657419194754,0.1,0.0032088756561279297,0.05747222900390625,0.049780656,1.4132832,75.26442249024979,0.0,0.9902825698156456,0.0,300,0.02226853370666504,0.0060484565602293,0.004993466766668462,87000,75.25624188659937,0.0
290,1.7650916576385498,75.19910489484776,0.19138117233520163,75.34729473096142,74.87028717066272,0.0,0.1721047598627983,0.1,0.002928495407104492,0.05667591094970703,0.050343674,0.50757545,75.25789073070958,0.0,0.9892498543204272,0.0,300,0.02135920524597168,0.009122958070323817,0.005693759953218093,87300,75.25423754742688,0.0
291,1.9597973823547363,75.26360356895373,0.04873840192247349,75.30927873846414,75.18387272836075,0.0,0.17403310224419694,0.1,0.0029180049896240234,0.0557711124420166,0.04918637,0.51844484,75.25846201453399,0.0,0.9900320675255591,0.0,300,0.02127528190612793,0.004127543766696004,0.0023776742910342577,87600,75.2550839462845,0.0
292,1.8805773258209229,75.28234983554182,0.013873389468195694,75.30194674262742,75.26365350645614,0.0,0.189477786597674,0.1,0.0028710365295410156,0.05629611015319824,0.050220348,0.6291414,75.26085079663478,0.0,0.9902928082606585,0.0,300,0.020987749099731445,0.00789525436947655,0.005638766141255948,87900,75.25787447986228,0.0
293,1.8332390785217285,75.23212019589155,0.09575441454023319,75.30195062740597,75.0671204118077,0.0,0.17644577833071073,0.1,0.0028007030487060547,0.055736541748046875,0.049899787,0.7629787,75.25797773656046,0.0,0.9896831075261443,0.0,300,0.021092653274536133,0.006530713476584944,0.0055986743748026755,88200,75.26301219200924,0.0
294,1.8199195861816406,75.29255045218012,0.026802031322920528,75.33009647679427,75.26000016656315,0.0,0.1873450645281037,0.1,0.0029592514038085938,0.05583691596984863,0.049774963,0.5750462,75.26143500812243,0.0,0.9904295064937086,0.0,300,0.021299362182617188,0.007721936469046988,0.005806678386118425,88500,75.27682371493256,0.0
295,1.9519925117492676,75.18536494527348,0.14935702222481517,75.2732445078531,74.92667700600055,0.0,0.17912807842156456,0.1,0.0033016204833984375,0.05571103096008301,0.050202534,0.61170816,75.25382800183755,0.0,0.9890531814322476,0.0,300,0.024695634841918945,0.006146087196685579,0.003935588337946757,88800,75.25835701521588,0.0
296,1.7908384799957275,75.32151558775968,0.08955360463078949,75.47656514598336,75.26681864025062,0.0,0.17644035639662314,0.1,0.003258228302001953,0.05776667594909668,0.04935661,0.56843275,75.26059676042976,0.0,0.9908352792812647,0.0,300,0.021573543548583984,0.0030201225622106384,0.003588148162735697,89100,75.28325699207996,0.0
297,1.8055667877197266,75.2870875180722,0.021390240157784256,75.32218511894538,75.26727614630843,0.0,0.19667675787780953,0.1,0.0030732154846191406,0.0571136474609375,0.049553446,0.8118945,75.263245836194,0.0,0.990355132744812,0.0,300,0.021237850189208984,0.0031274271263427716,0.0030105548553865727,89400,75.26995374088163,0.0
298,1.8121144771575928,75.25716316720589,0.05276342612950064,75.33786360398553,75.20931001962964,0.0,0.17970540363769308,0.1,0.0029845237731933594,0.05810809135437012,0.050130006,0.7759971,75.2626375692952,0.0,0.9899816424222531,0.0,300,0.02182936668395996,0.0036695374946684226,0.00255013799438621,89700,75.26963497290146,0.0
299,1.7575342655181885,75.25412168222934,0.014937258007519567,75.27054824450802,75.23275167903714,0.0,0.16979838111451032,0.1,0.003074169158935547,0.05700516700744629,0.050015263,1.3868958,75.2617859805886,0.0,0.9899891068614998,0.0,300,0.021754980087280273,0.005366273599222324,0.004794582646308589,90000,75.26910127757792,0.0
300,1.8248987197875977,75.30233103201027,0.043268807822780406,75.37205965708101,75.26361633935477,0.0,0.18300572024857867,0.1,0.002967357635498047,0.059552907943725586,0.04969145,0.6021394,75.26584048573076,0.0,0.9905521244120132,0.0,300,0.021625041961669922,0.003140723257612949,0.0029688326443597776,90300,75.2650304875955,0.0
301,1.86118745803833,75.31571274943147,0.0836933958764292,75.46044029327271,75.2621518703456,0.0,0.1798556685484166,0.1,0.0030012130737304688,0.05629444122314453,0.05065354,0.76446855,75.27082771210084,0.0,0.990761884202772,0.0,300,0.0214846134185791,0.00560562076816454,0.005423084601912493,90600,75.25647954154941,0.0
302,1.7962267398834229,75.29147659846853,0.027458274608654874,75.32917283212765,75.25907325051635,0.0,0.18647969927439112,0.1,0.0029189586639404297,0.05637550354003906,0.049950816,0.66152006,75.27289260073762,0.0,0.9904073848954279,0.0,300,0.021875858306884766,0.008201643673357576,0.007725219900015412,90900,75.24811000706528,0.0
303,1.7340750694274902,75.2808635028728,0.007634065087892554,75.29052261754217,75.26978435958381,0.0,0.17800630327895348,0.1,0.002988100051879883,0.06104898452758789,0.049745772,0.5829471,75.27368969095114,0.0,0.990275236821553,0.0,300,0.028721332550048828,0.004770438233959149,0.0044374537926238555,91200,75.25161286009038,0.0
304,1.8375496864318848,75.24895393492892,0.032871813738986684,75.27481497224846,75.19259234171163,0.0,0.19107007514609006,0.1,0.003087759017944336,0.05746197700500488,0.049347155,0.6118793,75.27121611534893,0.0,0.9898703732459941,0.0,300,0.022239208221435547,0.0026115285791888506,0.00239034765173136,91500,75.2607555847987,0.0
305,1.9177138805389404,75.27225198637349,0.009191658271617904,75.28432663572492,75.26037392195231,0.0,0.18529196551508978,0.1,0.0030167102813720703,0.05610251426696777,0.050027467,0.66860855,75.2713197024514,0.0,0.9901678425510512,0.0,300,0.02221822738647461,0.007427690128395524,0.006112791959998947,91800,75.26114333616833,0.0
306,1.8044495582580566,75.27810827289797,0.01883652721501919,75.30724033373862,75.26120729730799,0.0,0.1805412034583694,0.1,0.002995014190673828,0.057523488998413086,0.050025776,0.91360605,75.27199855949605,0.0,0.9902430344429247,0.0,300,0.023464679718017578,0.004032684291234207,0.00344024093667997,92100,75.26204524036162,0.0
307,1.8376333713531494,75.26110029495942,0.03025843674930015,75.29572210324476,75.21285872394017,0.0,0.184016940230389,0.1,0.002964496612548828,0.05633687973022461,0.04986204,0.5415207,75.27090873304239,0.0,0.9900206503961555,0.0,300,0.022485017776489258,0.004699621034615983,0.003941618360230731,92400,75.25946854939562,0.0
308,1.8400390148162842,75.26814114811273,0.007611814148093489,75.27671966680522,75.25957405941845,0.0,0.185255134993227,0.1,0.0037145614624023438,0.05662250518798828,0.049769025,0.5732618,75.27063197454943,0.0,0.9901132135020027,0.0,300,0.0223846435546875,0.004233365895995423,0.002926320547690323,92700,75.26738577426103,0.0
309,1.8719158172607422,75.25337451560492,0.01040348485980451,75.26709485326236,75.2394060673364,0.0,0.18076308118248996,0.1,0.003048419952392578,0.05616426467895508,0.049375903,0.6529196,75.26890622865498,0.0,0.9899388274166998,0.0,300,0.021680593490600586,0.0054293944848042,0.005437793819167544,93000,75.25572082688676,0.0
310,1.8177387714385986,75.24814822022849,0.023655525114334486,75.26277318317412,75.20721644049685,0.0,0.177943838243626,0.1,0.0028412342071533203,0.05554842948913574,0.049884424,0.935172,75.26683042781234,0.0,0.9898796298354333,0.0,300,0.0240781307220459,0.0038509003486065273,0.0028174280544664087,93300,75.25601546018716,0.0
311,1.8781723976135254,75.2594824799016,0.001185716171167418,75.26104099651883,75.2577175874022,0.0,0.18773011887367227,0.1,0.0028722286224365234,0.05628347396850586,0.049776126,0.7354405,75.26609563302127,0.0,0.9899983346335854,0.0,300,0.021938800811767578,0.003939610283247458,0.0030965499437951662,93600,75.23675838338566,0.0
312,1.8944389820098877,75.27796650592569,0.02135200406973533,75.31336719613738,75.25990158300563,0.0,0.17950201519105533,0.1,0.0030221939086914062,0.05523562431335449,0.050004378,0.6068175,75.2672827203117,0.0,0.9902366219886698,0.0,300,0.0217282772064209,0.006060754298274108,0.004833661097455323,93900,75.22786093958757,0.0
313,1.8751606941223145,75.26634793229793,0.0015270773294133275,75.26892544909268,75.26493392978198,0.0,0.17962969023667938,0.1,0.0028710365295410156,0.055708885192871094,0.049742658,0.6498987,75.26718924151032,0.0,0.9900865167679394,0.0,300,0.022478818893432617,0.0043828210218600635,0.0034854223461693143,94200,75.2408394766327,0.0
314,1.9219684600830078,75.31428202008824,0.05249979846450339,75.40411750312627,75.27186064912927,0.0,0.17385518001927217,0.1,0.003354787826538086,0.05729174613952637,0.050320268,0.7038562,75.27189851936812,0.0,0.9906796723810625,0.0,300,0.02229785919189453,0.0038034698608373748,0.003550629845717579,94500,75.23886948695893,0.0
315,1.833164930343628,75.27573858459266,0.012698592973349706,75.2966286309495,75.26486479433935,0.0,0.19090434699237088,0.1,0.003251314163208008,0.05773496627807617,0.050110474,0.663737,75.27228252589057,0.0,0.990212250268864,0.0,300,0.022517681121826172,0.004631924543610332,0.004295539167915595,94800,75.24809507571624,0.0
316,1.798058271408081,75.25047515101716,0.02601160397811383,75.26675545490573,75.20548219543437,0.0,0.1861400259766743,0.1,0.002985715866088867,0.05644702911376953,0.050280914,0.57941467,75.27010178840324,0.0,0.9898681006187513,0.0,300,0.0218660831451416,0.004438557855509624,0.00392485237019918,95100,75.24307505041806,0.0
317,1.842198371887207,75.2643481100261,0.014656857947123661,75.2852507370803,75.24453148872496,0.0,0.17429981655565088,0.1,0.0030202865600585938,0.058365583419799805,0.050009362,0.79012245,75.26952642056553,0.0,0.990059933115806,0.0,300,0.022525787353515625,0.004649462617668467,0.0028239887185498823,95400,75.25115982066472,0.0
318,1.8873975276947021,75.28998770127052,0.016940276110924832,75.30764473606999,75.26803812971539,0.0,0.1917637881850627,0.1,0.0029315948486328125,0.061263084411621094,0.050070945,0.6695317,75.27157254863602,0.0,0.9903955527317579,0.0,300,0.022357940673828125,0.006149520509187204,0.0034047254222851833,95700,75.24976096144484,0.0
319,1.8828251361846924,75.26647941677204,0.007714027010467538,75.27878826722102,75.25892853447473,0.0,0.18311097215158967,0.1,0.0029163360595703125,0.05679750442504883,0.04995182,0.58028173,75.27106323544962,0.0,0.9900918444939422,0.0,300,0.021761178970336914,0.005121340420270246,0.005181051440089416,96000,75.25193984407825,0.0
320,1.8193089962005615,75.26725311735915,0.00841141069852651,75.2807528569426,75.25851649082975,0.0,0.17743335412138256,0.1,0.0029478073120117188,0.057869911193847656,0.049983364,0.704721,75.27068222364058,0.0,0.9900971833110773,0.0,300,0.022193431854248047,0.007639551392843279,0.006372893735496828,96300,75.23991923527457,0.0
321,1.8322956562042236,75.2698733594626,0.0091324309916993,75.285603893649,75.26339777255448,0.0,0.1811580741068809,0.1,0.002939939498901367,0.0564570426940918,0.049829543,0.7374052,75.27060133722279,0.0,0.9901354414637963,0.0,300,0.02558588981628418,0.006123996418778016,0.004000508652853145,96600,75.21777551016393,0.0
322,1.8367829322814941,75.27591586276546,0.015424297095982566,75.30108262348212,75.26034631298724,0.0,0.17472416566598076,0.1,0.003070831298828125,0.059816598892211914,0.05015401,0.7970927,75.27113278977706,0.0,0.9902183081345233,0.0,300,0.02250194549560547,0.0026930996357914664,0.002843450836199243,96900,75.21848108575001,0.0
323,1.8815948963165283,75.25036095644802,0.012257724847712507,75.26071037350644,75.2295366858856,0.0,0.17595877082972788,0.1,0.003021240234375,0.05652737617492676,0.04944323,0.5772397,75.26905560644416,0.0,0.9899429932025291,0.0,300,0.02193284034729004,0.01113450850763472,0.006056096674825331,97200,75.21159663792945,0.0
324,1.8368101119995117,75.28224955407282,0.028051116245326628,75.31236596120021,75.2485623621221,0.0,0.18340948971007798,0.1,0.0029735565185546875,0.05689859390258789,0.050081596,0.621385,75.27037500120703,0.0,0.9903453239123883,0.0,300,0.024593114852905273,0.0064418788906007276,0.004083650393497218,97500,75.20466654433453,0.0
325,1.9030053615570068,75.29924317245646,0.05820983596769189,75.39977820702552,75.25883192083477,0.0,0.18681470993906105,0.1,0.0028944015502929688,0.06335020065307617,0.048437715,0.72875243,75.27326181833197,0.0,0.9905231807721581,0.0,300,0.026183605194091797,0.0034048557177558574,0.004102726524127895,97800,75.19637634415699,0.0
326,1.8543572425842285,75.2909978625533,0.047519192238016816,75.3730898358851,75.25813256410315,0.0,0.19045818762477407,0.1,0.0028171539306640625,0.05697369575500488,0.049729742,0.5524057,75.27503542275412,0.0,0.9904295609441564,0.0,300,0.02250051498413086,0.0057539317676429304,0.005201900487306904,98100,75.18852681582118,0.0
327,1.8676080703735352,75.2533566557247,0.05032481411445007,75.30862275244525,75.1714303484577,0.0,0.18485222651135066,0.1,0.003063678741455078,0.05724740028381348,0.050383657,0.6702397,75.27286754605117,0.0,0.9899634839821548,0.0,300,0.024596214294433594,0.004986397679812887,0.004819915791915908,98400,75.18792371191832,0.0
328,1.900251865386963,75.26580409318737,0.04296435511774153,75.32512639102586,75.20399444167573,0.0,0.16584426412750414,0.1,0.0033478736877441406,0.05614590644836426,0.04904125,0.7491214,75.2721612007648,0.0,0.9900750744311706,0.0,300,0.022063016891479492,0.006786943475719155,0.006153339688648102,98700,75.17523625615502,0.0
329,1.870539665222168,75.24978810598557,0.047263152176482914,75.283815728641,75.16900622310659,0.0,0.17995538094725655,0.1,0.0029594898223876953,0.05704760551452637,0.050041758,0.54978436,75.26992389128688,0.0,0.9899322879610565,0.0,300,0.040838003158569336,0.0036945295635176906,0.0030364841622620205,99000,75.1863332760786,0.0
330,1.8716106414794922,75.27789907175588,0.029489137760758326,75.32894630040187,75.25940194785137,0.0,0.17287403861029396,0.1,0.0028884410858154297,0.05962848663330078,0.049875215,0.65466815,75.27072140933379,0.0,0.9902439859516585,0.0,300,0.02218794822692871,0.0024261827232362238,0.002457430524047546,99300,75.21282176719998,0.0
331,1.854959487915039,75.24938483331465,0.022538296212591208,75.2649247431109,75.21062410599333,0.0,0.17714436396616842,0.1,0.0029516220092773438,0.05552864074707031,0.05037396,0.6464638,75.26858775173189,0.0,0.9898795786411874,0.0,300,0.024453401565551758,0.005729676534579714,0.003336075698980586,99600,75.21777796268886,0.0
332,1.851759672164917,75.28373521805281,0.029468062265656254,75.33107846727549,75.25896204935395,0.0,0.1779477273673839,0.1,0.0028853416442871094,0.055677175521850586,0.050175738,0.6655817,75.27010249836398,0.0,0.9903077432959324,0.0,300,0.02211308479309082,0.004907987745889938,0.004020399289395804,99900,75.20749540187907,0.0
333,1.9293620586395264,75.21884065974366,0.08236123977785625,75.26892319425404,75.0762374094225,0.0,0.1805800450356579,0.1,0.0028226375579833984,0.05529212951660156,0.050523136,0.72238934,75.26497631450195,0.0,0.9894988074254211,0.0,300,0.022257328033447266,0.003328823616396189,0.003030516956334877,100200,75.21631193236884,0.0
334,1.9502530097961426,75.27773716732474,0.020657735736493436,75.31289619298948,75.26137050372205,0.0,0.19105771951863532,0.1,0.002834796905517578,0.057250022888183594,0.049752984,0.5348613,75.26625239978422,0.0,0.9902204941507684,0.0,300,0.022429466247558594,0.006366937382379177,0.006003600087253658,100500,75.23727116439638,0.0
335,2.2727763652801514,75.28585097742622,0.022464358392980936,75.31483569555824,75.25759584827132,0.0,0.17359576800497395,0.1,0.003155946731567383,0.057875633239746094,0.049950786,0.57742536,75.26821225754843,0.0,0.9903358161468842,0.0,300,0.02271246910095215,0.0028791501059445726,0.0027160303940612063,100800,75.23740145336944,0.0
336,1.8217048645019531,75.2579793517659,0.018209362066986402,75.27415724760584,75.22711955253128,0.0,0.1698105620295914,0.1,0.0030431747436523438,0.059293270111083984,0.050608538,0.64468783,75.26718896697017,0.0,0.9899795223714289,0.0,300,0.023032426834106445,0.005320071060647171,0.004253096444462951,101100,75.23332017773394,0.0
337,1.9191961288452148,75.28049452053423,0.020557202839672647,75.31153952470662,75.2589967856309,0.0,0.16214961280340512,0.1,0.002977609634399414,0.05744218826293945,0.04837563,0.6145954,75.26851952232657,0.0,0.9902763707714584,0.0,300,0.023253679275512695,0.004621420105613957,0.004081232615210669,101400,75.22085173511414,0.0
338,1.892925500869751,75.26651457017802,0.007712237370364503,75.27898421096266,75.2587738168147,0.0,0.17687977384280634,0.1,0.003014087677001953,0.05858111381530762,0.05067363,0.50187415,75.26831902711172,0.0,0.9900871443646122,0.0,300,0.02319478988647461,0.023121557278975777,0.012419203577180713,101700,75.21479613602865,0.0
339,1.855727195739746,75.26749529759527,0.012558155041265673,75.28771488934048,75.25613799784644,0.0,0.186785602126377,0.1,0.0060863494873046875,0.05780768394470215,0.049834736,0.7619745,75.26823665416008,0.0,0.9900995688538513,0.0,300,0.023378610610961914,0.009609635365954978,0.006541932164579441,102000,75.20376594589924,0.0
340,1.9163804054260254,75.20111487029637,0.11556397524989695,75.2761947833024,75.00123836825216,0.0,0.19701861294649564,0.1,0.0029227733612060547,0.05648064613342285,0.049583662,0.90364766,75.26152447577371,0.0,0.9892946995291797,0.0,300,0.024564743041992188,0.005150589211873382,0.00526953468582391,102300,75.22302537663698,0.0
341,1.8652281761169434,75.26857969391125,0.006118555001301219,75.27446032272837,75.25836703937628,0.0,0.18866192750912544,0.1,0.003036975860595703,0.05840349197387695,0.05018088,0.66410154,75.26222999758747,0.0,0.9901168626547466,0.0,300,0.024029254913330078,0.007135450341653578,0.003037033307677732,102600,75.21428407366032,0.0
342,1.8506641387939453,75.16915492705832,0.17383233193174627,75.28739616142471,74.86868011130034,0.0,0.17914078290559673,0.1,0.002931356430053711,0.06213259696960449,0.049981304,0.56065065,75.25292249053456,0.0,0.9888762591001248,0.0,300,0.023126840591430664,0.0032760211301386187,0.0034686979328612828,102900,75.1962312425412,0.0
343,1.837594747543335,75.2501694697369,0.03480060165798696,75.27687960433201,75.19070691299905,0.0,0.1852586669810757,0.1,0.0028743743896484375,0.056092023849487305,0.049553126,0.67482114,75.2526471884548,0.0,0.9899055222709973,0.0,300,0.022760868072509766,0.00351667582040748,0.0028297627912753478,103200,75.20445248162615,0.0
344,1.8644959926605225,75.28381379783187,0.0342178414168073,75.34284817972491,75.25971821956956,0.0,0.18509632872764947,0.1,0.0028374195098876953,0.055847883224487305,0.049668845,0.63709533,75.25576384939251,0.0,0.9903256321138263,0.0,300,0.03873324394226074,0.0038606419269124146,0.002677474286081244,103500,75.20071262381931,0.0
345,1.8529865741729736,75.28358087707292,0.012910909565410385,75.29666924392417,75.26283114823666,0.0,0.1776734752440644,0.1,0.0028603076934814453,0.05632519721984863,0.05002683,0.7545186,75.25854555216056,0.0,0.9903129175513066,0.0,300,0.022773027420043945,0.003673000999348756,0.003986964308012564,103800,75.32677367169272,0.0
346,1.8525798320770264,75.28329608100815,0.023785020563898314,75.32260746385238,75.25925334037531,0.0,0.17021621337304568,0.1,0.0029942989349365234,0.05564403533935547,0.04934424,0.8086724,75.26102060504532,0.0,0.9902827920768159,0.0,300,0.02304387092590332,0.005967645529125625,0.004167718062584375,104100,75.2074193716668,0.0
347,1.9439992904663086,75.27846336834756,0.018099499577389305,75.30249183897666,75.25796744105278,0.0,0.20090351244445223,0.1,0.0029892921447753906,0.05788421630859375,0.049917705,0.64126605,75.26276488137555,0.0,0.9902487195829287,0.0,300,0.02605271339416504,0.004386582703109998,0.00311029370082885,104400,75.40032159326766,0.0
348,1.9023451805114746,75.2869676575935,0.016387520966415978,75.30774709894479,75.26590989955471,0.0,0.17908275079337618,0.1,0.0030336380004882812,0.056645870208740234,0.051056817,0.5959685,75.26518515899734,0.0,0.9903490155105361,0.0,300,0.0231015682220459,0.005286445540327153,0.005385827340607402,104700,75.2307341475672,0.0
349,1.9629590511322021,75.27007176219675,0.008426909506730975,75.28437294862006,75.26354446409448,0.0,0.17331181000877907,0.1,0.0030455589294433594,0.05579710006713867,0.050034687,0.82943267,75.26567381931727,0.0,0.9901372737203764,0.0,300,0.02458047866821289,0.0054980562481913645,0.00469568879794234,105000,75.23873297318583,0.0
350,1.9623863697052002,75.26252505545854,0.008201720067636772,75.27455790022404,75.25199037381073,0.0,0.19253909609679248,0.1,0.0029456615447998047,0.05677342414855957,0.049372286,0.73397636,75.2653589429314,0.0,0.9900421199038926,0.0,300,0.022783756256103516,0.005544197837922436,0.003390976937504616,105300,75.23964965588746,0.0
351,1.9346554279327393,75.22166702352158,0.12063558924389978,75.31453719497104,75.01488915671405,0.0,0.17544736886416887,0.1,0.0029697418212890625,0.056165218353271484,0.049745727,0.543216,75.26098975099042,0.0,0.989497375765575,0.0,300,0.02370929718017578,0.004808609688519162,0.004795520508919813,105600,75.2445843546344,0.0
352,1.9306886196136475,75.20594751717617,0.10825235254740602,75.28858485538265,75.01974087162137,0.0,0.16781657295398744,0.1,0.00281524658203125,0.055338144302368164,0.04989868,0.65472394,75.25548552760898,0.0,0.9893901340490643,0.0,300,0.02291083335876465,0.006408610956220982,0.004740376304137398,105900,75.24173535054341,0.0
353,1.9199113845825195,75.24820626518043,0.029537157124055597,75.26706190431672,75.19715709344496,0.0,0.18986880922135863,0.1,0.002933502197265625,0.05612587928771973,0.049716022,0.6298366,75.25475760136612,0.0,0.9899058914656228,0.0,300,0.02292037010192871,0.0057235025409128485,0.00585228198378977,106200,75.24109929475348,0.0
354,1.923750877380371,75.25872477391556,0.07590771905917504,75.34493640031441,75.13794628697406,0.0,0.17188596243528956,0.1,0.0029439926147460938,0.05949902534484863,0.04999201,0.7719864,75.25515431862107,0.0,0.9900273720986005,0.0,300,0.025446176528930664,0.004444994251833294,0.0034803269000049557,106500,75.24498947728068,0.0
355,1.9618432521820068,75.29466703339911,0.022128234723768205,75.32701286853977,75.26619323656293,0.0,0.17409627382222645,0.1,0.002944469451904297,0.05718255043029785,0.04902817,0.54362136,75.25910559009887,0.0,0.9904520293109699,0.0,300,0.025063514709472656,0.005768463063458858,0.0029348933952415956,106800,75.24709183252439,0.0
356,1.9437246322631836,75.26435161912698,0.0051721102905299375,75.27135351274093,75.25727938635805,0.0,0.16578730688249282,0.1,0.002858877182006836,0.056293487548828125,0.05007693,0.62074107,75.25963019300168,0.0,0.9900536142078202,0.0,300,0.02272343635559082,0.0036804619817348873,0.0037055485438537137,107100,75.2505411565827,0.0
357,1.842627763748169,75.30201345027709,0.05398362422216587,75.39406961294597,75.25995951553367,0.0,0.1829376405876774,0.1,0.0031499862670898438,0.05643463134765625,0.050007854,0.67624134,75.26386851872923,0.0,0.9905535327386751,0.0,300,0.02336883544921875,0.00587699122577657,0.004698297341587293,107400,75.25700748796727,0.0
358,1.8673198223114014,75.24276858868289,0.05381762539066981,75.29041496110631,75.1531944194652,0.0,0.16887011616774295,0.1,0.0029320716857910156,0.05687117576599121,0.049927536,0.62947917,75.2617585257246,0.0,0.9897751749748822,0.0,300,0.02358269691467285,0.007936518262803038,0.004000959247612558,107700,75.25682512159675,0.0
359,1.910762071609497,75.22061228660581,0.060138527740012916,75.27814252655826,75.13451348462709,0.0,0.18228893498847895,0.1,0.003012418746948242,0.056797027587890625,0.050397858,0.72860473,75.25764390181271,0.0,0.9895047779500833,0.0,300,0.02497243881225586,0.005520010171889248,0.004781227235685317,108000,75.2567797630228,0.0
360,1.8568291664123535,75.25072470036179,0.051081747421970775,75.2972116980348,75.16576121844457,0.0,0.18748554847590865,0.1,0.0029976367950439453,0.05650210380554199,0.049169376,0.70380914,75.25695198166763,0.0,0.9899111519039633,0.0,300,0.025223970413208008,0.0021714806010812962,0.002567680944006409,108300,75.25684144214897,0.0
361,1.883235216140747,75.2378911975945,0.09097642420476007,75.30893467066036,75.081616133362,0.0,0.17500186897082987,0.1,0.0030524730682373047,0.0565943717956543,0.04905266,0.7350131,75.25504590326031,0.0,0.9897586891267102,0.0,300,0.023441314697265625,0.00382071375576075,0.0034771939134870897,108600,75.25683664755763,0.0
362,1.9231109619140625,75.22529852129502,0.06682548635529924,75.30991381553004,75.13845052648497,0.0,0.17765860036769585,0.1,0.0029649734497070312,0.05674600601196289,0.049347788,0.93799376,75.2520711650638,0.0,0.9895916769009927,0.0,300,0.024255990982055664,0.005730408035482989,0.005403637677164905,108900,75.25690891575822,0.0
363,1.8652708530426025,75.16013435601359,0.15855543260670746,75.30808300032004,74.89783356230544,0.0,0.17974203982223044,0.1,0.0029289722442626953,0.05657482147216797,0.049673494,0.4910546,75.24287748415878,0.0,0.9887697779985194,0.0,300,0.0233461856842041,0.0033065454897608622,0.0031831581410027175,109200,75.25704367333242,0.0
364,1.8259751796722412,75.26848437838073,0.0049825668731239324,75.27483466853948,75.2608966711169,0.0,0.17224333664929314,0.1,0.0032105445861816406,0.05604839324951172,0.049647752,0.6179689,75.24543817358098,0.0,0.9901289899602969,0.0,300,0.02514481544494629,0.0049911670169330334,0.004174259185357258,109500,75.25702411000599,0.0
