Iter | Sampling Pol | Evaluation Pol | Best (Sampled) 
   0 19.32 21.34 -100000000.00 
   1  6.26 24.57 19.32 
   2 15.78 20.33 19.32 
   3 -0.25 22.76 19.32 
   4 12.56 21.26 19.32 
   5  6.51 29.97 19.32 
   6 21.61 25.59 19.32 
   7 14.83 10.53 21.61 
   8 19.34 29.11 21.61 
   9 16.60 25.51 21.61 
  10 14.06 27.88 21.61 
  11 22.34 30.02 21.61 
  12 27.38 29.38 22.34 
  13 20.59 15.97 27.38 
  14 21.39 28.64 27.38 
  15 20.36 22.53 27.38 
  16 14.34 27.20 27.38 
  17 23.87 25.93 27.38 
  18  0.00 28.77 27.38 
  19 16.56 23.18 27.38 
  20 11.85 19.73 27.38 
  21 16.08 22.85 27.38 
  22  5.82 23.42 27.38 
  23 25.66 23.84 27.38 
  24 20.38 31.05 27.38 
  25 25.09 21.83 27.38 
  26 10.52 28.46 27.38 
  27 26.87 27.34 27.38 
  28  4.04 19.91 27.38 
  29 23.34 24.24 27.38 
  30 30.60 17.73 27.38 
  31 16.79 22.15 30.60 
  32 42.43 16.25 30.60 
  33 18.08 21.93 42.43 
  34 14.79 29.10 42.43 
  35  9.80 27.70 42.43 
  36 24.45 20.40 42.43 
  37 31.71 22.58 42.43 
  38 20.64 36.42 42.43 
  39 27.17 14.81 42.43 
  40 17.91 22.53 42.43 
  41 14.81 19.09 42.43 
  42 11.32 21.28 42.43 
  43 24.48 23.38 42.43 
  44 21.48 27.51 42.43 
  45  8.54 14.92 42.43 
  46 14.60 28.48 42.43 
  47 30.95 19.26 42.43 
  48 22.12 15.75 42.43 
  49 14.05 25.22 42.43 
  50 24.55 17.61 42.43 
  51 21.86 18.46 42.43 
  52 25.99 19.69 42.43 
  53 22.18 20.87 42.43 
  54 36.13 15.70 42.43 
  55 13.07 20.15 42.43 
  56 13.79 17.62 42.43 
  57 19.35 15.76 42.43 
  58 17.92 19.25 42.43 
  59 13.29 21.60 42.43 
  60 23.65 23.06 42.43 
  61 20.33 26.55 42.43 
  62 22.39 19.65 42.43 
  63 33.68 29.28 42.43 
  64 28.60 25.37 42.43 
  65 17.15 32.68 42.43 
  66  3.80 22.52 42.43 
  67 14.58 25.12 42.43 
  68 16.89 24.50 42.43 
  69 10.30 20.72 42.43 
  70 13.32 21.26 42.43 
  71 13.31 18.25 42.43 
  72 10.06 19.39 42.43 
  73 17.88 21.85 42.43 
  74 22.58 18.80 42.43 
  75 15.34 17.60 42.43 
  76 15.81 14.59 42.43 
  77 25.84 19.38 42.43 
  78 31.64 16.85 42.43 
  79 14.80 21.88 42.43 
  80 15.60 19.15 42.43 
  81 20.63 16.96 42.43 
  82 19.85 18.73 42.43 
  83 19.15 13.94 42.43 
  84 24.68 14.99 42.43 
  85 24.53 15.92 42.43 
  86 19.05 22.80 42.43 
  87 27.62 17.62 42.43 
  88 16.11 17.32 42.43 
  89 22.91 14.91 42.43 
  90 13.85 21.82 42.43 
  91 25.59 13.24 42.43 
  92 20.31 14.34 42.43 
  93 12.55 14.12 42.43 
  94  7.04 12.72 42.43 
  95 22.56 16.48 42.43 
  96 17.65 14.81 42.43 
  97 35.56 17.76 42.43 
  98 22.00 18.16 42.43 
  99 20.63 16.58 42.43 
 100 19.58 29.97 42.43 
 101 31.41 20.77 42.43 
 102 15.31 21.75 42.43 
 103 36.36 26.08 42.43 
 104 28.56 18.99 42.43 
 105 30.48 15.21 42.43 
 106 18.61 19.23 42.43 
 107 22.13 16.21 42.43 
 108 17.12 16.99 42.43 
 109 34.89 25.74 42.43 
 110 26.88 21.41 42.43 
 111 31.66 21.60 42.43 
 112  9.29 16.06 42.43 
 113 14.07 11.04 42.43 
 114 32.21 14.05 42.43 
 115 10.86 22.23 42.43 
 116  3.28 25.41 42.43 
 117 14.32 24.69 42.43 
 118 21.91 14.13 42.43 
 119 23.37 19.93 42.43 
 120 14.30 15.05 42.43 
 121 13.32 23.31 42.43 
 122 25.84 16.75 42.43 
 123  8.81 21.06 42.43 
 124 12.54 19.64 42.43 
 125 18.09 15.56 42.43 
 126 11.28 13.34 42.43 
 127 16.83 17.88 42.43 
 128 16.32 18.39 42.43 
 129 24.34 18.65 42.43 
 130 15.87 16.74 42.43 
 131 21.91 18.58 42.43 
 132 25.71 13.06 42.43 
 133 20.32 23.18 42.43 
 134 17.37 14.65 42.43 
 135 12.29 19.06 42.43 
 136 13.53 20.98 42.43 
 137 11.32 24.00 42.43 
 138 27.86 18.80 42.43 
 139 17.57 21.25 42.43 
 140 19.10 18.90 42.43 
 141 24.64 17.89 42.43 
 142 34.84 17.47 42.43 
 143 17.31 21.25 42.43 
 144 20.07 27.35 42.43 
 145 11.30 25.66 42.43 
 146 17.39 15.13 42.43 
 147 18.86  9.46 42.43 
 148  9.29 22.59 42.43 
 149 13.04 21.95 42.43 
 150 15.58 15.31 42.43 
 151 30.12 28.03 42.43 
 152 10.31 18.33 42.43 
 153 22.56 14.96 42.43 
 154 31.89 26.84 42.43 
 155 20.82 20.44 42.43 
 156 23.08 20.93 42.43 
 157 25.10 11.89 42.43 
 158 30.37 17.61 42.43 
 159 26.62 20.35 42.43 
 160 29.05 23.46 42.43 
 161 14.32 24.69 42.43 
 162 17.89 30.60 42.43 
 163 21.68 19.94 42.43 
 164 23.62 25.70 42.43 
 165 29.95 24.14 42.43 
 166 30.11 25.69 42.43 
 167 20.06 26.58 42.43 
 168 23.35 21.70 42.43 
 169 16.29 18.53 42.43 
 170 13.35 17.86 42.43 
 171 11.07 28.36 42.43 
 172 12.84 25.43 42.43 
 173 32.59 26.95 42.43 
 174 28.56 23.90 42.43 
 175  4.26 22.75 42.43 
 176 19.05 16.78 42.43 
 177 23.09 22.73 42.43 
 178 24.58 24.00 42.43 
 179  9.06 28.21 42.43 
 180 10.04 14.58 42.43 
 181 22.83 19.62 42.43 
 182 14.81 32.46 42.43 
 183 31.39 22.82 42.43 
 184 28.82 21.20 42.43 
 185 17.33 24.14 42.43 
 186 13.81 20.70 42.43 
 187 15.82 17.40 42.43 
 188  8.79 24.27 42.43 
 189 26.46 18.40 42.43 
 190 20.08 20.25 42.43 
 191 14.14 23.28 42.43 
 192 17.85 21.18 42.43 
 193  6.51 25.71 42.43 
 194 15.34 23.70 42.43 
 195  9.80 16.58 42.43 
 196 30.87 22.20 42.43 
 197 23.59  5.35 42.43 
 198 40.65 24.46 42.43 
 199 29.10 16.92 42.43 
 200 19.33 22.17 42.43 
 201 21.28 17.24 42.43 
 202 18.58 22.10 42.43 
 203 17.31 16.23 42.43 
 204 12.28 18.94 42.43 
 205 38.64 26.21 42.43 
 206 25.11 22.26 42.43 
 207 23.34 17.81 42.43 
 208 26.36 22.41 42.43 
 209 19.30 21.42 42.43 
 210 16.81 23.10 42.43 
 211 20.08 22.34 42.43 
 212 18.11 29.00 42.43 
 213 27.85 29.68 42.43 
 214 16.30 20.96 42.43 
 215 14.82 27.17 42.43 
 216 26.34 28.46 42.43 
 217 20.86 17.43 42.43 
 218 20.57 16.13 42.43 
 219 25.91 20.91 42.43 
 220 16.39 21.67 42.43 
 221 25.36 27.10 42.43 
 222 14.27 20.93 42.43 
 223 20.56 19.67 42.43 
 224 20.33 17.46 42.43 
 225 20.56  7.77 42.43 
 226 25.84 11.02 42.43 
 227 23.86  7.95 42.43 
 228 17.83  8.04 42.43 
 229  8.81  9.19 42.43 
 230 11.54  8.54 42.43 
 231  5.26  7.53 42.43 
 232 13.03  9.63 42.43 
 233 15.79  8.69 42.43 
 234 27.60  9.55 42.43 
 235  6.29  8.43 42.43 
 236 15.54  8.79 42.43 
 237 25.61  8.24 42.43 
 238 16.52  9.60 42.43 
 239 16.90  9.96 42.43 
 240 12.80  9.30 42.43 
 241  8.27 23.17 42.43 
 242 19.05 16.15 42.43 
 243 18.89 12.36 42.43 
 244 20.03 12.86 42.43 
 245 23.85 27.98 42.43 
 246 20.06 12.20 42.43 
 247 19.11 12.44 42.43 
 248 11.79 11.48 42.43 
 249 16.80 11.39 42.43 
 250 31.13 15.22 42.43 
 251 18.35 27.36 42.43 
 252 16.57 22.56 42.43 
 253 18.54 25.98 42.43 
 254 17.39 17.37 42.43 
 255 15.79 25.18 42.43 
 256 29.87 17.13 42.43 
 257 19.58 26.96 42.43 
 258 21.82 19.06 42.43 
 259 22.10 28.84 42.43 
 260 10.81 23.05 42.43 
 261 26.09 21.00 42.43 
 262 23.32 28.26 42.43 
 263 15.81 12.47 42.43 
 264 21.06 29.35 42.43 
 265 11.58 24.07 42.43 
 266 23.12 14.71 42.43 
 267 22.09 24.77 42.43 
 268 31.62 27.26 42.43 
 269 13.53 28.34 42.43 
 270 25.60 23.60 42.43 
 271 17.38 26.15 42.43 
 272 21.08 21.26 42.43 
 273 19.30 23.00 42.43 
 274 22.36 19.07 42.43 
 275 16.04 16.38 42.43 
 276 13.55 17.13 42.43 
 277 26.85 19.07 42.43 
 278 22.63 25.26 42.43 
 279 21.33 15.89 42.43 
 280 18.80 23.41 42.43 
 281 22.37 33.37 42.43 
 282 13.30 16.25 42.43 
 283 45.19 20.76 42.43 
 284 19.55 22.65 45.19 
 285 21.65 22.67 45.19 
 286 22.58 17.73 45.19 
 287 28.11 25.42 45.19 
 288 21.10 25.74 45.19 
 289  8.78 17.14 45.19 
 290 17.58 14.04 45.19 
 291 32.41 18.25 45.19 
 292 12.07 17.72 45.19 
 293 13.30 19.89 45.19 
 294 20.61 29.86 45.19 
 295 14.28 19.82 45.19 
 296  9.52 26.41 45.19 
 297 11.78 20.75 45.19 
 298  3.36 19.75 45.19 
 299  8.55 25.63 45.19 
 300 12.31 20.06 45.19 
 301 28.14 23.15 45.19 
 302 13.78 13.87 45.19 
 303 25.59 16.92 45.19 
 304 17.80 26.01 45.19 
 305 31.87 19.48 45.19 
 306 24.33 13.72 45.19 
 307 29.17 32.29 45.19 
 308 30.61 35.13 45.19 
 309 32.85 25.25 45.19 
 310 18.09 11.72 45.19 
 311 16.54  6.69 45.19 
 312 18.07 20.68 45.19 
 313 23.61 26.78 45.19 
 314 25.37 20.16 45.19 
 315 18.82 22.88 45.19 
 316 20.80 19.46 45.19 
 317 31.67 24.32 45.19 
 318 20.12 35.11 45.19 
 319 20.05 15.85 45.19 
 320 31.60 24.86 45.19 
 321 21.33 17.53 45.19 
 322 30.39 14.91 45.19 
 323  8.79 23.99 45.19 
 324 30.59 29.95 45.19 
 325 26.59 24.80 45.19 
 326 28.14 20.91 45.19 
 327 16.80 22.57 45.19 
 328  7.28 22.85 45.19 
 329 16.10 20.31 45.19 
 330 27.31 17.52 45.19 
 331 15.84 18.59 45.19 
 332 23.86 29.89 45.19 
 333 33.88 15.01 45.19 
 334 31.86 27.72 45.19 
 335 20.08 18.84 45.19 
 336 24.34 26.22 45.19 
 337 11.29 18.06 45.19 
 338 26.38 24.06 45.19 
 339 20.54 17.00 45.19 
 340 28.36 17.33 45.19 
 341 18.62 26.29 45.19 
 342 28.38 21.59 45.19 
 343  8.53  9.21 45.19 
 344 22.36 24.29 45.19 
 345 36.17 20.67 45.19 
 346 29.90 20.40 45.19 
 347 27.50 20.16 45.19 
 348 10.06 20.41 45.19 
 349 11.35 27.10 45.19 
 350 10.55 22.43 45.19 
 351  5.78 23.27 45.19 
 352 31.10 21.26 45.19 
 353 28.36 22.66 45.19 
 354 14.81 29.52 45.19 
 355 21.86 22.69 45.19 
 356 20.56 20.22 45.19 
 357 19.32 15.15 45.19 
 358 21.38 21.94 45.19 
 359 30.34 19.39 45.19 
 360 22.83 21.33 45.19 
 361 16.80 20.66 45.19 
 362  8.27 24.66 45.19 
 363  4.30 25.05 45.19 
 364 25.86 25.95 45.19 
 365 24.62 27.63 45.19 
 366 24.34 16.51 45.19 
 367 21.13 21.79 45.19 
 368 24.14 16.95 45.19 
 369 18.82 18.95 45.19 
 370 19.60 21.02 45.19 
 371 23.91 24.24 45.19 
 372 23.85 22.87 45.19 
 373 20.57 18.93 45.19 
 374 15.35 14.94 45.19 
 375 28.60 23.31 45.19 
 376 23.09 19.25 45.19 
 377 13.84 25.29 45.19 
 378 27.86 23.78 45.19 
 379  7.03 23.96 45.19 
 380 15.57 16.10 45.19 
 381 17.05 16.43 45.19 
 382 19.12 19.39 45.19 
 383 16.56 20.02 45.19 
 384 26.59 19.87 45.19 
 385 14.61 19.33 45.19 
 386 35.64 24.11 45.19 
 387 16.08 24.36 45.19 
 388 16.10 15.98 45.19 
 389 16.78 18.41 45.19 
 390 41.19 19.66 45.19 
 391 18.63 23.26 45.19 
 392  3.01 18.23 45.19 
 393 32.11 20.27 45.19 
 394 10.53 20.15 45.19 
 395 24.37 30.26 45.19 
 396 26.13 24.93 45.19 
 397 24.82 14.48 45.19 
 398  9.78 21.17 45.19 
 399 18.08 14.05 45.19 
 400  8.78 23.49 45.19 
 401 34.95 19.46 45.19 
 402 23.41 23.09 45.19 
 403 15.84 24.92 45.19 
 404 13.79 30.70 45.19 
 405 28.57 17.00 45.19 
 406 36.38 22.16 45.19 
 407 19.84 16.32 45.19 
 408 28.16 22.66 45.19 
 409 14.53 25.84 45.19 
 410  7.52 22.49 45.19 
 411 29.97 22.15 45.19 
 412  3.52 24.83 45.19 
 413 12.82 17.81 45.19 
 414 36.40 10.80 45.19 
 415 33.36  9.36 45.19 
 416 24.33 17.48 45.19 
 417 14.32 25.74 45.19 
 418  8.53 18.38 45.19 
 419 25.09 24.98 45.19 
 420 23.11 19.24 45.19 
 421 23.58 21.74 45.19 
 422 17.34 26.23 45.19 
 423 19.38 27.94 45.19 
 424 21.83 27.00 45.19 
 425 19.74 26.35 45.19 
 426 23.60 21.67 45.19 
 427 21.40 18.91 45.19 
 428 17.31 14.97 45.19 
 429 29.16 22.67 45.19 
 430 13.80 20.64 45.19 
 431 21.08 25.65 45.19 
 432 17.70 20.39 45.19 
 433  7.01 28.74 45.19 
 434 13.53 17.98 45.19 
 435 17.53 14.29 45.19 
 436 14.80 13.12 45.19 
 437 11.29 16.74 45.19 
 438 22.29 25.99 45.19 
 439  7.29 29.63 45.19 
 440 22.85 28.92 45.19 
 441 28.37 26.99 45.19 
 442 20.62 19.90 45.19 
 443 10.30 21.57 45.19 
 444 13.80 18.98 45.19 
 445 26.90 17.13 45.19 
 446 14.56 22.74 45.19 
 447 16.55 20.07 45.19 
 448 17.29 24.77 45.19 
 449 24.62 19.41 45.19 
 450 15.61 16.47 45.19 
 451 27.09 17.36 45.19 
 452 30.35 27.01 45.19 
 453 15.86 18.36 45.19 
 454 29.89 17.05 45.19 
 455 11.54 15.97 45.19 
 456 18.88 16.74 45.19 
 457 26.41 27.01 45.19 
 458 15.79 20.00 45.19 
 459 29.61 19.81 45.19 
 460 24.56 16.90 45.19 
 461 12.79 26.29 45.19 
 462 13.56 22.77 45.19 
 463 12.29 22.05 45.19 
 464 29.84 19.79 45.19 
 465 11.06 18.80 45.19 
 466 14.29 29.28 45.19 
 467 17.28 23.81 45.19 
 468 29.32 20.31 45.19 
 469 21.82 15.24 45.19 
 470 21.05 22.71 45.19 
 471 19.37 18.90 45.19 
 472 18.07 14.67 45.19 
 473 10.28 14.70 45.19 
 474 36.11 21.24 45.19 
 475 23.07 16.47 45.19 
 476 10.29 17.06 45.19 
 477 15.59 15.71 45.19 
 478 16.59 15.38 45.19 
 479 26.57 19.25 45.19 
 480 21.36  9.61 45.19 
 481 28.36 24.23 45.19 
 482 13.32 17.72 45.19 
 483 11.13 22.76 45.19 
 484 15.79 17.65 45.19 
 485 15.31 21.23 45.19 
 486 21.36 19.33 45.19 
 487  6.78 18.55 45.19 
 488 16.54 17.17 45.19 
 489  9.01 17.14 45.19 
 490 13.38 20.47 45.19 
 491  4.77 21.07 45.19 
 492 33.66 15.88 45.19 
 493 29.25 21.82 45.19 
 494 16.62 16.82 45.19 
 495 34.90 21.26 45.19 
 496 17.55 25.15 45.19 
 497 22.93 24.99 45.19 
 498 16.33 19.21 45.19 
 499 17.54 20.82 45.19 
 500 26.60 23.01 45.19 
 501 16.31 24.24 45.19 
 502 24.36 14.21 45.19 
 503  9.84 17.04 45.19 
 504 19.08 18.58 45.19 
 505 24.59 13.89 45.19 
 506 13.55 16.06 45.19 
 507 28.35 22.82 45.19 
 508 43.02 20.47 45.19 
 509 14.32 17.81 45.19 
 510  1.75 19.16 45.19 
 511 11.55 12.66 45.19 
 512 25.13 20.06 45.19 
 513  3.77 18.15 45.19 
 514 22.84 18.38 45.19 
 515 32.58 20.89 45.19 
 516 16.07 13.45 45.19 
 517 30.91 18.16 45.19 
 518 21.56 14.21 45.19 
 519 19.07 20.73 45.19 
 520 20.79  9.07 45.19 
 521 24.35 15.97 45.19 
 522 19.12 12.39 45.19 
 523  6.77 21.56 45.19 
 524 26.61 21.56 45.19 
 525 21.81 19.80 45.19 
 526 26.34 14.31 45.19 
 527 13.32 14.30 45.19 
 528  3.56 16.13 45.19 
 529 10.06  7.20 45.19 
 530 26.91 20.00 45.19 
 531 20.54 19.74 45.19 
 532 18.57 18.82 45.19 
 533 19.88 24.94 45.19 
 534 34.67 15.39 45.19 
 535 18.55 22.69 45.19 
 536 10.52 12.45 45.19 
 537 20.59 19.53 45.19 
 538 20.55 17.82 45.19 
 539 23.56 14.96 45.19 
 540 25.05 16.55 45.19 
 541 21.85  8.45 45.19 
 542 28.85 10.46 45.19 
 543 22.32 20.26 45.19 
 544 16.30 21.08 45.19 
 545 21.58 23.07 45.19 
 546 16.32 14.88 45.19 
 547 14.59 14.63 45.19 
 548 18.54 17.55 45.19 
 549 27.61 22.51 45.19 
 550 23.11 18.30 45.19 
 551 25.11 11.96 45.19 
 552 25.38 24.63 45.19 
 553 16.30 22.35 45.19 
 554 17.60 14.31 45.19 
 555 21.10 23.50 45.19 
 556 19.83 27.34 45.19 
 557 18.35 20.51 45.19 
 558 25.59 23.24 45.19 
 559 18.07 21.76 45.19 
 560 12.81 15.65 45.19 
 561 12.78 20.83 45.19 
 562 10.29 19.73 45.19 
 563 12.28 21.83 45.19 
 564 19.08 20.09 45.19 
 565 14.29 18.66 45.19 
 566 12.05 23.23 45.19 
 567 21.35 22.00 45.19 
 568 20.36 16.32 45.19 
 569 29.38 24.34 45.19 
 570  8.53 17.68 45.19 
 571 24.62 18.91 45.19 
 572 14.31 17.70 45.19 
 573 17.08 21.94 45.19 
 574 13.30 28.73 45.19 
 575 14.06 11.89 45.19 
 576 14.84 21.94 45.19 
 577 29.62 18.66 45.19 
 578 13.59 18.34 45.19 
 579 12.41 20.16 45.19 
 580 21.42 17.33 45.19 
 581 21.06 22.74 45.19 
 582 23.07 21.48 45.19 
 583 18.36 17.15 45.19 
 584  7.27 18.92 45.19 
 585 27.65 21.41 45.19 
 586 14.64 15.77 45.19 
 587 13.79 18.48 45.19 
 588 25.84 18.31 45.19 
 589 17.63 21.34 45.19 
 590 14.03 21.43 45.19 
 591 15.04 17.30 45.19 
 592 13.04 22.66 45.19 
 593 27.89 27.00 45.19 
 594 15.08 25.26 45.19 
 595 24.88 26.66 45.19 
 596 25.09 23.18 45.19 
 597 24.88 16.05 45.19 
 598 24.10 18.57 45.19 
 599 26.96 19.21 45.19 
 600 25.37 23.41 45.19 
 601 19.85 19.97 45.19 
 602 20.38 16.88 45.19 
 603  5.76 19.55 45.19 
 604 25.89 25.75 45.19 
 605 16.82 18.14 45.19 
 606 22.10 15.34 45.19 
 607  7.26 22.35 45.19 
 608 22.55 19.65 45.19 
 609 23.33 27.65 45.19 
 610 29.36 22.46 45.19 
 611 14.03 26.01 45.19 
 612 16.05 20.32 45.19 
 613 23.12 20.60 45.19 
 614 13.29 10.63 45.19 
 615 23.83 19.39 45.19 
 616 34.44 18.39 45.19 
 617 23.82 15.29 45.19 
 618 17.84 15.07 45.19 
 619  8.53 18.48 45.19 
 620 35.13 19.80 45.19 
 621 14.07 20.32 45.19 
 622 14.83 22.91 45.19 
 623  9.77 18.33 45.19 
 624 29.20 20.42 45.19 
 625 21.61 24.65 45.19 
 626 34.62 15.98 45.19 
 627 20.61 22.07 45.19 
 628 22.56 18.90 45.19 
 629 32.44 23.33 45.19 
 630  7.28 13.13 45.19 
 631  9.27 18.75 45.19 
 632 15.07 17.17 45.19 
 633 23.84 18.98 45.19 
 634 24.87 23.17 45.19 
 635 24.31 23.40 45.19 
 636 13.04 23.09 45.19 
 637 27.33 24.09 45.19 
 638 22.32 20.74 45.19 
 639  6.77 19.50 45.19 
 640 16.36 18.81 45.19 
 641 24.67 17.97 45.19 
 642 23.81 20.34 45.19 
 643 27.10 10.70 45.19 
 644 11.28 21.49 45.19 
 645 13.77 14.37 45.19 
 646  9.03 16.31 45.19 
 647 26.09 22.40 45.19 
 648 19.84 19.14 45.19 
 649 21.85 11.36 45.19 
 650 23.87 13.72 45.19 
 651 22.34 17.38 45.19 
 652 17.82 26.18 45.19 
 653 28.44 17.73 45.19 
 654 12.35 18.92 45.19 
 655 24.09 16.29 45.19 
 656 28.39 19.22 45.19 
 657 23.87 19.23 45.19 
 658 29.10 19.64 45.19 
 659 28.05 16.30 45.19 
 660 17.56 20.48 45.19 
 661 23.15 17.97 45.19 
 662 17.60 25.65 45.19 
 663 28.16 16.98 45.19 
 664 22.57 18.30 45.19 
 665 15.86 17.80 45.19 
 666 18.15 11.47 45.19 
 667 25.91 14.88 45.19 
 668 16.12 10.28 45.19 
 669  4.27 21.08 45.19 
 670 27.84 22.85 45.19 
 671  8.77 25.43 45.19 
 672 25.89 20.65 45.19 
 673 18.10 16.14 45.19 
 674 14.61 19.93 45.19 
 675 25.32 21.10 45.19 
 676 23.11 20.34 45.19 
 677 21.66 18.55 45.19 
 678 33.00 19.14 45.19 
 679 19.32 14.77 45.19 
 680 10.83 11.89 45.19 
 681 27.48 16.72 45.19 
 682 19.98 21.71 45.19 
 683 34.39 28.04 45.19 
 684 21.91 20.85 45.19 
 685 20.66 20.95 45.19 
 686 15.31 15.93 45.19 
 687 21.08 19.15 45.19 
 688 18.34 24.68 45.19 
 689  4.26 23.20 45.19 
 690 17.90 21.60 45.19 
 691 24.88 23.70 45.19 
 692 10.07 30.49 45.19 
 693 24.08 21.17 45.19 
 694 29.20 21.98 45.19 
 695 15.05 19.72 45.19 
 696 37.87 24.26 45.19 
 697 27.88 24.17 45.19 
 698 18.84 15.22 45.19 
 699 19.33 23.55 45.19 
 700 11.80 24.62 45.19 
 701 29.58 29.35 45.19 
 702 23.15 12.79 45.19 
 703 19.95 35.18 45.19 
 704 13.32 31.25 45.19 
 705 36.12 21.27 45.19 
 706 31.67 17.64 45.19 
 707 20.82 30.36 45.19 
 708 27.94 20.47 45.19 
 709 29.74 20.67 45.19 
 710 21.11 16.06 45.19 
 711 23.07 26.08 45.19 
 712 15.55 31.02 45.19 
 713 28.69 15.90 45.19 
 714 28.63 19.02 45.19 
 715 24.61 29.66 45.19 
 716 19.58 17.84 45.19 
 717  9.55 22.50 45.19 
 718 28.67 15.07 45.19 
 719 19.42 25.83 45.19 
 720 22.70 22.16 45.19 
 721 23.46 32.09 45.19 
 722 19.46 25.11 45.19 
 723 22.55 20.48 45.19 
 724 20.68 16.16 45.19 
 725 23.59 24.33 45.19 
 726 16.05 28.17 45.19 
 727 14.53 17.04 45.19 
 728 17.59 27.67 45.19 
 729  6.54 21.45 45.19 
 730 31.86 25.85 45.19 
 731  7.04 21.01 45.19 
 732 12.56 32.16 45.19 
 733 18.71 24.12 45.19 
 734 17.10 11.53 45.19 
 735 31.39 28.68 45.19 
 736 43.41 17.82 45.19 
 737 17.63 24.69 45.19 
 738 23.60 19.13 45.19 
 739 28.11 22.32 45.19 
 740 29.62 19.65 45.19 
 741 23.13 18.60 45.19 
 742  8.29 25.22 45.19 
 743 21.94 17.95 45.19 
 744 23.37 15.27 45.19 
 745  1.27 13.49 45.19 
 746 14.54 16.06 45.19 
 747 27.47 27.50 45.19 
 748 30.21 20.77 45.19 
 749 12.90 29.91 45.19 
 750 17.32 25.66 45.19 
 751 25.85 26.28 45.19 
 752 22.33 20.54 45.19 
 753  7.26 15.57 45.19 
 754  6.28 22.75 45.19 
 755 20.58 23.89 45.19 
 756 14.14 22.24 45.19 
 757 13.87 21.53 45.19 
 758  3.52 23.92 45.19 
 759 42.53 18.74 45.19 
 760 22.88 21.48 45.19 
 761 18.16 22.96 45.19 
 762 27.62 27.14 45.19 
 763  6.27 29.29 45.19 
 764 29.34 20.42 45.19 
 765 17.30 21.00 45.19 
 766 25.15 28.15 45.19 
 767 14.31 28.00 45.19 
 768 16.07 28.57 45.19 
 769 20.71 18.92 45.19 
 770 10.80 20.73 45.19 
 771 14.54 18.15 45.19 
 772 11.67 21.41 45.19 
 773 25.61 20.33 45.19 
 774 12.56 16.15 45.19 
 775 11.06 28.37 45.19 
 776 21.39 26.19 45.19 
 777 29.52 19.23 45.19 
 778 18.15 18.81 45.19 
 779 18.57 16.49 45.19 
 780  9.79 19.06 45.19 
 781 35.64 25.42 45.19 
 782 11.55 23.82 45.19 
 783 21.88 30.59 45.19 
 784 27.72 22.27 45.19 
 785 10.29 22.56 45.19 
 786 28.16 14.63 45.19 
 787 20.13 16.40 45.19 
 788 18.80 22.91 45.19 
 789 23.57 32.03 45.19 
 790 22.45 24.41 45.19 
 791 23.41 15.54 45.19 
 792 34.44 25.25 45.19 
 793 29.37 22.68 45.19 
 794 37.50 31.34 45.19 
 795 15.57 17.88 45.19 
 796 12.54 30.44 45.19 
 797  9.55 18.99 45.19 
 798 20.82 28.18 45.19 
 799 13.28 27.00 45.19 
 800 24.54 33.79 45.19 
 801 11.55 21.31 45.19 
 802 34.40 24.59 45.19 
 803 38.93 26.32 45.19 
 804 23.73 32.11 45.19 
 805 22.60 23.49 45.19 
 806 11.04 19.74 45.19 
 807 12.78 22.40 45.19 
 808 17.84 21.50 45.19 
 809 11.66 23.39 45.19 
 810 11.04 15.30 45.19 
 811 21.23 26.58 45.19 
 812 26.11 20.81 45.19 
 813 13.57 23.50 45.19 
 814 27.93 21.56 45.19 
 815 33.42 24.14 45.19 
 816 25.61 21.65 45.19 
 817 16.84 21.75 45.19 
 818 17.80 19.55 45.19 
 819 23.61 18.97 45.19 
 820 11.05 22.01 45.19 
 821 12.61 25.82 45.19 
 822 11.52 25.14 45.19 
 823 20.05 17.71 45.19 
 824 31.91 24.98 45.19 
 825 23.75 28.43 45.19 
 826 21.33 28.18 45.19 
 827 23.94 22.82 45.19 
 828 17.10 19.25 45.19 
 829 16.38 25.84 45.19 
 830 21.48 21.07 45.19 
 831 21.11 14.74 45.19 
 832  6.53 20.99 45.19 
 833 17.13 30.63 45.19 
 834 11.82 20.82 45.19 
 835 19.86 25.08 45.19 
 836 27.65 24.83 45.19 
 837 21.88 19.14 45.19 
 838 21.63 20.74 45.19 
 839 30.70 19.66 45.19 
 840  8.06 14.48 45.19 
 841 21.50 19.58 45.19 
 842 12.86 29.41 45.19 
 843 17.61 19.98 45.19 
 844 25.65 25.55 45.19 
 845 23.67 17.97 45.19 
 846 21.38 20.74 45.19 
 847 15.66 18.04 45.19 
 848 31.52 23.08 45.19 
 849 13.57 21.97 45.19 
 850 22.10 22.23 45.19 
 851 13.12 21.23 45.19 
 852 20.35 21.58 45.19 
 853 14.05 15.29 45.19 
 854 35.71 25.24 45.19 
 855  8.55 19.90 45.19 
 856 15.97 19.99 45.19 
 857 10.33 28.21 45.19 
 858 15.58 21.72 45.19 
 859 26.61 16.90 45.19 
 860 26.83 18.57 45.19 
 861 25.83 25.26 45.19 
 862 20.72 24.87 45.19 
 863 17.07 24.47 45.19 
 864 14.81 13.71 45.19 
 865 11.58 21.49 45.19 
 866 19.83 16.66 45.19 
 867 20.57 16.29 45.19 
 868 20.89 30.36 45.19 
 869 15.81 20.99 45.19 
 870 21.13 20.66 45.19 
 871 16.05 12.37 45.19 
 872  4.52 23.74 45.19 
 873 12.58 16.43 45.19 
 874 18.37 21.32 45.19 
 875 17.82 19.32 45.19 
 876 36.35 16.31 45.19 
 877 22.06 27.61 45.19 
 878  9.59 23.39 45.19 
 879 10.56 23.27 45.19 
 880 15.20 15.12 45.19 
 881 16.62 28.02 45.19 
 882 20.31 22.92 45.19 
 883 26.60 26.02 45.19 
 884 14.93 19.15 45.19 
 885 29.12 27.44 45.19 
 886 24.97 18.07 45.19 
 887 13.80 17.05 45.19 
 888 22.83 12.47 45.19 
 889 24.60 18.73 45.19 
 890 15.32 19.82 45.19 
 891 23.62 16.47 45.19 
 892 13.05 19.22 45.19 
 893 17.88 19.05 45.19 
 894 16.40 27.16 45.19 
 895 14.89 19.21 45.19 
 896 11.90 22.98 45.19 
 897 10.83 21.99 45.19 
 898 26.67 21.15 45.19 
 899 13.80 27.33 45.19 
 900 15.33 15.57 45.19 
 901 26.30 21.06 45.19 
 902  8.53 17.90 45.19 
 903 11.80 22.11 45.19 
 904 24.17 19.30 45.19 
 905 23.06 20.73 45.19 
 906 19.47 21.90 45.19 
 907 28.19 16.88 45.19 
 908 14.59 19.74 45.19 
 909 11.44 14.37 45.19 
 910 19.08 15.29 45.19 
 911 20.08 23.49 45.19 
 912 15.87 23.32 45.19 
 913 13.15  9.60 45.19 
 914  9.83 20.92 45.19 
 915 20.95 16.21 45.19 
 916 14.08 31.83 45.19 
 917 15.33 18.47 45.19 
 918 26.33 12.89 45.19 
 919 15.16 23.25 45.19 
 920  7.03 22.36 45.19 
 921 18.86 17.37 45.19 
 922 22.36  8.38 45.19 
 923 21.62 12.65 45.19 
 924 20.23 25.08 45.19 
 925  9.03 17.32 45.19 
 926 39.85 28.53 45.19 
 927 10.14 13.29 45.19 
 928  7.54 15.21 45.19 
 929 31.94 16.89 45.19 
 930 22.38 19.97 45.19 
 931 13.93 27.03 45.19 
 932 29.60 20.15 45.19 
 933 23.67 17.43 45.19 
 934 17.96 26.51 45.19 
 935 16.38 16.56 45.19 
 936 14.87 28.32 45.19 
 937 20.99 21.73 45.19 
 938 28.95 19.73 45.19 
 939 25.98 23.49 45.19 
 940 18.35 23.16 45.19 
 941 16.11 15.43 45.19 
 942 23.13 18.76 45.19 
 943 24.34 17.75 45.19 
 944 32.39 20.49 45.19 
 945 17.38 19.99 45.19 
 946 16.12 21.09 45.19 
 947 19.72 18.24 45.19 
 948 16.34 28.52 45.19 
 949 12.06 18.47 45.19 
 950 18.11 19.82 45.19 
 951 24.84 26.44 45.19 
 952 12.88 20.76 45.19 
 953 14.84 34.67 45.19 
 954 17.90 23.39 45.19 
 955 15.07 20.92 45.19 
 956 30.52 16.80 45.19 
 957 42.71 15.20 45.19 
 958 29.38 29.72 45.19 
 959 23.80 24.57 45.19 
 960  7.55 21.36 45.19 
 961 16.84 15.72 45.19 
 962 15.81 23.61 45.19 
 963 20.92 29.04 45.19 
 964 10.33 20.56 45.19 
 965 32.55 32.33 45.19 
 966 16.60 32.37 45.19 
 967 30.95 16.08 45.19 
 968 20.96 16.76 45.19 
 969 12.59 30.79 45.19 
 970 17.97 26.21 45.19 
 971 18.64 19.57 45.19 
 972  9.29 26.65 45.19 
 973  6.76 26.67 45.19 
 974 30.79 16.98 45.19 
 975 16.67 18.50 45.19 
 976 36.99 24.15 45.19 
 977 23.52 13.13 45.19 
 978 24.27 30.08 45.19 
 979 11.06 18.27 45.19 
 980 15.86 30.39 45.19 
 981 14.87 20.83 45.19 
 982 27.51 30.49 45.19 
 983 19.27 19.17 45.19 
 984 17.43 20.97 45.19 
 985 23.77 26.41 45.19 
 986 25.47 23.56 45.19 
 987 34.77 19.08 45.19 
 988 29.65 20.78 45.19 
 989 12.72 22.50 45.19 
 990 19.35  8.88 45.19 
 991 15.55 18.48 45.19 
 992 24.27 22.89 45.19 
 993  9.07 24.06 45.19 
 994 16.77 21.96 45.19 
 995 30.16 18.43 45.19 
 996 12.08 28.97 45.19 
 997 23.47 18.22 45.19 
 998 18.97 22.81 45.19 
 999 20.88 22.39 45.19 
1000 12.59 22.42 45.19 
1001  7.53 29.84 45.19 
1002 18.43 19.07 45.19 
1003 13.83 15.35 45.19 
1004 21.40 29.85 45.19 
1005 22.21 25.39 45.19 
1006 16.33 26.58 45.19 
1007 15.88 28.74 45.19 
1008 24.78 23.68 45.19 
1009 21.43 24.07 45.19 
1010 18.68 15.31 45.19 
1011 12.26 19.86 45.19 
1012 15.82 21.64 45.19 
1013 18.13 15.15 45.19 
1014 18.36 18.35 45.19 
1015 11.56 25.47 45.19 
1016 12.92 20.26 45.19 
1017 26.36 21.82 45.19 
1018 23.87 27.02 45.19 
1019 12.92 22.02 45.19 
1020 14.98 16.14 45.19 
1021 19.90 24.95 45.19 
1022 24.65 16.11 45.19 
1023 23.59 20.47 45.19 
1024 16.87 15.87 45.19 
1025 25.83 21.01 45.19 
1026 14.53 33.66 45.19 
1027 20.85 30.78 45.19 
1028 22.43 23.79 45.19 
1029 15.31 12.23 45.19 
1030 29.47 32.97 45.19 
1031  7.57 20.08 45.19 
1032  8.79 17.58 45.19 
1033 28.70 15.34 45.19 
1034 23.03 16.61 45.19 
1035 19.34 17.31 45.19 
1036 19.19 25.74 45.19 
1037 18.01 25.12 45.19 
1038 14.66 20.06 45.19 
1039 15.83 27.24 45.19 
1040 20.94 25.31 45.19 
1041 19.93 29.97 45.19 
1042 23.21 13.52 45.19 
1043 13.05 25.40 45.19 
1044 14.29 12.04 45.19 
1045 21.33 26.05 45.19 
1046 15.84 24.12 45.19 
1047 26.99 27.38 45.19 
1048 26.26 16.83 45.19 
1049 20.16 28.25 45.19 
1050 10.12 15.97 45.19 
1051 16.08 24.40 45.19 
1052 12.54 18.86 45.19 
1053 22.01 18.26 45.19 
1054 10.79 18.67 45.19 
1055 36.76 16.62 45.19 
1056 10.81 19.11 45.19 
1057 16.87 13.68 45.19 
1058 12.44 20.96 45.19 
1059 14.07 31.59 45.19 
1060 24.85 20.58 45.19 
1061 12.05 23.18 45.19 
1062 15.30 24.12 45.19 
1063  7.08 18.63 45.19 
1064 14.79 19.80 45.19 
1065 25.12 20.33 45.19 
1066 10.04 18.46 45.19 
1067 18.30 25.44 45.19 
1068 15.82 20.72 45.19 
1069 27.67 25.23 45.19 
1070 32.37 20.41 45.19 
1071 16.46 23.03 45.19 
1072 19.64 29.90 45.19 
1073 20.10 27.79 45.19 
1074 25.67 37.11 45.19 
1075 12.72 17.29 45.19 
1076 24.06 24.87 45.19 
1077 16.04 30.30 45.19 
1078 24.20 29.62 45.19 
1079 18.59 22.50 45.19 
1080 21.89 22.49 45.19 
1081  9.31 11.74 45.19 
1082 13.33 18.37 45.19 
1083 24.73 25.13 45.19 
1084 20.66 25.28 45.19 
1085 28.57 25.24 45.19 
1086 12.31 14.79 45.19 
1087 20.26 28.63 45.19 
1088  9.04 17.43 45.19 
1089 21.36 24.47 45.19 
1090 28.72 22.79 45.19 
1091 12.87 15.86 45.19 
1092 15.12 11.84 45.19 
1093 21.23 16.60 45.19 
1094  9.55 10.85 45.19 
1095 12.07 34.71 45.19 
1096 20.48 26.10 45.19 
1097 20.41 23.40 45.19 
1098 18.20 22.44 45.19 
1099 22.65 25.42 45.19 
1100 20.12 25.72 45.19 
1101 15.08 22.14 45.19 
1102  9.84 17.00 45.19 
1103 13.06 17.86 45.19 
1104 19.94 18.33 45.19 
1105 29.89 29.12 45.19 
1106 20.07 20.77 45.19 
1107 11.58 27.44 45.19 
1108 21.28 19.82 45.19 
1109 15.33 31.51 45.19 
1110 11.58 14.40 45.19 
1111 17.33 22.37 45.19 
1112 27.84 21.20 45.19 
1113 23.49 27.49 45.19 
1114 13.87 24.32 45.19 
1115 19.13 15.79 45.19 
1116 10.92 17.82 45.19 
1117  6.79 16.72 45.19 
1118 15.59 14.77 45.19 
1119 27.51 17.38 45.19 
1120 31.81 20.46 45.19 
1121  5.28 22.66 45.19 
1122 16.64 12.48 45.19 
1123 12.08 13.02 45.19 
1124 10.55 14.83 45.19 
1125 19.39 12.66 45.19 
1126 16.86 10.00 45.19 
1127 23.66 10.24 45.19 
1128 18.76 14.94 45.19 
1129 28.91 17.84 45.19 
1130  7.05 15.80 45.19 
1131 34.51 20.65 45.19 
1132 18.37 29.23 45.19 
1133 18.57 16.68 45.19 
1134 13.06 11.40 45.19 
1135 18.43 13.62 45.19 
1136 34.78 16.52 45.19 
1137 24.64 10.86 45.19 
1138 13.05 12.95 45.19 
1139 20.96 14.39 45.19 
1140 21.51 12.98 45.19 
1141 19.07 13.83 45.19 
1142  8.78 12.57 45.19 
1143 16.14 12.19 45.19 
1144 10.57 11.87 45.19 
1145 23.12 11.63 45.19 
1146 17.59 10.07 45.19 
1147 12.87 13.62 45.19 
1148  8.79 13.29 45.19 
1149 13.78 10.93 45.19 
1150 14.33 11.68 45.19 
1151 20.39 11.17 45.19 
1152 27.34 22.85 45.19 
1153 23.92 15.88 45.19 
1154 16.93 15.28 45.19 
1155 36.21 11.43 45.19 
1156 25.19  9.48 45.19 
1157 29.41 23.26 45.19 
1158 16.94 17.20 45.19 
1159 21.44 17.28 45.19 
1160 26.35 15.33 45.19 
1161 21.83 15.67 45.19 
1162 15.10 14.91 45.19 
1163 15.65 16.38 45.19 
1164 18.38 14.52 45.19 
1165 19.05 14.81 45.19 
1166 20.59 24.10 45.19 
1167 14.54 17.94 45.19 
1168 11.06 16.62 45.19 
1169 20.12 14.42 45.19 
1170 21.28 22.21 45.19 
1171 22.48 13.58 45.19 
1172 18.56 17.77 45.19 
1173 11.10 23.58 45.19 
1174 34.12 17.53 45.19 
1175 18.19 22.91 45.19 
1176 26.76 10.98 45.19 
1177 12.56 23.08 45.19 
1178 13.60 26.75 45.19 
1179 24.17 15.31 45.19 
1180 30.89 16.12 45.19 
1181 18.47 25.50 45.19 
1182  3.33 17.24 45.19 
1183 28.36 27.37 45.19 
1184 14.08 18.42 45.19 
1185 29.72 27.90 45.19 
1186 46.68 16.93 45.19 
1187 19.30 16.80 46.68 
1188 30.03 18.59 46.68 
1189 16.13 12.68 46.68 
1190 32.17 15.58 46.68 
1191 30.52 35.54 46.68 
1192 16.06 17.74 46.68 
1193 10.78 27.27 46.68 
1194 27.97 20.67 46.68 
1195 19.18 27.01 46.68 
1196 12.05 13.57 46.68 
1197 20.83 19.37 46.68 
1198 22.87 14.99 46.68 
1199  8.02 22.79 46.68 
1200 13.34 27.18 46.68 
1201 21.84 28.00 46.68 
1202 18.56 21.27 46.68 
1203 34.77 24.75 46.68 
1204  6.78 19.59 46.68 
1205 25.12 25.42 46.68 
1206 43.29 26.69 46.68 
1207 12.31 16.92 46.68 
1208 26.08 21.34 46.68 
1209 11.59 17.74 46.68 
1210 22.67 21.11 46.68 
1211 10.28 14.91 46.68 
1212 10.13 21.76 46.68 
1213 15.10 19.82 46.68 
1214 29.40 23.93 46.68 
1215 17.03 17.72 46.68 
1216 18.99 25.73 46.68 
1217 30.39 30.14 46.68 
1218 22.70 23.79 46.68 
1219 14.59 17.52 46.68 
1220 23.65 18.42 46.68 
1221 25.47 21.09 46.68 
1222 15.37 24.03 46.68 
1223 29.94 10.28 46.68 
1224 34.19 16.71 46.68 
1225 29.94 20.61 46.68 
1226  2.54 25.02 46.68 
1227 16.87 19.56 46.68 
1228 22.62 15.01 46.68 
1229 17.30 24.37 46.68 
1230 19.41 11.14 46.68 
1231 36.72 20.88 46.68 
1232 14.33 11.06 46.68 
1233 20.03 25.76 46.68 
1234 12.33 19.05 46.68 
1235  8.27 25.54 46.68 
1236 27.35 20.37 46.68 
1237 19.56 24.85 46.68 
1238 27.90 29.72 46.68 
1239 17.35 20.87 46.68 
1240 14.29 21.91 46.68 
1241 34.63 23.15 46.68 
1242 26.58 24.57 46.68 
1243 20.86 19.09 46.68 
1244 14.03 20.78 46.68 
1245 29.63 15.22 46.68 
1246 18.54 18.08 46.68 
1247 34.20 14.81 46.68 
1248 21.38 31.70 46.68 
1249 19.08 25.63 46.68 
1250  8.28 29.78 46.68 
1251 25.82 23.38 46.68 
1252 25.62 18.00 46.68 
1253 20.10 24.90 46.68 
1254 12.54 25.32 46.68 
1255  8.29 22.78 46.68 
1256 14.79 21.06 46.68 
1257 14.63 22.27 46.68 
1258 18.31 29.71 46.68 
1259 24.59 23.60 46.68 
1260 25.30 17.51 46.68 
1261 19.82 36.27 46.68 
1262 24.39 23.40 46.68 
1263 19.85 22.23 46.68 
1264 14.12 19.53 46.68 
1265 20.20 28.86 46.68 
1266 33.85 36.23 46.68 
1267 35.52 22.24 46.68 
1268  8.29 19.50 46.68 
1269 22.38 11.52 46.68 
1270 14.30 13.11 46.68 
1271 19.81 19.38 46.68 
1272 16.84 25.91 46.68 
1273 21.31 29.83 46.68 
1274 11.04 22.22 46.68 
1275 16.14 22.65 46.68 
1276 10.52 22.39 46.68 
1277 10.53 25.00 46.68 
1278 32.22 24.03 46.68 
1279 28.83 27.69 46.68 
1280 28.65 32.46 46.68 
1281  5.78 15.43 46.68 
1282 23.12 22.20 46.68 
1283 25.46 23.13 46.68 
1284 14.64 21.42 46.68 
1285 27.36 15.52 46.68 
1286 17.10 19.74 46.68 
1287 20.55 22.09 46.68 
1288 20.83 18.45 46.68 
1289 22.15 28.99 46.68 
1290 31.91 18.08 46.68 
1291 13.79 23.35 46.68 
1292 12.80 14.89 46.68 
1293 17.32 19.76 46.68 
1294 22.32 25.73 46.68 
1295 15.82 22.43 46.68 
1296 11.82 27.37 46.68 
1297 19.10 22.29 46.68 
1298 23.92 18.26 46.68 
1299 12.31 19.60 46.68 
1300 22.32 18.31 46.68 
1301 20.34 29.22 46.68 
1302  5.02 16.56 46.68 
1303 29.94 19.30 46.68 
1304 14.84 11.39 46.68 
1305 23.42 25.32 46.68 
1306 21.34 23.18 46.68 
1307  8.30 23.24 46.68 
1308  4.27 27.59 46.68 
1309  3.26 16.39 46.68 
1310 15.31 17.73 46.68 
1311 24.39 21.40 46.68 
1312 36.90 24.63 46.68 
1313 15.33 15.15 46.68 
1314 27.19 25.70 46.68 
1315 21.06 24.90 46.68 
1316 21.15 21.08 46.68 
1317 21.87 19.65 46.68 
1318 19.08 21.95 46.68 
1319 20.09 26.74 46.68 
1320 22.89 28.02 46.68 
1321 18.04 19.56 46.68 
1322 21.33 29.17 46.68 
1323 26.71 13.46 46.68 
1324 27.37 24.27 46.68 
1325 24.98 16.01 46.68 
1326 21.96 16.88 46.68 
1327  9.05 30.13 46.68 
1328 12.53 26.09 46.68 
1329  9.53 14.05 46.68 
1330  7.78 18.56 46.68 
1331 15.35 17.65 46.68 
1332 29.42 17.11 46.68 
1333 18.06 30.42 46.68 
1334 10.57 22.58 46.68 
1335  9.03 33.43 46.68 
1336 22.34 20.40 46.68 
1337 11.37 25.14 46.68 
1338 19.36 20.54 46.68 
1339 11.78 20.34 46.68 
1340 14.54 25.17 46.68 
1341 18.85 29.77 46.68 
1342 38.02 29.88 46.68 
1343  7.05 26.87 46.68 
1344 22.60 22.38 46.68 
1345 11.52 30.39 46.68 
1346 31.12 18.08 46.68 
1347 23.09 24.21 46.68 
1348 21.12 23.23 46.68 
1349 22.32 27.97 46.68 
1350 23.82 17.49 46.68 
1351 13.56 24.75 46.68 
1352 15.30 20.68 46.68 
1353 21.83 22.35 46.68 
1354 13.30 10.96 46.68 
1355 30.92 21.33 46.68 
1356 19.63 24.77 46.68 
1357 26.11 20.84 46.68 
1358 11.54 16.94 46.68 
1359 25.60 28.29 46.68 
1360 36.98 25.04 46.68 
1361 17.79 19.63 46.68 
1362 23.61 16.30 46.68 
1363 17.10 22.51 46.68 
1364 31.88 20.23 46.68 
1365 20.81 27.58 46.68 
1366 27.35 12.83 46.68 
1367 14.36 12.31 46.68 
1368 25.37 18.07 46.68 
1369 12.54 28.62 46.68 
1370 34.88 23.69 46.68 
1371  7.02 16.91 46.68 
1372 19.56 18.75 46.68 
1373 23.11 31.46 46.68 
1374 26.61 26.00 46.68 
1375 15.56 30.30 46.68 
1376 24.06 22.52 46.68 
1377 12.36 17.92 46.68 
1378 17.84 14.45 46.68 
1379 25.63 29.19 46.68 
1380  7.80 17.08 46.68 
1381 16.58  9.62 46.68 
1382 15.56 24.68 46.68 
1383 14.80 18.50 46.68 
1384 17.10 17.86 46.68 
1385  8.78 12.95 46.68 
1386 17.31 29.14 46.68 
1387 18.06 22.22 46.68 
1388  9.53 32.71 46.68 
1389 15.37 32.33 46.68 
1390 26.78 19.98 46.68 
1391 17.54 12.30 46.68 
1392 17.58 17.39 46.68 
1393 21.65 25.00 46.68 
1394 30.25 22.10 46.68 
1395 23.66 19.66 46.68 
1396 17.08 21.07 46.68 
1397 18.83 27.18 46.68 
1398  8.52 21.65 46.68 
1399 32.91 20.25 46.68 
1400 14.80 24.02 46.68 
1401 20.85 14.80 46.68 
1402 24.64 24.76 46.68 
1403 26.85 21.61 46.68 
1404 14.55 28.73 46.68 
1405 19.09 18.75 46.68 
1406 31.44 18.80 46.68 
1407 30.87 13.60 46.68 
1408 29.15 29.45 46.68 
1409 33.14 17.13 46.68 
1410 24.59 22.43 46.68 
1411 34.11 35.16 46.68 
1412 14.80 15.46 46.68 
1413 24.38 27.43 46.68 
1414 18.03 26.84 46.68 
1415 23.07 20.95 46.68 
1416 26.19 18.76 46.68 
1417 29.34 14.97 46.68 
1418 25.31 18.23 46.68 
1419 25.86 24.75 46.68 
1420 15.31 18.07 46.68 
1421 26.82 26.20 46.68 
1422 22.37 25.01 46.68 
1423  7.04 14.31 46.68 
1424 19.54 26.34 46.68 
1425 16.59 13.70 46.68 
1426 16.81 23.41 46.68 
1427 26.04 33.38 46.68 
1428 16.83 22.07 46.68 
1429 17.83 12.21 46.68 
1430  9.29 22.16 46.68 
1431 11.81 23.19 46.68 
1432 14.56 24.28 46.68 
1433 38.59 21.87 46.68 
1434  7.52 24.67 46.68 
1435 23.86 28.26 46.68 
1436 17.17 18.49 46.68 
1437  7.32 18.98 46.68 
1438 12.82 20.75 46.68 
1439 19.81 25.64 46.68 
1440  5.27 19.81 46.68 
1441  8.26 15.55 46.68 
1442 13.05 23.56 46.68 
1443 15.30 20.74 46.68 
1444 17.36 29.02 46.68 
1445 17.06 33.22 46.68 
1446  5.78 19.05 46.68 
1447 19.58 16.05 46.68 
1448 13.57 22.32 46.68 
1449 14.08 18.98 46.68 
1450 17.82 17.80 46.68 
1451 10.56 22.41 46.68 
1452  9.78 19.06 46.68 
1453 20.59 19.30 46.68 
1454 18.57 15.63 46.68 
1455 20.31 30.67 46.68 
1456 15.04 14.13 46.68 
1457 23.56 12.87 46.68 
1458 30.43 13.37 46.68 
1459 12.78 13.88 46.68 
1460 17.34 15.03 46.68 
1461 11.32 20.73 46.68 
1462 29.74 15.81 46.68 
1463 14.31 17.13 46.68 
1464 16.31 12.30 46.68 
1465  8.01 11.32 46.68 
1466 20.31 14.22 46.68 
1467 13.05  8.10 46.68 
1468 17.29 13.54 46.68 
1469 26.31 12.58 46.68 
1470 18.08 15.30 46.68 
1471 10.80 17.29 46.68 
1472 17.61 16.29 46.68 
1473 26.33 12.39 46.68 
1474 30.90 14.39 46.68 
1475 13.80 10.78 46.68 
1476 11.06 15.38 46.68 
1477  4.26 12.88 46.68 
1478 12.80 13.54 46.68 
1479 23.58 13.14 46.68 
1480 36.16 12.96 46.68 
1481 10.53 14.19 46.68 
1482 24.70 12.95 46.68 
1483 18.57 11.78 46.68 
1484 20.10 15.63 46.68 
1485 22.31 19.16 46.68 
1486 15.36 12.04 46.68 
1487 21.33 16.24 46.68 
1488 38.41 14.54 46.68 
1489 19.55 15.13 46.68 
1490  8.29 11.78 46.68 
1491 16.06 16.22 46.68 
1492 29.66 13.66 46.68 
1493 19.64 14.65 46.68 
1494  9.02 10.86 46.68 
1495 13.56 12.63 46.68 
1496 19.27 12.15 46.68 
1497 15.28 14.37 46.68 
1498 20.55 12.06 46.68 
1499 26.59 22.39 46.68 
1500 22.35 20.32 46.68 
1501 10.04 22.74 46.68 
1502  7.04 29.51 46.68 
1503 30.66 21.32 46.68 
1504 15.31 19.05 46.68 
1505 19.35 14.61 46.68 
1506 27.34 16.00 46.68 
1507 11.54 22.79 46.68 
1508 28.55 23.00 46.68 
1509 14.06 10.22 46.68 
1510 16.33 14.97 46.68 
1511 17.80 11.08 46.68 
1512 20.33 12.29 46.68 
1513 17.55 11.65 46.68 
1514 21.62 10.31 46.68 
1515 17.81 10.37 46.68 
1516 13.79  7.68 46.68 
1517 30.37 10.54 46.68 
1518 16.58 10.45 46.68 
1519  7.26 11.03 46.68 
1520 18.80 11.62 46.68 
1521 16.82 10.45 46.68 
1522 17.10 11.45 46.68 
1523 10.32 10.21 46.68 
1524 17.80 14.14 46.68 
1525 35.43 11.53 46.68 
1526 21.66 11.12 46.68 
1527 15.83 10.35 46.68 
1528 21.82 11.96 46.68 
1529 25.37 11.83 46.68 
1530 12.82  8.61 46.68 
1531 17.57 11.44 46.68 
1532 13.61 11.03 46.68 
1533 20.06 11.46 46.68 
1534  9.03 18.06 46.68 
1535 20.17 17.90 46.68 
1536 18.10 14.39 46.68 
1537 14.53 15.45 46.68 
1538 18.53 16.56 46.68 
1539 26.84 17.76 46.68 
1540 12.53 29.40 46.68 
1541 30.63 13.63 46.68 
1542 21.32 25.21 46.68 
1543 25.74 18.91 46.68 
1544 19.60 21.58 46.68 
1545 23.14 17.39 46.68 
1546 26.82 22.24 46.68 
1547  8.53 23.24 46.68 
1548 19.28 18.59 46.68 
1549 23.12 14.81 46.68 
1550 23.96 23.77 46.68 
1551 15.81 22.47 46.68 
1552 12.06  8.20 46.68 
1553  9.53 22.81 46.68 
1554  4.26 22.39 46.68 
1555 22.13 17.52 46.68 
1556 10.03 16.69 46.68 
1557  5.04 16.13 46.68 
1558 14.31 14.93 46.68 
1559 20.11 23.40 46.68 
1560 21.12 13.48 46.68 
1561 21.51 17.87 46.68 
1562 28.74 19.70 46.68 
1563 23.35 10.45 46.68 
1564 17.60 13.25 46.68 
1565 24.87 20.14 46.68 
1566 19.35 15.40 46.68 
1567 30.38 21.47 46.68 
1568 30.93 14.40 46.68 
1569 19.15 24.32 46.68 
1570 22.60 24.53 46.68 
1571  7.78 27.92 46.68 
1572 10.34 25.61 46.68 
1573 17.59 12.17 46.68 
1574  8.56 21.97 46.68 
1575 25.82 21.89 46.68 
1576 13.13 29.93 46.68 
1577 13.83 20.91 46.68 
1578 23.62 19.87 46.68 
1579 24.18 14.87 46.68 
1580 14.56 15.58 46.68 
1581 27.25  9.22 46.68 
1582 12.81 12.53 46.68 
1583 25.42 13.59 46.68 
1584 27.10 10.95 46.68 
1585 27.57  9.37 46.68 
1586 27.44 11.89 46.68 
1587 14.89 11.87 46.68 
1588  7.51 12.62 46.68 
1589 14.40 17.31 46.68 
1590 17.88 13.30 46.68 
1591 14.61 13.56 46.68 
1592 18.37 12.21 46.68 
1593 19.37 12.03 46.68 
1594 21.25 13.53 46.68 
1595 22.44 16.33 46.68 
1596  0.52 22.41 46.68 
1597 16.96 12.76 46.68 
1598 17.81 14.37 46.68 
1599 20.56 14.27 46.68 
1600 23.66 14.27 46.68 
1601 16.37 17.36 46.68 
1602 22.42 18.56 46.68 
1603 24.69 16.15 46.68 
1604 13.10 18.54 46.68 
1605 11.56 18.66 46.68 
1606 16.83 22.78 46.68 
1607 25.19 12.84 46.68 
1608 14.56 13.24 46.68 
1609 12.60 19.48 46.68 
1610 11.28 17.63 46.68 
1611 24.10 20.92 46.68 
1612  8.27 12.10 46.68 
1613 23.34 24.33 46.68 
1614 20.13 21.15 46.68 
1615 23.98 18.32 46.68 
1616 16.59 14.32 46.68 
1617 18.10 20.00 46.68 
1618 34.38 20.66 46.68 
1619 33.39 20.17 46.68 
1620 11.30 22.26 46.68 
1621 15.33 18.20 46.68 
1622 14.82 15.19 46.68 
1623 16.80 28.31 46.68 
1624 20.67 18.55 46.68 
1625 21.63 11.64 46.68 
1626 15.35 15.38 46.68 
1627 23.83 17.65 46.68 
1628 15.31  9.91 46.68 
1629 28.86 14.94 46.68 
1630 25.32 16.84 46.68 
1631 26.92 14.17 46.68 
1632  6.76 15.22 46.68 
1633  6.26 11.37 46.68 
1634 19.57 21.53 46.68 
1635  7.01 26.62 46.68 
1636 17.09 31.31 46.68 
1637 23.21 12.91 46.68 
1638 12.32 20.31 46.68 
1639 15.88 26.38 46.68 
1640 26.16 16.59 46.68 
1641 16.60 14.88 46.68 
1642 20.82 10.57 46.68 
1643 28.33 16.26 46.68 
1644 12.10 13.92 46.68 
1645 12.10 11.51 46.68 
1646 26.59 16.51 46.68 
1647 13.34 19.66 46.68 
1648 15.84 20.23 46.68 
1649 16.32 19.59 46.68 
1650 20.81 12.91 46.68 
1651 13.05 29.62 46.68 
1652  9.82 16.34 46.68 
1653 19.83 19.99 46.68 
1654 30.37 22.66 46.68 
1655  8.03 13.13 46.68 
1656 26.15 15.40 46.68 
1657 29.47 22.09 46.68 
1658  7.26 13.81 46.68 
1659 17.30 22.02 46.68 
1660 23.24 17.39 46.68 
1661 17.56 16.85 46.68 
1662 16.83 13.66 46.68 
1663 23.60 18.99 46.68 
1664 18.57 18.74 46.68 
1665 11.77 19.00 46.68 
1666 31.37 21.62 46.68 
1667 19.82 19.02 46.68 
1668  7.26 13.13 46.68 
1669 11.37 19.56 46.68 
1670 12.28 16.49 46.68 
1671  7.03 24.17 46.68 
1672 13.33 21.78 46.68 
1673 13.58 12.86 46.68 
1674 14.79 13.02 46.68 
1675 30.63 20.14 46.68 
1676 16.57 16.65 46.68 
1677 27.83 14.73 46.68 
1678 22.32 13.36 46.68 
1679 11.06 15.70 46.68 
1680 37.61 24.56 46.68 
1681 18.82 20.48 46.68 
1682 24.58 26.26 46.68 
1683 10.06 17.79 46.68 
1684 16.08 14.58 46.68 
1685 21.33 22.07 46.68 
1686 24.84 20.64 46.68 
1687 16.58 18.82 46.68 
1688 17.03 20.56 46.68 
1689 11.77 15.21 46.68 
1690 25.57 19.04 46.68 
1691 14.54 19.17 46.68 
1692 27.50 17.84 46.68 
1693 11.53 22.74 46.68 
1694 15.55 27.01 46.68 
1695 18.11 17.73 46.68 
1696  7.28 14.39 46.68 
1697 12.04 16.72 46.68 
1698 24.80 18.54 46.68 
1699 23.33 14.47 46.68 
1700 22.10 14.74 46.68 
1701 20.81 17.05 46.68 
1702 27.83 12.96 46.68 
1703 19.36 12.45 46.68 
1704 24.33 15.03 46.68 
1705 21.31 12.13 46.68 
1706 30.35 15.47 46.68 
1707 25.85 10.03 46.68 
1708 21.09 13.45 46.68 
1709 16.83 16.72 46.68 
1710 12.86 16.32 46.68 
1711 27.37 22.32 46.68 
1712 28.30 12.12 46.68 
1713 17.54 21.65 46.68 
1714 28.10 16.29 46.68 
1715 14.80 12.55 46.68 
1716 21.35 16.90 46.68 
1717 14.58 19.22 46.68 
1718 34.08 28.50 46.68 
1719 10.70 23.31 46.68 
1720 16.82 19.06 46.68 
1721 31.37 20.90 46.68 
1722 17.80 28.02 46.68 
1723 23.08 18.81 46.68 
1724 16.08 28.26 46.68 
1725 21.12 27.17 46.68 
1726 22.29 17.56 46.68 
1727 24.31 12.47 46.68 
1728  8.60 21.32 46.68 
1729 25.11 13.89 46.68 
1730 26.85 27.00 46.68 
1731 23.33 14.15 46.68 
1732 29.69 22.61 46.68 
1733 24.66 16.73 46.68 
1734 12.59 18.56 46.68 
1735 18.06 21.92 46.68 
1736 28.34 23.00 46.68 
1737 26.36 18.32 46.68 
1738 26.18 20.93 46.68 
1739 39.85 16.64 46.68 
1740 13.80 23.62 46.68 
1741 25.64 28.23 46.68 
1742 15.57 16.55 46.68 
1743 21.08 24.70 46.68 
1744  7.28 24.73 46.68 
1745 31.10 18.60 46.68 
1746 26.21 19.81 46.68 
1747 24.35 11.26 46.68 
1748 18.80 14.25 46.68 
1749 18.34 14.68 46.68 
1750 26.88 12.26 46.68 
1751 21.87 15.62 46.68 
1752 17.34 11.59 46.68 
1753 30.14 15.92 46.68 
1754 19.11 18.48 46.68 
1755 32.64 15.82 46.68 
1756 13.82 22.83 46.68 
1757 37.91 23.98 46.68 
1758 10.05 18.43 46.68 
1759 10.08 26.29 46.68 
1760 19.34 20.82 46.68 
1761 25.06 15.37 46.68 
1762 14.86 17.35 46.68 
1763 30.90 11.76 46.68 
1764  9.80 18.91 46.68 
1765 14.80 17.19 46.68 
1766 19.83 17.76 46.68 
1767 35.20 17.59 46.68 
1768 19.33 16.38 46.68 
1769 23.51 18.06 46.68 
1770 13.55 17.45 46.68 
1771 12.06 14.47 46.68 
1772 15.09 11.39 46.68 
1773 16.91 18.42 46.68 
1774 18.06 16.20 46.68 
1775 17.86 22.86 46.68 
1776 24.66 18.87 46.68 
1777 20.40 10.38 46.68 
1778 22.11 12.18 46.68 
1779 32.87 13.08 46.68 
1780 18.31 12.31 46.68 
1781 23.43 15.85 46.68 
1782 29.35 18.37 46.68 
1783 19.33 11.56 46.68 
1784 15.60 16.06 46.68 
1785 22.97 10.58 46.68 
1786 16.95 20.34 46.68 
1787 27.67 14.26 46.68 
1788 37.20 13.65 46.68 
1789 22.13 22.27 46.68 
1790 21.91 24.11 46.68 
1791 19.41 21.10 46.68 
1792  4.54 24.95 46.68 
1793 15.33 19.09 46.68 
1794 28.84 26.15 46.68 
1795 36.45 27.34 46.68 
1796 25.87 12.94 46.68 
1797 13.54 29.61 46.68 
1798  7.29 25.82 46.68 
