Iter | Sampling Pol | Evaluation Pol | Best (Sampled) 
   0 -498.95 -1035.13 -100000000.00 
   1 -412.01 -1153.50 -498.95 
   2 -370.82 -1055.90 -412.01 
   3 -405.56 -1212.97 -370.82 
   4 -409.79 -868.56 -370.82 
   5 -469.20 -949.83 -370.82 
   6 -475.04 -988.01 -370.82 
   7 -408.49 -1094.15 -370.82 
   8 -1060.75 -1308.76 -370.82 
   9 -367.97 -1258.61 -370.82 
  10 -322.23 -1338.75 -367.97 
  11 -397.70 -1305.23 -322.23 
  12 -450.84 -1233.50 -322.23 
  13 -730.30 -1262.84 -322.23 
  14 -361.11 -1591.30 -322.23 
  15 -411.66 -1319.47 -322.23 
  16 -414.27 -1206.13 -322.23 
  17 -427.46 -1357.85 -322.23 
  18 -315.55 -1241.74 -322.23 
  19 -399.97 -1411.19 -315.55 
  20 -989.11 -1150.96 -315.55 
  21 -383.42 -1353.01 -315.55 
  22 -1093.03 -1566.17 -315.55 
  23 -479.89 -1153.34 -315.55 
  24 -532.27 -1508.69 -315.55 
  25 -628.72 -1571.43 -315.55 
  26 -365.17 -1420.57 -315.55 
  27 -483.38 -1423.67 -315.55 
  28 -435.26 -1553.73 -315.55 
  29 -663.78 -1517.46 -315.55 
  30 -361.61 -1565.92 -315.55 
  31 -561.49 -1554.19 -315.55 
  32 -419.87 -1560.74 -315.55 
  33 -522.01 -1578.56 -315.55 
  34 -478.12 -1574.39 -315.55 
  35 -453.74 -1825.58 -315.55 
  36 -392.91 -1610.30 -315.55 
  37 -590.34 -1402.85 -315.55 
  38 -534.72 -1574.84 -315.55 
  39 -359.83 -1592.40 -315.55 
  40 -394.80 -1561.03 -315.55 
  41 -645.15 -1704.18 -315.55 
  42 -864.10 -1530.18 -315.55 
  43 -456.79 -1723.65 -315.55 
  44 -365.55 -1580.79 -315.55 
  45 -539.60 -1541.75 -315.55 
  46 -352.50 -1537.94 -315.55 
  47 -627.56 -1504.99 -315.55 
  48 -387.08 -1468.46 -315.55 
  49 -725.88 -1482.04 -315.55 
  50 -412.25 -1442.89 -315.55 
  51 -913.25 -1213.96 -315.55 
  52 -594.92 -1178.58 -315.55 
  53 -424.74 -1115.28 -315.55 
  54 -458.48 -1311.60 -315.55 
  55 -358.25 -1126.79 -315.55 
  56 -350.53 -1153.68 -315.55 
  57 -326.31 -1242.37 -315.55 
  58 -404.86 -1176.90 -315.55 
  59 -484.80 -1189.69 -315.55 
  60 -608.94 -1412.48 -315.55 
  61 -390.47 -1520.99 -315.55 
  62 -263.41 -1405.90 -315.55 
  63 -459.89 -1561.60 -263.41 
  64 -457.48 -1580.64 -263.41 
  65 -348.33 -1538.51 -263.41 
  66 -1035.64 -1499.38 -263.41 
  67 -462.91 -1404.00 -263.41 
  68 -402.97 -1512.88 -263.41 
  69 -414.79 -1424.87 -263.41 
  70 -389.80 -1484.79 -263.41 
  71 -541.22 -1644.13 -263.41 
  72 -397.58 -1456.35 -263.41 
  73 -395.77 -1542.75 -263.41 
  74 -378.47 -1176.57 -263.41 
  75 -445.22 -1016.19 -263.41 
  76 -374.61 -1033.25 -263.41 
  77 -430.45 -1018.99 -263.41 
  78 -479.84 -1011.91 -263.41 
  79 -550.88 -1397.65 -263.41 
  80 -369.29 -1106.04 -263.41 
  81 -380.96 -1411.64 -263.41 
  82 -561.06 -1107.21 -263.41 
  83 -1066.36 -1151.13 -263.41 
  84 -721.48 -1042.61 -263.41 
  85 -460.62 -1021.53 -263.41 
  86 -413.00 -1109.58 -263.41 
  87 -571.31 -1116.11 -263.41 
  88 -488.49 -1178.85 -263.41 
  89 -947.29 -1509.54 -263.41 
  90 -376.25 -1529.21 -263.41 
  91 -1113.52 -1273.14 -263.41 
  92 -411.52 -1268.13 -263.41 
  93 -812.16 -1096.31 -263.41 
  94 -368.46 -1141.89 -263.41 
  95 -500.28 -1072.04 -263.41 
  96 -490.39 -1059.96 -263.41 
  97 -663.43 -1093.28 -263.41 
  98 -332.18 -1354.78 -263.41 
  99 -361.65 -1016.36 -263.41 
 100 -414.57 -1165.59 -263.41 
 101 -473.95 -1236.10 -263.41 
 102 -391.96 -1120.07 -263.41 
 103 -597.37 -1286.62 -263.41 
 104 -556.94 -1209.04 -263.41 
 105 -530.87 -1198.53 -263.41 
 106 -671.94 -1184.38 -263.41 
 107 -614.82 -1120.95 -263.41 
 108 -991.60 -1269.93 -263.41 
 109 -474.02 -1127.05 -263.41 
 110 -485.46 -1108.12 -263.41 
 111 -378.82 -1051.62 -263.41 
 112 -617.80 -1191.44 -263.41 
 113 -612.35 -1280.08 -263.41 
 114 -821.59 -1292.73 -263.41 
 115 -555.57 -1105.03 -263.41 
 116 -397.20 -1037.99 -263.41 
 117 -374.78 -905.47 -263.41 
 118 -374.58 -1080.26 -263.41 
 119 -368.00 -1111.70 -263.41 
 120 -642.61 -910.50 -263.41 
 121 -405.68 -988.56 -263.41 
 122 -1343.89 -1066.82 -263.41 
 123 -511.07 -1230.59 -263.41 
 124 -408.81 -1001.79 -263.41 
 125 -738.76 -1222.86 -263.41 
 126 -369.02 -1170.45 -263.41 
 127 -726.84 -1153.95 -263.41 
 128 -501.30 -1027.71 -263.41 
 129 -1112.17 -1236.67 -263.41 
 130 -677.61 -1142.00 -263.41 
 131 -579.68 -1246.53 -263.41 
 132 -619.68 -1350.13 -263.41 
 133 -359.43 -1282.84 -263.41 
 134 -384.52 -1771.65 -263.41 
 135 -467.08 -1572.87 -263.41 
 136 -454.59 -1919.63 -263.41 
 137 -696.37 -1664.75 -263.41 
 138 -824.10 -1553.10 -263.41 
 139 -1425.70 -1548.61 -263.41 
 140 -401.46 -1562.11 -263.41 
 141 -617.77 -1725.69 -263.41 
 142 -401.09 -1665.40 -263.41 
 143 -1517.07 -1514.09 -263.41 
 144 -526.81 -1515.25 -263.41 
 145 -454.97 -1549.34 -263.41 
 146 -1024.33 -1471.78 -263.41 
 147 -626.14 -1404.78 -263.41 
 148 -694.52 -1179.26 -263.41 
 149 -667.93 -1190.89 -263.41 
 150 -1028.01 -1213.74 -263.41 
 151 -664.76 -1313.69 -263.41 
 152 -389.46 -1218.07 -263.41 
 153 -385.70 -1220.10 -263.41 
 154 -991.22 -1136.27 -263.41 
 155 -622.71 -1328.51 -263.41 
 156 -630.37 -1004.34 -263.41 
 157 -433.58 -1184.05 -263.41 
 158 -630.14 -1177.85 -263.41 
 159 -965.35 -1075.53 -263.41 
 160 -1184.95 -1064.55 -263.41 
 161 -583.11 -1066.89 -263.41 
 162 -578.04 -1055.65 -263.41 
 163 -1057.23 -1100.35 -263.41 
 164 -555.70 -1173.24 -263.41 
 165 -1110.34 -1186.05 -263.41 
 166 -897.72 -1158.40 -263.41 
 167 -775.29 -1118.37 -263.41 
 168 -394.13 -1092.96 -263.41 
 169 -1091.11 -1102.84 -263.41 
 170 -867.99 -1040.17 -263.41 
 171 -972.10 -1021.21 -263.41 
 172 -398.51 -1043.16 -263.41 
 173 -501.81 -1026.29 -263.41 
 174 -548.74 -1093.16 -263.41 
 175 -1059.28 -1081.29 -263.41 
 176 -704.74 -1092.91 -263.41 
 177 -1266.63 -1144.39 -263.41 
 178 -628.34 -1124.59 -263.41 
 179 -331.10 -1146.76 -263.41 
 180 -827.85 -1135.96 -263.41 
 181 -1345.90 -1075.67 -263.41 
 182 -355.60 -1258.34 -263.41 
 183 -458.19 -1250.83 -263.41 
 184 -352.26 -1139.45 -263.41 
 185 -703.26 -1281.01 -263.41 
 186 -1545.76 -1299.53 -263.41 
 187 -617.01 -1365.81 -263.41 
 188 -325.55 -1565.97 -263.41 
 189 -713.45 -1537.80 -263.41 
 190 -533.32 -1657.05 -263.41 
 191 -992.82 -1590.77 -263.41 
 192 -838.48 -1625.93 -263.41 
 193 -385.36 -1537.62 -263.41 
 194 -1337.64 -1649.21 -263.41 
 195 -919.67 -1639.43 -263.41 
 196 -443.91 -1604.60 -263.41 
 197 -437.68 -1414.45 -263.41 
 198 -510.44 -1540.47 -263.41 
 199 -567.79 -1427.40 -263.41 
 200 -717.92 -1530.90 -263.41 
 201 -505.15 -1329.66 -263.41 
 202 -355.91 -1437.61 -263.41 
 203 -958.91 -1276.55 -263.41 
 204 -1078.88 -1401.68 -263.41 
 205 -468.95 -1405.16 -263.41 
 206 -851.78 -1399.29 -263.41 
 207 -497.32 -1312.43 -263.41 
 208 -765.57 -1272.68 -263.41 
 209 -1140.99 -1466.92 -263.41 
 210 -345.33 -1344.82 -263.41 
 211 -481.46 -1421.97 -263.41 
 212 -1008.58 -1422.90 -263.41 
 213 -1125.12 -1436.19 -263.41 
 214 -439.77 -1220.86 -263.41 
 215 -580.38 -1028.42 -263.41 
 216 -1268.44 -953.33 -263.41 
 217 -448.71 -960.17 -263.41 
 218 -591.62 -940.89 -263.41 
 219 -1230.72 -1111.69 -263.41 
 220 -622.27 -966.13 -263.41 
 221 -1625.66 -911.02 -263.41 
 222 -715.08 -981.90 -263.41 
 223 -560.08 -1060.26 -263.41 
 224 -975.97 -1011.57 -263.41 
 225 -526.20 -1014.22 -263.41 
 226 -533.57 -981.68 -263.41 
 227 -406.73 -1002.64 -263.41 
 228 -349.29 -1119.30 -263.41 
 229 -469.23 -1254.29 -263.41 
 230 -581.66 -1066.22 -263.41 
 231 -372.22 -1081.73 -263.41 
 232 -407.60 -1265.05 -263.41 
 233 -519.76 -1220.39 -263.41 
 234 -549.81 -1193.72 -263.41 
 235 -361.00 -1141.77 -263.41 
 236 -634.88 -1064.27 -263.41 
 237 -1170.20 -1156.81 -263.41 
 238 -440.65 -1318.16 -263.41 
 239 -710.25 -1194.45 -263.41 
 240 -462.75 -1443.42 -263.41 
 241 -587.29 -1302.26 -263.41 
 242 -658.24 -1303.61 -263.41 
 243 -410.20 -1460.42 -263.41 
 244 -980.47 -1380.34 -263.41 
 245 -526.27 -1251.37 -263.41 
 246 -473.16 -1320.74 -263.41 
 247 -365.28 -1178.94 -263.41 
 248 -1588.44 -1245.17 -263.41 
 249 -527.34 -1227.82 -263.41 
 250 -1294.22 -1309.78 -263.41 
 251 -425.69 -1256.17 -263.41 
 252 -1126.79 -1149.15 -263.41 
 253 -788.74 -1333.16 -263.41 
 254 -479.86 -1380.80 -263.41 
 255 -1047.87 -1259.00 -263.41 
 256 -714.57 -1266.41 -263.41 
 257 -866.07 -1438.48 -263.41 
 258 -423.06 -1590.33 -263.41 
 259 -513.31 -1424.64 -263.41 
 260 -420.21 -1408.24 -263.41 
 261 -465.14 -1273.63 -263.41 
 262 -502.64 -1337.70 -263.41 
 263 -878.01 -1544.90 -263.41 
 264 -662.76 -1288.53 -263.41 
 265 -908.31 -1115.40 -263.41 
 266 -633.77 -1252.34 -263.41 
 267 -701.73 -1404.03 -263.41 
 268 -634.08 -1414.66 -263.41 
 269 -935.42 -1363.13 -263.41 
 270 -489.52 -1364.96 -263.41 
 271 -519.74 -1338.22 -263.41 
 272 -693.47 -1526.25 -263.41 
 273 -1032.25 -1361.82 -263.41 
 274 -453.93 -1101.26 -263.41 
 275 -1073.03 -1110.04 -263.41 
 276 -463.55 -1117.42 -263.41 
 277 -472.86 -1213.46 -263.41 
 278 -1098.14 -1626.95 -263.41 
 279 -413.33 -1218.81 -263.41 
 280 -554.88 -1327.31 -263.41 
 281 -411.75 -1139.91 -263.41 
 282 -639.45 -1334.36 -263.41 
 283 -649.74 -1270.38 -263.41 
 284 -1351.70 -1306.63 -263.41 
 285 -524.58 -1177.32 -263.41 
 286 -1187.20 -1250.84 -263.41 
 287 -616.83 -1210.05 -263.41 
 288 -998.44 -1110.60 -263.41 
 289 -1192.80 -1052.70 -263.41 
 290 -420.33 -1048.84 -263.41 
 291 -730.09 -1106.47 -263.41 
 292 -700.84 -1105.74 -263.41 
 293 -569.66 -1104.57 -263.41 
 294 -474.79 -1094.82 -263.41 
 295 -512.64 -1185.45 -263.41 
 296 -433.49 -1032.06 -263.41 
 297 -1029.16 -1270.22 -263.41 
 298 -1028.77 -815.66 -263.41 
 299 -750.81 -838.29 -263.41 
 300 -1236.90 -1127.62 -263.41 
 301 -979.78 -990.13 -263.41 
 302 -1054.40 -1014.67 -263.41 
 303 -426.86 -954.55 -263.41 
 304 -983.23 -1252.46 -263.41 
 305 -1120.74 -1115.47 -263.41 
 306 -397.81 -1256.78 -263.41 
 307 -720.14 -1170.31 -263.41 
 308 -1205.12 -1101.23 -263.41 
 309 -476.23 -1079.20 -263.41 
 310 -672.84 -1334.81 -263.41 
 311 -781.08 -1304.99 -263.41 
 312 -442.15 -1121.08 -263.41 
 313 -601.81 -1171.02 -263.41 
 314 -502.03 -1054.58 -263.41 
 315 -587.87 -1070.44 -263.41 
 316 -416.41 -1131.31 -263.41 
 317 -468.44 -875.91 -263.41 
 318 -478.79 -844.57 -263.41 
 319 -513.96 -913.68 -263.41 
 320 -1408.29 -842.70 -263.41 
 321 -754.28 -1021.36 -263.41 
 322 -558.12 -1083.55 -263.41 
 323 -853.49 -1091.59 -263.41 
 324 -659.84 -1059.98 -263.41 
 325 -589.68 -1052.14 -263.41 
 326 -711.52 -950.97 -263.41 
 327 -1092.13 -879.39 -263.41 
 328 -479.36 -785.09 -263.41 
 329 -634.95 -794.56 -263.41 
 330 -595.04 -901.62 -263.41 
 331 -479.54 -682.43 -263.41 
 332 -421.72 -748.34 -263.41 
 333 -626.31 -912.11 -263.41 
 334 -540.25 -826.61 -263.41 
 335 -1398.56 -747.01 -263.41 
 336 -382.53 -836.90 -263.41 
 337 -701.36 -928.69 -263.41 
 338 -773.95 -869.45 -263.41 
 339 -599.75 -636.29 -263.41 
 340 -456.65 -659.57 -263.41 
 341 -790.40 -827.65 -263.41 
 342 -525.63 -899.40 -263.41 
 343 -1082.91 -830.15 -263.41 
 344 -488.41 -653.68 -263.41 
 345 -1174.86 -860.90 -263.41 
 346 -766.76 -715.50 -263.41 
 347 -480.99 -858.43 -263.41 
 348 -576.96 -1015.05 -263.41 
 349 -419.85 -1141.85 -263.41 
 350 -565.89 -838.91 -263.41 
 351 -390.27 -741.30 -263.41 
 352 -374.05 -914.57 -263.41 
 353 -425.79 -1005.37 -263.41 
 354 -1082.17 -1004.00 -263.41 
 355 -573.32 -1143.06 -263.41 
 356 -648.09 -1010.56 -263.41 
 357 -1123.33 -948.09 -263.41 
 358 -696.66 -737.06 -263.41 
 359 -706.63 -707.48 -263.41 
 360 -399.79 -738.29 -263.41 
 361 -926.23 -761.60 -263.41 
 362 -327.30 -823.92 -263.41 
 363 -499.23 -787.45 -263.41 
 364 -1132.23 -807.04 -263.41 
 365 -994.15 -933.30 -263.41 
 366 -1123.37 -832.27 -263.41 
 367 -387.08 -777.99 -263.41 
 368 -483.11 -897.66 -263.41 
 369 -528.89 -841.71 -263.41 
 370 -644.64 -685.08 -263.41 
 371 -733.17 -725.15 -263.41 
 372 -743.68 -738.40 -263.41 
 373 -595.38 -697.18 -263.41 
 374 -957.78 -708.37 -263.41 
 375 -453.69 -698.07 -263.41 
 376 -354.71 -668.99 -263.41 
 377 -619.49 -651.27 -263.41 
 378 -623.75 -668.86 -263.41 
 379 -930.50 -799.52 -263.41 
 380 -440.44 -752.45 -263.41 
 381 -1209.46 -874.34 -263.41 
 382 -532.20 -846.39 -263.41 
 383 -697.49 -782.59 -263.41 
 384 -1002.91 -715.92 -263.41 
 385 -451.74 -743.53 -263.41 
 386 -492.76 -737.73 -263.41 
 387 -581.48 -569.34 -263.41 
 388 -933.22 -704.13 -263.41 
 389 -820.32 -545.54 -263.41 
 390 -668.79 -686.90 -263.41 
 391 -465.64 -591.77 -263.41 
 392 -1063.73 -566.53 -263.41 
 393 -472.91 -598.26 -263.41 
 394 -376.31 -563.95 -263.41 
 395 -392.85 -547.40 -263.41 
 396 -513.50 -752.55 -263.41 
 397 -384.87 -735.91 -263.41 
 398 -484.93 -704.75 -263.41 
 399 -672.78 -711.09 -263.41 
 400 -972.21 -706.52 -263.41 
 401 -505.96 -559.40 -263.41 
 402 -618.37 -713.11 -263.41 
 403 -1038.61 -735.30 -263.41 
 404 -362.60 -625.18 -263.41 
 405 -483.57 -561.39 -263.41 
 406 -1025.08 -548.12 -263.41 
 407 -555.54 -691.17 -263.41 
 408 -555.38 -753.96 -263.41 
 409 -1075.54 -739.68 -263.41 
 410 -512.82 -742.91 -263.41 
 411 -391.36 -761.13 -263.41 
 412 -463.01 -772.83 -263.41 
 413 -990.06 -730.01 -263.41 
 414 -436.59 -823.82 -263.41 
 415 -459.21 -796.18 -263.41 
 416 -521.50 -759.22 -263.41 
 417 -806.37 -810.32 -263.41 
 418 -401.37 -801.46 -263.41 
 419 -441.16 -663.53 -263.41 
 420 -680.42 -752.75 -263.41 
 421 -386.48 -705.08 -263.41 
 422 -602.30 -783.94 -263.41 
 423 -693.95 -764.74 -263.41 
 424 -564.53 -698.31 -263.41 
 425 -383.06 -719.63 -263.41 
 426 -439.34 -640.64 -263.41 
 427 -400.81 -603.91 -263.41 
 428 -832.95 -910.51 -263.41 
 429 -690.24 -913.88 -263.41 
 430 -467.61 -740.36 -263.41 
 431 -465.56 -1070.60 -263.41 
 432 -965.69 -869.58 -263.41 
 433 -579.14 -855.26 -263.41 
 434 -509.22 -860.40 -263.41 
 435 -440.23 -632.76 -263.41 
 436 -423.26 -821.49 -263.41 
 437 -588.62 -764.29 -263.41 
 438 -515.15 -698.32 -263.41 
 439 -417.59 -762.19 -263.41 
 440 -642.34 -719.09 -263.41 
 441 -609.41 -698.44 -263.41 
 442 -351.28 -728.47 -263.41 
 443 -639.51 -846.99 -263.41 
 444 -492.87 -919.29 -263.41 
 445 -610.72 -649.39 -263.41 
 446 -454.22 -635.45 -263.41 
 447 -412.90 -569.12 -263.41 
 448 -437.19 -853.77 -263.41 
 449 -364.64 -942.72 -263.41 
 450 -426.02 -800.65 -263.41 
 451 -422.27 -857.12 -263.41 
 452 -376.69 -877.94 -263.41 
 453 -644.98 -716.79 -263.41 
 454 -533.28 -716.20 -263.41 
 455 -467.84 -782.40 -263.41 
 456 -458.21 -791.66 -263.41 
 457 -599.28 -774.67 -263.41 
 458 -943.48 -775.21 -263.41 
 459 -381.72 -484.62 -263.41 
 460 -412.97 -724.79 -263.41 
 461 -409.00 -622.34 -263.41 
 462 -759.72 -716.47 -263.41 
 463 -411.48 -759.96 -263.41 
 464 -463.17 -752.68 -263.41 
 465 -999.32 -592.48 -263.41 
 466 -429.81 -821.16 -263.41 
 467 -383.01 -822.00 -263.41 
 468 -619.51 -790.36 -263.41 
 469 -453.45 -754.49 -263.41 
 470 -387.39 -881.63 -263.41 
 471 -609.80 -888.46 -263.41 
 472 -1047.63 -703.11 -263.41 
 473 -1149.01 -848.40 -263.41 
 474 -408.02 -734.78 -263.41 
 475 -367.33 -714.70 -263.41 
 476 -402.59 -624.84 -263.41 
 477 -732.00 -670.19 -263.41 
 478 -494.40 -851.28 -263.41 
 479 -564.03 -622.94 -263.41 
 480 -492.26 -605.24 -263.41 
 481 -377.68 -627.88 -263.41 
 482 -503.78 -524.13 -263.41 
 483 -852.87 -536.43 -263.41 
 484 -430.80 -551.28 -263.41 
 485 -371.91 -666.09 -263.41 
 486 -439.87 -733.85 -263.41 
 487 -447.96 -675.30 -263.41 
 488 -352.98 -707.41 -263.41 
 489 -337.28 -869.60 -263.41 
 490 -579.14 -764.00 -263.41 
 491 -340.08 -725.05 -263.41 
 492 -394.02 -729.66 -263.41 
 493 -420.39 -780.40 -263.41 
 494 -554.82 -879.93 -263.41 
 495 -362.72 -1056.11 -263.41 
 496 -798.56 -1071.27 -263.41 
 497 -426.93 -896.50 -263.41 
 498 -439.98 -887.87 -263.41 
 499 -667.17 -982.96 -263.41 
