Iter | Sampling Pol | Evaluation Pol | Best (Sampled) 
   0 28.12 23.68 -100000000.00 
   1 16.58 23.34 28.12 
   2  9.77 25.18 28.12 
   3 20.06 28.00 28.12 
   4 23.38 19.32 28.12 
   5 20.10 21.57 28.12 
   6 23.84 14.39 28.12 
   7 19.83 21.86 28.12 
   8  6.03 17.80 28.12 
   9 23.57 16.09 28.12 
  10 11.07 16.59 28.12 
  11 20.88 21.36 28.12 
  12 23.94 26.95 28.12 
  13 20.62 21.96 28.12 
  14 19.16 21.29 28.12 
  15 14.07 14.51 28.12 
  16  3.02 25.76 28.12 
  17 19.14  9.56 28.12 
  18 13.63 15.86 28.12 
  19 37.11 19.81 28.12 
  20  3.76 18.84 37.11 
  21 19.83 18.60 37.11 
  22 13.89 16.37 37.11 
  23 16.62 21.82 37.11 
  24 17.43 26.70 37.11 
  25 16.59 27.12 37.11 
  26  1.75 27.42 37.11 
  27 11.80 17.21 37.11 
  28 15.07 28.53 37.11 
  29 27.37 11.92 37.11 
  30 15.33 25.12 37.11 
  31 36.19 20.05 37.11 
  32 30.19 22.40 37.11 
  33 31.40 21.01 37.11 
  34 16.91 25.05 37.11 
  35  9.30 16.69 37.11 
  36 13.58 22.38 37.11 
  37  8.31 20.96 37.11 
  38 16.11 28.09 37.11 
  39 22.17 22.26 37.11 
  40 15.39 14.83 37.11 
  41 24.17 23.93 37.11 
  42 22.13 17.38 37.11 
  43 24.25 22.62 37.11 
  44 10.13 17.89 37.11 
  45 33.69 26.16 37.11 
  46 18.34 26.48 37.11 
  47 10.08 22.79 37.11 
  48  5.30 21.53 37.11 
  49 23.12 29.37 37.11 
  50 13.83 17.28 37.11 
  51 28.51 16.18 37.11 
  52  8.29 20.56 37.11 
  53 23.01 18.35 37.11 
  54 12.60 14.21 37.11 
  55 19.91 25.80 37.11 
  56  8.54 19.47 37.11 
  57 16.82 17.10 37.11 
  58 10.81 18.46 37.11 
  59  7.52 22.01 37.11 
  60 23.67 22.90 37.11 
  61  7.02 18.96 37.11 
  62 28.34 26.47 37.11 
  63 23.90 24.10 37.11 
  64 17.80 13.55 37.11 
  65 12.85 22.35 37.11 
  66 21.53 15.14 37.11 
  67 31.31 13.36 37.11 
  68 11.15 21.51 37.11 
  69  9.56 26.30 37.11 
  70 14.66 18.39 37.11 
  71 31.18 18.60 37.11 
  72 25.57 23.72 37.11 
  73  6.78 22.52 37.11 
  74 24.22 14.67 37.11 
  75 11.13 26.72 37.11 
  76  4.52 17.08 37.11 
  77 13.12 19.81 37.11 
  78 16.87 23.95 37.11 
  79 25.64 25.16 37.11 
  80 19.93 20.59 37.11 
  81  9.60 12.83 37.11 
  82  9.52 14.58 37.11 
  83 23.72 22.14 37.11 
  84 10.81  5.19 37.11 
  85 22.06 11.76 37.11 
  86 24.10 18.75 37.11 
  87 10.06 17.45 37.11 
  88 10.81 21.61 37.11 
  89 15.66 18.24 37.11 
  90 13.88 14.53 37.11 
  91 12.37 28.14 37.11 
  92 16.39 14.99 37.11 
  93 21.75 22.21 37.11 
  94 22.86 21.28 37.11 
  95 18.38 15.39 37.11 
  96 20.38 24.26 37.11 
  97 15.10 24.40 37.11 
  98  8.28 26.66 37.11 
  99 18.19 23.79 37.11 
 100 24.61 16.01 37.11 
 101 10.05 24.67 37.11 
 102 29.72 20.05 37.11 
 103  8.55 16.00 37.11 
 104 20.48 16.72 37.11 
 105 22.80 19.31 37.11 
 106  3.80 29.28 37.11 
 107 18.08 22.13 37.11 
 108  6.81 17.86 37.11 
 109  9.62 23.21 37.11 
 110 29.56 27.80 37.11 
 111 15.54 29.28 37.11 
 112  7.12 14.12 37.11 
 113  6.80 24.84 37.11 
 114 12.31 17.58 37.11 
 115  2.00 22.73 37.11 
 116 18.05 10.29 37.11 
 117  9.80 26.50 37.11 
 118 24.90 22.48 37.11 
 119 12.05 16.71 37.11 
 120 12.31 12.14 37.11 
 121 37.19 16.81 37.11 
 122 28.18 18.64 37.19 
 123 12.09 17.63 37.19 
 124 20.31 22.85 37.19 
 125  7.76 16.71 37.19 
 126 12.36 12.45 37.19 
 127 16.36 12.36 37.19 
 128 27.64 19.14 37.19 
 129  5.02 20.18 37.19 
 130 13.16 15.06 37.19 
 131  6.79 27.53 37.19 
 132  7.52 26.24 37.19 
 133  8.02  9.78 37.19 
 134 13.80 20.82 37.19 
 135 32.93 23.94 37.19 
 136 32.46  9.11 37.19 
 137 15.29 16.13 37.19 
 138 18.37 13.15 37.19 
 139 15.30 19.73 37.19 
 140  4.81 17.57 37.19 
 141  7.78 11.89 37.19 
 142 15.07 11.89 37.19 
 143 17.32 17.84 37.19 
 144 20.36 19.80 37.19 
 145 18.82 18.49 37.19 
 146 24.70 19.07 37.19 
 147 17.86 21.64 37.19 
 148 12.30 14.95 37.19 
 149 26.44 22.46 37.19 
 150 11.05 19.81 37.19 
 151 23.89 15.46 37.19 
 152 19.67  8.35 37.19 
 153 38.71 10.29 37.19 
 154 31.95 24.26 38.71 
 155 11.03 20.23 38.71 
 156 22.35  6.95 38.71 
 157 22.19  9.97 38.71 
 158  5.02 16.06 38.71 
 159 11.31  7.78 38.71 
 160 17.31 21.91 38.71 
 161  8.52 16.15 38.71 
 162 34.90 17.38 38.71 
 163 21.95 23.32 38.71 
 164 14.13 21.32 38.71 
 165 21.88 20.22 38.71 
 166 28.40 20.55 38.71 
 167 23.89 22.43 38.71 
 168 10.55 20.77 38.71 
 169 22.41 28.76 38.71 
 170 11.61 14.65 38.71 
 171  3.55 15.95 38.71 
 172  6.05 13.14 38.71 
 173 23.37 16.14 38.71 
 174 21.15 14.56 38.71 
 175 21.33 14.05 38.71 
 176 16.31 13.91 38.71 
 177 14.62 26.27 38.71 
 178 20.84 18.99 38.71 
 179 19.87 20.07 38.71 
 180 34.39 18.57 38.71 
 181 17.87 23.14 38.71 
 182 22.82 31.52 38.71 
 183 21.60 29.87 38.71 
 184  6.27 24.91 38.71 
 185  9.78 20.91 38.71 
 186 12.79 26.00 38.71 
 187 24.82 25.25 38.71 
 188 20.34 20.47 38.71 
 189 16.31 15.88 38.71 
 190  6.78 13.63 38.71 
 191 28.86 18.47 38.71 
 192 27.13 26.08 38.71 
 193 23.35 28.03 38.71 
 194  9.28 15.05 38.71 
 195 26.87 14.29 38.71 
 196 24.35 26.61 38.71 
 197 23.82 19.93 38.71 
 198 33.92 24.15 38.71 
 199  3.01 24.64 38.71 
 200  3.52 18.57 38.71 
 201 15.88  7.45 38.71 
 202 17.10  9.46 38.71 
 203  9.53 10.54 38.71 
 204 16.88  8.46 38.71 
 205 11.11  7.44 38.71 
 206  8.80  9.06 38.71 
 207 28.92  8.86 38.71 
 208 18.32  7.11 38.71 
 209 21.97  7.76 38.71 
 210  7.27  7.37 38.71 
 211 13.32  6.27 38.71 
 212 13.84  5.87 38.71 
 213 40.22  9.88 38.71 
 214 10.27 10.65 40.22 
 215 24.10 10.38 40.22 
 216  4.01 10.38 40.22 
 217 18.88  7.53 40.22 
 218 16.81 10.53 40.22 
 219 14.57 10.55 40.22 
 220 19.12  9.61 40.22 
 221 17.06  8.62 40.22 
 222 18.07  6.02 40.22 
 223 30.89  7.30 40.22 
 224  9.04 19.20 40.22 
 225 22.35 19.23 40.22 
 226 23.08 23.97 40.22 
 227 23.14 10.47 40.22 
 228 27.59 11.79 40.22 
 229 15.57  8.89 40.22 
 230 11.78  8.62 40.22 
 231 17.29  7.10 40.22 
 232 11.32  8.03 40.22 
 233  3.78  7.80 40.22 
 234 24.93  8.41 40.22 
 235 30.66  7.44 40.22 
 236  6.03  9.03 40.22 
 237  5.52  8.69 40.22 
 238 17.55  9.20 40.22 
 239 28.98  7.62 40.22 
 240 17.36  8.36 40.22 
 241 24.86  9.61 40.22 
 242 18.84 10.21 40.22 
 243 18.33 12.25 40.22 
 244 25.37 26.97 40.22 
 245 25.84 15.05 40.22 
 246  5.51 18.46 40.22 
 247  4.77 12.67 40.22 
 248 25.56 20.29 40.22 
 249 18.91 21.87 40.22 
 250 13.84 25.92 40.22 
 251 18.35 17.90 40.22 
 252 17.05 22.74 40.22 
 253 18.82 15.63 40.22 
 254 37.17 11.22 40.22 
 255 18.06 12.90 40.22 
 256 14.56 24.39 40.22 
 257 11.83 22.75 40.22 
 258 15.85 16.12 40.22 
 259 12.58 15.13 40.22 
 260 20.32 20.89 40.22 
 261 16.06 22.58 40.22 
 262 15.58 12.62 40.22 
 263 19.37  9.94 40.22 
 264  9.78 12.79 40.22 
 265 36.87 18.31 40.22 
 266 23.08 18.56 40.22 
 267 24.63 25.74 40.22 
 268 16.82 13.97 40.22 
 269 15.30 15.73 40.22 
 270 15.84 23.92 40.22 
 271 20.41 22.52 40.22 
 272 22.89 18.30 40.22 
 273 29.14 17.15 40.22 
 274  8.27 20.55 40.22 
 275 18.56 13.62 40.22 
 276  8.53 17.48 40.22 
 277 13.82 20.06 40.22 
 278 30.13 15.80 40.22 
 279 16.30 23.00 40.22 
 280 19.11 18.81 40.22 
 281  7.77 16.15 40.22 
 282  7.79 19.99 40.22 
 283 28.67 22.16 40.22 
 284  8.02 14.59 40.22 
 285 22.33 24.68 40.22 
 286 18.08 25.46 40.22 
 287 23.35 23.78 40.22 
 288 16.14 21.25 40.22 
 289 33.79 31.09 40.22 
 290 29.42 22.89 40.22 
 291 20.12 14.72 40.22 
 292 18.30 26.49 40.22 
 293 21.85 15.55 40.22 
 294 18.32 24.66 40.22 
 295 32.40 25.84 40.22 
 296 20.44 17.92 40.22 
 297 27.63 15.83 40.22 
 298 20.12 19.26 40.22 
 299 10.78 32.02 40.22 
 300 17.85 16.64 40.22 
 301 12.58 32.97 40.22 
 302 22.13 18.65 40.22 
 303 21.07 20.93 40.22 
 304  5.28 25.68 40.22 
 305 10.05 17.99 40.22 
 306 11.04 20.41 40.22 
 307 21.15 24.67 40.22 
 308  8.29 25.23 40.22 
 309 31.96 23.95 40.22 
 310 22.11 20.50 40.22 
 311  5.03 22.23 40.22 
 312 19.58 21.14 40.22 
 313 35.72 18.64 40.22 
 314 13.32 28.75 40.22 
 315 31.23 23.15 40.22 
 316 23.33  8.04 40.22 
 317 22.08 20.06 40.22 
 318 24.44 33.36 40.22 
 319 10.81 19.45 40.22 
 320 15.80  8.72 40.22 
 321 11.10 24.84 40.22 
 322 25.85 18.35 40.22 
 323 14.54 25.67 40.22 
 324 10.83 20.24 40.22 
 325 26.96  9.54 40.22 
 326 18.39 25.10 40.22 
 327 11.65  8.29 40.22 
 328 15.82 17.39 40.22 
 329  5.77 18.81 40.22 
 330 15.62 21.59 40.22 
 331 20.63 25.25 40.22 
 332 24.16 16.82 40.22 
 333 25.83 22.44 40.22 
 334 25.88 22.93 40.22 
 335  8.57 17.17 40.22 
 336 23.83 16.53 40.22 
 337 27.93 12.57 40.22 
 338 14.83 18.08 40.22 
 339 26.09 15.39 40.22 
 340 15.84 24.54 40.22 
 341 20.93 14.73 40.22 
 342  9.81 16.83 40.22 
 343 19.10 24.92 40.22 
 344  5.80 11.22 40.22 
 345 16.62 18.61 40.22 
 346 33.22 24.00 40.22 
 347 16.10 21.49 40.22 
 348 16.34 16.39 40.22 
 349 27.99 24.24 40.22 
 350 11.56 21.67 40.22 
 351 19.14 33.72 40.22 
 352 31.76 26.93 40.22 
 353 19.18 21.00 40.22 
 354 20.41 28.75 40.22 
 355 18.67 14.33 40.22 
 356 21.59 23.87 40.22 
 357  2.76 17.04 40.22 
 358 20.98 16.58 40.22 
 359 12.32 22.29 40.22 
 360 32.66 17.45 40.22 
 361 15.39 19.97 40.22 
 362 11.82 14.13 40.22 
 363 30.41 24.08 40.22 
 364  7.02 24.59 40.22 
 365 32.29 15.82 40.22 
 366 14.83 24.75 40.22 
 367 15.32 24.13 40.22 
 368 13.82 14.06 40.22 
 369 11.57 19.79 40.22 
 370 10.81 18.49 40.22 
 371 11.81 14.80 40.22 
 372 24.96 15.26 40.22 
 373  7.55 21.37 40.22 
 374 29.93 15.42 40.22 
 375 17.08 16.00 40.22 
 376 10.78 18.77 40.22 
 377  9.03 19.75 40.22 
 378 14.10 26.46 40.22 
 379 22.17 15.15 40.22 
 380 25.45 19.49 40.22 
 381 38.95 20.26 40.22 
 382 29.93 21.18 40.22 
 383 22.85 22.33 40.22 
 384 24.09 21.03 40.22 
 385 14.82 17.90 40.22 
 386 29.40 23.02 40.22 
 387 13.81 18.00 40.22 
 388 20.71 20.00 40.22 
 389 16.32 21.75 40.22 
 390 15.06 20.30 40.22 
 391 24.13 30.48 40.22 
 392  7.79 25.82 40.22 
 393 22.09 22.56 40.22 
 394 26.01 21.78 40.22 
 395 25.67 26.04 40.22 
 396 20.87 12.05 40.22 
 397 20.61  8.31 40.22 
 398 25.63 14.75 40.22 
 399 11.80 11.46 40.22 
 400 35.99 20.47 40.22 
 401 30.15 11.33 40.22 
 402 28.96 16.59 40.22 
 403 18.40 16.39 40.22 
 404  4.53 21.88 40.22 
 405 23.14 27.26 40.22 
 406 21.58 23.32 40.22 
 407 19.31 17.01 40.22 
 408 13.35 17.00 40.22 
 409  6.53 24.15 40.22 
 410 17.12 27.84 40.22 
 411  7.52 13.68 40.22 
 412  7.06 18.14 40.22 
 413 22.62 25.06 40.22 
 414 10.78 25.74 40.22 
 415 30.21 15.94 40.22 
 416 23.86 17.36 40.22 
 417 20.11 17.00 40.22 
 418 20.94 24.18 40.22 
 419 23.01 17.83 40.22 
 420 24.92 21.19 40.22 
 421 25.60 16.04 40.22 
 422  5.26 25.37 40.22 
 423 29.13 16.74 40.22 
 424  5.53 18.45 40.22 
 425 25.49 22.44 40.22 
 426 23.39 20.59 40.22 
 427 31.45 24.20 40.22 
 428  7.64 20.35 40.22 
 429 21.08 18.71 40.22 
 430  4.30 24.91 40.22 
 431 21.09 23.45 40.22 
 432 20.09 15.31 40.22 
 433 22.83 29.31 40.22 
 434  6.52 25.28 40.22 
 435 23.12 15.05 40.22 
 436 26.36 24.20 40.22 
 437 24.56  8.94 40.22 
 438 25.20 20.15 40.22 
 439 25.15 21.17 40.22 
 440  7.79 18.33 40.22 
 441 17.09 23.69 40.22 
 442 35.61 15.92 40.22 
 443 15.57 26.47 40.22 
 444 22.63 19.56 40.22 
 445 22.08 11.26 40.22 
 446 11.58 16.57 40.22 
 447 17.39 26.21 40.22 
 448 18.03 25.31 40.22 
 449 29.98 16.17 40.22 
 450 27.92 19.16 40.22 
 451 19.16 16.75 40.22 
 452 13.30 12.67 40.22 
 453 16.85 18.55 40.22 
 454  5.29 12.91 40.22 
 455 13.84 13.33 40.22 
 456 28.66 21.06 40.22 
 457 29.01 15.16 40.22 
 458 26.72 14.60 40.22 
 459 24.88 13.27 40.22 
 460 24.34 11.06 40.22 
 461 15.31 15.34 40.22 
 462 13.11 13.52 40.22 
 463 12.83 15.05 40.22 
 464 31.67 24.66 40.22 
 465 11.06 16.43 40.22 
 466 14.43 22.92 40.22 
 467 21.41 13.26 40.22 
 468  9.81 22.84 40.22 
 469 34.73 19.11 40.22 
 470 13.06 22.99 40.22 
 471 11.31 10.84 40.22 
 472 25.38 16.45 40.22 
 473 18.37 26.90 40.22 
 474 19.60 29.93 40.22 
 475 37.61 19.50 40.22 
 476 22.98 19.88 40.22 
 477 27.38 10.85 40.22 
 478 10.55 16.37 40.22 
 479  5.04 15.94 40.22 
 480 23.13 12.32 40.22 
 481 12.33 22.13 40.22 
 482 10.10 27.43 40.22 
 483 16.87 19.21 40.22 
 484 13.14 17.13 40.22 
 485 24.92 17.90 40.22 
 486 19.67 28.06 40.22 
 487 26.42 18.48 40.22 
 488 30.44 20.77 40.22 
 489 20.69 18.22 40.22 
 490 23.66 16.05 40.22 
 491 20.90 15.53 40.22 
 492 23.91 17.79 40.22 
 493 28.73 14.29 40.22 
 494 32.01 18.48 40.22 
 495 22.91 18.07 40.22 
 496 35.00 17.71 40.22 
 497 15.31 31.10 40.22 
 498 24.38 17.61 40.22 
 499  2.50 15.76 40.22 
 500 24.69 22.65 40.22 
 501 17.33 22.62 40.22 
 502 28.40 27.13 40.22 
 503 15.86 16.67 40.22 
 504 22.60 21.95 40.22 
 505 20.86 16.12 40.22 
 506 12.85 26.70 40.22 
 507 18.63 21.71 40.22 
 508 17.62 19.73 40.22 
 509 26.47 25.34 40.22 
 510 17.46 28.92 40.22 
 511 25.86 20.63 40.22 
 512 11.05  9.90 40.22 
 513  6.58 16.66 40.22 
 514  6.27 15.33 40.22 
 515 19.86 23.45 40.22 
 516 19.44 23.46 40.22 
 517 28.94 13.50 40.22 
 518 26.41 22.89 40.22 
 519  9.77 13.23 40.22 
 520 17.84 22.36 40.22 
 521 17.83  9.73 40.22 
 522 26.89 16.34 40.22 
 523 39.50 19.58 40.22 
 524 21.18 15.65 40.22 
 525 19.86 21.20 40.22 
 526 14.32 17.65 40.22 
 527  9.81 16.77 40.22 
 528 12.58 20.72 40.22 
 529 16.42 18.53 40.22 
 530 20.86 19.04 40.22 
 531 23.41 21.03 40.22 
 532 31.23 17.01 40.22 
 533 20.36 24.29 40.22 
 534  7.29 16.78 40.22 
 535 19.85 19.20 40.22 
 536 26.88 19.37 40.22 
 537 17.60 16.64 40.22 
 538 17.36 21.11 40.22 
 539  8.78  9.14 40.22 
 540 15.84 20.45 40.22 
 541 19.77 22.85 40.22 
 542 14.60 10.29 40.22 
 543 22.84 19.71 40.22 
 544 14.10 23.08 40.22 
 545 14.29 22.77 40.22 
 546  7.06 16.17 40.22 
 547 14.07 17.31 40.22 
 548 10.07 20.44 40.22 
 549 13.55 20.13 40.22 
 550 17.66 18.91 40.22 
 551 29.18 31.55 40.22 
 552 24.93 14.86 40.22 
 553 14.83 15.08 40.22 
 554 15.06 23.72 40.22 
 555 33.89 21.10 40.22 
 556 16.07 13.41 40.22 
 557 20.15 17.54 40.22 
 558 33.76 18.70 40.22 
 559 24.63 14.25 40.22 
 560  2.76 15.00 40.22 
 561 17.86 23.03 40.22 
 562 17.38 15.02 40.22 
 563 13.80 21.05 40.22 
 564 14.30 18.02 40.22 
 565 14.32 10.55 40.22 
 566 36.71 26.06 40.22 
 567 20.39 16.54 40.22 
 568 20.38 20.99 40.22 
 569 15.87 22.61 40.22 
 570 21.64 20.12 40.22 
 571 14.84 28.51 40.22 
 572 19.64 14.74 40.22 
 573 28.41 25.72 40.22 
 574 26.17 15.59 40.22 
 575 30.96 17.76 40.22 
 576 14.83  7.21 40.22 
 577 24.18 19.62 40.22 
 578 31.97 22.73 40.22 
 579 16.83 26.14 40.22 
 580 18.86 22.08 40.22 
 581 16.84 22.03 40.22 
 582 12.31 18.75 40.22 
 583 18.08 24.03 40.22 
 584  8.76 20.77 40.22 
 585  8.57 17.10 40.22 
 586 12.32 28.81 40.22 
 587 11.06 18.51 40.22 
 588 19.37 16.58 40.22 
 589  9.81  9.89 40.22 
 590 13.55 18.28 40.22 
 591 11.84 19.78 40.22 
 592 22.45 22.73 40.22 
 593  9.31 30.97 40.22 
 594 15.91 22.12 40.22 
 595  6.28 21.58 40.22 
 596 16.13 13.83 40.22 
 597 14.90 15.91 40.22 
 598 15.62 18.84 40.22 
 599 12.58 17.12 40.22 
 600 20.59 16.79 40.22 
 601 13.57 14.68 40.22 
 602 12.07 18.74 40.22 
 603 16.15 18.02 40.22 
 604 20.48 21.32 40.22 
 605 27.61 21.22 40.22 
 606 24.51 26.33 40.22 
 607 15.84 25.58 40.22 
 608  5.02 12.40 40.22 
 609 32.89 23.14 40.22 
 610 35.67 18.27 40.22 
 611 13.07 25.65 40.22 
 612  1.27 27.58 40.22 
 613 16.35 22.17 40.22 
 614 29.70 11.74 40.22 
 615 27.48 28.43 40.22 
 616 10.05 14.92 40.22 
 617 23.65 12.01 40.22 
 618 12.11 25.36 40.22 
 619 15.53 19.16 40.22 
 620 18.07 13.34 40.22 
 621 15.87 20.83 40.22 
 622 21.74 33.93 40.22 
 623 29.25 18.75 40.22 
 624 25.68 26.88 40.22 
 625 11.36 21.76 40.22 
 626 13.57 27.64 40.22 
 627 14.09 18.85 40.22 
 628 23.79 25.60 40.22 
 629 28.18 32.22 40.22 
 630 30.47 14.89 40.22 
 631 11.30 19.81 40.22 
 632  8.05 17.45 40.22 
 633  6.79 15.11 40.22 
 634 32.81 28.50 40.22 
 635 20.60 16.83 40.22 
 636 22.33 14.79 40.22 
 637  1.75 22.52 40.22 
 638 18.83 25.15 40.22 
 639 25.26 14.32 40.22 
 640 27.99 27.14 40.22 
 641 22.45 22.90 40.22 
 642 11.28 25.80 40.22 
 643 14.23 18.75 40.22 
 644 21.95 22.73 40.22 
 645 24.68 18.97 40.22 
 646 11.07 19.72 40.22 
 647 19.07 22.93 40.22 
 648 17.34 23.28 40.22 
 649 26.49 17.53 40.22 
 650 35.76 20.17 40.22 
 651 30.98 15.27 40.22 
 652  9.86 14.20 40.22 
 653 18.16 20.94 40.22 
 654 19.68 17.08 40.22 
 655 21.88 23.28 40.22 
 656 30.26 17.33 40.22 
 657  8.29 19.18 40.22 
 658 41.60 15.86 40.22 
 659 16.37 15.79 41.60 
 660 11.09 20.03 41.60 
 661 20.19 16.02 41.60 
 662 20.40 15.27 41.60 
 663 21.09  7.56 41.60 
 664  8.81 14.23 41.60 
 665 22.20 16.59 41.60 
 666 19.60 21.41 41.60 
 667 21.44  7.82 41.60 
 668 25.67 19.25 41.60 
 669 40.37 14.96 41.60 
 670 12.30 19.64 41.60 
 671 22.90 18.78 41.60 
 672 27.40 20.36 41.60 
 673 25.46 26.28 41.60 
 674 24.45 20.62 41.60 
 675 26.87 13.18 41.60 
 676 12.54 20.97 41.60 
 677 27.38 20.85 41.60 
 678 14.05 24.63 41.60 
 679 12.08 27.60 41.60 
 680 38.73 16.77 41.60 
 681  8.77 17.85 41.60 
 682 15.56 18.61 41.60 
 683 31.49 19.87 41.60 
 684 11.06 18.99 41.60 
 685 12.82 21.73 41.60 
 686 23.92 20.54 41.60 
 687 20.82 25.25 41.60 
 688 21.66 19.77 41.60 
 689 11.83 24.31 41.60 
 690 28.70 19.78 41.60 
 691 26.43 18.00 41.60 
 692 19.57 25.79 41.60 
 693 27.87 28.80 41.60 
 694 10.40 23.70 41.60 
 695 16.06 16.62 41.60 
 696 25.15 19.18 41.60 
 697 14.09 20.19 41.60 
 698 18.61 21.19 41.60 
 699 14.07 20.97 41.60 
 700 25.62 21.38 41.60 
 701 18.40 26.03 41.60 
 702 12.87 22.52 41.60 
 703 17.14 19.49 41.60 
 704 15.32 21.19 41.60 
 705 30.70 22.83 41.60 
 706 30.49 22.24 41.60 
 707 20.90 19.52 41.60 
 708  9.89 26.76 41.60 
 709 37.45 21.95 41.60 
 710 14.87 14.96 41.60 
 711 16.58 20.35 41.60 
 712 10.05 19.55 41.60 
 713 29.39 29.73 41.60 
 714 22.17 26.94 41.60 
 715 16.92 15.92 41.60 
 716 21.14 11.00 41.60 
 717 16.37 27.37 41.60 
 718 21.18 21.77 41.60 
 719 18.90 25.48 41.60 
 720 21.85 16.86 41.60 
 721 14.69 18.76 41.60 
 722 23.69 19.64 41.60 
 723 24.65 17.37 41.60 
 724 12.07 19.34 41.60 
 725 22.65 26.81 41.60 
 726 26.11 25.89 41.60 
 727  7.56 21.81 41.60 
 728 20.18 17.97 41.60 
 729 12.82 16.13 41.60 
 730 14.34 29.21 41.60 
 731 10.12 17.78 41.60 
 732 14.84 23.66 41.60 
 733 15.60 14.75 41.60 
 734  7.06 20.32 41.60 
 735 13.37 30.44 41.60 
 736 16.99 21.82 41.60 
 737  5.79 15.97 41.60 
 738 19.60 26.59 41.60 
 739 21.61 21.20 41.60 
 740 16.61 23.49 41.60 
 741 13.33 16.21 41.60 
 742 21.11 18.53 41.60 
 743 14.88 19.10 41.60 
 744 16.35 13.90 41.60 
 745 31.91 14.10 41.60 
 746 14.99 22.67 41.60 
 747 20.63 17.82 41.60 
 748  8.55 13.90 41.60 
 749 12.60 16.97 41.60 
 750 11.11 15.50 41.60 
 751 25.43 13.50 41.60 
 752 16.17 21.10 41.60 
 753 16.37 18.92 41.60 
 754 31.03 20.19 41.60 
 755 11.08 24.24 41.60 
 756 18.95 21.05 41.60 
 757 22.67 14.79 41.60 
 758  9.87 13.20 41.60 
 759  4.78 12.40 41.60 
 760 33.94 29.42 41.60 
 761  9.32 24.78 41.60 
 762 30.86 15.34 41.60 
 763 14.57 15.95 41.60 
 764 14.84 21.80 41.60 
 765 14.88 13.94 41.60 
 766 15.58 18.95 41.60 
 767 18.13 30.93 41.60 
 768 22.69 21.63 41.60 
 769 26.88 19.45 41.60 
 770 23.18 23.53 41.60 
 771 29.70 17.45 41.60 
 772 24.65 20.92 41.60 
 773  7.29 18.14 41.60 
 774  7.80 15.74 41.60 
 775 21.37 18.98 41.60 
 776 24.38 21.69 41.60 
 777 17.09 16.46 41.60 
 778 20.87 26.01 41.60 
 779 18.88 18.57 41.60 
 780  7.05 24.57 41.60 
 781 16.39 20.68 41.60 
 782 12.82 13.87 41.60 
 783 26.92 23.90 41.60 
 784 18.87 26.98 41.60 
 785 23.65 17.32 41.60 
 786 12.82 13.77 41.60 
 787  9.59 15.82 41.60 
 788 17.64 16.12 41.60 
 789 21.63 16.47 41.60 
 790 25.64 14.84 41.60 
 791 15.37 21.94 41.60 
 792 16.35 19.67 41.60 
 793 20.66 17.07 41.60 
 794 25.40 13.58 41.60 
 795 18.87 18.54 41.60 
 796 20.70 22.51 41.60 
 797 34.71 19.72 41.60 
 798 14.82 21.18 41.60 
 799 22.88 15.98 41.60 
 800 23.86 21.69 41.60 
 801 17.44 17.57 41.60 
 802 23.12 19.87 41.60 
 803 24.70 16.74 41.60 
 804 16.66 18.20 41.60 
 805 13.09 18.62 41.60 
 806 25.28 23.70 41.60 
 807 21.14 18.63 41.60 
 808  7.05 15.50 41.60 
 809 22.75 17.64 41.60 
 810 21.87 15.64 41.60 
 811 34.52 12.98 41.60 
 812 12.54 15.76 41.60 
 813  7.78 18.03 41.60 
 814 18.92 18.04 41.60 
 815 23.41 25.73 41.60 
 816 16.86 15.09 41.60 
 817  1.26 16.12 41.60 
 818 27.89 19.55 41.60 
 819 11.81 25.07 41.60 
 820 38.00 13.45 41.60 
 821 29.60 16.01 41.60 
 822 19.64 17.89 41.60 
 823  7.02 15.33 41.60 
 824  9.85 18.47 41.60 
 825 16.36 25.09 41.60 
 826  6.83 13.43 41.60 
 827 41.53 18.61 41.60 
 828 23.12 11.30 41.60 
 829 14.93 25.82 41.60 
 830 18.67 13.78 41.60 
 831 25.64  7.87 41.60 
 832 22.84 22.31 41.60 
 833 13.13 21.49 41.60 
 834 29.20 16.52 41.60 
 835  4.77 25.94 41.60 
 836 10.84 11.71 41.60 
 837  9.04 16.55 41.60 
 838 10.80 19.24 41.60 
 839 20.88 18.98 41.60 
 840  9.82 10.25 41.60 
 841 20.11 14.53 41.60 
 842 12.13 16.61 41.60 
 843 10.58 16.77 41.60 
 844 22.60 23.08 41.60 
 845 29.21 24.40 41.60 
 846 29.35 16.87 41.60 
 847 32.88 21.97 41.60 
 848 20.86 27.48 41.60 
 849 25.95 26.27 41.60 
 850 16.90 16.65 41.60 
 851 24.46 17.13 41.60 
 852  9.56 19.80 41.60 
 853 14.64 28.22 41.60 
 854 23.60 23.94 41.60 
 855 18.09 28.61 41.60 
 856  8.81 16.70 41.60 
 857 11.84 18.97 41.60 
 858 12.84 19.29 41.60 
 859 34.78 19.37 41.60 
 860 25.62 22.19 41.60 
 861  8.29 21.16 41.60 
 862 28.45 15.46 41.60 
 863 13.86 21.57 41.60 
 864 20.39 13.09 41.60 
 865 22.67 16.31 41.60 
 866 10.81 19.18 41.60 
 867  5.53 23.14 41.60 
 868 12.80 21.10 41.60 
 869 29.91 18.49 41.60 
 870 17.19 13.35 41.60 
 871 17.39 19.93 41.60 
 872 14.85 20.95 41.60 
 873 13.43 18.33 41.60 
 874 14.85 10.97 41.60 
 875 32.60 11.63 41.60 
 876 26.47 11.20 41.60 
 877 22.63 18.26 41.60 
 878 23.61 13.15 41.60 
 879 13.07 16.18 41.60 
 880 18.35 21.09 41.60 
 881 14.05 14.55 41.60 
 882 32.47 22.81 41.60 
 883  7.03 12.36 41.60 
 884 26.83 20.22 41.60 
 885 21.34 21.09 41.60 
 886 14.62 17.20 41.60 
 887 34.53 15.48 41.60 
 888 21.24 15.35 41.60 
 889 15.64  7.64 41.60 
 890 38.78 27.47 41.60 
 891 19.10 18.97 41.60 
 892 26.11 16.92 41.60 
 893 23.09 18.43 41.60 
 894 15.31 22.25 41.60 
 895 19.66 20.16 41.60 
 896 17.87 12.56 41.60 
 897 20.12 20.30 41.60 
 898 12.34 24.85 41.60 
 899 25.19 25.79 41.60 
 900 36.88 11.58 41.60 
 901 35.96 18.27 41.60 
 902 26.69 14.33 41.60 
 903 19.06 10.72 41.60 
 904  4.07 20.01 41.60 
 905 24.30 23.97 41.60 
 906 16.91 10.49 41.60 
 907 21.19  7.71 41.60 
 908 26.66 12.90 41.60 
 909 16.34 15.94 41.60 
 910 26.85  6.36 41.60 
 911  5.54 10.29 41.60 
 912 23.15 13.50 41.60 
 913 32.18  8.38 41.60 
 914  4.02 10.64 41.60 
 915 19.36 12.93 41.60 
 916  9.28 20.66 41.60 
 917 26.69 18.82 41.60 
 918  9.79  9.96 41.60 
 919 15.10 11.39 41.60 
 920 23.34  9.16 41.60 
 921 18.44 14.91 41.60 
 922 10.29 17.27 41.60 
 923 21.87 13.21 41.60 
 924 29.49 21.35 41.60 
 925 24.10 17.97 41.60 
 926 22.40 19.48 41.60 
 927 22.01 15.64 41.60 
 928 16.57 18.11 41.60 
 929 14.55 23.83 41.60 
 930 28.01 23.79 41.60 
 931 22.37 28.06 41.60 
 932 35.99 18.13 41.60 
 933 12.80 22.72 41.60 
 934 17.38 27.11 41.60 
 935  4.27 13.00 41.60 
 936 14.58 18.52 41.60 
 937 17.34 16.07 41.60 
 938 15.56 26.16 41.60 
 939 18.61 18.28 41.60 
 940 17.54 26.38 41.60 
 941 18.95 18.79 41.60 
 942 20.44 13.39 41.60 
 943 26.41 20.58 41.60 
 944 13.34 36.01 41.60 
 945 22.99 17.60 41.60 
 946 24.09 18.21 41.60 
 947 11.29 21.66 41.60 
 948 23.36 16.50 41.60 
 949 19.32  9.62 41.60 
 950 11.06 30.14 41.60 
 951 29.37 18.93 41.60 
 952 27.41 19.81 41.60 
 953 18.60 17.53 41.60 
 954 21.64 15.89 41.60 
 955 26.34 19.86 41.60 
 956 22.12 15.08 41.60 
 957 13.80 24.27 41.60 
 958 10.06 29.40 41.60 
 959 19.06 12.06 41.60 
 960 19.57 17.26 41.60 
 961 16.61 24.52 41.60 
 962 23.57 20.55 41.60 
 963 30.38 18.81 41.60 
 964 18.86 24.52 41.60 
 965 10.56 14.71 41.60 
 966 13.53 28.30 41.60 
 967 15.81 25.99 41.60 
 968 22.62 22.70 41.60 
 969 10.29 13.93 41.60 
 970 12.80 13.43 41.60 
 971 30.16 21.19 41.60 
 972 33.47 24.40 41.60 
 973 18.82 23.61 41.60 
 974 25.68 20.27 41.60 
 975  8.03 25.95 41.60 
 976 18.35 18.61 41.60 
 977  4.77 15.98 41.60 
 978 22.25 22.73 41.60 
 979 19.33 26.83 41.60 
 980 13.62 17.28 41.60 
 981 17.62 19.95 41.60 
 982 35.22 12.89 41.60 
 983 10.10 16.96 41.60 
 984  8.28 15.43 41.60 
 985  8.81 17.33 41.60 
 986 22.82 21.18 41.60 
 987 34.29 13.83 41.60 
 988 30.66 23.82 41.60 
 989 10.55 15.30 41.60 
 990 17.60 10.56 41.60 
 991 28.36 10.97 41.60 
 992 11.36  8.12 41.60 
 993 24.12 18.50 41.60 
 994 17.63 11.28 41.60 
 995 26.65  8.95 41.60 
 996  8.78  7.82 41.60 
 997 22.68 11.80 41.60 
 998 17.31  9.37 41.60 
 999 37.36  9.95 41.60 
1000  4.55 25.36 41.60 
1001 15.35 17.41 41.60 
1002 14.83 20.93 41.60 
1003  9.78 25.22 41.60 
1004 13.80 23.14 41.60 
1005  4.76 23.45 41.60 
1006 20.78 21.19 41.60 
1007 25.07 16.95 41.60 
1008 12.08 20.79 41.60 
1009 13.05 25.04 41.60 
1010 22.41 20.85 41.60 
1011 14.89 22.52 41.60 
1012 15.83 18.56 41.60 
1013 21.34 24.26 41.60 
1014 14.08 22.67 41.60 
1015  7.03 23.77 41.60 
1016 26.67 16.01 41.60 
1017 14.09 20.55 41.60 
1018 40.44 24.08 41.60 
1019 24.70 21.00 41.60 
1020 17.60  8.30 41.60 
1021 22.86 23.26 41.60 
1022 23.64 16.82 41.60 
1023 13.38 16.44 41.60 
1024 25.90 15.59 41.60 
1025 14.32 12.72 41.60 
1026 27.40 21.76 41.60 
1027 13.57  7.62 41.60 
1028 22.65 20.17 41.60 
1029 16.58 25.16 41.60 
1030 13.56 21.09 41.60 
1031 19.86 18.44 41.60 
1032 38.27 20.84 41.60 
1033 15.08 11.80 41.60 
1034 21.12 24.94 41.60 
1035 14.56 22.70 41.60 
1036 34.63 19.38 41.60 
1037 10.33 14.12 41.60 
1038  8.31 16.11 41.60 
1039 29.02 13.06 41.60 
1040 16.37 29.18 41.60 
1041  6.27 24.63 41.60 
1042 30.47 17.04 41.60 
1043 20.67 20.23 41.60 
1044 20.10 23.09 41.60 
1045  9.82 25.75 41.60 
1046 22.14 17.41 41.60 
1047 17.88 15.38 41.60 
1048  9.65 14.67 41.60 
1049  4.77 22.81 41.60 
1050 22.66 18.71 41.60 
1051 12.03 24.61 41.60 
1052 25.71 18.14 41.60 
1053 29.98 20.02 41.60 
1054 17.84 13.77 41.60 
1055 22.94 17.22 41.60 
1056  8.55 22.83 41.60 
1057 27.44 17.66 41.60 
1058 28.24 17.89 41.60 
1059 23.42 21.00 41.60 
1060 28.58 22.39 41.60 
1061 27.52 21.90 41.60 
1062 24.13 28.47 41.60 
1063 17.90 17.93 41.60 
1064 10.86 18.62 41.60 
1065  5.53 21.22 41.60 
1066 14.69 14.69 41.60 
1067 24.10 17.56 41.60 
1068 23.92 23.61 41.60 
1069 19.47 10.06 41.60 
1070 30.31 22.52 41.60 
1071 32.24 24.99 41.60 
1072 19.44 17.04 41.60 
1073 14.10 25.98 41.60 
1074 27.63 20.99 41.60 
1075 29.71 14.10 41.60 
1076 20.96 23.29 41.60 
1077  4.02 16.21 41.60 
1078 11.35 19.41 41.60 
1079 24.19 20.57 41.60 
1080 25.90 18.68 41.60 
1081 21.03 14.73 41.60 
1082 28.27 20.40 41.60 
1083 14.67 17.08 41.60 
1084 31.21 14.95 41.60 
1085 26.02 21.26 41.60 
1086 20.45 22.40 41.60 
1087 13.81 25.79 41.60 
1088 11.34 28.88 41.60 
1089 22.74 18.42 41.60 
1090 19.38 12.49 41.60 
1091  4.26 19.21 41.60 
1092 24.87 20.18 41.60 
1093 16.08 14.38 41.60 
1094 24.46 18.21 41.60 
1095 24.44 12.15 41.60 
1096 10.32 18.58 41.60 
1097 16.62 17.35 41.60 
1098 11.83 23.71 41.60 
1099 24.80 19.71 41.60 
1100 32.95 17.11 41.60 
1101 19.62 18.66 41.60 
1102 12.34 27.38 41.60 
1103 24.49 18.55 41.60 
1104 24.50 13.00 41.60 
1105  4.53 12.59 41.60 
1106 16.10 15.41 41.60 
1107 19.42 16.78 41.60 
1108 27.06 17.59 41.60 
1109 25.19 16.19 41.60 
1110 25.88 13.00 41.60 
1111 33.30 14.83 41.60 
1112 14.85 13.60 41.60 
1113 24.89 18.71 41.60 
1114 14.36 20.56 41.60 
1115  7.27 23.22 41.60 
1116 23.96 10.59 41.60 
1117 11.59 19.48 41.60 
1118 25.14  4.61 41.60 
1119 28.42  6.12 41.60 
1120 11.34  6.94 41.60 
1121 26.21  5.60 41.60 
1122 17.34 21.16 41.60 
1123  7.28  3.94 41.60 
1124 18.83  5.87 41.60 
1125 24.15  6.31 41.60 
1126  8.81  5.54 41.60 
1127 25.39  6.44 41.60 
1128 11.60  5.70 41.60 
1129  4.02  6.78 41.60 
1130  9.03 12.10 41.60 
1131 16.34  7.62 41.60 
1132 31.77  5.95 41.60 
1133 20.87  6.61 41.60 
1134 19.10 13.02 41.60 
1135 13.43 12.44 41.60 
1136 18.84  9.13 41.60 
1137  8.05  8.47 41.60 
1138 23.88  8.11 41.60 
1139 13.34 17.04 41.60 
1140 15.37 14.42 41.60 
1141 35.86 11.23 41.60 
1142  8.05 11.65 41.60 
1143 25.48 10.39 41.60 
1144 10.07 12.15 41.60 
1145  6.54 16.55 41.60 
1146 28.98 16.85 41.60 
1147  8.35 19.19 41.60 
1148 12.59 19.74 41.60 
1149 11.10 18.70 41.60 
1150 20.62 16.60 41.60 
1151  9.80 27.75 41.60 
1152 10.13 15.00 41.60 
1153 10.32 24.38 41.60 
1154 16.91 12.97 41.60 
1155 23.84 14.17 41.60 
1156 18.72 12.58 41.60 
1157  9.27 16.00 41.60 
1158 13.12 15.66 41.60 
1159 12.79 22.46 41.60 
1160 29.44 12.56 41.60 
1161 12.84 16.53 41.60 
1162 14.56 12.16 41.60 
1163 28.23 16.33 41.60 
1164  6.05 18.18 41.60 
1165 22.44 16.99 41.60 
1166 16.90 14.51 41.60 
1167 18.12 24.99 41.60 
1168 25.67 13.15 41.60 
1169 14.31  9.05 41.60 
1170 26.76 18.20 41.60 
1171  9.35 16.35 41.60 
1172 11.13 20.70 41.60 
1173 42.60 17.56 41.60 
1174 26.25 21.02 42.60 
1175 26.49 15.18 42.60 
1176 29.67 11.31 42.60 
1177 35.22 20.06 42.60 
1178  9.82 26.47 42.60 
1179 19.39 22.09 42.60 
1180 26.38 20.40 42.60 
1181 43.68 19.35 42.60 
1182  9.59 16.51 43.68 
1183 33.50 18.55 43.68 
1184 14.08 23.59 43.68 
1185  8.01 18.32 43.68 
1186 10.34  8.24 43.68 
1187 21.94 17.66 43.68 
1188  8.30 16.47 43.68 
1189 11.60 15.61 43.68 
1190 16.18 17.38 43.68 
1191 22.91 13.75 43.68 
1192 33.74 28.29 43.68 
1193 14.09 17.85 43.68 
1194 33.88 20.13 43.68 
1195 19.39 19.34 43.68 
1196 40.60 12.37 43.68 
1197 30.20 22.25 43.68 
1198 11.34 16.91 43.68 
1199  7.52 19.28 43.68 
1200 13.60 32.93 43.68 
1201 15.19 19.58 43.68 
1202 10.35 16.72 43.68 
1203 15.59 23.46 43.68 
1204 18.84 21.55 43.68 
1205 10.32 14.21 43.68 
1206 37.16 18.62 43.68 
1207 25.76 14.37 43.68 
1208 19.34 13.35 43.68 
1209 19.59 11.32 43.68 
1210 17.67 22.57 43.68 
1211 14.84 13.82 43.68 
1212 19.98 16.87 43.68 
1213 22.94 14.78 43.68 
1214 27.50 15.61 43.68 
1215  5.79 18.85 43.68 
1216 11.06 17.40 43.68 
1217 21.45 18.46 43.68 
1218 38.56 14.66 43.68 
1219 17.90  9.46 43.68 
1220 16.34 21.69 43.68 
1221 35.51 15.93 43.68 
1222 15.36 15.42 43.68 
1223 12.83 18.44 43.68 
1224 22.66 10.73 43.68 
1225 15.33 17.17 43.68 
1226  7.03 13.18 43.68 
1227 19.64 15.70 43.68 
1228 15.86 16.77 43.68 
1229 25.39 13.07 43.68 
1230 28.70 20.99 43.68 
1231 24.20 16.46 43.68 
1232 31.27 15.26 43.68 
1233 22.40 13.24 43.68 
1234 17.40 12.56 43.68 
1235 10.08 21.09 43.68 
1236 17.93 17.69 43.68 
1237 26.48 18.26 43.68 
1238 17.82 20.62 43.68 
1239 10.34 13.49 43.68 
1240  8.52 14.36 43.68 
1241 17.45 25.58 43.68 
1242 22.67 19.81 43.68 
1243 30.48 20.19 43.68 
1244 24.89 21.30 43.68 
1245 15.84 18.54 43.68 
1246 14.38 18.39 43.68 
1247 26.23 22.71 43.68 
1248 20.95 12.00 43.68 
1249 19.32 21.31 43.68 
1250 19.87 16.20 43.68 
1251 10.09 23.02 43.68 
1252  7.28 12.94 43.68 
1253 15.07 20.22 43.68 
1254 24.65 18.68 43.68 
1255 12.84 14.45 43.68 
1256 26.71 14.42 43.68 
1257 27.21 13.66 43.68 
1258 12.07 15.16 43.68 
1259  3.76 17.92 43.68 
1260 22.10 12.75 43.68 
1261 22.11 17.76 43.68 
1262 20.60 12.24 43.68 
1263  4.51 19.84 43.68 
1264 15.60 16.17 43.68 
1265 29.01 16.68 43.68 
1266 16.04 14.92 43.68 
1267 11.06 16.35 43.68 
1268 18.05 11.30 43.68 
1269 21.83  9.39 43.68 
1270 15.82 18.75 43.68 
1271 22.85 15.84 43.68 
1272 34.22 20.53 43.68 
1273 11.07 17.92 43.68 
1274 24.61 14.23 43.68 
1275 10.06 18.16 43.68 
1276 17.10 15.82 43.68 
1277 20.07 23.70 43.68 
1278 10.03 17.89 43.68 
1279  6.01 24.92 43.68 
1280 26.99 14.91 43.68 
1281 26.98 21.25 43.68 
1282 11.07 13.38 43.68 
1283 33.15 21.75 43.68 
1284 18.15 26.43 43.68 
1285 23.14 20.76 43.68 
1286 19.84 13.97 43.68 
1287 21.38 14.71 43.68 
1288 15.85 12.46 43.68 
1289 17.58 25.59 43.68 
1290 34.94 20.15 43.68 
1291 24.38 23.78 43.68 
1292 17.63 14.44 43.68 
1293  8.03 26.50 43.68 
1294  5.26 26.42 43.68 
1295 19.36  9.22 43.68 
1296  6.56 18.74 43.68 
1297 10.87 14.91 43.68 
1298 18.33 25.60 43.68 
1299 26.44  7.69 43.68 
1300 44.17 13.48 43.68 
1301 13.32 14.59 44.17 
1302 16.85 19.56 44.17 
1303 23.39 19.57 44.17 
1304  8.85 14.05 44.17 
1305  9.29 14.23 44.17 
1306  5.05 20.66 44.17 
1307 17.40 15.97 44.17 
1308 21.35 18.30 44.17 
1309 21.92 13.62 44.17 
1310 29.96 15.49 44.17 
1311 27.11 25.61 44.17 
1312 34.69  7.44 44.17 
1313 11.58 22.06 44.17 
1314 24.96 16.97 44.17 
1315 15.09 20.73 44.17 
1316 22.93 21.91 44.17 
1317 36.26 17.41 44.17 
1318 19.10 10.39 44.17 
1319 10.55 15.86 44.17 
1320 17.11 23.95 44.17 
1321  8.07 14.47 44.17 
1322 27.50 23.35 44.17 
1323 16.90 11.46 44.17 
1324 14.08 18.68 44.17 
1325 23.40 16.47 44.17 
1326 17.62 21.58 44.17 
1327 13.10 26.37 44.17 
1328 23.70 14.90 44.17 
1329 14.85 24.85 44.17 
1330 12.86 22.26 44.17 
1331 26.86 17.92 44.17 
1332 13.31 16.72 44.17 
1333 28.11 17.63 44.17 
1334 29.95 22.13 44.17 
1335 14.10 25.77 44.17 
1336 22.24 20.22 44.17 
1337 19.40 17.61 44.17 
1338  6.53 14.60 44.17 
1339 17.83 24.06 44.17 
1340  9.06 19.87 44.17 
1341 26.62 25.46 44.17 
1342 13.06 19.39 44.17 
1343 19.64 19.44 44.17 
1344 13.65 13.59 44.17 
1345 32.94 19.01 44.17 
1346  8.81 20.05 44.17 
1347 17.05 16.83 44.17 
1348 20.88 10.55 44.17 
1349 27.10 20.96 44.17 
1350 10.55 19.16 44.17 
1351 25.74 18.06 44.17 
1352 16.80 20.01 44.17 
1353 16.05 15.64 44.17 
1354  8.27 14.31 44.17 
1355 30.91 20.99 44.17 
1356  8.27 15.50 44.17 
1357 18.14 17.67 44.17 
1358 18.83 15.90 44.17 
1359 43.98 12.46 44.17 
1360 12.05 28.22 44.17 
1361 36.16 23.18 44.17 
1362 24.45 17.08 44.17 
1363 19.08 22.44 44.17 
1364 31.23 17.85 44.17 
1365 15.37 20.91 44.17 
1366 18.65 27.19 44.17 
1367 10.09 17.57 44.17 
1368 14.58 13.98 44.17 
1369 11.07 12.14 44.17 
1370 17.12 28.11 44.17 
1371 10.81 20.23 44.17 
1372 23.34 27.49 44.17 
1373 23.14 24.87 44.17 
1374  9.87 18.39 44.17 
1375 24.60 11.23 44.17 
1376 12.04 21.59 44.17 
1377 10.32 24.77 44.17 
1378 21.10 17.26 44.17 
1379 10.30 15.75 44.17 
1380 23.85 17.41 44.17 
1381 11.61 17.93 44.17 
1382  4.02 13.22 44.17 
1383  8.54 23.93 44.17 
1384 23.71 23.26 44.17 
1385 20.94 18.34 44.17 
1386 24.13 17.33 44.17 
1387 15.57 21.20 44.17 
1388 25.76 19.25 44.17 
1389 14.31 20.26 44.17 
1390 13.57 18.92 44.17 
1391 26.38 28.44 44.17 
1392 20.87 19.27 44.17 
1393 30.93 25.25 44.17 
1394 12.88 18.44 44.17 
1395 12.07 16.21 44.17 
1396 19.17 13.39 44.17 
1397 14.37 11.64 44.17 
1398 26.21 16.73 44.17 
1399 14.59 22.92 44.17 
1400  3.76 21.16 44.17 
1401 22.36 22.33 44.17 
1402 24.94 27.26 44.17 
1403 25.15 23.15 44.17 
1404 12.05 15.59 44.17 
1405 23.92 13.38 44.17 
1406 22.59 15.93 44.17 
1407 20.89 12.98 44.17 
1408 14.11 21.33 44.17 
1409 34.06 22.26 44.17 
1410 16.33 17.75 44.17 
1411 22.47 17.40 44.17 
1412 26.61 27.28 44.17 
1413 19.07 18.25 44.17 
1414  4.01 15.97 44.17 
1415 15.10 26.49 44.17 
1416  9.81 25.36 44.17 
1417 21.19 15.30 44.17 
1418 16.37 19.78 44.17 
1419 19.41 17.06 44.17 
1420  5.27 15.31 44.17 
1421 25.98 22.76 44.17 
1422 23.65 19.59 44.17 
1423 19.66 14.08 44.17 
1424 18.98 23.10 44.17 
1425 19.31 24.98 44.17 
1426 37.17 17.27 44.17 
1427 13.37 16.85 44.17 
1428 13.80 25.15 44.17 
1429 28.19 21.58 44.17 
1430 16.87 22.56 44.17 
1431 21.62 17.50 44.17 
1432 11.07 25.49 44.17 
1433  9.62 20.99 44.17 
1434 31.95 16.61 44.17 
1435 22.14 14.59 44.17 
1436 18.63 18.19 44.17 
1437 18.84 18.93 44.17 
1438 22.62 17.60 44.17 
1439 15.84 14.07 44.17 
1440 16.86 19.34 44.17 
1441 28.67 21.94 44.17 
1442 14.16 27.36 44.17 
1443 10.80 27.97 44.17 
1444 28.77 25.99 44.17 
1445 19.14 18.36 44.17 
1446  5.53 27.55 44.17 
1447 28.34 26.82 44.17 
1448 18.88 10.13 44.17 
1449 19.14 17.10 44.17 
1450 15.11  9.38 44.17 
1451 26.49 14.52 44.17 
1452 17.83 15.59 44.17 
1453 33.34 27.08 44.17 
1454 15.37 20.92 44.17 
1455 22.90 22.79 44.17 
1456 15.61 25.22 44.17 
1457 13.91 19.34 44.17 
1458 21.98 14.35 44.17 
1459 14.64 18.08 44.17 
1460 24.19 20.67 44.17 
1461  8.08 17.08 44.17 
1462 16.89 19.07 44.17 
1463  7.84 14.02 44.17 
1464 25.24  8.32 44.17 
1465 22.59 22.06 44.17 
1466 15.12 23.05 44.17 
1467  5.09 22.08 44.17 
1468 16.33 19.21 44.17 
1469 11.33 16.04 44.17 
1470  6.54 22.13 44.17 
1471 24.88 27.98 44.17 
1472 13.07 23.24 44.17 
1473 19.39 23.07 44.17 
1474 20.41 12.76 44.17 
1475 19.69 18.97 44.17 
1476  8.03 15.26 44.17 
1477  8.30 13.58 44.17 
1478 23.19 11.65 44.17 
1479 18.92 14.68 44.17 
1480  3.02 13.00 44.17 
1481 18.92 25.84 44.17 
1482 17.63 16.69 44.17 
1483 21.40 11.23 44.17 
1484  9.52 18.79 44.17 
1485 21.70 11.76 44.17 
1486 20.15 13.02 44.17 
1487 19.44 11.25 44.17 
1488 20.40 11.92 44.17 
1489 30.81 19.47 44.17 
1490 12.38 19.01 44.17 
1491 12.78 15.20 44.17 
1492 20.13 12.50 44.17 
1493 26.71 13.70 44.17 
1494 11.33 18.62 44.17 
1495 43.24 25.51 44.17 
1496 19.43 17.62 44.17 
1497  9.37 12.83 44.17 
1498 30.56 19.20 44.17 
1499  7.77 18.70 44.17 
1500 17.84 21.68 44.17 
1501 20.40 20.09 44.17 
1502 14.31 14.72 44.17 
1503 23.74 26.38 44.17 
1504 27.26 27.21 44.17 
1505 17.42 13.82 44.17 
1506 18.67 11.55 44.17 
1507 18.12 13.57 44.17 
1508 21.87 14.67 44.17 
1509 19.64 19.60 44.17 
1510 16.13 17.08 44.17 
1511 16.97 14.74 44.17 
1512 18.31 12.91 44.17 
1513 14.34 15.36 44.17 
1514 25.48 29.49 44.17 
1515 23.70 14.75 44.17 
1516  5.27 15.82 44.17 
1517 34.52 33.30 44.17 
1518 25.67 19.72 44.17 
1519 13.89 13.67 44.17 
1520 29.55 12.94 44.17 
1521 21.94 17.20 44.17 
1522 19.89 13.58 44.17 
1523 14.13 21.62 44.17 
1524 17.97 20.07 44.17 
1525 20.11 13.11 44.17 
1526 16.10 14.93 44.17 
1527 14.80 15.43 44.17 
1528 15.41 10.08 44.17 
1529  9.55 20.46 44.17 
1530 23.75 20.97 44.17 
1531  7.32 24.49 44.17 
1532 21.68 14.86 44.17 
1533 33.73 21.25 44.17 
1534 24.12 20.42 44.17 
1535 28.71 19.75 44.17 
1536 16.37 19.28 44.17 
1537 29.71 14.45 44.17 
1538 31.12 17.20 44.17 
1539 26.00 19.80 44.17 
1540  4.54 11.31 44.17 
1541 27.43 24.80 44.17 
1542 31.80 19.51 44.17 
1543 17.08 23.37 44.17 
1544 20.58 31.25 44.17 
1545 15.85 29.76 44.17 
1546 20.43 18.93 44.17 
1547 21.18 21.91 44.17 
1548 20.69 13.91 44.17 
1549 14.59 10.88 44.17 
1550 15.37 15.68 44.17 
1551 19.11 11.15 44.17 
1552 14.06 15.26 44.17 
1553  9.04 15.75 44.17 
1554 15.89 12.90 44.17 
1555 15.80 16.95 44.17 
1556 34.45 13.66 44.17 
1557 15.56 15.78 44.17 
1558 14.91 17.68 44.17 
1559 18.35 16.08 44.17 
1560 19.09 13.36 44.17 
1561 20.37 16.68 44.17 
1562 13.07 12.02 44.17 
1563 12.87 14.51 44.17 
1564 26.00 15.19 44.17 
1565 33.71 11.01 44.17 
1566  9.56 12.08 44.17 
1567 17.63 10.49 44.17 
1568 31.98 15.15 44.17 
1569 22.97 17.35 44.17 
1570 19.83 14.24 44.17 
1571 42.79 15.69 44.17 
1572 17.34 16.62 44.17 
1573 25.66 14.15 44.17 
1574 25.19 11.30 44.17 
1575 23.69  9.31 44.17 
1576 17.61 24.96 44.17 
1577  7.82 12.98 44.17 
1578 11.06 17.21 44.17 
1579 20.19 16.84 44.17 
1580 11.57 15.48 44.17 
1581 31.72 13.99 44.17 
1582 17.18 14.26 44.17 
1583 15.85 14.16 44.17 
1584  8.82 14.35 44.17 
1585 13.34 15.91 44.17 
1586 23.38 16.41 44.17 
1587 27.15 22.17 44.17 
1588 10.60  8.54 44.17 
1589 10.30 15.66 44.17 
1590 16.89 13.06 44.17 
1591 22.14 12.73 44.17 
1592 17.83 15.06 44.17 
1593 18.60 13.22 44.17 
1594 22.63 12.08 44.17 
1595 15.86 14.52 44.17 
1596 14.85 20.34 44.17 
1597 15.33 15.84 44.17 
1598 17.75 14.29 44.17 
1599 23.88 13.41 44.17 
1600 18.12 20.86 44.17 
1601  3.26 18.27 44.17 
1602  9.07 19.32 44.17 
1603 22.14 14.93 44.17 
1604 16.82 13.01 44.17 
1605  5.28 19.82 44.17 
1606 27.41 16.88 44.17 
1607 14.14 17.98 44.17 
1608 13.85 25.35 44.17 
1609 18.65 26.62 44.17 
1610 14.09 24.96 44.17 
1611 21.67 26.80 44.17 
1612 27.76 18.28 44.17 
1613 12.86 22.23 44.17 
1614 23.18  9.42 44.17 
1615 14.31 22.94 44.17 
1616 19.62 23.17 44.17 
1617 13.34 15.86 44.17 
1618  7.54 14.21 44.17 
1619 16.55 12.63 44.17 
1620 11.42 18.19 44.17 
1621 12.33 24.42 44.17 
1622 22.46 14.77 44.17 
1623 28.49 13.15 44.17 
1624 22.16 12.24 44.17 
1625  7.29 22.29 44.17 
1626 28.17 16.92 44.17 
1627 22.12 12.98 44.17 
1628 19.11 10.20 44.17 
1629 25.15 16.60 44.17 
1630 14.60 23.78 44.17 
1631 23.66 25.35 44.17 
1632 27.24 21.64 44.17 
1633 22.94 17.11 44.17 
1634 24.47 25.31 44.17 
1635 26.45 25.97 44.17 
1636 19.67 16.38 44.17 
1637 13.60 16.52 44.17 
1638 19.89 30.10 44.17 
1639  8.06 27.93 44.17 
1640 22.60 16.19 44.17 
1641 15.86 23.95 44.17 
1642  6.52 22.74 44.17 
1643 19.67 13.94 44.17 
1644 22.42 20.33 44.17 
1645 29.71 22.29 44.17 
1646 15.17 24.65 44.17 
1647 26.87 21.72 44.17 
1648 11.81 25.68 44.17 
1649 24.98 16.62 44.17 
1650 22.99 19.89 44.17 
1651 23.16 16.76 44.17 
1652 16.09 18.80 44.17 
1653 40.35 18.09 44.17 
1654 13.36 19.03 44.17 
1655 28.68  2.76 44.17 
1656 13.82 15.52 44.17 
1657 12.11 15.02 44.17 
1658 23.25 13.03 44.17 
1659 17.67 18.27 44.17 
1660 16.85 19.62 44.17 
1661 12.29 14.17 44.17 
1662 11.12 15.02 44.17 
1663 26.12 17.85 44.17 
1664 27.44 13.33 44.17 
1665 31.97 19.44 44.17 
1666 22.60 19.80 44.17 
1667 30.07 15.67 44.17 
1668  9.57 19.24 44.17 
1669 14.09 22.23 44.17 
1670 22.00 24.34 44.17 
1671 19.07 17.71 44.17 
1672 10.09 21.99 44.17 
1673 23.46 21.56 44.17 
1674 16.09 23.92 44.17 
1675 19.40 20.30 44.17 
1676 20.10 13.71 44.17 
1677 14.09 14.43 44.17 
1678 23.42 16.45 44.17 
1679 15.58 17.32 44.17 
1680 16.31 20.55 44.17 
1681 15.63 16.45 44.17 
1682 13.58 27.12 44.17 
1683 12.34 31.54 44.17 
1684 14.63 20.60 44.17 
1685 20.97 19.54 44.17 
1686 23.37 16.45 44.17 
1687 38.38 17.23 44.17 
1688 22.65 14.26 44.17 
1689 31.24 20.17 44.17 
1690 10.07 16.60 44.17 
1691 24.42 15.11 44.17 
1692  6.03 16.06 44.17 
1693 31.48 22.92 44.17 
1694 18.86 12.06 44.17 
1695 21.43 10.81 44.17 
1696 13.55  7.22 44.17 
1697 22.96 20.56 44.17 
1698 18.12 15.35 44.17 
1699 23.91 15.67 44.17 
1700  5.54 15.07 44.17 
1701 15.56 16.75 44.17 
1702 35.74 14.73 44.17 
1703 21.88 14.91 44.17 
1704 12.38 15.73 44.17 
1705 12.32 13.07 44.17 
1706 15.65 13.26 44.17 
1707 28.94 15.05 44.17 
1708 20.22 14.18 44.17 
1709 11.29  9.40 44.17 
1710 20.92 15.07 44.17 
1711 17.63 10.74 44.17 
1712  8.65 19.70 44.17 
1713 16.89 22.96 44.17 
1714 18.46 19.30 44.17 
1715 19.61 17.29 44.17 
1716 20.92  9.38 44.17 
1717 23.15 16.50 44.17 
1718 18.62 20.80 44.17 
1719  5.51 18.78 44.17 
1720  3.26 19.05 44.17 
1721 22.91 15.08 44.17 
1722 11.54 19.70 44.17 
1723 23.72 21.86 44.17 
1724 18.88 16.50 44.17 
1725 23.42 11.66 44.17 
1726 20.58 13.82 44.17 
1727 15.92 22.40 44.17 
1728 21.94 16.67 44.17 
1729 14.86 13.59 44.17 
1730 16.08 17.37 44.17 
1731 23.71 20.40 44.17 
1732 29.16 22.37 44.17 
1733 31.85 23.88 44.17 
1734 32.23 18.92 44.17 
1735  9.79 19.04 44.17 
1736 18.20 22.27 44.17 
1737 18.91 12.00 44.17 
1738 26.48 12.49 44.17 
1739 11.82 21.87 44.17 
1740 32.23 19.92 44.17 
1741  4.02 19.59 44.17 
1742 20.12 14.66 44.17 
1743 10.28 17.18 44.17 
1744 22.20 21.52 44.17 
1745 17.91 15.84 44.17 
1746 20.14 22.87 44.17 
1747 20.14 16.59 44.17 
1748 19.16 25.16 44.17 
1749  5.29 16.26 44.17 
1750 15.03 22.54 44.17 
1751 14.83 21.78 44.17 
1752  7.05 17.59 44.17 
1753 19.64 11.99 44.17 
1754  8.58 28.79 44.17 
1755 21.37 18.78 44.17 
1756 12.30 24.28 44.17 
1757 29.69 12.64 44.17 
1758 25.33  9.06 44.17 
1759 32.46 17.70 44.17 
1760 23.93 10.56 44.17 
1761 14.90 18.85 44.17 
1762 16.09 27.14 44.17 
1763 34.17 18.75 44.17 
1764 13.35 14.40 44.17 
1765 10.09 27.57 44.17 
1766 15.62 23.46 44.17 
1767 17.87 20.51 44.17 
1768 26.41 23.02 44.17 
1769 26.38 24.78 44.17 
1770 27.40 19.00 44.17 
1771 13.63 20.76 44.17 
1772 16.08 17.72 44.17 
1773 26.11 23.32 44.17 
1774 16.61  9.37 44.17 
1775 22.37 14.89 44.17 
1776 15.41 10.29 44.17 
1777 26.21 18.67 44.17 
1778 15.34 24.18 44.17 
1779  6.85 22.33 44.17 
1780 27.89 26.10 44.17 
1781 10.04 19.84 44.17 
1782 13.34 14.22 44.17 
1783 23.41 17.26 44.17 
1784 19.11 22.44 44.17 
1785  6.53 13.47 44.17 
1786 20.65 15.84 44.17 
1787  7.54 17.78 44.17 
1788 16.33 16.52 44.17 
1789  6.54 18.66 44.17 
1790 20.90 28.07 44.17 
1791 11.34 25.35 44.17 
1792 26.08 21.16 44.17 
1793 11.81 13.96 44.17 
1794 11.30 24.12 44.17 
1795 36.29 15.30 44.17 
1796  1.79 13.98 44.17 
1797 13.58 21.75 44.17 
1798 17.70 11.97 44.17 
1799 13.04 21.35 44.17 
1800 32.39 25.59 44.17 
1801 23.57 21.09 44.17 
1802 20.15 14.89 44.17 
1803 19.14 14.21 44.17 
1804 12.56 20.42 44.17 
1805  3.78 20.32 44.17 
1806 22.18 21.32 44.17 
1807 18.85 17.66 44.17 
1808 29.90 21.49 44.17 
1809 13.57 19.68 44.17 
1810 12.61 23.50 44.17 
1811 23.84  9.46 44.17 
1812 22.36 13.05 44.17 
1813 28.02 17.26 44.17 
1814 26.62 18.41 44.17 
1815 25.57 17.49 44.17 
1816 16.08 18.47 44.17 
1817 39.22 17.23 44.17 
1818 32.49 17.40 44.17 
1819 12.34 17.15 44.17 
1820 16.10 17.36 44.17 
1821 20.36 17.89 44.17 
1822 15.67 19.15 44.17 
1823 21.35 16.89 44.17 
1824 27.91 21.03 44.17 
1825  9.84 14.98 44.17 
1826 14.59 22.18 44.17 
1827 20.86 26.25 44.17 
1828 23.89 21.40 44.17 
1829 16.35 20.10 44.17 
1830 21.34 32.19 44.17 
1831 20.86 20.75 44.17 
1832 16.08 16.99 44.17 
1833 21.10 23.92 44.17 
1834 23.39 23.75 44.17 
1835 19.56 19.25 44.17 
1836 13.30 20.16 44.17 
1837 25.91 17.15 44.17 
1838 20.31 20.81 44.17 
1839 28.42 11.95 44.17 
1840 20.35 17.50 44.17 
1841 15.34 20.16 44.17 
1842 22.83 17.17 44.17 
1843 18.86 18.15 44.17 
1844 26.17 29.53 44.17 
1845 14.08 20.52 44.17 
1846 13.59 20.47 44.17 
1847 17.37 22.80 44.17 
1848 18.83 22.85 44.17 
1849 15.11 14.47 44.17 
1850 13.33 24.19 44.17 
1851  9.59 24.95 44.17 
1852  6.30 20.74 44.17 
1853 12.61 24.18 44.17 
1854 12.56 13.22 44.17 
1855 30.61 22.20 44.17 
1856 21.19 12.82 44.17 
1857 16.34 22.94 44.17 
1858 29.65 19.09 44.17 
1859 11.56 21.37 44.17 
1860 19.57 16.00 44.17 
1861 13.29  9.15 44.17 
1862 19.36 16.52 44.17 
1863 20.86 20.35 44.17 
1864  6.52 13.23 44.17 
1865 17.37 18.69 44.17 
1866 15.40 27.72 44.17 
1867  8.05 16.19 44.17 
1868 35.63 18.17 44.17 
1869 23.62 21.31 44.17 
1870 37.75 21.61 44.17 
1871 31.20 18.46 44.17 
1872 20.60 12.09 44.17 
1873 16.37 26.22 44.17 
1874 23.33 23.03 44.17 
1875 19.12 25.04 44.17 
1876 22.62 12.83 44.17 
1877 14.32 16.92 44.17 
1878 17.61 13.41 44.17 
1879 13.82 26.56 44.17 
1880 16.88 19.13 44.17 
1881 13.55 19.31 44.17 
1882 25.58 19.79 44.17 
1883 16.05 22.19 44.17 
1884  3.77 25.73 44.17 
1885  4.13 18.61 44.17 
1886  9.07 19.60 44.17 
1887 24.39 18.62 44.17 
1888 29.66 18.05 44.17 
1889 26.32 14.85 44.17 
1890 21.84 21.99 44.17 
1891 19.88 23.73 44.17 
1892 13.33 25.39 44.17 
1893 20.09 16.36 44.17 
1894 32.61 23.88 44.17 
1895 15.86 13.15 44.17 
1896 14.58 19.11 44.17 
1897 31.74 20.95 44.17 
1898 31.17 14.15 44.17 
1899 12.59 16.85 44.17 
1900 20.84 22.44 44.17 
1901 13.59 18.93 44.17 
1902 17.35 17.58 44.17 
1903 11.55 15.92 44.17 
1904 28.67 22.14 44.17 
1905 35.01 12.01 44.17 
1906 13.81 23.14 44.17 
1907 22.93 15.10 44.17 
1908 22.89 20.61 44.17 
1909 14.78 23.20 44.17 
1910 37.53 23.11 44.17 
1911 17.14 20.45 44.17 
1912 26.88 15.27 44.17 
1913 24.23 23.03 44.17 
1914  6.01 16.74 44.17 
1915 18.08 11.08 44.17 
1916 21.09 16.17 44.17 
1917 35.15 13.40 44.17 
1918 26.62  9.82 44.17 
1919 18.83 18.95 44.17 
1920 18.11 12.54 44.17 
1921 19.34 11.56 44.17 
1922 11.54 22.24 44.17 
1923 29.12  8.93 44.17 
1924 17.06 23.26 44.17 
1925 25.94 24.00 44.17 
1926 18.85 21.85 44.17 
1927 34.59 26.95 44.17 
1928 21.34 19.18 44.17 
1929 12.03 19.72 44.17 
1930 30.37 14.97 44.17 
1931  9.31 19.62 44.17 
1932 16.61 23.53 44.17 
1933 20.86 22.60 44.17 
1934 21.58 27.84 44.17 
1935 27.60 16.73 44.17 
1936 25.66 16.48 44.17 
1937 19.91 13.83 44.17 
1938 33.66 13.06 44.17 
1939 10.09 25.13 44.17 
1940  9.83 25.84 44.17 
1941 26.40 19.84 44.17 
1942  9.80 16.24 44.17 
1943 18.59 19.58 44.17 
1944 41.63 15.32 44.17 
1945 26.94 24.50 44.17 
1946 18.86 19.52 44.17 
1947 21.17 16.23 44.17 
1948 13.87 19.11 44.17 
1949 20.62 24.69 44.17 
1950 16.13 13.14 44.17 
1951 21.36 18.92 44.17 
1952 11.30 18.67 44.17 
1953 26.13 13.39 44.17 
1954 28.42 11.89 44.17 
1955 11.29 14.16 44.17 
1956 19.10 20.70 44.17 
1957 15.80 23.42 44.17 
1958 20.34 16.52 44.17 
1959 13.57 23.01 44.17 
1960 18.61 21.60 44.17 
1961  9.55 21.37 44.17 
1962 25.60 18.12 44.17 
1963 19.85 21.21 44.17 
1964 19.66 17.10 44.17 
1965 29.88 24.80 44.17 
1966 15.83 16.43 44.17 
1967 14.84 27.18 44.17 
1968 24.46 13.50 44.17 
1969 17.33 24.78 44.17 
1970 13.82 18.35 44.17 
1971 15.10 23.17 44.17 
1972 13.08 22.45 44.17 
1973  3.04 20.09 44.17 
1974 15.58 14.58 44.17 
1975 30.63 30.06 44.17 
1976  7.58 20.84 44.17 
1977 18.10 19.07 44.17 
1978 24.93 20.94 44.17 
1979 13.53 15.56 44.17 
1980 19.35 19.56 44.17 
1981 29.87 11.30 44.17 
1982 19.88 20.16 44.17 
1983 15.87 15.32 44.17 
1984  5.79 11.64 44.17 
1985  4.52 25.29 44.17 
1986 25.87 20.18 44.17 
1987 20.90 18.67 44.17 
1988 12.82 21.68 44.17 
1989  7.02 13.22 44.17 
1990 29.15 20.09 44.17 
1991 18.14 18.60 44.17 
1992 35.67 14.01 44.17 
1993 18.85 17.17 44.17 
1994  6.54 16.25 44.17 
1995 20.37 19.27 44.17 
1996  7.79 18.52 44.17 
1997 12.08 24.72 44.17 
1998 20.09 17.77 44.17 
1999 16.14 26.26 44.17 
2000 11.57 21.86 44.17 
2001 12.88 15.58 44.17 
2002 12.79 16.49 44.17 
2003 12.57 17.51 44.17 
2004 22.84 20.34 44.17 
2005 24.48 19.69 44.17 
2006 28.89 25.98 44.17 
2007 21.61 17.06 44.17 
2008 17.80 20.26 44.17 
2009 12.58 17.25 44.17 
2010 24.06 13.73 44.17 
2011 15.11 24.61 44.17 
2012 13.79 18.74 44.17 
2013 20.09 19.43 44.17 
2014 18.33 17.41 44.17 
2015 11.85 26.09 44.17 
2016 23.88 18.67 44.17 
2017 31.37 17.83 44.17 
2018 24.71 23.67 44.17 
2019 24.11 22.99 44.17 
2020 30.95 12.06 44.17 
2021 36.73 19.09 44.17 
2022 12.89 19.16 44.17 
2023 13.28 12.88 44.17 
2024 13.33 16.86 44.17 
2025 25.20 16.51 44.17 
2026 25.85 18.23 44.17 
2027 21.30 19.27 44.17 
2028 26.90 17.15 44.17 
2029 18.59 17.30 44.17 
2030 23.65 15.07 44.17 
2031 16.11 18.15 44.17 
2032 14.32 17.65 44.17 
2033 14.31 24.20 44.17 
2034 12.60 20.35 44.17 
2035 18.80 23.15 44.17 
2036 30.19 21.01 44.17 
2037  9.03 22.92 44.17 
2038  7.78 20.26 44.17 
2039 20.60 15.82 44.17 
2040 12.54 13.22 44.17 
2041 22.82 14.83 44.17 
2042 13.55 15.41 44.17 
2043  9.83 19.95 44.17 
2044 28.40 29.79 44.17 
2045 16.09 17.81 44.17 
2046 12.56 14.92 44.17 
2047 20.59 19.09 44.17 
2048 11.13 16.01 44.17 
2049 18.88 11.06 44.17 
2050 25.67 17.16 44.17 
2051 38.93 13.64 44.17 
2052 13.06 20.61 44.17 
2053 12.62 18.52 44.17 
2054 18.57  9.97 44.17 
2055  7.81 13.83 44.17 
2056 24.38 20.36 44.17 
2057 24.87 18.24 44.17 
2058 15.15 25.84 44.17 
2059 23.39 17.60 44.17 
2060 26.13 20.21 44.17 
2061 36.26 24.02 44.17 
2062 19.33 15.39 44.17 
2063 25.39 18.50 44.17 
2064 11.81 17.35 44.17 
2065 17.61 17.86 44.17 
2066 12.85 17.92 44.17 
2067 20.07 12.64 44.17 
2068 28.40 17.66 44.17 
2069 21.86 19.00 44.17 
2070 22.38 20.02 44.17 
2071 13.89 18.41 44.17 
2072 28.40 21.09 44.17 
2073 19.35 20.93 44.17 
2074 22.87 22.50 44.17 
2075 19.33 22.11 44.17 
2076  4.28 15.81 44.17 
2077 16.10 11.87 44.17 
2078 21.59 25.25 44.17 
2079 40.73 20.77 44.17 
2080  1.75 26.30 44.17 
2081 28.41 18.25 44.17 
2082 16.08 12.80 44.17 
2083 10.07  9.22 44.17 
2084 36.66 19.21 44.17 
2085 21.12 21.51 44.17 
2086 17.41 21.50 44.17 
2087 11.57 23.96 44.17 
2088 29.64 10.88 44.17 
2089 28.38 14.58 44.17 
2090 18.64 16.16 44.17 
2091 24.63 16.92 44.17 
2092 12.31 21.67 44.17 
2093 25.88 27.38 44.17 
2094 27.92 22.86 44.17 
2095 16.85 24.93 44.17 
2096 12.37 23.09 44.17 
2097 11.56 15.88 44.17 
2098 14.37 21.45 44.17 
2099  5.55 10.53 44.17 
2100 22.86 14.82 44.17 
2101 20.63 19.82 44.17 
2102 22.63 16.80 44.17 
2103 23.19 27.78 44.17 
2104 13.09 20.24 44.17 
2105 13.08 15.64 44.17 
2106  9.61 22.58 44.17 
2107 20.14 21.69 44.17 
2108 11.05 24.61 44.17 
2109  7.27 12.07 44.17 
2110 27.95 17.16 44.17 
2111 18.31 11.31 44.17 
2112 16.35 19.24 44.17 
2113 27.70 14.47 44.17 
2114 16.83 27.94 44.17 
2115 22.16 20.19 44.17 
2116 13.33 10.93 44.17 
2117 13.34 20.61 44.17 
2118 12.04 13.56 44.17 
2119 16.83 20.95 44.17 
2120 12.08 20.84 44.17 
2121 16.37 19.45 44.17 
2122 31.73 18.53 44.17 
2123 24.20 21.70 44.17 
2124 20.36 16.77 44.17 
2125 12.34 17.77 44.17 
2126 16.35 23.00 44.17 
2127 20.92 19.41 44.17 
2128 22.16 21.09 44.17 
2129 16.59 16.86 44.17 
2130 29.19 22.54 44.17 
2131 18.09 18.35 44.17 
2132 10.31 13.16 44.17 
2133 17.10 20.04 44.17 
2134 24.68 15.85 44.17 
2135 15.60 19.92 44.17 
2136 16.08 15.52 44.17 
2137 23.14 18.93 44.17 
2138 27.83 21.35 44.17 
2139 20.84  8.39 44.17 
2140 29.46 18.77 44.17 
2141 32.17 17.20 44.17 
2142  3.27 18.58 44.17 
2143 36.46 24.12 44.17 
2144 18.59 21.33 44.17 
2145 22.13 20.77 44.17 
2146 14.83 13.90 44.17 
2147 20.67 24.78 44.17 
2148 19.14 15.50 44.17 
2149 18.82 20.94 44.17 
2150  3.80 11.99 44.17 
2151 28.72 20.88 44.17 
2152 19.37 17.19 44.17 
2153  8.30 21.04 44.17 
2154  9.06 10.99 44.17 
2155 12.31 15.91 44.17 
2156 23.37 22.30 44.17 
2157 15.63 13.20 44.17 
2158 17.31 19.29 44.17 
2159 14.60 24.81 44.17 
2160 21.85 24.41 44.17 
2161  8.82 17.52 44.17 
2162 18.88 24.55 44.17 
2163 24.21 10.82 44.17 
2164 21.15 27.22 44.17 
2165 19.08 10.72 44.17 
2166 19.89 19.19 44.17 
2167 15.65 18.10 44.17 
2168 15.32 16.34 44.17 
2169 18.44 17.60 44.17 
2170 32.68 23.87 44.17 
2171 16.09 18.76 44.17 
2172 19.32 10.83 44.17 
2173 14.64 17.15 44.17 
2174 25.12 13.73 44.17 
2175 36.48 18.27 44.17 
2176 18.65 18.34 44.17 
2177 19.11 14.82 44.17 
2178 25.72 13.75 44.17 
2179 17.92 22.29 44.17 
2180  8.28 18.06 44.17 
2181 15.58 16.93 44.17 
2182  8.11 13.83 44.17 
2183 23.62 17.32 44.17 
2184  9.31 16.41 44.17 
2185 12.63 17.18 44.17 
2186 24.94 15.75 44.17 
2187  7.33 12.68 44.17 
2188 11.40 19.25 44.17 
2189 20.90 15.74 44.17 
2190 11.33 16.59 44.17 
2191 12.83 11.72 44.17 
2192 27.43 19.02 44.17 
2193 18.59 22.11 44.17 
2194 25.13 20.24 44.17 
2195 20.70 12.96 44.17 
2196 23.98 11.69 44.17 
2197 16.11 22.61 44.17 
2198 15.09 15.67 44.17 
2199 32.19 18.72 44.17 
2200 19.31 12.65 44.17 
2201 11.31 18.39 44.17 
2202  4.78 15.98 44.17 
2203  7.02 17.07 44.17 
2204 31.22 20.06 44.17 
2205 27.16 19.90 44.17 
2206 20.85 16.09 44.17 
2207 19.60 12.89 44.17 
2208  5.32 15.39 44.17 
2209 24.71 13.40 44.17 
2210 29.16 14.78 44.17 
2211 28.23 18.42 44.17 
2212  9.60 16.74 44.17 
2213 11.89 15.15 44.17 
2214 23.88 10.90 44.17 
2215 34.50 15.23 44.17 
2216 25.38 19.09 44.17 
2217 27.64 17.58 44.17 
2218 13.84 15.07 44.17 
2219 12.56 19.34 44.17 
2220 11.61 19.43 44.17 
2221 15.37 25.47 44.17 
2222 28.93 17.31 44.17 
2223 20.41 14.28 44.17 
2224 18.39 13.57 44.17 
2225 10.94 14.62 44.17 
2226 28.25 12.51 44.17 
2227 21.63 16.68 44.17 
2228  7.30 16.20 44.17 
2229 27.16 22.00 44.17 
2230 13.07 23.28 44.17 
2231 10.36 23.79 44.17 
2232 19.44 18.04 44.17 
2233 20.63 21.55 44.17 
2234  6.54 17.82 44.17 
2235 29.92 16.25 44.17 
2236 19.42 16.50 44.17 
2237 22.12 15.79 44.17 
2238 32.36 22.39 44.17 
2239 35.72 18.44 44.17 
2240 26.89 19.69 44.17 
2241 23.53 18.81 44.17 
2242 14.05 20.19 44.17 
2243 17.83 13.42 44.17 
2244 28.47 17.96 44.17 
2245 13.83 15.07 44.17 
2246 46.62 17.24 44.17 
2247 18.21 27.19 46.62 
2248 24.16 18.63 46.62 
2249 23.17 14.62 46.62 
2250 16.06 21.27 46.62 
2251 19.10 13.67 46.62 
2252 24.77 19.61 46.62 
2253  6.55  6.88 46.62 
2254 21.47 15.35 46.62 
2255 13.83 18.27 46.62 
2256  9.04 17.36 46.62 
2257 21.74 23.98 46.62 
2258 34.31 21.37 46.62 
2259 33.22 15.87 46.62 
2260 18.14 16.54 46.62 
2261 26.46 17.09 46.62 
2262 17.08 15.35 46.62 
2263  8.58 10.00 46.62 
2264 13.42 11.84 46.62 
2265 14.62  9.49 46.62 
2266  8.82 12.68 46.62 
2267 17.62 14.48 46.62 
2268 25.71 14.51 46.62 
2269 18.66 21.22 46.62 
2270 22.17 16.26 46.62 
2271 24.72 20.98 46.62 
2272 19.35 11.99 46.62 
2273 28.02 19.91 46.62 
2274 32.73 14.41 46.62 
2275  9.60 25.69 46.62 
2276 14.83 17.19 46.62 
2277 11.35 18.59 46.62 
2278 26.14 15.34 46.62 
2279 20.29 16.71 46.62 
2280 10.08 19.43 46.62 
2281 21.70 19.39 46.62 
2282 12.60  9.55 46.62 
2283 15.11 11.43 46.62 
2284 22.69 16.92 46.62 
2285 14.07 15.34 46.62 
2286 18.37 16.65 46.62 
2287 28.17 17.43 46.62 
2288 30.72 22.03 46.62 
2289 13.35 17.06 46.62 
2290 11.35 22.29 46.62 
2291  6.29 15.39 46.62 
2292 19.09 11.64 46.62 
2293 17.87 16.76 46.62 
2294 21.61 20.55 46.62 
2295 19.96 14.84 46.62 
2296 13.08 11.92 46.62 
2297 15.84 18.79 46.62 
2298 19.87  6.28 46.62 
2299 17.64 14.58 46.62 
2300 25.59 16.32 46.62 
2301 12.63 17.41 46.62 
2302 18.46 11.32 46.62 
2303 26.18 16.26 46.62 
2304 16.85 15.23 46.62 
2305 17.15 12.30 46.62 
2306 14.34 13.31 46.62 
2307 16.10 18.05 46.62 
2308 25.73 14.69 46.62 
2309 22.66 13.48 46.62 
2310 21.91  6.69 46.62 
2311 18.59  6.52 46.62 
2312 18.66  5.94 46.62 
2313 25.66  9.12 46.62 
2314 25.39 11.96 46.62 
2315 22.42 20.50 46.62 
2316 10.84 18.24 46.62 
2317 20.89 16.01 46.62 
2318 20.66 10.90 46.62 
2319 24.48 26.06 46.62 
2320 21.40 17.68 46.62 
2321 11.63 21.21 46.62 
2322 17.49 23.47 46.62 
2323 21.66 19.12 46.62 
2324 27.07 14.07 46.62 
2325  7.04 14.09 46.62 
2326 23.61 10.91 46.62 
2327 11.88 14.15 46.62 
2328 15.59 11.56 46.62 
2329 19.17 10.23 46.62 
2330 11.84  9.55 46.62 
2331 13.81 15.33 46.62 
2332 32.50 11.67 46.62 
2333 33.49 18.56 46.62 
2334 15.31  9.76 46.62 
2335 26.99 18.58 46.62 
2336 27.69 12.73 46.62 
2337 30.93 10.77 46.62 
2338 24.44 30.23 46.62 
2339 15.07 18.48 46.62 
2340 14.06 22.35 46.62 
2341  7.81 26.56 46.62 
2342 30.43 10.69 46.62 
2343 30.47 22.83 46.62 
2344 12.65 18.60 46.62 
2345  8.62 12.34 46.62 
2346 19.41 20.60 46.62 
2347  9.29 15.28 46.62 
2348 15.32 15.42 46.62 
2349 12.33 14.99 46.62 
2350 21.85 15.49 46.62 
2351 23.23 23.09 46.62 
2352 12.81 15.86 46.62 
2353 13.83 16.33 46.62 
2354 19.47 18.59 46.62 
2355 27.40 22.36 46.62 
2356 15.84 22.44 46.62 
2357  5.55 28.87 46.62 
2358 13.65 20.26 46.62 
2359 20.97 25.04 46.62 
2360 16.89 18.45 46.62 
2361 20.19 19.68 46.62 
2362  7.60 17.01 46.62 
2363 20.11 16.02 46.62 
2364 14.40 15.83 46.62 
2365 24.12 18.99 46.62 
2366 14.15 16.17 46.62 
2367 17.60 18.42 46.62 
2368 17.61 19.79 46.62 
2369 30.17 17.82 46.62 
2370 18.10 18.10 46.62 
2371 23.93 15.34 46.62 
2372 27.69 16.40 46.62 
2373 13.60 14.22 46.62 
2374 31.49 23.13 46.62 
2375 18.37 19.19 46.62 
2376 17.08  9.72 46.62 
2377 20.93 20.61 46.62 
2378 14.32 16.87 46.62 
2379 21.90 17.58 46.62 
2380 30.79 29.05 46.62 
2381 18.41 13.73 46.62 
2382 23.42 20.74 46.62 
2383  1.75 29.02 46.62 
2384 12.59 19.49 46.62 
2385 29.45 18.94 46.62 
2386 23.18 26.18 46.62 
2387 11.86 24.35 46.62 
2388 14.06 20.22 46.62 
2389 18.91 25.21 46.62 
2390 28.65 23.09 46.62 
2391  2.78 15.49 46.62 
2392 20.77 18.67 46.62 
2393 13.58 23.69 46.62 
2394  6.30 21.76 46.62 
2395 27.35 24.78 46.62 
2396 21.41 15.68 46.62 
2397 28.72 18.37 46.62 
2398 11.84 26.47 46.62 
2399  5.51 14.74 46.62 
2400 14.68 18.98 46.62 
2401 22.71 23.71 46.62 
2402 35.27 16.59 46.62 
2403 16.93 14.74 46.62 
2404 22.45 15.06 46.62 
2405  4.28 15.55 46.62 
2406 35.51 26.86 46.62 
2407  7.80 16.48 46.62 
2408 16.12 20.51 46.62 
2409  2.80 24.52 46.62 
2410  8.11 13.34 46.62 
2411 21.16 15.76 46.62 
2412 14.61  9.30 46.62 
2413 43.06 13.58 46.62 
2414 28.98 17.52 46.62 
2415 28.50 14.26 46.62 
2416 24.97 24.28 46.62 
2417 16.88 14.48 46.62 
2418 26.88 15.52 46.62 
2419 18.62 24.88 46.62 
2420 25.59 16.87 46.62 
2421 16.84 21.58 46.62 
2422 14.35 13.41 46.62 
2423  6.57 16.42 46.62 
2424 18.35 16.98 46.62 
2425  7.07 14.63 46.62 
2426 24.63 19.69 46.62 
2427 13.81 14.18 46.62 
2428 17.90 17.09 46.62 
2429 12.83 17.93 46.62 
2430 16.84 16.91 46.62 
2431 24.44 14.38 46.62 
2432  9.55 19.53 46.62 
2433 24.02 21.81 46.62 
2434  9.69 13.38 46.62 
2435 15.37 21.00 46.62 
2436 14.12 11.99 46.62 
2437  8.08 17.40 46.62 
2438 24.94 15.72 46.62 
2439 16.62  9.97 46.62 
2440 17.12 19.33 46.62 
2441 17.35 13.74 46.62 
2442  9.05 20.90 46.62 
2443 15.57 13.46 46.62 
2444  6.79 13.57 46.62 
2445 31.70  8.62 46.62 
2446 29.17 18.41 46.62 
2447 10.79 20.01 46.62 
2448 17.40 20.16 46.62 
2449 30.18 19.00 46.62 
2450 23.65 22.13 46.62 
2451 15.58 12.84 46.62 
2452  8.80  9.37 46.62 
2453 13.36 20.24 46.62 
2454 22.37 18.75 46.62 
2455 20.39 16.59 46.62 
2456 28.86 12.99 46.62 
2457 24.44 18.82 46.62 
2458  7.04 20.08 46.62 
2459 14.55 16.64 46.62 
2460 13.83 20.75 46.62 
2461 13.38  6.88 46.62 
2462 19.11 10.62 46.62 
2463 26.36 15.73 46.62 
2464 24.11 10.31 46.62 
2465 12.39 16.56 46.62 
2466 29.19 15.22 46.62 
2467 27.92 26.78 46.62 
2468  8.02 10.64 46.62 
2469 32.24 16.97 46.62 
2470 15.63 13.06 46.62 
2471 14.08 14.65 46.62 
2472 23.66 19.23 46.62 
2473 13.16 15.76 46.62 
2474 12.58 15.05 46.62 
2475 19.65 13.48 46.62 
2476 17.58 13.23 46.62 
2477 15.58 22.08 46.62 
2478 18.35 14.23 46.62 
2479 24.12 15.32 46.62 
2480 29.77 17.74 46.62 
2481  8.84 16.57 46.62 
2482 12.03 19.24 46.62 
2483 17.57 21.09 46.62 
2484 30.40 17.91 46.62 
2485 19.94 18.91 46.62 
2486 21.92 20.08 46.62 
2487 24.84 10.04 46.62 
2488 20.35 14.81 46.62 
2489 32.45 13.04 46.62 
2490 22.38 18.65 46.62 
2491 21.19 21.25 46.62 
2492 21.08 16.61 46.62 
2493 22.37 11.07 46.62 
2494 23.40 10.72 46.62 
2495  3.51  7.46 46.62 
2496 14.84 10.14 46.62 
2497 19.42 13.24 46.62 
2498 14.59 11.89 46.62 
2499 25.61 11.15 46.62 
2500 20.63  9.12 46.62 
2501 18.36  9.13 46.62 
2502 22.14 10.06 46.62 
2503 11.57 12.66 46.62 
2504 20.57 13.75 46.62 
2505 20.58 10.36 46.62 
2506 12.09 11.79 46.62 
2507 22.85  9.47 46.62 
2508 20.60 12.39 46.62 
2509 23.87 13.81 46.62 
2510 20.35 15.07 46.62 
2511  8.80  8.62 46.62 
2512 24.88 11.14 46.62 
2513 20.83 10.80 46.62 
2514 10.32 12.63 46.62 
2515 19.36 13.08 46.62 
2516 22.37 13.96 46.62 
2517 15.10 13.23 46.62 
2518 14.58 10.13 46.62 
2519 35.96  9.45 46.62 
2520 26.64  9.04 46.62 
2521 21.37 12.22 46.62 
2522 30.20 10.38 46.62 
2523 18.39 11.47 46.62 
2524 22.14  7.89 46.62 
2525 19.70  9.20 46.62 
2526 44.47 10.98 46.62 
2527 29.16 14.40 46.62 
2528 17.06  6.02 46.62 
2529 26.40 16.17 46.62 
2530 21.90 14.42 46.62 
2531 15.82 11.80 46.62 
2532 20.85 10.45 46.62 
2533 17.88 16.14 46.62 
2534 25.62 11.20 46.62 
2535 14.08 11.05 46.62 
2536  7.04 13.31 46.62 
2537 17.34 13.05 46.62 
2538 22.45 16.74 46.62 
2539 12.30 10.06 46.62 
2540 30.44 14.06 46.62 
2541 19.12  7.29 46.62 
2542 16.12  9.62 46.62 
2543 28.42 13.82 46.62 
2544 24.62 12.01 46.62 
2545 18.09 14.39 46.62 
2546 16.64 13.32 46.62 
2547  7.30 10.80 46.62 
2548 26.96 19.22 46.62 
2549  8.30 20.22 46.62 
2550 15.32 12.58 46.62 
2551 12.82 22.00 46.62 
2552 15.89 13.48 46.62 
2553 13.83 13.72 46.62 
2554 21.09 11.79 46.62 
2555 20.61 10.06 46.62 
2556 20.36  8.87 46.62 
2557  8.55 18.94 46.62 
2558 11.54 10.73 46.62 
2559 20.34 10.63 46.62 
2560  9.05 12.72 46.62 
2561 15.56 11.79 46.62 
2562 17.38 12.91 46.62 
2563  7.78 13.47 46.62 
2564  7.10 12.47 46.62 
2565 21.10 12.15 46.62 
2566 18.83 11.48 46.62 
2567  9.30  9.72 46.62 
2568 17.35 11.56 46.62 
2569 23.38 11.66 46.62 
2570 37.53 12.47 46.62 
2571 19.63 16.06 46.62 
2572 21.10 15.30 46.62 
2573 23.39 12.23 46.62 
2574 29.21 14.73 46.62 
2575 30.87  9.20 46.62 
2576 19.11 11.15 46.62 
2577 15.30 12.55 46.62 
2578 25.64 14.40 46.62 
2579  3.81 11.97 46.62 
2580 17.82 10.55 46.62 
2581 25.65 17.74 46.62 
2582 21.87 12.71 46.62 
2583 20.35 18.14 46.62 
2584 17.81 10.96 46.62 
2585 26.19  9.98 46.62 
2586  7.07 13.88 46.62 
2587 19.57  7.44 46.62 
2588  8.81 12.07 46.62 
2589 17.62 11.13 46.62 
2590 19.86 13.92 46.62 
2591 37.70 11.63 46.62 
2592 22.12  9.19 46.62 
2593 17.56 11.39 46.62 
2594 13.36 11.80 46.62 
2595 19.34 14.31 46.62 
2596 14.59  9.38 46.62 
2597 18.62 11.55 46.62 
2598 26.91 11.54 46.62 
2599 21.11 11.46 46.62 
2600  8.30  8.38 46.62 
2601  9.54 12.88 46.62 
2602 25.71 21.35 46.62 
2603 18.34 16.47 46.62 
2604 14.31 11.62 46.62 
2605 20.10 13.81 46.62 
2606 19.35 13.81 46.62 
2607 22.65 12.63 46.62 
2608 21.63 16.13 46.62 
2609 20.57 15.96 46.62 
2610 31.35  9.75 46.62 
2611 12.06 14.14 46.62 
2612 24.17 21.65 46.62 
2613 22.85 16.07 46.62 
2614 22.67 16.14 46.62 
2615  9.05 15.00 46.62 
2616 25.65 14.64 46.62 
2617 20.87 16.74 46.62 
2618 25.85 13.08 46.62 
2619 21.35 12.90 46.62 
2620 36.06 17.07 46.62 
2621 10.04 12.32 46.62 
2622 27.62 13.39 46.62 
2623 12.32 13.00 46.62 
2624 28.85 11.98 46.62 
2625  4.77 12.14 46.62 
2626 14.57  8.21 46.62 
2627 12.09 10.80 46.62 
2628 10.31 11.54 46.62 
2629 28.99  7.11 46.62 
2630  8.81 15.14 46.62 
2631 11.29 13.88 46.62 
2632  9.05 14.47 46.62 
2633 18.09 12.55 46.62 
2634 15.12 12.53 46.62 
2635 36.72 12.47 46.62 
2636 32.40  9.79 46.62 
2637 15.35 11.22 46.62 
2638  7.29 17.30 46.62 
2639 15.86 13.63 46.62 
2640  3.01 18.88 46.62 
2641  8.53 11.15 46.62 
2642 27.45 11.38 46.62 
2643 21.36 14.23 46.62 
2644 16.36 11.87 46.62 
2645 31.36  9.88 46.62 
2646 24.91 11.99 46.62 
2647 10.79 13.22 46.62 
2648 14.83 11.38 46.62 
2649 22.16 11.46 46.62 
2650 10.06 14.18 46.62 
2651 29.75 13.42 46.62 
2652  6.52 12.62 46.62 
2653 21.89 11.31 46.62 
2654 14.57 12.90 46.62 
2655 15.80 12.21 46.62 
2656 19.35  9.44 46.62 
2657  5.81 10.95 46.62 
2658 16.36 10.88 46.62 
2659 23.17 13.88 46.62 
2660 14.58 12.22 46.62 
2661 13.82 12.15 46.62 
2662 20.85 14.80 46.62 
2663 16.36 18.50 46.62 
2664 29.98 13.48 46.62 
2665 10.08 20.60 46.62 
2666 26.12 15.39 46.62 
2667  6.56 10.37 46.62 
2668 19.08 11.04 46.62 
2669 16.30 15.13 46.62 
2670 27.86 12.90 46.62 
2671 15.60  7.53 46.62 
2672 16.83 12.12 46.62 
2673 13.08  9.29 46.62 
2674  7.58 11.72 46.62 
2675 15.08  8.54 46.62 
2676 26.14 10.87 46.62 
2677 31.96 12.46 46.62 
2678  8.30 11.96 46.62 
2679 23.86 11.98 46.62 
2680 20.61 15.91 46.62 
2681 16.59 16.51 46.62 
2682 19.10 19.52 46.62 
2683 15.34 19.57 46.62 
2684  5.02 13.71 46.62 
2685 13.38  9.69 46.62 
2686 28.60 20.60 46.62 
2687  3.51 13.59 46.62 
2688 15.33 12.17 46.62 
2689 19.55 10.92 46.62 
2690 11.80 13.39 46.62 
2691 16.84 12.05 46.62 
2692 23.87 14.07 46.62 
2693 32.91  9.70 46.62 
2694 23.16 12.56 46.62 
2695 21.11 14.62 46.62 
2696 28.88 13.31 46.62 
2697 12.07 14.82 46.62 
2698 19.59 13.86 46.62 
2699 13.80  7.27 46.62 
2700 33.20 12.48 46.62 
2701 23.56 12.48 46.62 
2702 12.06 24.60 46.62 
2703 27.96 15.90 46.62 
2704 17.84  9.63 46.62 
2705  1.50 15.72 46.62 
2706 36.22 12.66 46.62 
2707 24.38 12.32 46.62 
2708 11.54 11.36 46.62 
2709 16.86 16.81 46.62 
2710  9.52 17.00 46.62 
2711 15.83 16.57 46.62 
2712 23.35 12.58 46.62 
2713 14.08 13.72 46.62 
2714 29.91 14.98 46.62 
2715 26.34 12.65 46.62 
2716 20.11 12.80 46.62 
2717 29.85 15.20 46.62 
2718 15.84 18.82 46.62 
2719 11.82 11.96 46.62 
2720 32.93 15.97 46.62 
2721 28.39 15.83 46.62 
2722 16.54 19.16 46.62 
2723  8.08 14.05 46.62 
2724 14.09 16.57 46.62 
2725 15.86 12.63 46.62 
2726 26.87  7.13 46.62 
2727 21.35 10.64 46.62 
2728 24.17 13.39 46.62 
2729 20.07 10.22 46.62 
2730 15.58 11.07 46.62 
2731 20.68 16.25 46.62 
2732 42.28 19.50 46.62 
2733 29.89 12.93 46.62 
2734 19.60  7.46 46.62 
2735  3.51 20.65 46.62 
2736 18.33 24.01 46.62 
2737 10.04 25.01 46.62 
2738 13.31 14.12 46.62 
2739 23.08 12.65 46.62 
2740 21.11 18.40 46.62 
2741 18.38 15.46 46.62 
2742 21.61 12.48 46.62 
2743 14.65 14.83 46.62 
2744 16.55 10.29 46.62 
2745 17.06 16.44 46.62 
2746 19.63 23.84 46.62 
2747 16.39 18.75 46.62 
2748 22.40 15.47 46.62 
2749 16.60 11.06 46.62 
2750  9.08 16.75 46.62 
2751 11.38 16.57 46.62 
2752 29.65 18.89 46.62 
2753 27.94 19.01 46.62 
2754  5.02 13.31 46.62 
2755 25.17 20.98 46.62 
2756 19.10 18.80 46.62 
2757 10.32 15.16 46.62 
2758 15.88 14.63 46.62 
2759 25.38 16.73 46.62 
2760 25.65 17.98 46.62 
2761 31.14 15.90 46.62 
2762 22.97 10.13 46.62 
2763 16.85 15.97 46.62 
2764 11.80 11.65 46.62 
2765 14.57 20.42 46.62 
2766 23.87 26.28 46.62 
2767 40.51 20.77 46.62 
2768 16.34 25.43 46.62 
2769 26.20 17.58 46.62 
2770 28.72 20.01 46.62 
2771 26.96 12.38 46.62 
2772 16.57 19.90 46.62 
2773 11.06 22.98 46.62 
2774  8.29 28.79 46.62 
2775 13.10 25.49 46.62 
2776 16.62 12.79 46.62 
2777 12.60 26.77 46.62 
2778 18.61 28.19 46.62 
2779 15.34 19.66 46.62 
2780 22.08 17.22 46.62 
2781 21.10 23.99 46.62 
2782 22.86 19.22 46.62 
2783  4.76 17.05 46.62 
2784 18.32 19.08 46.62 
2785 26.85 13.63 46.62 
2786 12.03 22.41 46.62 
2787 23.84 21.23 46.62 
2788  7.60 15.22 46.62 
2789 37.92 18.25 46.62 
2790 21.33 20.14 46.62 
2791  8.77 14.81 46.62 
2792 28.63 21.76 46.62 
2793 26.65 30.79 46.62 
2794 22.37 19.41 46.62 
2795 10.06 21.66 46.62 
2796 14.83 22.61 46.62 
2797 19.30 24.09 46.62 
2798 16.37 26.73 46.62 
2799 30.53 32.27 46.62 
2800 17.81 24.93 46.62 
2801 20.56 13.21 46.62 
2802 27.13 18.49 46.62 
2803 33.63 28.45 46.62 
2804 21.11 15.80 46.62 
2805 24.89 31.70 46.62 
2806 16.36 17.07 46.62 
2807 17.37  9.88 46.62 
2808 14.16 18.74 46.62 
2809 18.56 13.97 46.62 
2810 26.15 20.22 46.62 
2811 17.34 25.37 46.62 
2812 38.41 18.41 46.62 
2813 23.45 20.17 46.62 
2814 10.52 22.51 46.62 
2815 11.81 10.71 46.62 
2816 19.39 22.57 46.62 
2817 14.32 14.50 46.62 
2818 25.17 11.13 46.62 
2819 10.82 23.44 46.62 
2820 22.68 20.02 46.62 
2821 36.37 12.56 46.62 
2822 37.17 23.92 46.62 
2823 23.62 16.55 46.62 
2824  7.30 18.67 46.62 
2825 18.56 15.83 46.62 
2826 19.55 21.07 46.62 
2827 12.78 16.17 46.62 
2828  5.51 12.31 46.62 
2829 12.59 13.45 46.62 
2830 21.07 16.39 46.62 
2831 19.30 18.56 46.62 
2832 18.85 16.40 46.62 
2833 30.12 11.12 46.62 
2834 28.16 17.57 46.62 
2835 14.84 14.82 46.62 
2836 26.10 18.16 46.62 
2837 13.85 14.06 46.62 
2838 16.33 18.98 46.62 
2839 12.35 13.83 46.62 
2840  9.81 16.10 46.62 
2841 22.36 22.92 46.62 
2842 15.31 16.05 46.62 
2843 22.08 14.46 46.62 
2844 11.33 19.80 46.62 
2845  4.01 14.74 46.62 
2846 20.60 19.58 46.62 
2847 10.31 12.63 46.62 
2848 13.30 18.32 46.62 
2849 14.32 19.33 46.62 
2850 17.86 10.98 46.62 
2851 10.79 18.44 46.62 
2852 14.11 20.65 46.62 
2853  7.03 18.81 46.62 
2854 19.07 14.47 46.62 
2855 14.82 19.50 46.62 
2856 42.41 14.47 46.62 
2857  4.29 18.65 46.62 
2858 17.06 12.12 46.62 
2859  8.54 14.41 46.62 
2860 27.92 15.79 46.62 
2861 21.08 11.72 46.62 
2862 16.08 21.66 46.62 
2863  3.77 13.32 46.62 
2864 16.43 17.42 46.62 
2865 25.45 23.34 46.62 
2866 20.32 17.15 46.62 
2867 27.61 19.02 46.62 
2868 17.61 20.24 46.62 
2869 28.15 20.34 46.62 
2870 15.62 28.19 46.62 
2871  6.85 19.90 46.62 
2872 12.56 24.27 46.62 
2873 29.63 17.49 46.62 
2874 29.58 18.69 46.62 
2875 20.89 24.78 46.62 
2876 21.64 16.74 46.62 
2877  5.78 20.17 46.62 
2878  7.78 18.66 46.62 
2879 23.88 17.25 46.62 
2880 15.83  9.96 46.62 
2881 22.12 18.77 46.62 
2882 12.05 24.69 46.62 
2883 27.18 11.84 46.62 
2884 23.10 24.09 46.62 
2885 24.64 13.49 46.62 
2886 16.69 25.71 46.62 
2887 22.09 19.17 46.62 
2888 31.38 23.03 46.62 
2889 15.30 14.06 46.62 
2890 21.57 19.25 46.62 
2891 19.09 13.73 46.62 
2892 16.85 15.75 46.62 
2893 18.86 17.49 46.62 
2894 15.85 23.78 46.62 
2895 14.82 14.30 46.62 
2896 18.11 19.69 46.62 
2897 17.57 18.66 46.62 
2898 23.10 13.65 46.62 
2899 29.37 18.92 46.62 
2900 10.83 17.00 46.62 
2901 39.94 22.41 46.62 
2902 31.19 16.99 46.62 
2903 23.61 17.54 46.62 
2904 25.69 14.48 46.62 
2905  6.53 19.34 46.62 
2906 24.12  7.05 46.62 
2907 30.41 14.85 46.62 
2908 20.08 14.65 46.62 
2909 24.33 19.49 46.62 
2910 25.36 10.54 46.62 
2911 15.07 22.58 46.62 
2912 25.59 30.52 46.62 
2913 22.14 16.75 46.62 
2914 11.80 13.65 46.62 
2915  5.57 12.89 46.62 
2916 19.63 13.65 46.62 
2917  8.30 20.17 46.62 
2918 13.28 12.46 46.62 
2919 16.33 11.95 46.62 
2920 21.57 18.32 46.62 
2921 33.41 17.50 46.62 
2922 18.87 17.26 46.62 
2923 14.07 14.41 46.62 
2924 12.05 19.09 46.62 
2925  9.77 15.57 46.62 
2926 24.47 19.65 46.62 
2927  7.52 26.01 46.62 
2928 19.93 11.14 46.62 
2929 37.38 13.57 46.62 
2930 26.59 16.69 46.62 
2931 43.18 13.39 46.62 
2932 25.33 23.17 46.62 
2933 25.16 19.66 46.62 
2934 37.91 11.90 46.62 
2935 25.86 20.85 46.62 
2936 29.90 21.78 46.62 
2937 12.59  6.28 46.62 
2938 28.85 25.93 46.62 
2939 43.98 18.15 46.62 
2940  8.52 23.51 46.62 
2941 15.65 21.25 46.62 
2942 13.08 14.13 46.62 
2943  8.78 19.68 46.62 
2944 10.30 17.66 46.62 
2945 13.85 17.00 46.62 
2946 21.30 19.00 46.62 
2947 10.28 16.18 46.62 
2948 17.55 23.69 46.62 
2949 11.07 17.08 46.62 
2950 21.10 13.07 46.62 
2951 18.32 11.06 46.62 
2952  6.78 19.82 46.62 
2953 24.59 23.01 46.62 
2954 15.14 14.23 46.62 
2955 15.83 20.82 46.62 
2956 13.64 12.99 46.62 
2957 16.57 18.14 46.62 
2958 15.09 19.00 46.62 
2959 14.09  9.70 46.62 
2960 28.70 24.11 46.62 
2961 16.87 19.90 46.62 
2962 22.40 13.88 46.62 
2963 26.40 13.53 46.62 
2964 14.80 14.40 46.62 
2965 17.59 17.92 46.62 
2966 19.60 18.25 46.62 
2967 18.36 16.39 46.62 
2968 27.37 17.14 46.62 
2969 26.37 14.38 46.62 
2970 12.62 17.81 46.62 
2971 15.31 18.26 46.62 
2972 17.81 20.60 46.62 
2973 14.58 26.83 46.62 
2974 16.07 17.51 46.62 
2975 25.65 15.48 46.62 
2976 32.61 17.38 46.62 
2977 34.90 16.50 46.62 
2978 22.36 17.98 46.62 
2979 22.85 17.30 46.62 
2980 17.08 13.90 46.62 
2981 19.08 21.76 46.62 
2982 15.55 17.82 46.62 
2983 11.05  7.69 46.62 
2984 28.34 18.07 46.62 
2985 11.82 19.92 46.62 
2986 34.75 13.57 46.62 
2987 23.33 10.80 46.62 
2988 16.58 12.63 46.62 
2989 19.59 13.80 46.62 
2990  9.80 20.22 46.62 
2991  4.28 10.70 46.62 
2992 24.10 18.57 46.62 
2993 18.12 21.65 46.62 
2994 33.64 16.31 46.62 
2995  2.76 22.24 46.62 
2996 20.57 11.97 46.62 
2997 16.06 14.65 46.62 
2998 17.82 18.65 46.62 
2999 33.92 10.54 46.62 
3000 22.61 18.39 46.62 
3001 19.56  6.95 46.62 
3002 10.87 12.14 46.62 
3003 13.35 17.67 46.62 
3004 19.06 17.15 46.62 
3005  9.03 13.20 46.62 
3006 27.19 13.46 46.62 
3007 16.29 21.67 46.62 
3008 30.89 18.40 46.62 
3009 25.40 12.88 46.62 
3010 22.34 14.37 46.62 
3011 11.05 12.73 46.62 
3012 21.36 12.63 46.62 
3013 19.13 14.33 46.62 
3014 10.90 11.56 46.62 
3015 14.81 11.04 46.62 
3016 13.10  7.37 46.62 
3017 12.79 15.04 46.62 
3018 25.40 13.38 46.62 
3019 16.28 18.84 46.62 
3020 11.06 14.31 46.62 
3021 25.36 16.32 46.62 
3022 22.84 19.49 46.62 
3023 19.10 15.89 46.62 
3024 22.00 13.04 46.62 
3025 25.12 21.05 46.62 
3026 21.54 18.91 46.62 
3027 13.06 17.15 46.62 
3028 25.09 15.64 46.62 
3029 14.07 13.56 46.62 
3030 27.82 24.55 46.62 
3031 14.79 14.49 46.62 
3032 21.11 11.57 46.62 
3033  5.52 19.47 46.62 
3034 19.37 21.57 46.62 
3035 26.09 12.54 46.62 
3036 11.57 18.39 46.62 
3037 14.81 13.81 46.62 
3038 27.61 14.16 46.62 
3039 12.80 15.79 46.62 
3040 29.87 22.60 46.62 
3041  7.79 11.16 46.62 
3042  7.78 11.88 46.62 
3043 16.42 11.55 46.62 
3044 19.58 13.47 46.62 
3045 21.29 12.80 46.62 
3046 24.67 16.66 46.62 
3047 18.29 14.55 46.62 
3048  8.80 11.50 46.62 
3049 29.88 13.99 46.62 
3050 26.60 16.15 46.62 
3051 25.09 12.72 46.62 
3052 21.60 11.15 46.62 
3053 25.62 14.23 46.62 
3054 30.44 12.55 46.62 
3055  7.29 12.88 46.62 
3056 32.09 24.01 46.62 
3057 15.32 18.13 46.62 
3058 14.55 13.24 46.62 
3059 12.32 14.38 46.62 
3060 18.59 17.32 46.62 
3061 14.56 16.31 46.62 
3062  9.28 12.96 46.62 
3063  9.58 14.46 46.62 
3064  5.76 19.83 46.62 
3065 13.31 17.90 46.62 
3066 18.09 14.64 46.62 
3067 15.11 15.91 46.62 
3068 24.13 12.46 46.62 
3069 14.08 13.59 46.62 
3070 10.55 16.47 46.62 
3071  7.31 14.80 46.62 
3072 17.83 19.16 46.62 
3073 17.04 17.72 46.62 
3074 22.84 18.14 46.62 
3075 23.11 18.23 46.62 
3076  9.30 12.96 46.62 
3077  3.78 15.48 46.62 
3078 16.31 18.48 46.62 
3079 16.05 19.49 46.62 
3080 12.55 17.35 46.62 
3081 13.83 17.98 46.62 
3082 26.11 17.83 46.62 
3083 24.80 15.64 46.62 
3084  7.27 14.23 46.62 
3085 25.34 15.92 46.62 
3086 17.05 19.24 46.62 
3087 22.35 19.25 46.62 
3088  3.01 15.16 46.62 
3089 25.81 12.79 46.62 
3090 25.81 12.37 46.62 
3091 12.12 20.92 46.62 
3092 16.58 18.79 46.62 
3093 18.81 13.38 46.62 
3094 23.83 20.48 46.62 
3095 18.10 14.04 46.62 
3096 22.11 16.50 46.62 
3097 27.07 21.22 46.62 
3098 14.09 19.66 46.62 
3099 29.11 16.65 46.62 
3100 21.09 21.00 46.62 
3101 22.83 13.88 46.62 
3102 17.58 14.25 46.62 
3103 24.62 13.20 46.62 
3104 10.31 15.90 46.62 
3105 28.41 11.95 46.62 
3106 18.09 17.40 46.62 
3107 37.88 14.73 46.62 
3108  8.80 20.07 46.62 
3109 17.57 18.71 46.62 
3110 16.62 20.65 46.62 
3111  5.62 13.40 46.62 
3112 20.32 20.57 46.62 
3113 20.10 20.82 46.62 
3114 25.59 20.93 46.62 
3115 12.06 15.87 46.62 
3116 35.87 20.56 46.62 
3117  7.89 27.51 46.62 
3118 17.81 18.91 46.62 
3119 20.59 14.98 46.62 
3120 22.15 15.63 46.62 
3121 11.04 20.55 46.62 
3122 26.37  9.44 46.62 
3123 18.82 15.51 46.62 
3124 15.80 20.82 46.62 
3125 22.36 19.98 46.62 
3126 22.88  9.30 46.62 
3127 16.84 13.64 46.62 
3128 19.06 13.46 46.62 
3129 22.63 17.77 46.62 
3130 37.36 20.42 46.62 
3131  7.27 14.21 46.62 
3132 14.80 23.85 46.62 
3133  4.01 10.08 46.62 
3134 18.84 17.07 46.62 
3135  4.27 25.69 46.62 
3136  9.15 17.06 46.62 
3137 18.07 12.41 46.62 
3138 21.07 24.02 46.62 
3139 21.59 21.16 46.62 
3140 24.87 18.50 46.62 
3141 24.82 20.99 46.62 
3142  6.52 14.31 46.62 
3143 22.08 20.13 46.62 
3144 12.80 14.14 46.62 
3145 28.62 24.16 46.62 
3146 32.12 23.16 46.62 
3147 17.32 18.40 46.62 
3148  7.53 12.30 46.62 
3149 16.33 14.81 46.62 
3150 15.59 15.02 46.62 
3151 26.85 28.03 46.62 
3152 21.36 21.95 46.62 
3153 36.17 31.85 46.62 
3154 13.53 22.59 46.62 
3155 19.59 22.58 46.62 
3156 27.90 25.44 46.62 
3157 24.34 25.26 46.62 
3158 15.33 13.22 46.62 
3159 27.12 13.71 46.62 
3160 26.86 18.59 46.62 
3161 23.41 22.67 46.62 
3162 19.83 13.47 46.62 
3163 20.14 18.08 46.62 
3164 19.30 17.41 46.62 
3165 14.30 27.18 46.62 
3166 24.68 21.00 46.62 
3167 32.62 22.24 46.62 
3168 11.81 18.41 46.62 
3169 25.61 17.91 46.62 
3170 17.60 17.73 46.62 
3171 10.31 25.24 46.62 
3172 19.85 10.03 46.62 
3173 24.08 23.19 46.62 
3174 18.58 20.99 46.62 
3175 19.07 12.39 46.62 
3176 22.33 11.37 46.62 
3177 19.62 17.73 46.62 
3178 33.47 13.39 46.62 
3179 27.63 24.33 46.62 
3180 11.79 20.23 46.62 
3181 16.58 27.75 46.62 
3182 20.12 19.41 46.62 
3183 18.83 12.04 46.62 
3184 11.04 22.26 46.62 
3185 10.33 19.25 46.62 
3186 17.05 28.51 46.62 
3187 16.79 21.48 46.62 
3188 11.78 20.06 46.62 
3189 10.02 21.67 46.62 
3190 23.36 20.99 46.62 
3191 27.40 22.25 46.62 
3192 19.12  8.22 46.62 
3193 31.36 19.98 46.62 
3194 32.14 14.91 46.62 
3195 25.38 24.92 46.62 
3196 28.65 22.55 46.62 
3197  3.77 25.74 46.62 
3198 23.84 26.41 46.62 
3199 12.82 12.72 46.62 
3200 27.37 21.50 46.62 
3201 12.81 32.02 46.62 
3202 28.11 15.40 46.62 
3203 27.87 21.32 46.62 
3204 38.87 18.06 46.62 
3205 19.07 28.28 46.62 
3206  3.02 24.46 46.62 
3207 18.56 22.66 46.62 
3208 22.33 19.07 46.62 
3209 10.82 34.78 46.62 
3210 15.28 16.40 46.62 
3211 32.35 16.33 46.62 
3212 23.83 22.99 46.62 
3213  7.34 19.59 46.62 
3214 24.61 22.33 46.62 
3215 21.12 26.46 46.62 
3216 27.13 21.59 46.62 
3217 23.88 20.28 46.62 
3218 15.83 22.68 46.62 
3219 20.60 20.43 46.62 
3220 34.46 19.36 46.62 
3221 36.66 24.84 46.62 
3222 32.73 24.87 46.62 
3223  8.05 30.01 46.62 
3224 28.10 20.02 46.62 
3225 30.90 14.50 46.62 
3226 27.60 17.18 46.62 
3227 21.57 22.18 46.62 
3228 25.37 22.42 46.62 
3229 21.06 27.95 46.62 
3230  7.56 26.06 46.62 
3231 20.10 23.26 46.62 
3232 30.15 25.70 46.62 
3233 24.89 16.40 46.62 
3234 32.44 18.99 46.62 
3235 30.35 20.45 46.62 
3236 15.81 17.76 46.62 
3237 16.35 19.03 46.62 
3238  5.77 10.87 46.62 
3239 23.36 19.28 46.62 
3240 22.62 20.86 46.62 
3241 15.37 18.79 46.62 
3242 23.88 15.83 46.62 
3243  9.29 15.78 46.62 
3244 11.80 21.42 46.62 
3245 29.18 19.69 46.62 
3246 14.66 19.00 46.62 
3247 15.35 17.07 46.62 
3248 18.95 19.59 46.62 
3249 29.93 18.77 46.62 
3250 23.07 16.62 46.62 
3251 12.30 15.26 46.62 
3252 18.07 26.12 46.62 
3253 13.56 20.19 46.62 
3254  2.51 30.74 46.62 
3255  8.28 19.57 46.62 
3256 22.09 17.34 46.62 
3257 19.57 17.31 46.62 
3258 32.63 27.39 46.62 
3259 25.60 18.45 46.62 
3260 25.63 15.07 46.62 
3261 18.84 29.28 46.62 
3262 13.59 16.35 46.62 
3263 18.83 16.69 46.62 
3264 27.11 20.87 46.62 
3265 10.06 21.59 46.62 
3266 17.91 19.80 46.62 
3267 21.61 16.00 46.62 
3268 21.33 26.51 46.62 
3269  8.07 19.33 46.62 
3270  6.80 25.19 46.62 
3271 17.56 19.20 46.62 
3272 26.58 21.59 46.62 
3273 30.91 19.92 46.62 
3274 30.45 19.23 46.62 
3275 22.10 19.17 46.62 
3276 17.84 14.57 46.62 
3277 12.05 17.41 46.62 
3278 20.67 18.85 46.62 
3279  8.31 20.60 46.62 
3280 13.07 28.39 46.62 
3281 26.10 23.11 46.62 
3282 24.09 24.92 46.62 
3283 23.37 26.20 46.62 
3284 11.36 24.59 46.62 
3285 12.55 17.23 46.62 
3286 11.81 16.81 46.62 
3287 10.32 20.16 46.62 
3288 18.30 19.59 46.62 
3289 19.09 25.86 46.62 
3290 12.30 17.91 46.62 
3291 28.65 30.12 46.62 
3292 24.39 18.67 46.62 
3293 13.60 28.04 46.62 
3294 20.84 15.65 46.62 
3295 25.38 29.94 46.62 
3296 15.05 23.18 46.62 
3297 19.91 25.94 46.62 
3298 25.72 23.09 46.62 
3299 21.61 21.28 46.62 
3300 35.95 20.93 46.62 
3301 17.57 19.66 46.62 
3302 16.05 20.93 46.62 
3303 22.13 25.87 46.62 
3304 12.33 12.50 46.62 
3305 20.57 17.70 46.62 
3306 24.31 25.46 46.62 
3307 16.85 18.41 46.62 
3308 24.39 15.81 46.62 
3309 30.44 21.05 46.62 
3310 13.04 13.26 46.62 
3311 27.37 26.30 46.62 
3312 24.67 18.61 46.62 
3313 19.58 14.56 46.62 
3314 10.07 21.44 46.62 
3315  8.79 20.02 46.62 
3316  4.27 25.25 46.62 
3317 17.65 21.84 46.62 
3318 19.85 17.23 46.62 
3319 16.33 20.67 46.62 
3320 20.10 20.93 46.62 
3321 13.55 17.93 46.62 
3322 20.83 24.69 46.62 
3323 11.56 19.16 46.62 
3324 15.84  9.96 46.62 
3325 26.64 28.72 46.62 
3326 12.82 20.41 46.62 
3327 29.88 21.43 46.62 
3328 21.36 18.82 46.62 
3329 21.57 14.06 46.62 
3330 15.32 23.85 46.62 
3331 13.33 25.78 46.62 
3332 28.64 18.09 46.62 
3333 27.70 23.85 46.62 
3334 21.35 18.32 46.62 
3335 28.13 23.52 46.62 
3336 20.09 16.74 46.62 
3337 35.62 21.28 46.62 
3338  9.29  9.97 46.62 
3339  8.04 11.48 46.62 
3340 11.29 17.65 46.62 
3341 26.47 17.31 46.62 
3342 12.06 21.63 46.62 
3343 20.55 19.48 46.62 
3344 22.11 16.58 46.62 
3345 26.12 19.67 46.62 
3346 20.80 22.53 46.62 
3347  6.79 22.43 46.62 
3348  9.81 18.23 46.62 
3349 39.18 15.72 46.62 
3350  6.26 26.59 46.62 
3351 18.59 17.57 46.62 
3352 18.96 16.13 46.62 
3353 12.56 14.47 46.62 
3354 25.62 16.98 46.62 
3355 23.33 24.44 46.62 
3356 26.31 15.24 46.62 
3357  8.56 21.77 46.62 
3358 28.16 17.92 46.62 
3359 10.53 23.01 46.62 
3360  2.76 17.66 46.62 
3361 22.12 14.12 46.62 
3362 13.08 23.76 46.62 
3363 12.57 18.91 46.62 
3364 30.18 19.24 46.62 
3365 17.40 23.40 46.62 
3366 13.56 16.62 46.62 
3367 37.22 26.77 46.62 
3368 22.35 26.75 46.62 
3369 12.31 21.59 46.62 
3370 18.37 14.71 46.62 
3371 19.07 23.16 46.62 
3372  8.11 20.25 46.62 
3373 23.35 19.01 46.62 
3374 28.85 10.38 46.62 
3375 28.44 10.88 46.62 
3376  5.02 11.73 46.62 
3377 24.16 18.91 46.62 
3378 20.58 21.24 46.62 
3379 23.64 17.49 46.62 
3380 22.13 18.40 46.62 
3381  5.81 28.19 46.62 
3382  9.06 11.63 46.62 
3383  6.52 24.67 46.62 
3384 12.57 19.49 46.62 
3385 25.34 16.67 46.62 
3386 29.89 23.08 46.62 
3387 16.79 23.42 46.62 
3388 29.35 18.99 46.62 
3389 15.35 25.87 46.62 
3390 14.32 25.18 46.62 
3391 46.18 20.65 46.62 
3392 35.39 19.78 46.62 
3393 17.33 18.48 46.62 
3394 30.91 15.06 46.62 
3395 15.32 12.24 46.62 
3396 21.33 20.77 46.62 
3397 11.53 17.76 46.62 
3398  6.54 16.89 46.62 
3399 10.59 19.85 46.62 
3400 38.40 10.95 46.62 
3401 15.10 18.95 46.62 
3402 15.59 11.37 46.62 
3403 27.86 21.99 46.62 
3404 12.06 16.80 46.62 
3405 24.12 16.25 46.62 
3406 30.44 26.34 46.62 
3407 18.58 18.32 46.62 
3408 12.04 17.31 46.62 
3409 14.30 22.25 46.62 
3410  5.54 20.51 46.62 
3411 16.61 14.98 46.62 
3412  9.83 16.55 46.62 
3413 19.58 25.68 46.62 
3414 24.37 19.55 46.62 
3415 31.86 14.40 46.62 
3416 26.39 20.57 46.62 
3417 21.07 22.70 46.62 
3418 32.66 23.17 46.62 
3419  9.31 21.16 46.62 
3420 13.06 16.00 46.62 
3421 24.88 14.35 46.62 
3422 20.10 21.24 46.62 
3423 14.31 15.06 46.62 
3424 23.63 22.85 46.62 
3425 23.10 17.23 46.62 
3426 22.44 15.91 46.62 
3427 28.14 13.57 46.62 
3428 38.21 22.49 46.62 
3429 13.57 19.73 46.62 
3430  8.81 11.96 46.62 
3431 13.06 17.98 46.62 
3432  9.78 14.39 46.62 
3433 16.05 21.58 46.62 
3434 17.09 25.37 46.62 
3435 15.11 16.56 46.62 
3436  8.04 21.09 46.62 
3437 15.82 16.33 46.62 
3438 11.55 19.56 46.62 
3439 19.87 12.14 46.62 
3440 22.11 17.34 46.62 
3441 16.57 11.99 46.62 
3442 21.41 12.21 46.62 
3443 17.82 18.16 46.62 
3444 22.12 16.09 46.62 
3445 27.63 25.85 46.62 
3446 11.82 24.18 46.62 
3447 24.20 14.07 46.62 
3448 19.90 18.75 46.62 
3449 19.61 18.85 46.62 
3450 11.81 19.24 46.62 
3451  9.54 25.94 46.62 
3452 21.63 19.92 46.62 
3453 19.82 15.03 46.62 
3454 26.60 21.55 46.62 
3455 20.58 19.41 46.62 
3456 16.85 20.42 46.62 
3457 15.89  8.86 46.62 
3458 16.84 16.90 46.62 
3459 10.79 17.23 46.62 
3460 13.29 19.07 46.62 
3461 16.07 13.67 46.62 
3462 20.10 15.21 46.62 
3463 25.10 12.06 46.62 
3464 20.60 28.57 46.62 
3465 15.36 20.06 46.62 
3466 24.66 15.47 46.62 
3467  5.27 16.39 46.62 
3468 18.85 15.38 46.62 
3469 11.57 24.33 46.62 
3470 27.35 19.81 46.62 
3471  3.78 13.21 46.62 
3472 18.36 19.43 46.62 
3473 10.28 19.66 46.62 
3474 29.39 16.54 46.62 
3475 24.66 20.67 46.62 
3476 23.07 23.59 46.62 
3477  8.80 13.40 46.62 
3478 19.34 18.82 46.62 
3479 22.39 19.27 46.62 
3480 11.54 20.07 46.62 
3481 35.42 22.27 46.62 
3482 24.90 17.05 46.62 
3483 21.64 16.22 46.62 
3484 11.33 13.89 46.62 
3485  9.59 22.93 46.62 
3486 16.31 23.49 46.62 
3487 33.10 18.47 46.62 
3488 14.80 16.38 46.62 
3489 25.94 16.31 46.62 
3490 19.30 16.40 46.62 
3491 11.80 20.08 46.62 
3492 20.08 12.56 46.62 
3493 39.67 11.48 46.62 
3494 16.08 19.99 46.62 
3495  6.30 22.59 46.62 
3496 24.57 27.95 46.62 
3497 15.06 26.25 46.62 
3498 14.31 15.40 46.62 
3499 14.81 24.18 46.62 
3500 18.04 15.80 46.62 
3501 14.79 17.72 46.62 
3502 10.33 21.00 46.62 
3503 32.44 13.40 46.62 
3504 14.53 23.36 46.62 
3505 11.31 22.81 46.62 
3506 20.57 20.27 46.62 
3507 20.08 16.90 46.62 
3508 20.38  6.86 46.62 
3509 17.07 18.41 46.62 
3510 14.58 21.50 46.62 
3511 14.10 12.22 46.62 
3512 14.58 23.84 46.62 
3513 26.35 22.92 46.62 
3514 10.78 21.37 46.62 
3515 18.81 15.07 46.62 
3516  9.29 17.99 46.62 
3517 19.10 18.31 46.62 
3518 32.14 20.23 46.62 
3519 12.80 26.27 46.62 
3520 20.57 19.42 46.62 
3521 33.45 21.67 46.62 
3522 19.84 13.08 46.62 
3523 30.39 14.89 46.62 
3524 26.58 17.72 46.62 
3525 10.78 15.98 46.62 
3526 33.63 21.06 46.62 
3527 12.78  7.95 46.62 
3528 16.33 10.47 46.62 
3529 21.89 21.49 46.62 
3530 18.81 13.06 46.62 
3531 27.90 26.27 46.62 
3532 27.34 21.57 46.62 
3533 18.84 20.43 46.62 
3534 12.83 21.19 46.62 
3535 24.14 14.82 46.62 
3536 25.33 13.65 46.62 
3537  1.50 14.20 46.62 
3538  9.28 14.31 46.62 
3539 19.57 19.48 46.62 
3540 26.86 12.80 46.62 
3541 27.09 24.85 46.62 
3542 17.35 12.36 46.62 
3543 12.60 21.01 46.62 
3544 32.96 16.14 46.62 
3545 14.56 20.93 46.62 
3546 18.09 29.37 46.62 
3547  5.53 27.64 46.62 
3548 18.55 23.85 46.62 
3549  5.27 20.92 46.62 
3550 24.83 18.57 46.62 
3551 15.82 17.82 46.62 
3552 29.90 15.72 46.62 
3553 13.80 14.16 46.62 
3554 16.35 19.57 46.62 
3555 18.86 16.98 46.62 
3556 21.63 11.72 46.62 
3557 18.12 19.75 46.62 
3558 21.35 10.97 46.62 
3559 23.09 17.16 46.62 
3560 11.05 18.39 46.62 
3561 10.80 20.92 46.62 
3562 17.86 16.39 46.62 
3563 30.63 30.44 46.62 
3564 28.33 12.29 46.62 
3565  8.07 16.31 46.62 
3566  3.51 19.23 46.62 
3567 14.08 15.25 46.62 
3568 26.63 13.75 46.62 
3569 14.34  9.95 46.62 
3570 19.07 13.05 46.62 
3571 15.82 15.73 46.62 
3572 13.82 23.51 46.62 
3573 33.11 17.41 46.62 
3574 12.83 16.46 46.62 
3575 35.21 18.33 46.62 
3576 12.04 16.02 46.62 
3577 13.05 17.83 46.62 
3578 10.28 20.08 46.62 
3579  9.31 19.51 46.62 
3580 24.16 14.81 46.62 
3581 18.36 24.03 46.62 
3582  9.81  7.78 46.62 
3583 17.08 11.65 46.62 
3584  6.29 17.74 46.62 
3585 24.11 24.43 46.62 
3586 42.20 21.90 46.62 
3587 19.13 16.38 46.62 
3588 21.07 24.11 46.62 
3589 19.34  8.72 46.62 
3590 28.86 21.26 46.62 
3591 12.29 22.88 46.62 
3592 17.84 19.22 46.62 
3593 16.82 22.53 46.62 
3594 27.38 24.67 46.62 
3595 21.31 10.62 46.62 
3596 24.87 11.65 46.62 
3597 14.32 21.57 46.62 
3598 18.30 27.75 46.62 
3599  9.82 18.40 46.62 
3600 17.60 18.80 46.62 
3601 22.10 27.72 46.62 
3602 35.88 21.53 46.62 
3603 25.37 20.81 46.62 
3604 26.12 12.32 46.62 
3605  4.31 11.54 46.62 
3606 23.36 21.82 46.62 
3607 29.75 27.16 46.62 
3608 17.58 17.90 46.62 
3609 23.35 15.91 46.62 
3610 24.33 17.66 46.62 
3611 22.06 18.33 46.62 
3612 12.33 14.13 46.62 
3613 13.60 21.93 46.62 
3614 32.93 20.83 46.62 
3615  7.79 28.21 46.62 
3616 18.33 22.16 46.62 
3617 25.38 13.29 46.62 
3618 18.15 20.68 46.62 
3619 11.59 19.81 46.62 
3620 12.78 17.32 46.62 
3621 21.85 14.14 46.62 
3622 23.60 10.97 46.62 
3623 10.56 17.55 46.62 
3624 15.81 19.99 46.62 
3625  8.53 18.25 46.62 
3626 35.15 21.67 46.62 
3627 15.37 23.58 46.62 
3628  5.27 26.59 46.62 
3629 14.32 11.39 46.62 
3630 21.07 16.08 46.62 
3631 19.35 17.68 46.62 
3632  4.79 17.80 46.62 
3633 18.83 19.73 46.62 
3634 17.08  7.29 46.62 
3635 21.34 15.39 46.62 
3636  9.32 23.34 46.62 
3637 24.81 14.31 46.62 
3638 13.78 18.45 46.62 
3639 21.33 11.55 46.62 
3640 22.09 20.57 46.62 
3641 20.11 10.79 46.62 
3642 11.53 12.40 46.62 
3643 18.14 16.66 46.62 
3644 22.13  9.47 46.62 
3645 19.86 14.81 46.62 
3646 26.14  8.19 46.62 
3647 16.89 13.39 46.62 
3648 10.06 21.76 46.62 
3649  8.08 14.47 46.62 
3650 18.92 13.80 46.62 
3651 19.66 26.43 46.62 
3652 37.69 17.77 46.62 
3653 25.67 16.29 46.62 
3654 15.56 24.34 46.62 
3655 15.34 14.80 46.62 
3656  2.52 12.21 46.62 
3657 16.58 18.47 46.62 
3658 17.32 15.98 46.62 
3659 21.16 21.67 46.62 
3660 21.61 19.23 46.62 
3661 19.38 11.19 46.62 
3662 27.16 19.83 46.62 
3663 23.84 17.89 46.62 
3664 38.38 17.60 46.62 
3665 23.35 21.65 46.62 
3666 12.57 23.48 46.62 
3667 16.84 19.39 46.62 
3668  5.03 21.48 46.62 
3669 27.18 19.40 46.62 
3670 20.94 21.94 46.62 
3671 24.39 15.83 46.62 
3672 12.60 14.41 46.62 
3673 21.39 18.52 46.62 
3674 23.87 14.89 46.62 
3675 19.10 12.39 46.62 
3676 18.13 17.32 46.62 
3677 15.61 13.72 46.62 
3678 18.17 11.62 46.62 
3679 21.59 12.89 46.62 
3680  9.85 19.24 46.62 
3681  8.03 15.21 46.62 
3682 22.17 21.15 46.62 
3683 32.00 17.89 46.62 
3684 21.36 14.32 46.62 
3685 27.15 18.25 46.62 
3686 24.86 12.29 46.62 
3687 21.87 16.14 46.62 
3688 16.58 23.67 46.62 
3689 18.60 22.84 46.62 
3690 27.63 20.50 46.62 
3691 21.40 16.48 46.62 
3692 25.85 11.22 46.62 
3693 22.06 16.32 46.62 
3694 10.30 21.08 46.62 
3695  5.55 15.05 46.62 
3696 10.57 21.37 46.62 
3697 32.64 22.32 46.62 
3698 11.54 23.68 46.62 
3699 17.59 27.53 46.62 
3700 14.60 13.40 46.62 
3701 16.30 21.83 46.62 
3702 28.89 18.46 46.62 
3703 30.91 17.14 46.62 
3704 10.05 17.32 46.62 
3705 25.39 17.81 46.62 
3706 13.33 21.47 46.62 
3707  9.56 17.66 46.62 
3708 19.10 19.83 46.62 
3709 29.42 14.72 46.62 
3710  9.83 12.91 46.62 
3711 14.82 11.47 46.62 
3712 21.58 12.83 46.62 
3713 20.91 16.08 46.62 
3714 12.04 15.65 46.62 
3715 22.09 16.47 46.62 
3716 27.41  8.36 46.62 
3717 14.60 20.33 46.62 
3718 13.05 15.65 46.62 
3719 26.85 19.91 46.62 
3720 16.61 19.09 46.62 
3721 32.37 12.80 46.62 
3722 23.62 20.15 46.62 
3723 17.55 20.40 46.62 
3724 12.07 16.68 46.62 
3725 23.08 12.08 46.62 
3726  3.76 21.30 46.62 
3727 24.09 18.91 46.62 
3728 22.32 17.40 46.62 
3729 12.13 14.21 46.62 
3730  9.56 13.89 46.62 
3731 20.06 14.58 46.62 
3732 12.10 26.03 46.62 
3733 16.09 25.27 46.62 
3734  9.53 13.90 46.62 
3735 26.39 16.51 46.62 
3736  5.77 15.31 46.62 
3737 36.12  8.63 46.62 
3738 18.62 15.20 46.62 
3739 12.33 15.99 46.62 
3740 25.85 10.36 46.62 
3741 18.59 17.47 46.62 
3742 10.82 16.67 46.62 
3743 17.07 23.12 46.62 
3744 20.13 27.32 46.62 
3745 13.06 20.75 46.62 
3746 10.57 19.86 46.62 
3747  8.82 24.33 46.62 
3748 23.91 13.56 46.62 
3749 25.13 12.80 46.62 
3750  8.28 18.57 46.62 
3751 23.90 23.10 46.62 
3752 27.38 20.47 46.62 
3753  6.04 15.30 46.62 
3754 14.53 24.35 46.62 
3755  5.27 21.68 46.62 
3756 35.35 24.10 46.62 
3757 13.09 14.81 46.62 
3758 16.37 23.82 46.62 
3759 25.09 16.14 46.62 
3760 16.32  9.44 46.62 
3761 16.33 16.67 46.62 
3762 16.61 14.30 46.62 
3763 14.31 15.90 46.62 
3764 15.84 18.48 46.62 
3765 28.18 19.23 46.62 
3766 14.33 14.31 46.62 
3767 28.65 16.54 46.62 
3768 23.87 11.89 46.62 
3769  9.78 23.02 46.62 
3770 19.83 17.81 46.62 
3771 22.15 24.57 46.62 
3772  5.28 18.26 46.62 
3773 24.83 14.48 46.62 
3774 13.33 17.91 46.62 
3775 22.60 12.23 46.62 
3776  9.35 17.56 46.62 
3777 15.79 19.88 46.62 
3778 18.63 16.96 46.62 
3779 21.31 14.71 46.62 
3780 16.34 18.59 46.62 
3781 24.63 19.08 46.62 
3782  9.82 17.63 46.62 
3783 18.37 15.72 46.62 
3784 18.06  9.36 46.62 
3785 25.10 12.40 46.62 
3786 10.56 16.40 46.62 
3787 14.34 17.64 46.62 
3788 32.11 14.71 46.62 
3789 14.58 26.20 46.62 
3790  9.30 20.06 46.62 
3791 14.33 22.17 46.62 
3792 13.29 25.09 46.62 
3793 21.85 16.74 46.62 
3794 17.10 13.05 46.62 
3795  6.04 26.53 46.62 
3796 17.08 23.26 46.62 
3797 28.85 20.02 46.62 
3798 11.06 15.58 46.62 
3799 32.40 20.25 46.62 
3800 18.34 14.63 46.62 
3801 11.30 14.23 46.62 
3802  9.32 16.14 46.62 
3803 12.04  9.70 46.62 
3804 11.33  8.54 46.62 
3805 19.12  5.54 46.62 
3806 18.30  8.47 46.62 
3807  6.06  8.06 46.62 
3808 19.87  6.45 46.62 
3809  9.28  9.70 46.62 
3810  9.79 12.46 46.62 
3811  2.75  8.71 46.62 
3812 12.30 11.37 46.62 
3813 22.59  7.23 46.62 
3814 24.11 13.55 46.62 
3815 21.83 20.26 46.62 
3816 11.29 21.86 46.62 
3817 15.32 13.82 46.62 
3818 14.82 10.21 46.62 
3819 12.55 14.59 46.62 
3820 12.31 18.33 46.62 
3821 14.80 11.96 46.62 
3822 22.35 12.55 46.62 
3823 23.58 11.38 46.62 
3824 20.06 15.61 46.62 
3825 33.44  9.12 46.62 
3826 26.62 13.56 46.62 
3827  4.76 15.14 46.62 
3828 18.31 14.52 46.62 
3829 16.07 11.20 46.62 
3830 15.05 16.97 46.62 
3831 14.56 11.54 46.62 
3832 13.07 12.14 46.62 
3833 18.08 17.14 46.62 
3834 15.82 15.13 46.62 
3835 16.03 13.90 46.62 
3836 13.58 11.80 46.62 
3837 15.55 13.89 46.62 
3838 13.82 10.38 46.62 
3839 19.08 16.57 46.62 
3840 24.60 14.91 46.62 
3841 22.60 10.74 46.62 
3842 26.85 13.82 46.62 
3843 10.57 16.67 46.62 
3844 23.66  9.05 46.62 
3845 20.36 18.06 46.62 
3846 18.10 13.13 46.62 
3847  9.30 11.54 46.62 
3848  5.28 17.24 46.62 
3849  9.31 18.16 46.62 
3850  6.53 14.48 46.62 
3851  9.32 13.55 46.62 
3852 38.64 10.04 46.62 
3853 10.04  8.20 46.62 
3854 24.87  9.88 46.62 
3855 19.33 12.04 46.62 
3856 22.11 17.40 46.62 
3857 14.56 19.84 46.62 
3858  8.04 10.78 46.62 
3859 19.84 14.32 46.62 
3860 21.13 18.98 46.62 
3861 10.07 19.21 46.62 
3862 37.69 20.90 46.62 
3863 15.91 14.30 46.62 
3864 16.12 16.54 46.62 
3865 13.55 20.08 46.62 
3866 25.63 24.34 46.62 
3867 11.29 21.91 46.62 
3868 13.55 24.07 46.62 
3869 12.80 17.07 46.62 
3870 16.29 18.73 46.62 
3871 12.58 12.75 46.62 
3872 25.40 11.72 46.62 
3873  4.55 12.54 46.62 
3874 13.56 10.30 46.62 
3875 11.08 11.34 46.62 
3876 34.93 22.00 46.62 
3877 23.36 22.08 46.62 
3878 10.34 24.90 46.62 
3879 15.58 18.33 46.62 
3880 19.79 17.50 46.62 
3881 14.59 15.81 46.62 
3882 14.55 18.72 46.62 
3883 25.11 12.49 46.62 
3884 26.85 18.56 46.62 
3885 21.08 12.66 46.62 
3886 19.67 12.95 46.62 
3887 26.10 10.98 46.62 
3888 19.32 21.35 46.62 
3889  9.06 10.38 46.62 
3890 19.81  9.15 46.62 
3891 20.59 26.73 46.62 
3892 18.31 11.81 46.62 
3893  8.77 16.46 46.62 
3894  9.59 21.86 46.62 
3895 32.37 13.46 46.62 
3896 15.32 17.66 46.62 
3897 36.64 28.83 46.62 
3898 34.15 17.67 46.62 
3899 16.07 16.73 46.62 
3900  9.03 16.50 46.62 
3901 24.91 19.50 46.62 
3902 20.82 13.25 46.62 
3903 20.63 14.98 46.62 
3904 12.81 11.30 46.62 
3905 12.32 17.48 46.62 
3906 22.36 18.24 46.62 
3907 30.62 16.91 46.62 
3908 38.94 14.73 46.62 
3909 18.09 21.51 46.62 
3910 17.55 16.31 46.62 
3911 26.09 20.52 46.62 
3912 16.31 25.20 46.62 
3913 32.43 22.74 46.62 
3914 10.59 13.72 46.62 
3915 18.84 19.82 46.62 
3916  4.77 27.18 46.62 
3917 11.80 19.83 46.62 
3918 22.38 19.48 46.62 
3919  4.28 21.32 46.62 
3920 26.89 30.36 46.62 
3921  4.01 20.60 46.62 
3922 20.89 19.40 46.62 
3923 13.82 17.39 46.62 
3924 23.90 13.98 46.62 
3925 26.19 18.15 46.62 
3926 24.45 24.51 46.62 
3927 12.14 18.98 46.62 
3928 11.30 22.58 46.62 
3929 26.60 18.42 46.62 
3930 29.13 25.25 46.62 
3931 10.31 27.68 46.62 
3932  8.56 23.92 46.62 
3933 37.67 23.99 46.62 
3934 16.68 19.67 46.62 
3935 10.02 26.25 46.62 
3936 22.87 16.18 46.62 
3937 29.13 17.41 46.62 
3938 21.18 22.43 46.62 
3939 12.80 26.59 46.62 
3940 24.88 18.97 46.62 
3941 14.33 19.25 46.62 
3942 11.04 17.42 46.62 
3943  9.31 19.44 46.62 
3944 16.06 18.24 46.62 
3945 13.09 24.33 46.62 
3946 34.91 19.41 46.62 
3947 17.62 17.98 46.62 
3948 19.86 19.81 46.62 
3949 15.80 21.58 46.62 
3950 33.62 20.40 46.62 
3951 12.31 20.90 46.62 
3952 17.82 25.34 46.62 
3953 27.17 12.05 46.62 
3954 32.89 12.55 46.62 
3955  5.04 21.72 46.62 
3956 20.62 13.30 46.62 
3957 19.84  6.79 46.62 
3958 19.86  9.28 46.62 
3959 12.80  6.45 46.62 
3960 27.89 19.92 46.62 
3961 14.06 11.80 46.62 
3962 18.66 19.17 46.62 
3963 20.35 17.56 46.62 
3964 14.92 15.65 46.62 
3965 23.88 19.35 46.62 
3966  6.04 19.65 46.62 
3967 29.14 12.05 46.62 
3968  6.07 14.91 46.62 
3969 10.29 19.82 46.62 
3970 17.18 24.61 46.62 
3971 11.79 21.43 46.62 
3972 15.31 16.98 46.62 
3973  8.04 13.64 46.62 
3974 16.06 18.88 46.62 
3975 21.10 24.18 46.62 
3976 22.15 14.06 46.62 
3977 23.43 24.68 46.62 
3978 27.71 17.00 46.62 
3979 26.13 28.11 46.62 
3980 11.57 23.44 46.62 
3981 18.09 15.25 46.62 
3982 18.32 20.56 46.62 
3983 21.63 15.47 46.62 
3984 14.07 17.46 46.62 
3985 13.09 18.08 46.62 
3986 24.11 17.99 46.62 
3987 18.85 20.45 46.62 
3988 26.44 21.48 46.62 
3989  8.56 15.23 46.62 
3990 16.30 17.90 46.62 
3991 18.55 20.35 46.62 
3992 17.60 16.98 46.62 
3993  8.54 17.43 46.62 
3994 31.10 15.67 46.62 
3995 18.82 18.32 46.62 
3996 19.36 21.27 46.62 
3997 19.38 13.39 46.62 
3998 14.56 23.42 46.62 
3999 25.63 17.92 46.62 
4000 14.55 20.75 46.62 
4001 27.13 23.11 46.62 
4002 20.06 26.28 46.62 
4003 20.52 14.08 46.62 
4004 17.84 21.20 46.62 
4005 18.58 25.19 46.62 
4006 11.53 17.74 46.62 
4007 14.80 18.16 46.62 
4008 23.70 16.26 46.62 
4009 22.58 16.49 46.62 
4010 16.82 16.09 46.62 
4011 25.38  9.21 46.62 
4012 21.35 19.76 46.62 
4013 20.06 22.84 46.62 
4014 23.33 19.09 46.62 
4015 14.57 22.85 46.62 
4016  9.29 11.30 46.62 
4017 31.39 25.29 46.62 
4018 17.60 18.25 46.62 
4019 22.57 16.84 46.62 
4020 24.87 14.32 46.62 
4021 31.94 16.70 46.62 
4022 11.28 19.75 46.62 
4023  9.58 17.07 46.62 
4024 25.30 18.35 46.62 
4025 14.57 14.30 46.62 
4026 32.36 20.76 46.62 
4027 32.72 17.00 46.62 
4028 18.08 16.98 46.62 
4029 13.57 18.84 46.62 
4030  9.31 11.31 46.62 
4031 40.40 21.43 46.62 
4032 15.31 14.23 46.62 
4033  5.80 14.65 46.62 
4034 14.82 17.84 46.62 
4035 30.14 15.07 46.62 
4036  9.29 14.13 46.62 
4037 15.83 15.07 46.62 
4038 29.38 16.31 46.62 
4039 19.65 25.93 46.62 
4040 25.58 22.79 46.62 
4041 12.09 20.96 46.62 
4042 12.82 17.83 46.62 
4043 20.83 20.46 46.62 
4044 30.38 17.99 46.62 
4045 16.63 11.49 46.62 
4046 29.19 21.76 46.62 
4047 14.80 18.08 46.62 
4048  7.02 15.41 46.62 
4049 19.85 22.46 46.62 
4050 30.89 18.64 46.62 
4051 11.02 15.48 46.62 
4052 33.38 18.51 46.62 
4053 36.39 21.95 46.62 
4054 14.81 19.90 46.62 
4055 21.89 13.79 46.62 
4056 16.79 18.65 46.62 
4057 16.58 17.32 46.62 
4058 10.04 14.44 46.62 
4059  4.52 18.33 46.62 
4060 10.28 11.88 46.62 
4061 21.85  9.64 46.62 
4062 15.54 13.64 46.62 
4063 18.33 13.81 46.62 
4064 10.55 20.28 46.62 
4065  9.53 17.08 46.62 
4066 27.09 17.49 46.62 
4067 21.87  9.98 46.62 
4068 23.83 10.65 46.62 
4069 26.12 18.07 46.62 
4070 21.09 24.85 46.62 
4071 15.29 27.83 46.62 
4072 25.10 14.00 46.62 
4073 23.34 22.06 46.62 
4074 25.17 20.28 46.62 
4075 17.84 16.23 46.62 
4076 23.15 18.88 46.62 
4077 15.82 15.64 46.62 
4078 18.84 16.64 46.62 
4079  9.79 18.13 46.62 
4080 32.59 24.24 46.62 
4081 19.59 26.90 46.62 
4082 28.16 12.80 46.62 
4083 29.89 13.87 46.62 
4084 17.08 15.65 46.62 
4085 19.37 13.63 46.62 
4086 19.59 17.39 46.62 
4087  3.76 16.32 46.62 
4088  7.27 23.75 46.62 
4089 11.28 20.49 46.62 
4090 25.33 20.39 46.62 
4091 17.06 12.54 46.62 
4092 11.82 18.56 46.62 
4093 18.85 17.49 46.62 
4094 19.57 15.15 46.62 
4095 18.81 18.07 46.62 
4096 23.91 25.78 46.62 
4097 28.90 18.98 46.62 
4098  5.53 15.73 46.62 
4099 20.36 21.64 46.62 
4100 25.34 14.30 46.62 
4101 12.06 12.64 46.62 
4102  7.28 13.21 46.62 
4103 23.07 16.43 46.62 
4104 15.61 26.19 46.62 
4105 17.86 19.49 46.62 
4106  7.03 19.54 46.62 
4107 16.30 18.92 46.62 
4108 23.86 15.42 46.62 
4109 14.84 18.08 46.62 
4110 19.15 21.26 46.62 
4111 11.81 24.26 46.62 
4112 21.09 15.64 46.62 
4113 21.11 20.83 46.62 
4114  2.27  9.81 46.62 
4115 10.05 29.25 46.62 
4116 11.79 17.59 46.62 
4117 43.65 15.74 46.62 
4118 19.34 22.86 46.62 
4119 22.61 17.47 46.62 
4120 26.62 21.07 46.62 
4121 13.57 25.24 46.62 
4122 10.08 15.99 46.62 
4123 24.12 20.76 46.62 
4124 22.34 16.20 46.62 
4125 20.39 18.42 46.62 
4126  9.05 22.03 46.62 
4127 18.31 17.44 46.62 
4128 14.11 20.92 46.62 
4129  3.59 12.66 46.62 
4130 26.38 20.16 46.62 
4131  8.07 25.62 46.62 
4132 30.60 17.25 46.62 
4133 21.45 23.04 46.62 
4134 14.82 12.82 46.62 
4135 11.58 14.81 46.62 
4136 28.37 17.00 46.62 
4137 15.32 22.83 46.62 
4138 34.64 14.37 46.62 
4139 17.83 22.87 46.62 
4140  6.27 20.66 46.62 
4141 13.11 19.34 46.62 
4142 20.83 16.35 46.62 
4143 20.06 20.03 46.62 
4144 15.12 17.75 46.62 
4145 25.39 15.49 46.62 
4146 22.83 21.08 46.62 
4147 21.64 19.43 46.62 
4148 22.61 17.85 46.62 
4149 21.66 20.44 46.62 
4150  7.29 17.50 46.62 
4151  7.54 17.94 46.62 
4152 34.86 21.67 46.62 
4153 26.68 20.92 46.62 
4154 21.07 22.66 46.62 
4155 30.15 16.97 46.62 
4156 14.06 27.44 46.62 
4157 12.12 22.29 46.62 
4158 19.36 31.01 46.62 
4159  8.05 21.54 46.62 
4160 11.30 20.32 46.62 
4161 35.15 14.64 46.62 
4162 31.41 19.84 46.62 
4163  7.03 14.74 46.62 
4164 16.59 20.43 46.62 
4165 13.82 23.04 46.62 
4166 16.33 14.13 46.62 
4167 24.09 15.98 46.62 
4168 15.11 12.90 46.62 
4169 12.82 16.76 46.62 
4170 18.12 21.40 46.62 
4171 13.82 19.24 46.62 
4172 17.82 17.40 46.62 
4173  9.29 13.31 46.62 
4174 11.54 15.30 46.62 
4175 25.37 20.91 46.62 
4176 33.14 26.61 46.62 
4177 24.37 15.54 46.62 
4178 19.12 17.41 46.62 
4179 31.11 22.32 46.62 
4180 20.90 11.80 46.62 
4181 20.07 14.54 46.62 
4182 27.57 20.52 46.62 
4183 10.38  8.31 46.62 
4184 10.82 24.20 46.62 
4185 30.40 10.98 46.62 
4186 19.64 22.17 46.62 
4187 23.33 20.26 46.62 
4188 19.32 12.56 46.62 
4189 15.10 13.40 46.62 
4190 23.33 14.48 46.62 
4191 24.89 21.00 46.62 
4192 13.31 15.61 46.62 
4193 20.59 20.40 46.62 
4194  6.28 18.31 46.62 
4195 13.80 13.54 46.62 
4196 28.64 14.21 46.62 
4197  5.78 16.08 46.62 
4198 19.84 12.98 46.62 
4199 29.40 10.04 46.62 
4200 16.32 12.29 46.62 
4201 21.88 12.62 46.62 
4202 23.81 18.84 46.62 
4203  4.77  9.37 46.62 
4204 25.87 15.35 46.62 
4205 25.85 10.06 46.62 
4206 26.93 16.05 46.62 
4207  9.56 10.79 46.62 
4208 18.10 17.39 46.62 
4209 26.15 14.14 46.62 
4210 26.10 10.87 46.62 
4211 19.13 15.32 46.62 
4212 33.17  9.56 46.62 
4213 32.92 13.47 46.62 
4214 14.59 13.41 46.62 
4215  8.52 17.58 46.62 
4216  4.79 15.98 46.62 
4217  6.79 19.24 46.62 
4218 20.13 20.23 46.62 
4219 17.63  7.86 46.62 
4220 15.37 17.58 46.62 
4221 14.84 18.01 46.62 
4222  9.54 15.81 46.62 
4223 11.30 13.77 46.62 
4224 32.15 15.49 46.62 
4225  8.80 11.37 46.62 
4226 11.07 14.30 46.62 
4227 18.35 19.89 46.62 
4228 10.52 19.45 46.62 
4229  5.54 18.34 46.62 
4230 19.34 24.84 46.62 
4231 16.81 18.06 46.62 
4232 26.39 11.82 46.62 
4233 15.32 19.74 46.62 
4234 32.36 17.31 46.62 
4235 13.08 23.60 46.62 
4236 22.82 19.55 46.62 
4237 32.64 19.60 46.62 
4238 18.62 20.48 46.62 
4239 29.37 20.33 46.62 
4240 26.15 16.13 46.62 
4241 27.89 17.25 46.62 
4242  9.04 15.21 46.62 
4243 26.85 10.87 46.62 
4244 24.38 15.56 46.62 
4245 20.60 14.97 46.62 
4246 28.88 18.91 46.62 
4247 23.12 21.20 46.62 
4248  6.27 15.16 46.62 
4249  8.33 12.90 46.62 
4250 16.85 18.31 46.62 
4251 32.36 14.62 46.62 
4252 27.48 10.17 46.62 
4253 17.09 14.39 46.62 
4254 18.60 15.56 46.62 
4255 22.91 21.75 46.62 
4256 24.16 14.99 46.62 
4257 23.39 17.11 46.62 
4258 21.05 19.63 46.62 
4259 22.09 23.04 46.62 
4260 30.19 11.80 46.62 
4261  8.80 18.56 46.62 
4262 25.12 18.17 46.62 
4263 32.14 12.99 46.62 
4264 24.63 15.88 46.62 
4265  6.27 19.90 46.62 
4266 27.36 12.89 46.62 
4267 15.33 18.14 46.62 
4268 18.32 13.80 46.62 
4269 18.55 19.73 46.62 
4270 19.93 16.99 46.62 
4271 23.89 16.13 46.62 
4272  8.29 21.00 46.62 
4273 30.20 13.31 46.62 
4274 23.90 14.07 46.62 
4275 21.11 14.55 46.62 
4276 33.97 17.54 46.62 
4277  8.80 15.07 46.62 
4278 19.35 12.57 46.62 
4279 11.54 16.64 46.62 
4280 23.36 20.67 46.62 
4281 28.68 13.40 46.62 
4282 12.56 18.42 46.62 
4283 19.86 20.41 46.62 
4284 37.92 19.99 46.62 
4285  6.78 14.86 46.62 
4286 20.36 11.96 46.62 
4287 15.11 18.22 46.62 
4288 17.57 16.40 46.62 
4289 21.61 16.57 46.62 
4290 14.56 20.19 46.62 
4291 20.82 24.51 46.62 
4292 28.83 12.89 46.62 
4293  2.78 21.39 46.62 
4294 36.60 18.58 46.62 
4295 19.82 14.60 46.62 
4296  3.51 11.63 46.62 
4297 25.10 13.64 46.62 
4298 20.31 15.23 46.62 
4299 11.05 12.33 46.62 
4300 20.33 18.90 46.62 
4301 27.37 23.03 46.62 
4302 19.11 18.57 46.62 
4303 28.63 18.31 46.62 
4304 19.33 11.53 46.62 
4305 25.65 20.30 46.62 
4306 13.62 18.80 46.62 
4307 13.11 26.75 46.62 
4308 32.34 14.56 46.62 
4309 14.57 14.34 46.62 
4310 22.37 19.50 46.62 
4311  9.55 23.11 46.62 
4312 18.87 19.04 46.62 
4313 10.82 13.88 46.62 
4314 29.83 17.07 46.62 
4315 18.05 15.48 46.62 
4316 26.61 11.73 46.62 
4317 30.39  9.36 46.62 
4318 22.17 13.78 46.62 
4319  8.12 17.83 46.62 
4320 17.65 18.06 46.62 
4321 18.36 16.05 46.62 
4322 10.08 25.36 46.62 
4323  8.54 11.31 46.62 
4324 16.32 10.54 46.62 
4325  4.28 10.63 46.62 
4326 10.57 18.50 46.62 
4327 15.61 14.57 46.62 
4328 21.11 16.87 46.62 
4329 15.34 16.24 46.62 
4330 21.57 17.58 46.62 
4331 14.59 11.70 46.62 
4332 30.66 19.07 46.62 
4333 28.18 17.41 46.62 
4334 15.81 12.87 46.62 
4335 21.07 14.67 46.62 
4336 12.28 15.49 46.62 
4337 13.35 15.41 46.62 
4338 17.82 16.05 46.62 
4339 18.57 17.69 46.62 
4340 36.71 14.31 46.62 
4341  8.56 23.35 46.62 
4342 18.80 14.81 46.62 
4343 22.09 17.15 46.62 
4344 22.37 16.54 46.62 
4345 14.59 17.09 46.62 
4346 21.34 19.68 46.62 
4347  3.79 16.42 46.62 
4348 13.06 12.46 46.62 
4349 18.61 17.91 46.62 
4350 11.58 21.97 46.62 
4351 18.33 17.06 46.62 
4352 39.67 14.65 46.62 
4353 15.58 12.97 46.62 
4354 20.86 19.73 46.62 
4355  5.79 14.82 46.62 
4356 18.85 22.51 46.62 
4357 14.82 17.57 46.62 
4358 28.14 27.34 46.62 
4359  9.54 15.31 46.62 
4360 34.17 14.60 46.62 
4361 17.12 26.81 46.62 
4362 31.12 20.36 46.62 
4363 15.86 17.00 46.62 
4364 23.68  8.38 46.62 
4365 18.09 12.13 46.62 
4366  8.32 14.39 46.62 
4367 28.64 17.99 46.62 
4368 33.21 23.59 46.62 
4369 17.58 16.68 46.62 
4370 18.13 24.59 46.62 
4371  5.57 20.49 46.62 
4372 12.79 15.49 46.62 
4373 14.81 28.61 46.62 
4374 14.32 16.07 46.62 
4375 16.61 24.80 46.62 
4376  8.81 19.68 46.62 
4377 23.36 18.85 46.62 
4378 14.58 19.70 46.62 
4379 16.07 16.24 46.62 
4380  2.26 14.26 46.62 
4381  7.28 21.26 46.62 
4382 17.88 21.36 46.62 
4383  9.53 22.19 46.62 
4384 26.40 16.25 46.62 
4385 24.50 19.52 46.62 
4386 12.08 20.52 46.62 
4387 15.61 16.64 46.62 
4388 17.13 17.43 46.62 
4389 10.31 17.42 46.62 
4390 25.86 10.39 46.62 
4391 10.30 11.13 46.62 
4392 27.66 14.14 46.62 
4393 15.83 17.28 46.62 
4394 23.99  8.22 46.62 
4395  9.81 15.07 46.62 
4396 20.09 15.73 46.62 
4397 21.64 16.42 46.62 
4398 21.88 18.58 46.62 
4399 16.91 12.90 46.62 
4400 16.84 22.41 46.62 
4401 11.34  9.45 46.62 
4402 12.83 24.17 46.62 
4403 22.64 14.65 46.62 
4404 14.30 12.71 46.62 
4405 30.40 15.22 46.62 
4406 27.12 11.97 46.62 
4407 12.54 14.73 46.62 
4408 42.74 18.08 46.62 
4409 30.40 13.40 46.62 
4410 23.11 15.26 46.62 
4411 14.82 12.98 46.62 
4412 13.59 10.90 46.62 
4413 11.35 11.42 46.62 
4414 15.59  9.05 46.62 
4415 33.03 22.26 46.62 
4416 16.10 12.13 46.62 
4417 29.39 19.84 46.62 
4418 23.85 20.33 46.62 
4419 14.82  6.63 46.62 
4420 11.54 12.96 46.62 
4421  6.28 22.62 46.62 
4422 12.05 23.32 46.62 
4423 20.44 23.19 46.62 
4424 13.58 16.58 46.62 
4425 26.86 15.82 46.62 
4426 25.63 18.56 46.62 
4427 23.40 23.15 46.62 
4428 15.59 11.72 46.62 
4429 20.63 18.41 46.62 
4430 10.81 16.38 46.62 
4431  9.28 12.63 46.62 
4432 13.03 22.83 46.62 
4433 26.86 22.85 46.62 
4434  7.81 18.59 46.62 
4435 30.66 16.56 46.62 
4436 31.90 14.98 46.62 
4437 25.93 13.32 46.62 
4438 34.92 14.81 46.62 
4439 14.30 11.30 46.62 
4440 13.07 14.38 46.62 
4441 23.12 25.09 46.62 
4442 19.82 13.54 46.62 
4443  3.51 17.66 46.62 
4444  8.28 16.80 46.62 
4445 31.91 20.90 46.62 
4446 11.04 19.65 46.62 
4447 17.11 18.35 46.62 
4448 19.86 12.89 46.62 
4449 24.17 15.32 46.62 
4450 16.56 15.12 46.62 
4451 23.33 16.88 46.62 
4452 20.61 20.49 46.62 
4453 22.89 13.54 46.62 
4454 20.84 21.84 46.62 
4455 19.58 11.88 46.62 
4456 32.44 20.86 46.62 
4457 27.16 18.22 46.62 
4458 23.67 19.07 46.62 
4459  8.55 20.41 46.62 
4460 12.32  7.04 46.62 
4461  9.80 16.39 46.62 
4462  9.80 14.06 46.62 
4463 20.14 22.77 46.62 
4464 37.29 24.21 46.62 
4465 30.35 23.19 46.62 
4466 19.10 20.55 46.62 
4467 13.57 15.31 46.62 
4468  9.30 20.26 46.62 
4469 20.37 18.83 46.62 
4470 31.13 12.39 46.62 
4471 14.37 13.12 46.62 
4472 11.60 16.90 46.62 
4473 10.05 14.32 46.62 
4474 11.29 15.24 46.62 
4475 21.62 12.31 46.62 
4476 26.39 10.12 46.62 
4477 22.37 15.08 46.62 
4478 19.61 23.92 46.62 
4479 31.61 22.25 46.62 
4480 27.61 24.75 46.62 
4481 13.90 13.64 46.62 
4482 33.93 19.24 46.62 
4483 18.94 24.53 46.62 
4484 12.31 12.45 46.62 
4485 14.11 24.10 46.62 
4486 19.89 17.63 46.62 
4487 19.37 15.65 46.62 
4488 17.05  7.06 46.62 
4489 29.63 12.63 46.62 
4490  9.29 18.67 46.62 
4491 21.90 20.43 46.62 
4492 36.38 17.00 46.62 
4493 16.33 12.31 46.62 
4494 30.13 22.83 46.62 
4495 32.94 16.84 46.62 
4496 17.62 17.79 46.62 
4497 29.25 17.49 46.62 
4498 18.16 16.71 46.62 
4499 24.16 12.65 46.62 
4500 10.30 18.41 46.62 
4501 18.15 20.17 46.62 
4502 19.84 20.71 46.62 
4503 16.58 22.56 46.62 
4504 15.62 14.45 46.62 
4505 17.35 16.90 46.62 
4506 26.93 16.26 46.62 
4507 10.31 12.79 46.62 
4508 15.06 16.56 46.62 
4509 20.89 17.18 46.62 
4510 26.66 14.73 46.62 
4511 33.54 15.80 46.62 
4512 11.33 19.92 46.62 
4513 17.31 19.25 46.62 
4514 23.38 16.56 46.62 
4515 34.66 19.20 46.62 
4516  9.31 20.49 46.62 
4517 18.58 17.01 46.62 
4518  9.30 19.09 46.62 
4519 26.41 23.78 46.62 
4520 22.90 24.44 46.62 
4521 13.82 14.71 46.62 
4522 24.86 11.47 46.62 
4523 20.14 17.98 46.62 
4524 36.16 14.41 46.62 
4525 19.36 15.49 46.62 
4526 14.81 20.85 46.62 
4527 18.61 16.16 46.62 
4528 21.09 19.60 46.62 
4529  8.57 14.49 46.62 
4530 12.31 24.14 46.62 
4531 27.20 17.33 46.62 
4532 31.45 14.39 46.62 
4533 30.68  9.82 46.62 
4534 13.09 16.67 46.62 
4535 18.20 13.40 46.62 
4536 14.08 18.35 46.62 
4537 16.30 14.40 46.62 
4538 24.92 18.84 46.62 
4539 19.34 12.34 46.62 
4540  4.01 28.68 46.62 
4541 10.58 19.98 46.62 
4542 23.35 21.27 46.62 
4543 19.11 15.34 46.62 
4544 16.12 20.81 46.62 
4545 31.23 13.91 46.62 
4546 13.33 13.13 46.62 
4547 15.85 21.50 46.62 
4548 14.06 15.74 46.62 
4549 25.14 10.04 46.62 
4550 19.42 12.15 46.62 
4551 18.86 19.19 46.62 
4552 16.10 11.30 46.62 
4553 17.35 19.00 46.62 
4554 10.03 21.65 46.62 
4555 24.34 16.15 46.62 
4556 11.79 24.79 46.62 
4557 19.64 13.91 46.62 
4558  5.80 20.99 46.62 
4559 10.79 12.89 46.62 
4560  7.55 23.74 46.62 
4561 13.58 19.70 46.62 
4562 10.03 22.53 46.62 
4563 38.47 16.49 46.62 
4564  8.54 15.81 46.62 
4565  8.82 18.41 46.62 
4566 23.87 23.86 46.62 
4567 23.11 19.75 46.62 
4568 28.36 15.25 46.62 
4569 18.88 13.49 46.62 
4570 23.43 14.33 46.62 
4571 22.40 16.48 46.62 
4572  8.58 16.98 46.62 
4573 22.92 29.45 46.62 
4574 15.91 15.00 46.62 
4575 22.08 15.99 46.62 
4576 19.36 17.61 46.62 
4577 30.19 27.03 46.62 
4578 23.12 11.89 46.62 
4579  8.64 16.53 46.62 
4580 15.64 17.40 46.62 
4581  7.56 15.95 46.62 
4582 25.68 28.81 46.62 
4583 24.36 25.35 46.62 
4584 17.38 11.72 46.62 
4585 28.39 13.72 46.62 
4586 17.11 17.56 46.62 
4587  5.55 20.46 46.62 
4588 21.13 14.50 46.62 
4589 20.89 21.33 46.62 
4590  6.79 12.46 46.62 
4591 14.29 15.31 46.62 
4592  5.04 11.72 46.62 
4593 23.15 15.81 46.62 
4594 19.16 23.19 46.62 
4595 15.08 17.00 46.62 
4596 22.65 15.81 46.62 
4597 32.39 20.91 46.62 
4598 19.58 14.50 46.62 
4599 13.56 18.23 46.62 
4600 35.96 20.19 46.62 
4601 22.81 16.89 46.62 
4602 35.20 21.77 46.62 
4603 22.65 18.26 46.62 
4604  6.60 23.22 46.62 
4605 17.88 11.64 46.62 
4606  4.03 14.99 46.62 
4607 17.35 20.76 46.62 
4608 13.56 21.94 46.62 
4609 16.60 29.81 46.62 
4610 36.38 12.55 46.62 
4611 20.60 22.09 46.62 
4612  7.31 20.42 46.62 
4613 19.13 13.39 46.62 
4614 15.08 15.76 46.62 
4615 26.14 26.99 46.62 
4616 12.34 18.26 46.62 
4617 26.39 17.26 46.62 
4618  8.28 17.41 46.62 
4619 32.41 15.84 46.62 
4620 23.62 15.83 46.62 
4621 18.10 17.93 46.62 
4622 18.42 16.71 46.62 
4623 28.33 21.77 46.62 
4624 36.23 23.68 46.62 
4625 14.86 22.67 46.62 
4626 25.89 24.11 46.62 
4627 21.66 22.72 46.62 
4628 20.60 14.05 46.62 
4629 16.35 13.16 46.62 
4630 19.13 18.41 46.62 
4631 37.67 19.97 46.62 
4632 10.31 20.09 46.62 
4633 20.87 19.17 46.62 
4634 37.87 21.80 46.62 
4635 23.09 23.63 46.62 
4636 29.15 14.50 46.62 
4637 27.50 17.74 46.62 
4638 22.36 19.42 46.62 
4639 15.54 22.79 46.62 
4640 38.75 20.79 46.62 
4641 32.93 16.58 46.62 
4642 24.12 19.77 46.62 
4643 27.92 27.62 46.62 
4644 23.86 13.59 46.62 
4645 16.85 22.16 46.62 
4646 37.40 16.91 46.62 
4647 16.84 24.37 46.62 
4648 15.56 15.75 46.62 
4649 22.85 19.09 46.62 
4650  7.78 12.91 46.62 
4651 29.22 24.61 46.62 
4652 15.59 30.80 46.62 
4653 36.49 18.10 46.62 
4654  4.79 26.44 46.62 
4655 11.55 20.37 46.62 
4656 24.20 25.34 46.62 
4657 15.12 10.98 46.62 
4658 16.85 16.08 46.62 
4659 16.58 18.58 46.62 
4660 20.37 21.17 46.62 
4661 17.86 22.26 46.62 
4662 20.60 21.44 46.62 
4663 15.87 15.13 46.62 
4664 19.62 21.10 46.62 
4665  7.78 25.22 46.62 
4666 13.05 17.11 46.62 
4667 18.09 21.12 46.62 
4668 15.81 23.72 46.62 
4669 16.11 18.16 46.62 
4670 16.85 18.15 46.62 
4671 18.36 18.00 46.62 
4672 24.98 22.18 46.62 
4673 11.84 18.39 46.62 
4674 25.17 17.59 46.62 
4675 27.67 12.31 46.62 
4676 10.31 17.24 46.62 
4677 21.12 19.12 46.62 
4678 26.45 18.61 46.62 
4679 27.65 16.41 46.62 
4680 26.61 16.76 46.62 
4681 18.11 19.58 46.62 
4682 14.32 13.65 46.62 
4683 37.09 20.38 46.62 
4684 15.07  8.45 46.62 
4685 27.60 22.69 46.62 
4686  9.57 24.36 46.62 
4687 13.84 19.99 46.62 
4688 14.57 24.43 46.62 
4689 17.59 17.07 46.62 
4690  3.77 17.36 46.62 
4691 21.60 27.20 46.62 
4692 38.95 22.21 46.62 
4693 23.61 19.59 46.62 
4694 26.10 10.03 46.62 
4695 22.70 10.13 46.62 
4696 21.12 19.84 46.62 
4697 26.85 13.07 46.62 
4698 29.37 17.60 46.62 
4699 14.82 18.69 46.62 
4700 14.32 13.99 46.62 
4701 26.69 18.76 46.62 
4702 15.06 14.64 46.62 
4703 24.61  8.64 46.62 
4704 17.35 20.49 46.62 
4705 37.95 16.26 46.62 
4706 15.58 13.89 46.62 
4707 25.16 23.13 46.62 
4708 15.06 18.66 46.62 
4709 27.38 15.61 46.62 
4710  3.01 24.03 46.62 
4711 18.34 21.62 46.62 
4712 25.88 24.68 46.62 
4713 24.36 19.88 46.62 
4714 17.37 12.15 46.62 
4715 13.09 31.56 46.62 
4716 28.12 18.66 46.62 
4717  8.82 17.91 46.62 
4718 24.33 21.34 46.62 
4719 23.61 19.66 46.62 
4720 14.12 19.26 46.62 
4721 11.36 15.89 46.62 
4722 14.80 12.47 46.62 
4723 23.72 21.01 46.62 
4724 15.88 10.90 46.62 
4725 20.10  8.30 46.62 
4726 19.38 20.12 46.62 
4727 19.10 15.17 46.62 
4728 15.31 20.83 46.62 
4729  2.52 15.56 46.62 
4730 13.06 15.19 46.62 
4731 22.08 16.35 46.62 
4732 16.86 19.85 46.62 
4733 30.47 20.44 46.62 
4734 10.56 30.65 46.62 
4735  4.77 23.60 46.62 
4736  8.02 22.77 46.62 
4737 11.82 15.48 46.62 
4738 26.59 24.59 46.62 
4739 28.34 14.56 46.62 
4740 11.56 29.41 46.62 
4741 21.86 26.71 46.62 
4742 14.32 22.09 46.62 
4743  5.33 21.09 46.62 
4744 22.35 12.07 46.62 
4745 23.13 15.98 46.62 
4746 22.36 23.60 46.62 
4747 13.79 15.75 46.62 
4748 26.16 22.18 46.62 
4749 16.61 16.23 46.62 
4750 16.11 16.14 46.62 
4751 41.01  9.62 46.62 
4752 18.58 20.16 46.62 
4753 38.45 13.16 46.62 
4754  9.06 17.10 46.62 
4755 24.94 26.02 46.62 
4756 18.57 12.97 46.62 
4757 20.60 33.38 46.62 
4758 21.16 14.24 46.62 
4759 23.61 17.59 46.62 
4760 16.31 22.67 46.62 
4761 15.83 26.18 46.62 
4762 14.57 16.91 46.62 
4763 23.44 20.25 46.62 
4764 23.65 28.14 46.62 
4765 11.32 18.50 46.62 
4766 15.33 18.10 46.62 
4767 19.35 17.53 46.62 
4768 12.30 24.14 46.62 
4769 27.22 18.77 46.62 
4770 26.35 23.47 46.62 
4771 13.81 28.79 46.62 
4772 24.43 15.66 46.62 
4773  7.55 26.87 46.62 
4774  8.29 17.18 46.62 
4775 12.59 14.39 46.62 
4776 18.08 14.22 46.62 
4777  5.33 23.34 46.62 
4778 19.57 26.18 46.62 
4779 24.85 22.60 46.62 
4780  5.28 17.93 46.62 
4781 25.22 17.00 46.62 
4782 21.06 19.99 46.62 
4783 16.31 15.26 46.62 
4784 19.33 21.36 46.62 
4785 18.05 17.54 46.62 
4786 40.90 13.73 46.62 
4787 18.34 17.92 46.62 
4788 29.19 15.15 46.62 
4789 20.60 15.28 46.62 
4790  8.03 18.60 46.62 
4791 29.18 24.62 46.62 
4792 17.84 24.07 46.62 
4793 25.69 22.81 46.62 
4794 23.60 17.45 46.62 
4795 15.81 21.32 46.62 
4796 11.56 26.09 46.62 
4797 10.34 17.28 46.62 
4798  7.78 23.86 46.62 
4799 21.66 17.35 46.62 
4800 19.90 21.91 46.62 
4801  8.54 19.97 46.62 
4802 25.39 19.38 46.62 
4803 21.83 26.25 46.62 
4804 25.86 12.14 46.62 
4805  7.56 18.98 46.62 
4806  9.54 15.19 46.62 
4807 10.06 16.96 46.62 
4808 19.60 13.45 46.62 
4809 35.67 24.68 46.62 
4810 33.79 18.80 46.62 
4811 17.59 11.31 46.62 
4812 11.32 20.96 46.62 
4813 26.39 15.34 46.62 
4814  9.79 20.80 46.62 
4815 17.08 25.96 46.62 
4816 28.11 16.91 46.62 
4817  8.04 19.94 46.62 
4818 28.12 27.63 46.62 
4819 14.09 25.46 46.62 
4820  5.53 20.60 46.62 
4821 13.35 18.74 46.62 
4822 15.59 15.61 46.62 
4823 38.50 23.42 46.62 
4824  8.80 15.06 46.62 
4825 23.66 25.55 46.62 
4826 32.89 22.87 46.62 
4827 19.63 19.65 46.62 
4828 18.35 26.94 46.62 
4829 30.92 20.22 46.62 
4830  8.83 10.49 46.62 
4831 20.91 24.08 46.62 
4832 21.36 29.41 46.62 
4833 32.14 11.44 46.62 
4834 21.88 19.81 46.62 
4835 12.84 25.55 46.62 
4836 29.16 15.43 46.62 
4837  9.31 20.96 46.62 
4838 40.49 30.32 46.62 
4839 13.80 22.37 46.62 
4840 24.19 15.79 46.62 
4841  9.55 21.71 46.62 
4842 12.12 20.80 46.62 
4843 20.16 19.95 46.62 
4844 16.39 25.23 46.62 
4845 21.11 29.19 46.62 
4846 13.83 24.71 46.62 
4847  9.30 20.20 46.62 
4848  9.58 15.51 46.62 
4849 23.50 16.93 46.62 
4850 19.60 17.38 46.62 
4851 16.37 17.49 46.62 
4852 15.59 18.59 46.62 
4853 20.12 25.21 46.62 
4854 21.87 16.16 46.62 
4855 24.88 21.78 46.62 
4856 19.85 11.80 46.62 
4857 10.29 22.37 46.62 
4858 20.11 25.34 46.62 
4859 18.59 21.46 46.62 
4860 22.09 27.46 46.62 
4861 27.85 33.21 46.62 
4862 15.33 22.51 46.62 
4863 19.31 22.38 46.62 
4864 10.57 16.77 46.62 
4865 26.15 19.60 46.62 
4866 18.12 16.00 46.62 
4867 32.68 16.51 46.62 
4868 14.86 24.95 46.62 
4869  8.34 25.19 46.62 
4870 28.63 23.92 46.62 
4871 34.88 25.89 46.62 
4872 17.09 22.47 46.62 
4873 25.85 30.57 46.62 
4874 27.40 14.98 46.62 
4875 17.60 18.53 46.62 
4876 21.91 20.84 46.62 
4877 30.35 32.23 46.62 
4878 17.34 22.78 46.62 
4879 29.35 21.50 46.62 
4880 18.83 14.14 46.62 
4881  7.83 23.47 46.62 
4882  6.55 15.03 46.62 
4883 11.09 17.86 46.62 
4884 23.88 18.25 46.62 
4885 25.19 23.28 46.62 
4886 10.32 15.08 46.62 
4887 11.57 21.19 46.62 
4888 17.62 25.63 46.62 
4889  1.00 23.55 46.62 
4890  8.30 21.27 46.62 
4891 25.90 17.74 46.62 
4892 19.11 16.93 46.62 
4893 25.94 16.33 46.62 
4894 39.21 25.34 46.62 
4895  5.04 19.29 46.62 
4896 15.53 19.54 46.62 
4897 13.34 16.20 46.62 
4898 10.07 21.11 46.62 
4899 20.83 13.12 46.62 
4900 22.88 21.55 46.62 
4901  7.07 21.11 46.62 
4902 12.32 21.48 46.62 
4903 26.39 22.56 46.62 
4904  8.04 22.49 46.62 
4905 23.60 19.75 46.62 
4906 22.33 16.16 46.62 
4907 12.58 20.48 46.62 
4908 14.09 19.35 46.62 
4909 19.08 24.96 46.62 
4910  7.31 22.28 46.62 
4911 23.87 27.57 46.62 
4912 17.87 23.14 46.62 
4913 14.06 17.93 46.62 
4914 25.61 19.66 46.62 
4915 19.53 17.02 46.62 
4916 12.31 20.96 46.62 
4917 22.62 27.14 46.62 
4918 21.59 20.21 46.62 
4919 20.62 12.47 46.62 
4920 19.07 21.11 46.62 
4921  9.29 16.33 46.62 
4922 23.58 17.43 46.62 
4923 14.82 19.21 46.62 
4924 19.08 15.90 46.62 
4925 12.81 17.26 46.62 
4926 32.69 23.14 46.62 
4927 24.08 17.67 46.62 
4928 16.83 20.62 46.62 
4929 27.37 22.44 46.62 
4930  8.09 16.45 46.62 
4931  8.56 15.84 46.62 
4932 10.82 21.26 46.62 
4933 18.58 18.43 46.62 
4934  4.04 19.91 46.62 
4935 20.82 23.46 46.62 
4936 21.84 14.60 46.62 
4937 14.80 15.50 46.62 
4938 13.12 10.41 46.62 
4939 17.84 28.15 46.62 
4940 24.38 19.21 46.62 
4941 19.58 25.43 46.62 
4942 10.33 21.70 46.62 
4943 39.15 23.04 46.62 
4944  4.03 26.57 46.62 
4945 14.31 16.42 46.62 
4946 10.05 17.61 46.62 
4947 22.34 15.42 46.62 
4948 13.15 24.94 46.62 
4949 20.33 20.44 46.62 
4950 26.85 15.24 46.62 
4951 11.58 16.82 46.62 
4952 18.86 24.29 46.62 
4953 23.67 29.20 46.62 
4954 12.58 17.03 46.62 
4955 23.11 11.31 46.62 
4956 22.62 23.23 46.62 
4957 15.60 18.59 46.62 
4958 14.34 26.55 46.62 
4959  9.79 21.59 46.62 
4960 20.83 30.91 46.62 
4961 11.81 15.41 46.62 
4962 26.09 27.81 46.62 
4963 18.35 20.66 46.62 
4964 25.87 19.10 46.62 
4965 19.59 18.80 46.62 
4966 30.16 16.84 46.62 
4967 18.87 18.11 46.62 
4968 25.67 17.43 46.62 
4969 11.80 22.23 46.62 
4970  8.04 12.58 46.62 
4971 16.86 10.80 46.62 
4972 15.91 25.48 46.62 
4973 12.30 26.27 46.62 
4974 18.34 18.43 46.62 
4975 11.82 18.28 46.62 
4976 33.13 17.84 46.62 
4977 20.86 17.34 46.62 
4978 25.12 24.43 46.62 
4979 20.92 21.78 46.62 
4980 28.37 24.15 46.62 
4981 31.11 15.59 46.62 
4982 10.03 16.00 46.62 
4983  8.78 14.68 46.62 
4984  7.30 11.32 46.62 
4985 26.11 25.81 46.62 
4986 33.89 14.83 46.62 
4987 23.89 27.49 46.62 
4988 10.54 10.92 46.62 
4989 15.34 18.95 46.62 
4990 16.88 24.20 46.62 
4991 28.63 27.70 46.62 
4992 19.11 22.69 46.62 
4993 23.89 20.18 46.62 
4994 20.35 12.89 46.62 
4995 30.85 21.20 46.62 
4996 14.84 21.46 46.62 
