Iter | Sampling Pol | Evaluation Pol | Best (Sampled) 
   0 -348.18 -340.97 -100000000.00 
   1 -344.99 -340.87 -348.18 
   2 -359.75 -335.92 -344.99 
   3 -347.00 -335.96 -344.99 
   4 -348.56 -336.24 -344.99 
   5 -354.61 -331.17 -344.99 
   6 -339.44 -333.57 -344.99 
   7 -356.03 -318.72 -339.44 
   8 -349.69 -314.22 -339.44 
   9 -342.83 -311.45 -339.44 
  10 -354.23 -315.66 -339.44 
  11 -346.89 -307.16 -339.44 
  12 -342.69 -304.63 -339.44 
  13 -351.85 -301.39 -339.44 
  14 -348.24 -300.53 -339.44 
  15 -327.82 -301.77 -339.44 
  16 -352.83 -305.27 -327.82 
  17 -349.81 -312.22 -327.82 
  18 -340.66 -305.13 -327.82 
  19 -338.77 -312.09 -327.82 
  20 -344.05 -316.07 -327.82 
  21 -344.51 -316.81 -327.82 
  22 -351.50 -312.52 -327.82 
  23 -342.23 -317.70 -327.82 
  24 -332.85 -305.57 -327.82 
  25 -341.24 -305.26 -327.82 
  26 -332.24 -301.96 -327.82 
  27 -326.68 -301.03 -327.82 
  28 -327.44 -295.60 -326.68 
  29 -343.07 -301.18 -326.68 
  30 -331.58 -296.24 -326.68 
  31 -333.59 -294.80 -326.68 
  32 -329.73 -294.33 -326.68 
  33 -331.61 -294.05 -326.68 
  34 -332.98 -301.12 -326.68 
  35 -343.30 -303.91 -326.68 
  36 -344.83 -295.01 -326.68 
  37 -343.98 -293.41 -326.68 
  38 -335.61 -293.70 -326.68 
  39 -349.03 -296.98 -326.68 
  40 -342.22 -296.16 -326.68 
  41 -343.34 -293.72 -326.68 
  42 -337.65 -295.32 -326.68 
  43 -344.93 -286.01 -326.68 
  44 -339.21 -293.94 -326.68 
  45 -341.23 -300.81 -326.68 
  46 -342.95 -299.54 -326.68 
  47 -341.49 -303.70 -326.68 
  48 -346.59 -299.77 -326.68 
  49 -336.05 -313.97 -326.68 
  50 -332.55 -314.77 -326.68 
  51 -336.33 -310.99 -326.68 
  52 -338.33 -295.62 -326.68 
  53 -332.69 -299.57 -326.68 
  54 -331.32 -293.71 -326.68 
  55 -343.22 -294.87 -326.68 
  56 -342.94 -304.26 -326.68 
  57 -334.68 -302.59 -326.68 
  58 -327.79 -292.77 -326.68 
  59 -332.09 -289.03 -326.68 
  60 -328.23 -290.91 -326.68 
  61 -326.77 -300.35 -326.68 
  62 -332.18 -307.11 -326.68 
  63 -327.07 -305.67 -326.68 
  64 -323.87 -306.96 -326.68 
  65 -326.80 -321.89 -323.87 
  66 -330.65 -319.83 -323.87 
  67 -335.35 -315.11 -323.87 
  68 -332.19 -303.83 -323.87 
  69 -326.35 -303.25 -323.87 
  70 -324.75 -309.21 -323.87 
  71 -326.20 -310.68 -323.87 
  72 -324.47 -311.75 -323.87 
  73 -324.38 -319.53 -323.87 
  74 -322.69 -325.66 -323.87 
  75 -325.48 -335.24 -322.69 
  76 -328.77 -331.69 -322.69 
  77 -326.80 -336.54 -322.69 
  78 -320.61 -336.35 -322.69 
  79 -331.25 -335.74 -320.61 
  80 -333.89 -336.46 -320.61 
  81 -344.16 -334.89 -320.61 
  82 -325.89 -335.10 -320.61 
  83 -327.37 -336.71 -320.61 
  84 -325.62 -337.53 -320.61 
  85 -333.76 -336.66 -320.61 
  86 -326.30 -332.60 -320.61 
  87 -324.18 -333.10 -320.61 
  88 -319.62 -332.59 -320.61 
  89 -327.55 -333.04 -319.62 
  90 -332.33 -335.03 -319.62 
  91 -323.56 -332.25 -319.62 
  92 -318.04 -335.77 -319.62 
  93 -318.26 -336.65 -318.04 
  94 -322.96 -334.00 -318.04 
  95 -322.50 -331.03 -318.04 
  96 -321.25 -332.35 -318.04 
  97 -321.48 -334.33 -318.04 
  98 -326.57 -329.93 -318.04 
  99 -324.60 -328.02 -318.04 
 100 -326.43 -325.25 -318.04 
 101 -317.92 -326.99 -318.04 
 102 -329.61 -328.57 -317.92 
 103 -323.09 -327.88 -317.92 
 104 -329.32 -329.40 -317.92 
 105 -319.06 -328.30 -317.92 
 106 -329.90 -326.78 -317.92 
 107 -327.58 -327.90 -317.92 
 108 -325.58 -327.84 -317.92 
 109 -326.09 -330.77 -317.92 
 110 -325.98 -332.56 -317.92 
 111 -330.58 -331.80 -317.92 
 112 -335.25 -329.98 -317.92 
 113 -328.85 -330.32 -317.92 
 114 -330.66 -329.64 -317.92 
 115 -324.61 -329.80 -317.92 
 116 -333.28 -322.71 -317.92 
 117 -328.72 -325.03 -317.92 
 118 -335.48 -324.54 -317.92 
 119 -338.95 -325.19 -317.92 
 120 -339.39 -321.52 -317.92 
 121 -331.38 -319.56 -317.92 
 122 -332.52 -321.52 -317.92 
 123 -337.15 -321.03 -317.92 
 124 -336.35 -316.57 -317.92 
 125 -331.15 -316.39 -317.92 
 126 -330.24 -319.01 -317.92 
 127 -329.10 -318.41 -317.92 
 128 -337.25 -317.44 -317.92 
 129 -329.33 -318.01 -317.92 
 130 -330.85 -318.06 -317.92 
 131 -334.29 -318.15 -317.92 
 132 -330.51 -319.59 -317.92 
 133 -331.90 -317.32 -317.92 
 134 -331.08 -318.68 -317.92 
 135 -331.19 -319.87 -317.92 
 136 -332.75 -323.21 -317.92 
 137 -334.76 -321.11 -317.92 
 138 -341.44 -324.33 -317.92 
 139 -340.85 -322.94 -317.92 
 140 -334.51 -322.34 -317.92 
 141 -334.76 -324.40 -317.92 
 142 -333.15 -321.67 -317.92 
 143 -343.11 -320.07 -317.92 
 144 -328.59 -321.17 -317.92 
 145 -333.53 -319.89 -317.92 
 146 -339.71 -321.13 -317.92 
 147 -334.63 -322.44 -317.92 
 148 -334.59 -322.66 -317.92 
 149 -330.45 -321.63 -317.92 
 150 -339.09 -322.85 -317.92 
 151 -327.57 -321.68 -317.92 
 152 -332.44 -322.52 -317.92 
 153 -330.12 -322.84 -317.92 
 154 -332.30 -323.39 -317.92 
 155 -336.06 -323.39 -317.92 
 156 -336.84 -322.29 -317.92 
 157 -339.63 -323.04 -317.92 
 158 -330.02 -322.34 -317.92 
 159 -330.17 -323.02 -317.92 
 160 -334.10 -323.86 -317.92 
 161 -330.63 -323.30 -317.92 
 162 -339.58 -323.54 -317.92 
 163 -339.68 -325.66 -317.92 
 164 -335.68 -326.89 -317.92 
 165 -332.58 -329.12 -317.92 
 166 -336.10 -329.61 -317.92 
 167 -338.88 -331.70 -317.92 
 168 -335.52 -331.82 -317.92 
 169 -332.45 -331.91 -317.92 
 170 -336.81 -332.31 -317.92 
 171 -336.08 -331.28 -317.92 
 172 -339.65 -328.73 -317.92 
 173 -330.69 -328.68 -317.92 
 174 -329.92 -330.73 -317.92 
 175 -343.86 -330.99 -317.92 
 176 -337.07 -331.06 -317.92 
 177 -329.04 -331.89 -317.92 
 178 -325.82 -328.82 -317.92 
 179 -331.99 -330.73 -317.92 
 180 -339.06 -329.53 -317.92 
 181 -330.10 -326.61 -317.92 
 182 -327.98 -327.42 -317.92 
 183 -322.99 -329.21 -317.92 
 184 -330.75 -329.18 -317.92 
 185 -330.10 -329.83 -317.92 
 186 -332.85 -331.74 -317.92 
 187 -333.42 -333.56 -317.92 
 188 -340.29 -334.54 -317.92 
 189 -333.87 -331.54 -317.92 
 190 -338.48 -336.46 -317.92 
 191 -331.71 -340.03 -317.92 
 192 -334.83 -341.47 -317.92 
 193 -331.15 -344.91 -317.92 
 194 -330.81 -343.06 -317.92 
 195 -335.19 -342.38 -317.92 
 196 -336.77 -342.19 -317.92 
 197 -328.54 -340.54 -317.92 
 198 -337.98 -340.89 -317.92 
 199 -322.33 -338.63 -317.92 
 200 -319.77 -338.82 -317.92 
 201 -321.35 -341.25 -317.92 
 202 -329.69 -338.13 -317.92 
 203 -315.67 -341.48 -317.92 
 204 -324.01 -342.66 -315.67 
 205 -314.87 -341.38 -315.67 
 206 -315.51 -343.15 -314.87 
 207 -315.39 -338.94 -314.87 
 208 -312.12 -339.46 -314.87 
 209 -318.35 -339.45 -312.12 
 210 -315.24 -337.00 -312.12 
 211 -310.28 -336.08 -312.12 
 212 -307.13 -334.61 -310.28 
 213 -315.99 -329.39 -307.13 
 214 -313.38 -328.68 -307.13 
 215 -315.21 -330.22 -307.13 
 216 -323.19 -332.57 -307.13 
 217 -310.73 -331.87 -307.13 
 218 -305.81 -329.51 -307.13 
 219 -321.25 -329.53 -305.81 
 220 -309.48 -327.48 -305.81 
 221 -307.60 -324.68 -305.81 
 222 -310.83 -323.20 -305.81 
 223 -307.71 -324.22 -305.81 
 224 -317.78 -323.28 -305.81 
 225 -316.47 -323.11 -305.81 
 226 -317.51 -322.04 -305.81 
 227 -316.32 -322.45 -305.81 
 228 -306.29 -322.30 -305.81 
 229 -320.83 -304.28 -305.81 
 230 -308.60 -302.54 -305.81 
 231 -305.35 -317.63 -305.81 
 232 -316.83 -319.63 -305.35 
 233 -312.18 -309.74 -305.35 
 234 -303.71 -303.96 -305.35 
 235 -314.78 -293.28 -303.71 
 236 -314.57 -288.36 -303.71 
 237 -317.33 -288.76 -303.71 
 238 -321.21 -291.79 -303.71 
 239 -315.70 -293.13 -303.71 
 240 -308.12 -296.18 -303.71 
 241 -310.82 -292.13 -303.71 
 242 -304.48 -293.62 -303.71 
 243 -302.39 -295.08 -303.71 
 244 -307.46 -298.88 -302.39 
 245 -308.76 -297.62 -302.39 
 246 -302.05 -305.66 -302.39 
 247 -290.79 -300.56 -302.05 
 248 -299.86 -294.61 -290.79 
 249 -309.13 -293.73 -290.79 
 250 -313.81 -283.79 -290.79 
 251 -299.21 -288.14 -290.79 
 252 -299.04 -290.22 -290.79 
 253 -304.65 -288.95 -290.79 
 254 -296.94 -292.56 -290.79 
 255 -300.28 -295.89 -290.79 
 256 -296.47 -294.17 -290.79 
 257 -297.39 -294.22 -290.79 
 258 -296.31 -295.85 -290.79 
 259 -290.06 -297.66 -290.79 
 260 -289.99 -299.62 -290.06 
 261 -297.89 -307.77 -289.99 
 262 -312.14 -307.96 -289.99 
 263 -295.80 -307.92 -289.99 
 264 -296.64 -305.87 -289.99 
 265 -294.73 -307.60 -289.99 
 266 -293.36 -308.34 -289.99 
 267 -298.35 -309.84 -289.99 
 268 -291.68 -311.85 -289.99 
 269 -297.76 -314.81 -289.99 
 270 -299.13 -314.09 -289.99 
 271 -304.70 -313.27 -289.99 
 272 -297.53 -307.85 -289.99 
 273 -289.96 -316.72 -289.99 
 274 -299.66 -316.58 -289.96 
 275 -300.42 -313.09 -289.96 
 276 -294.49 -311.19 -289.96 
 277 -295.78 -315.48 -289.96 
 278 -298.91 -318.37 -289.96 
 279 -294.62 -315.35 -289.96 
 280 -289.13 -307.94 -289.96 
 281 -296.86 -311.62 -289.13 
 282 -308.92 -308.66 -289.13 
 283 -297.77 -309.42 -289.13 
 284 -300.23 -310.82 -289.13 
 285 -299.79 -309.20 -289.13 
 286 -289.74 -304.48 -289.13 
 287 -317.42 -301.43 -289.13 
 288 -308.22 -303.85 -289.13 
 289 -298.03 -292.60 -289.13 
 290 -294.72 -295.97 -289.13 
 291 -306.63 -292.39 -289.13 
 292 -309.46 -289.67 -289.13 
 293 -300.46 -290.25 -289.13 
 294 -312.22 -289.41 -289.13 
 295 -308.77 -292.14 -289.13 
 296 -300.49 -293.06 -289.13 
 297 -307.60 -291.58 -289.13 
 298 -305.43 -293.56 -289.13 
 299 -313.73 -292.07 -289.13 
 300 -299.06 -295.22 -289.13 
 301 -308.67 -288.16 -289.13 
 302 -307.14 -289.96 -289.13 
 303 -300.36 -289.44 -289.13 
 304 -306.93 -285.33 -289.13 
 305 -299.66 -286.90 -289.13 
 306 -299.62 -284.75 -289.13 
 307 -298.98 -278.05 -289.13 
 308 -325.62 -282.22 -289.13 
 309 -295.67 -289.15 -289.13 
 310 -298.21 -288.98 -289.13 
 311 -303.54 -289.14 -289.13 
 312 -297.07 -289.53 -289.13 
 313 -294.82 -288.43 -289.13 
 314 -297.20 -311.42 -289.13 
 315 -291.19 -284.13 -289.13 
 316 -300.98 -281.96 -289.13 
 317 -297.88 -281.88 -289.13 
 318 -301.14 -284.27 -289.13 
 319 -295.94 -288.29 -289.13 
 320 -287.41 -280.88 -289.13 
 321 -304.67 -282.95 -287.41 
 322 -299.93 -292.38 -287.41 
 323 -314.33 -301.98 -287.41 
 324 -303.33 -282.80 -287.41 
 325 -297.49 -295.40 -287.41 
 326 -298.09 -282.65 -287.41 
 327 -302.33 -279.49 -287.41 
 328 -293.83 -278.99 -287.41 
 329 -296.13 -280.61 -287.41 
 330 -296.39 -280.12 -287.41 
 331 -291.80 -280.15 -287.41 
 332 -298.79 -283.03 -287.41 
 333 -295.20 -282.63 -287.41 
 334 -289.50 -285.34 -287.41 
 335 -283.63 -279.37 -287.41 
 336 -291.54 -283.15 -283.63 
 337 -284.47 -286.47 -283.63 
 338 -302.12 -286.31 -283.63 
 339 -288.35 -277.99 -283.63 
 340 -287.98 -281.89 -283.63 
 341 -288.28 -277.27 -283.63 
 342 -287.42 -279.15 -283.63 
 343 -287.49 -277.70 -283.63 
 344 -287.25 -277.16 -283.63 
 345 -277.26 -280.17 -283.63 
 346 -285.30 -278.65 -277.26 
 347 -276.84 -279.94 -277.26 
 348 -271.96 -281.51 -276.84 
 349 -283.71 -280.80 -271.96 
 350 -286.27 -281.89 -271.96 
 351 -278.34 -282.47 -271.96 
 352 -283.10 -281.03 -271.96 
 353 -281.23 -282.13 -271.96 
 354 -281.63 -281.36 -271.96 
 355 -276.83 -280.30 -271.96 
 356 -278.03 -281.30 -271.96 
 357 -273.51 -282.21 -271.96 
 358 -275.95 -286.99 -271.96 
 359 -275.90 -288.31 -271.96 
 360 -275.92 -289.57 -271.96 
 361 -278.18 -290.75 -271.96 
 362 -280.39 -293.21 -271.96 
 363 -281.25 -292.66 -271.96 
 364 -276.35 -288.86 -271.96 
 365 -272.84 -291.85 -271.96 
 366 -284.38 -288.93 -271.96 
 367 -275.17 -292.37 -271.96 
 368 -271.50 -292.50 -271.96 
 369 -282.79 -290.79 -271.50 
 370 -275.46 -289.51 -271.50 
 371 -270.94 -291.70 -271.50 
 372 -279.40 -292.29 -270.94 
 373 -271.58 -267.87 -270.94 
 374 -270.69 -267.28 -270.94 
 375 -273.06 -291.82 -270.69 
 376 -273.92 -269.93 -270.69 
 377 -270.44 -269.65 -270.69 
 378 -267.08 -267.06 -270.44 
 379 -270.59 -265.93 -267.08 
 380 -271.17 -263.97 -267.08 
 381 -271.11 -261.74 -267.08 
 382 -266.48 -261.73 -267.08 
 383 -268.55 -262.71 -266.48 
 384 -276.24 -262.30 -266.48 
 385 -264.96 -262.83 -266.48 
 386 -264.62 -261.47 -264.96 
 387 -259.91 -261.14 -264.62 
 388 -264.35 -292.68 -259.91 
 389 -262.41 -296.18 -259.91 
 390 -264.45 -288.85 -259.91 
 391 -262.32 -286.98 -259.91 
 392 -259.93 -290.44 -259.91 
 393 -260.54 -291.76 -259.91 
 394 -261.54 -290.57 -259.91 
 395 -269.10 -288.34 -259.91 
 396 -267.53 -287.10 -259.91 
 397 -258.07 -285.98 -259.91 
 398 -266.31 -286.10 -258.07 
 399 -263.28 -285.32 -258.07 
 400 -257.07 -281.22 -258.07 
 401 -274.38 -284.78 -257.07 
 402 -263.09 -288.01 -257.07 
 403 -255.06 -284.55 -257.07 
 404 -260.95 -286.94 -255.06 
 405 -260.40 -289.47 -255.06 
 406 -275.31 -255.67 -255.06 
 407 -254.90 -254.69 -255.06 
 408 -256.46 -253.02 -254.90 
 409 -259.81 -251.25 -254.90 
 410 -254.58 -254.78 -254.90 
 411 -248.18 -250.17 -254.58 
 412 -249.94 -250.48 -248.18 
 413 -249.88 -251.05 -248.18 
 414 -250.54 -249.46 -248.18 
 415 -254.22 -246.90 -248.18 
 416 -253.50 -249.66 -248.18 
 417 -250.72 -252.91 -248.18 
 418 -255.48 -254.78 -248.18 
 419 -258.78 -249.16 -248.18 
 420 -256.64 -255.41 -248.18 
 421 -249.32 -251.90 -248.18 
 422 -251.38 -258.35 -248.18 
 423 -253.42 -249.11 -248.18 
 424 -254.05 -244.72 -248.18 
 425 -251.55 -250.26 -248.18 
 426 -250.91 -241.82 -248.18 
 427 -239.26 -241.80 -248.18 
 428 -248.09 -245.70 -239.26 
 429 -252.93 -247.87 -239.26 
 430 -245.18 -251.67 -239.26 
 431 -252.25 -252.22 -239.26 
 432 -246.48 -241.01 -239.26 
 433 -241.44 -237.37 -239.26 
 434 -233.96 -254.15 -239.26 
 435 -249.34 -256.01 -233.96 
 436 -239.16 -247.52 -233.96 
 437 -232.47 -238.34 -233.96 
 438 -243.64 -239.07 -232.47 
 439 -240.35 -239.29 -232.47 
 440 -236.64 -234.15 -232.47 
 441 -229.53 -227.86 -232.47 
 442 -229.62 -230.12 -229.53 
 443 -228.03 -232.47 -229.53 
 444 -236.72 -231.55 -228.03 
 445 -230.52 -230.12 -228.03 
 446 -234.72 -244.95 -228.03 
 447 -227.67 -273.92 -228.03 
 448 -248.14 -238.38 -227.67 
 449 -234.93 -245.57 -227.67 
 450 -243.42 -239.82 -227.67 
 451 -244.25 -243.56 -227.67 
 452 -221.72 -239.21 -227.67 
 453 -233.73 -247.42 -221.72 
 454 -227.77 -252.20 -221.72 
 455 -234.61 -242.05 -221.72 
 456 -226.17 -245.26 -221.72 
 457 -231.42 -240.64 -221.72 
 458 -227.34 -234.21 -221.72 
 459 -224.09 -236.97 -221.72 
 460 -227.87 -234.24 -221.72 
 461 -225.04 -259.70 -221.72 
 462 -238.08 -267.06 -221.72 
 463 -234.50 -245.32 -221.72 
 464 -243.06 -248.32 -221.72 
 465 -222.93 -250.47 -221.72 
 466 -227.46 -251.59 -221.72 
 467 -226.27 -268.27 -221.72 
 468 -229.08 -276.73 -221.72 
 469 -242.39 -254.62 -221.72 
 470 -225.97 -263.02 -221.72 
 471 -227.96 -254.47 -221.72 
 472 -227.03 -249.19 -221.72 
 473 -238.99 -252.98 -221.72 
 474 -240.36 -257.19 -221.72 
 475 -227.50 -255.08 -221.72 
 476 -236.81 -254.75 -221.72 
 477 -222.94 -257.15 -221.72 
 478 -223.29 -259.71 -221.72 
 479 -221.78 -253.77 -221.72 
 480 -222.25 -257.93 -221.72 
 481 -219.92 -260.41 -221.72 
 482 -218.17 -258.44 -219.92 
 483 -219.51 -258.93 -218.17 
 484 -229.33 -261.40 -218.17 
 485 -232.74 -260.06 -218.17 
 486 -234.93 -261.73 -218.17 
 487 -218.38 -257.44 -218.17 
 488 -222.11 -259.20 -218.17 
 489 -221.00 -254.94 -218.17 
 490 -213.75 -237.00 -218.17 
 491 -221.19 -233.81 -213.75 
 492 -218.60 -237.48 -213.75 
 493 -216.31 -234.97 -213.75 
 494 -217.50 -237.51 -213.75 
 495 -219.50 -267.01 -213.75 
 496 -220.71 -282.96 -213.75 
 497 -217.92 -276.01 -213.75 
 498 -220.12 -273.52 -213.75 
 499 -221.00 -271.61 -213.75 
