iteration,time_sampling,stoc_pol_mean,stoc_pol_std,stoc_pol_max,stoc_pol_min,rollout_success,alpha,delta,time_vpg,time_npg,kl_dist,surr_improvement,running_score,rwd_sparse,rwd_dense,success_percentage,num_samples,time_VF,VF_error_before,VF_error_after,env_samples,eval_score,eval_success
0,0.6069800853729248,-220.66320970228173,0.5648411013529268,-220.08845309075502,-221.56033581000355,0.0,1.2152577319518343,0.1,0.052015066146850586,0.06163740158081055,0.6697957,0.07687283,-220.66320970228173,-1.1021698994197162,-1.1021698994197162,0.0,800,0.04541826248168945,1.0000377320147729,0.9848577296639454,800,-211.28266102215278,0.0
1,0.4614145755767822,-212.02531171649065,0.5878358037975029,-211.25673733662535,-212.7882404896444,0.0,1.9082856045730818,0.1,0.002961874008178711,0.05947375297546387,0.055772677,0.047188826,-219.79941990370264,-1.0597174070880602,-1.0597174070880602,0.0,800,0.04340100288391113,0.9842402942493576,0.9496595190780682,1600,-212.2436687369246,0.0
2,0.47850871086120605,-213.0279820167303,0.43411643259035515,-212.49313247790698,-213.69773325418842,0.0,1.82504581175141,0.1,0.0029211044311523438,0.0695953369140625,0.04732348,0.052415352,-219.1222761150054,-1.06473927235163,-1.06473927235163,0.0,800,0.04409670829772949,0.9499255206454433,0.8732388531638687,2400,-212.30445200259683,0.0
3,0.49836230278015137,-214.12323756530893,1.4016192396687153,-212.77754475346103,-216.30133665858895,0.0,1.842096826541301,0.1,0.02340865135192871,0.12457156181335449,0.051025014,0.04876668,-218.62237226003577,-1.0701291918326532,-1.0701291918326532,0.0,800,0.04553341865539551,0.8738672867121134,0.7392346839290644,3200,-211.80450918773246,0.0
4,0.4944186210632324,-212.21713209767637,1.4811978264194146,-209.97028005163904,-213.79945360819065,0.0,2.642524877063324,0.1,0.017458438873291016,0.06481266021728516,0.051367596,0.039172035,-217.98184824379985,-1.0606362617043563,-1.0606362617043563,0.0,800,0.04507327079772949,0.7369882502501907,0.5490696176027788,4000,-212.69064492643932,0.0
5,0.5004076957702637,-214.2002912414592,0.5286446649599015,-213.36826791124497,-214.69745645688064,0.0,1.048099851583793,0.1,0.0029408931732177734,0.059824228286743164,0.048460606,0.10125608,-217.60369254356578,-1.0702118916451395,-1.0702118916451395,0.0,800,0.0674588680267334,0.5521742697010255,0.3651839507824983,4800,-213.56608154036016,0.0
6,0.5158965587615967,-214.5378872222867,0.705074567665706,-213.5134529231988,-215.5052900302876,0.0,1.5348113412197057,0.1,0.03569364547729492,0.07270598411560059,0.048257485,0.086754225,-217.2971120114379,-1.0718908803370062,-1.0718908803370062,0.0,800,0.04492521286010742,0.36544854112316427,0.25022462062721695,5600,-214.48141179556254,0.0
7,0.539055347442627,-215.19004036791213,0.3781570149560838,-214.7694657273098,-215.6733310280298,0.0,2.6901205965466684,0.1,0.02305293083190918,0.06425094604492188,0.05233908,0.036724143,-217.08640484708533,-1.0751195095003963,-1.0751195095003963,0.0,800,0.045238494873046875,0.2514446528187428,0.2157927590895328,6400,-213.86658936933986,0.0
8,0.5472791194915771,-213.68542953579887,1.3178486180637878,-211.57195485348535,-214.82203235811374,0.0,2.154935000198557,0.1,0.003012418746948242,0.06503462791442871,0.055668987,0.044740193,-216.7463073159567,-1.0677980942142824,-1.0677980942142824,0.0,800,0.04486870765686035,0.21588894069366896,0.202081222868371,7200,-215.22680137614944,0.0
9,0.5514702796936035,-215.35276319015642,1.157076867596152,-214.41293829838136,-217.33177858591918,0.0,1.9942313930680289,0.1,0.05046343803405762,0.10930275917053223,0.05702215,0.051510163,-216.60695290337668,-1.0760702301785918,-1.0760702301785918,0.0,800,0.04413962364196777,0.20276156641723067,0.18944711958504337,8000,-215.87859794375984,0.0
10,0.5514304637908936,-215.92717583892696,0.6237805889573441,-215.01963604518963,-216.56391451196063,0.0,1.6246159354155838,0.1,0.003035306930541992,0.06061983108520508,0.04996624,0.05190635,-216.53897519693172,-1.0789312240313267,-1.0789312240313267,0.0,800,0.04532432556152344,0.1908574110415577,0.17773678170037993,8800,-215.91480750149734,0.0
11,0.555325984954834,-215.49733622716963,1.209514322210666,-213.6014751844447,-216.76332032730963,0.0,1.51607173247446,0.1,0.019173383712768555,0.06018328666687012,0.04812151,0.108490735,-216.4348112999555,-1.0769015296093032,-1.0769015296093032,0.0,800,0.04493403434753418,0.17728907970520022,0.1639825994468019,9600,-216.56882086652965,0.0
12,0.5613415241241455,-216.34935863637338,0.26223205459354093,-216.07625072950285,-216.65519861289476,0.0,1.870911934247353,0.1,0.0030565261840820312,0.05912208557128906,0.054313853,0.04969102,-216.4262660335973,-1.0810014521498037,-1.0810014521498037,0.0,800,0.04461193084716797,0.16481914641238815,0.15204187457784782,10400,-217.17615406328926,0.0
13,0.562934160232544,-215.94861719928684,0.4705540905650315,-215.39657288648704,-216.53281320633238,0.0,2.3975326016842065,0.1,0.010482311248779297,0.060637474060058594,0.055271324,0.04487636,-216.37850115016624,-1.0790359794693876,-1.0790359794693876,0.0,800,0.04589414596557617,0.15176810648919262,0.13840341511121204,11200,-218.7540816371338,0.0
14,0.5966870784759521,-217.8705153115164,0.5948486205310332,-217.32167814180258,-218.87497651214412,0.0,2.403878270207356,0.1,0.02312755584716797,0.06019711494445801,0.049032297,0.044381175,-216.52770256630126,-1.0885079030795943,-1.0885079030795943,0.0,800,0.04405546188354492,0.14012228564441015,0.12638361558806993,12000,-218.03434092679194,0.0
15,0.5258758068084717,-217.07906550162812,1.0196547352056424,-215.84877373880713,-218.33404714044934,0.0,1.5513944682660323,0.1,0.04777193069458008,0.07365894317626953,0.04580229,0.07240977,-216.58283885983394,-1.0847189810574864,-1.0847189810574864,0.0,800,0.05122113227844238,0.12503914711956557,0.10937532401053952,12800,-218.03795622270096,0.0
16,0.5180916786193848,-218.01210425269676,0.5691114105606292,-217.08266904454084,-218.49262571278967,0.0,2.3342383941429437,0.1,0.048033714294433594,0.11347055435180664,0.049934812,0.041044775,-216.72576539912023,-1.0893110056697295,-1.0893110056697295,0.0,800,0.04849982261657715,0.10957112083299947,0.09317801801972989,13600,-216.7315819754953,0.0
17,0.5399062633514404,-216.38634961848786,0.5863002206357458,-215.80262132962454,-217.20819162240664,0.0,2.045032940312113,0.1,0.003464221954345703,0.06203746795654297,0.049518045,0.040359095,-216.691823821057,-1.08128476485749,-1.08128476485749,0.0,800,0.05118227005004883,0.09164343666811434,0.07488475489374621,14400,-216.906885881676,0.0
18,0.5431163311004639,-216.4686250638818,0.6508164551011438,-215.71701563693244,-217.36136586966884,0.0,1.8707762457811647,0.1,0.0042188167572021484,0.06310868263244629,0.044174504,0.04109797,-216.66950394533947,-1.0816727376779012,-1.0816727376779012,0.0,800,0.06089472770690918,0.074078252675852,0.05786696401337189,15200,-216.95652093223086,0.0
19,0.568166971206665,-216.56272315587339,0.5908290056750981,-215.6561276221718,-217.28556720268963,0.0,1.83963014097375,0.1,0.0032434463500976562,0.06084036827087402,0.048446167,0.05292449,-216.65882586639285,-1.0822128663534214,-1.0822128663534214,0.0,800,0.04640626907348633,0.05799197948139397,0.0430949326997272,16000,-216.47597367689784,0.0
20,0.5643675327301025,-216.04519369755153,0.3283489546472865,-215.6103483321535,-216.5043092184035,0.0,2.160158338980227,0.1,0.002983570098876953,0.0595545768737793,0.04927145,0.040258862,-216.5974626495087,-1.0796366447839545,-1.0796366447839545,0.0,800,0.06043291091918945,0.04071227521627633,0.028309661791134217,16800,-216.28962958605817,0.0
21,0.5799169540405273,-216.06946052363406,0.7738466959177532,-215.22963957307547,-217.14072348147653,0.0,1.5562785603640645,0.1,0.008271217346191406,0.06131434440612793,0.03948079,0.08163702,-216.54466243692127,-1.0797527503870958,-1.0797527503870958,0.0,800,0.0456697940826416,0.028401444071842682,0.019081899530004852,17600,-216.3181434420811,0.0
22,0.5779023170471191,-216.107557855584,0.7885802263384736,-214.81542203881753,-216.75475204518978,0.0,1.8290553464580093,0.1,0.02659749984741211,0.06090569496154785,0.04405344,0.044136815,-216.50095197878755,-1.0799085550120546,-1.0799085550120546,0.0,800,0.055356502532958984,0.019205363089769688,0.012328250486430851,18400,-216.04474227156007,0.0
23,0.5893828868865967,-215.91370673172105,0.36788947888906476,-215.35269633572594,-216.3564809056352,0.0,1.2860274255004942,0.1,0.003024578094482422,0.06504964828491211,0.0458804,0.15329288,-216.44222745408092,-1.0789345633745868,-1.0789345633745868,0.0,800,0.08137059211730957,0.012944694232205702,0.008923962387185342,19200,-215.936259139208,0.0
24,0.5902199745178223,-215.71043275300747,0.7830657114536084,-214.35696808326722,-216.23033616121268,0.0,2.343436836293265,0.1,0.048844337463378906,0.09592008590698242,0.04903305,0.063020684,-216.3690479839736,-1.077914267499544,-1.077914267499544,0.0,800,0.04360461235046387,0.009813651556948947,0.00794606635130208,20000,-215.6109640865039,0.0
25,0.5931260585784912,-215.95842041084305,0.5260259644257522,-215.4802501346548,-216.84476651850795,0.0,1.634008620293602,0.1,0.05424332618713379,0.11006855964660645,0.055718955,0.06836485,-216.32798522666053,-1.0791089683895096,-1.0791089683895096,0.0,800,0.045807838439941406,0.008594398940506847,0.00761724567673674,20800,-215.66839372299782,0.0
26,0.6007928848266602,-216.61584780574094,0.47724092509193006,-216.23322605274646,-217.43328908877484,0.0,1.8031587058338756,0.1,0.02295970916748047,0.060835838317871094,0.047698993,0.0657534,-216.35677148456858,-1.0823375142081966,-1.0823375142081966,0.0,800,0.046074628829956055,0.008098800437230486,0.007529928603462613,21600,-215.86892006132746,0.0
27,0.61346435546875,-216.1768348378182,0.813884656254577,-215.24438878110615,-217.4623383724436,0.0,1.8810976043310181,0.1,0.003252267837524414,0.06231045722961426,0.045873594,0.061094925,-216.33877781989355,-1.0801593977671926,-1.0801593977671926,0.0,800,0.053577423095703125,0.007143962039057647,0.006601379839093851,22400,-215.3446072621292,0.0
28,0.5319986343383789,-215.73235838165547,0.4321939098076425,-214.98587187761845,-216.01466176647315,0.0,2.946681569118434,0.1,0.003126382827758789,0.06027340888977051,0.04768674,0.029113853,-216.27813587606974,-1.0779164391095368,-1.0779164391095368,0.0,800,0.044423818588256836,0.006962013110731991,0.006274246631305245,23200,-215.2275129232302,0.0
29,0.5522480010986328,-215.88286837159376,0.26527895307906196,-215.60767983395772,-216.3084580959487,0.0,2.008448230843256,0.1,0.0032651424407958984,0.07343697547912598,0.050467983,0.04733453,-216.23860912562216,-1.0786784736671682,-1.0786784736671682,0.0,800,0.06335711479187012,0.007175762592036793,0.0065882846514586325,24000,-214.766738069305,0.0
30,0.5604498386383057,-214.75538166637438,0.3279356188782138,-214.20017374630203,-215.00732094502942,0.0,1.6612629685557303,0.1,0.04807543754577637,0.08865475654602051,0.049021926,0.06189414,-216.0902863796974,-1.073190746912557,-1.073190746912557,0.0,800,0.07097196578979492,0.008461171954266473,0.007867154484417797,24800,-214.72044665548904,0.0
31,0.563469648361206,-214.92690660149458,0.6306553750215619,-213.87992252485475,-215.4791387258288,0.0,2.2663703181811248,0.1,0.029683589935302734,0.059740304946899414,0.052337293,0.05101499,-215.97394840187712,-1.073978081347169,-1.073978081347169,0.0,800,0.04590964317321777,0.007267851728569463,0.007099988084974634,25600,-214.49456864994667,0.0
32,0.5675439834594727,-214.80679092936074,0.7682567981384462,-214.03927815506952,-215.71719776545734,0.0,2.5123972310707887,0.1,0.05236935615539551,0.1296696662902832,0.040071253,0.038540147,-215.85723265462548,-1.0733673093712732,-1.0733673093712732,0.0,800,0.04765582084655762,0.007568619403218854,0.007358356003931385,26400,-213.61827212660788,0.0
33,0.589491605758667,-214.9780264661706,0.7055178246345638,-214.12653609689212,-215.89225113363503,0.0,2.1680902563225914,0.1,0.050685882568359375,0.21151947975158691,0.048858825,0.037060164,-215.76931203578,-1.0742532246144767,-1.0742532246144767,0.0,800,0.04583621025085449,0.009007401165904065,0.008669945669679581,27200,-213.9804805047793,0.0
34,0.5896217823028564,-214.71070760551663,0.8916680441114858,-213.65091625363604,-215.99593544206897,0.0,1.5985341975402119,0.1,0.003197193145751953,0.061698198318481445,0.05032378,0.06761259,-215.66345159275366,-1.0728612072346007,-1.0728612072346007,0.0,800,0.05035805702209473,0.008984723319693211,0.0086015644030031,28000,-213.4492328253547,0.0
35,0.5927090644836426,-214.74358239034933,1.2997221642075383,-212.66478444839743,-216.14414782224233,0.0,3.4569172599981597,0.1,0.04854774475097656,0.10479497909545898,0.05198298,0.029012358,-215.57146467251323,-1.0730774063144697,-1.0730774063144697,0.0,800,0.06772732734680176,0.009381876243931948,0.00907167892986574,28800,-213.8635633782351,0.0
36,0.6004736423492432,-215.05218344559964,0.7746813308558926,-214.02292159571317,-215.95381789450312,0.0,2.498460025848995,0.1,0.0029723644256591797,0.060831546783447266,0.04982695,0.03656707,-215.51953654982185,-1.0745841817655064,-1.0745841817655064,0.0,800,0.05285239219665527,0.00819707584810207,0.008015935451839118,29600,-214.29231978674883,0.0
37,0.6111865043640137,-215.29761130729136,0.3086808635944298,-214.7674805456494,-215.52500366706525,0.0,1.902890637706217,0.1,0.0033676624298095703,0.06172466278076172,0.049624275,0.049017895,-215.4973440255688,-1.0758609035163242,-1.0758609035163242,0.0,800,0.06406092643737793,0.007374898489155781,0.007229547507672115,30400,-214.947167693922,0.0
38,0.6308448314666748,-216.15040878982543,0.6550292417877012,-215.1463159665396,-216.8289777499931,0.0,1.844628114846139,0.1,0.006056070327758789,0.061246633529663086,0.05647712,0.04452372,-215.56265050199445,-1.0800129119062656,-1.0800129119062656,0.0,800,0.0450899600982666,0.0080570435750819,0.007716117927311502,31200,-215.01679040545392,0.0
39,0.6183102130889893,-215.0774845433054,0.4525153376980563,-214.56214083725666,-215.7543449834481,0.0,1.9452853500860536,0.1,0.010620594024658203,0.05919241905212402,0.050353583,0.053562995,-215.51413390612555,-1.0746661440828906,-1.0746661440828906,0.0,800,0.043605804443359375,0.009485951285164367,0.009218972168248116,32000,-214.1769440663397,0.0
40,0.6326758861541748,-215.2092387923829,0.29105333781346904,-215.01423823714435,-215.71143634149428,0.0,1.6842094050995762,0.1,0.010469198226928711,0.06077837944030762,0.047867022,0.081420444,-215.4836443947513,-1.075233664541524,-1.075233664541524,0.0,800,0.0495908260345459,0.008804978887413648,0.008542290425636525,32800,-213.70717536614015,0.0
41,0.5617268085479736,-214.8219735907288,0.8282255833711346,-213.84212282479052,-216.09551870823154,0.0,2.7596111703374198,0.1,0.006016731262207031,0.06013631820678711,0.049073957,0.03410675,-215.41747731434904,-1.0733650515445228,-1.0733650515445228,0.0,800,0.05120229721069336,0.009414735102721986,0.009085465116705094,33600,-212.74015403427578,0.0
42,0.5670161247253418,-214.1106861512444,0.43719925842595914,-213.6902072979152,-214.76999470969602,0.0,2.108001140175891,0.1,0.009315729141235352,0.06154227256774902,0.04507766,0.047119673,-215.28679819803858,-1.06986339661966,-1.06986339661966,0.0,800,0.0462493896484375,0.009383843377571446,0.009069288117852256,34400,-212.26020563859132,0.0
43,0.5762429237365723,-213.96712394970018,0.33264684213607926,-213.63292039820175,-214.4823177323507,0.0,2.0042967583971025,0.1,0.025630474090576172,0.06258273124694824,0.045815725,0.044501964,-215.15483077320476,-1.0691687790201798,-1.0691687790201798,0.0,800,0.053070783615112305,0.00810146931313627,0.007805890899024605,35200,-213.1314367940156,0.0
44,0.5790300369262695,-213.78196281190472,0.4452033660268648,-213.10575500715765,-214.18256295139923,0.0,2.239379962431977,0.1,0.003866434097290039,0.05965423583984375,0.04200496,0.047149926,-215.01754397707475,-1.068333427490397,-1.068333427490397,0.0,800,0.05440235137939453,0.008693272718429563,0.008375919760343941,36000,-211.88411178028312,0.0
45,0.5912125110626221,-213.00694000973257,0.5162951633941464,-212.35890141367153,-213.79944871873988,0.0,1.5827676457332456,0.1,0.00826573371887207,0.06078457832336426,0.055640187,0.07334389,-214.81648358034056,-1.0643932436683217,-1.0643932436683217,0.0,800,0.04529142379760742,0.007094741099735878,0.006784831619065858,36800,-211.25963697653788,0.0
46,0.5916767120361328,-212.4137259002008,0.38733366182872364,-212.02489568393383,-213.04713013938,0.0,1.9770396900910205,0.1,0.052562713623046875,0.08806395530700684,0.036644254,0.036467258,-214.5762078123266,-1.0615552321985178,-1.0615552321985178,0.0,800,0.04650402069091797,0.00872460768860131,0.008194524752375146,37600,-210.72053179845898,0.0
47,0.6065809726715088,-211.84432988636254,0.513568222793533,-211.0982379135066,-212.5254457586233,0.0,1.9294239145528216,0.1,0.013545036315917969,0.06295371055603027,0.04594923,0.058689237,-214.30302001973018,-1.0588094008987752,-1.0588094008987752,0.0,800,0.05305981636047363,0.010133450293130293,0.009549883653402098,38400,-210.46020662146012,0.0
48,0.6031720638275146,-212.25983743867147,0.6184405471162783,-211.32840421956865,-212.99529069371786,0.0,1.6201621709278278,0.1,0.010525703430175781,0.06081199645996094,0.048497237,0.061013974,-214.0987017616243,-1.060903229221648,-1.060903229221648,0.0,800,0.047399282455444336,0.012137080098779417,0.011297175500888131,39200,-210.0720485206792,0.0
49,0.6340737342834473,-212.264236731459,0.5110263824948719,-211.48401385449324,-212.89328805864332,0.0,2.008360332746634,0.1,0.0031337738037109375,0.060884952545166016,0.04717851,0.059648715,-213.91525525860777,-1.0609712588738276,-1.0609712588738276,0.0,800,0.0758962631225586,0.012389802403426286,0.0118145451369513,40000,-210.5640119131444,0.0
50,0.6269755363464355,-212.13120775932464,0.25458306799424213,-211.84350370563735,-212.54179366681026,0.0,1.82394295854471,0.1,0.0040781497955322266,0.06255960464477539,0.050962836,0.05596503,-213.73685050867948,-1.0602819850214336,-1.0602819850214336,0.0,800,0.051363468170166016,0.011354410657346933,0.010812735787956943,40800,-210.80058501407925,0.0
51,0.6504955291748047,-212.51628302663363,0.4761653488447153,-211.90634666528706,-213.14487811412005,0.0,1.7753249842532082,0.1,0.02173638343811035,0.0668630599975586,0.048653137,0.051055156,-213.6147937604749,-1.0621842537561315,-1.0621842537561315,0.0,800,0.0535733699798584,0.011189102388873095,0.0106740549681528,41600,-211.02595701976193,0.0
52,0.6476864814758301,-212.67232754857588,0.171433910317127,-212.46265948120546,-212.92082803165687,0.0,1.978709977027033,0.1,0.005257844924926758,0.0590977668762207,0.050358728,0.052829638,-213.520547139285,-1.0629624614674056,-1.0629624614674056,0.0,800,0.04445147514343262,0.011158804778275116,0.010618778406193024,42400,-211.2076436745647,0.0
53,0.6592452526092529,-212.65098710380624,0.5804727586777635,-211.90192666766526,-213.4638093883777,0.0,1.7385194028876798,0.1,0.0449681282043457,0.11205649375915527,0.05461585,0.0634804,-213.43359113573712,-1.062832199652884,-1.062832199652884,0.0,800,0.04766440391540527,0.011064759867307183,0.010514610217257586,43200,-211.56280498752108,0.0
54,0.6603443622589111,-212.47224886766452,0.2780761353142063,-212.02571765224417,-212.78093300175695,0.0,2.282495930535358,0.1,0.05084395408630371,0.1111299991607666,0.050281182,0.047832754,-213.33745690892985,-1.0619487060033532,-1.0619487060033532,0.0,800,0.14523077011108398,0.010006946112106367,0.009524954022298424,44000,-211.82237082165784,0.0
55,0.5692973136901855,-212.6419189918815,0.4976749205950753,-211.89964534419812,-213.27519109534452,0.0,1.8883151629526205,0.1,0.052794456481933594,0.4359111785888672,0.048957232,0.050212614,-213.26790311722502,-1.0628130055800062,-1.0628130055800062,0.0,800,0.1279444694519043,0.010596039848177077,0.01000756822332328,44800,-212.0524694161803,0.0
56,0.5878770351409912,-212.9879470311813,0.4443370372445387,-212.30116269726417,-213.53736347929294,0.0,2.706470254411354,0.1,0.05202031135559082,0.12279891967773438,0.04471057,0.033110436,-213.23990750862066,-1.0645053990857087,-1.0645053990857087,0.0,800,0.04863858222961426,0.010156689594619501,0.009565273646673757,45600,-212.10273498983543,0.0
57,0.6100592613220215,-213.48939843986815,0.5617928024667971,-212.92664526934587,-214.39239417507784,0.0,2.0590184469302817,0.1,0.048666954040527344,0.12849116325378418,0.046860237,0.046003498,-213.2648566017454,-1.0669993005422058,-1.0669993005422058,0.0,800,0.058847665786743164,0.009952490430001073,0.009251352189882203,46400,-212.75827076940095,0.0
58,0.5982301235198975,-213.76761202214118,0.30915996798535783,-213.32061943161878,-214.17041847843615,0.0,1.792939397688293,0.1,0.0030829906463623047,0.06181812286376953,0.053500555,0.055425968,-213.31513214378498,-1.0683780771123388,-1.0683780771123388,0.0,800,0.05459451675415039,0.010115072810755577,0.009355125324176039,47200,-212.50365481296117,0.0
59,0.5980286598205566,-213.14558175174574,0.40854339290090186,-212.44150994375698,-213.44347638085074,0.0,1.7989576220710566,0.1,0.007076263427734375,0.0629417896270752,0.047305707,0.06620349,-213.29817710458104,-1.065288104664969,-1.065288104664969,0.0,800,0.07045459747314453,0.009224516586567658,0.00847917258690545,48000,-212.28761598794472,0.0
60,0.6054685115814209,-213.30500362233784,0.6788882874384328,-212.23992899463252,-213.90574123895496,0.0,1.5002810012207297,0.1,0.05274152755737305,0.08636164665222168,0.044648986,0.06487357,-213.29885975635673,-1.0660913948420452,-1.0660913948420452,0.0,800,0.05731487274169922,0.009037289733114347,0.008280300165643593,48800,-212.18621973848568,0.0
61,0.6052536964416504,-213.12971611770675,0.5190853246387455,-212.4902749735158,-213.8856112778011,0.0,2.017747149198345,0.1,0.0320436954498291,0.060785770416259766,0.051600404,0.052421317,-213.28194539249174,-1.0652176754262421,-1.0652176754262421,0.0,800,0.2502274513244629,0.008657998975593054,0.0077894058925752725,49600,-211.92127951889202,0.0
62,0.619910478591919,-213.23237833532258,0.8870833931414461,-212.00182703657399,-214.3990723756639,0.0,1.8254320963176,0.1,0.006365537643432617,0.062774658203125,0.048318133,0.050221693,-213.2769886867748,-1.065717939821261,-1.065717939821261,0.0,800,0.08776330947875977,0.00776642999394054,0.0070062062596724425,50400,-211.75149913839604,0.0
63,0.6327457427978516,-212.36460406766673,0.3987932397176496,-211.7111803285318,-212.71425670385022,0.0,1.4108083080212754,0.1,0.017376184463500977,0.06135296821594238,0.04629134,0.08881927,-213.185750224864,-1.0614266055694839,-1.0614266055694839,0.0,800,0.05852675437927246,0.006427916110424945,0.0057394528678510965,51200,-211.80321688471534,0.0
64,0.6334784030914307,-212.98674417540482,0.3529964346557823,-212.61145991488064,-213.56388920913085,0.0,2.5286737464421383,0.1,0.003171205520629883,0.06075549125671387,0.047541365,0.041154265,-213.1658496199181,-1.0645250942370608,-1.0645250942370608,0.0,800,0.06284546852111816,0.006120864327731542,0.005507570617876173,52000,-212.09545283674075,0.0
65,0.6529505252838135,-213.18373149866417,0.5721198952135262,-212.37692140418488,-213.85768678818278,0.0,2.4545144823054588,0.1,0.003381490707397461,0.06522417068481445,0.050997928,0.039783463,-213.16763780779274,-1.065499888722608,-1.065499888722608,0.0,800,0.06772112846374512,0.0055888440550354345,0.004887319570516003,52800,-212.63958924372125,0.0
66,0.6426258087158203,-213.4630456853603,0.29454057297271274,-213.15329633352016,-213.92826386389322,0.0,1.9210692616970335,0.1,0.006297111511230469,0.061691999435424805,0.050418757,0.048287738,-213.1971785955495,-1.066905356903716,-1.066905356903716,0.0,800,0.07874417304992676,0.004998075640880262,0.004397025283977054,53600,-212.9696017400237,0.0
67,0.6462695598602295,-213.65884987122644,0.4305368345892458,-212.99334970849253,-214.14265764496918,0.0,1.867118869911021,0.1,0.002983570098876953,0.06059622764587402,0.047675207,0.07505889,-213.24334572311722,-1.0678627966683152,-1.0678627966683152,0.0,800,0.07938694953918457,0.004409649548374218,0.004086260789072796,54400,-213.10735685764953,0.0
68,0.6541225910186768,-213.70309469894482,0.5621047059460439,-212.82973711271805,-214.39987339182002,0.0,2.1200142878468804,0.1,0.0030117034912109375,0.0609288215637207,0.045935832,0.041419573,-213.28932062069998,-1.068057841779298,-1.068057841779298,0.0,800,0.0739889144897461,0.004214649297328849,0.003490590557672885,55200,-213.19789361872503,0.0
69,0.6100661754608154,-213.369379267986,0.3240648100133549,-213.01126902354648,-213.84748650290337,0.0,1.5699525942226629,0.1,0.0034384727478027344,0.06286144256591797,0.047054842,0.06745955,-213.2973264854286,-1.0663844591078904,-1.0663844591078904,0.0,800,0.44811224937438965,0.003374056391198536,0.00288514800520144,56000,-212.92857371328554,0.0
70,0.6165318489074707,-214.2947290367982,0.7525556404180406,-213.09209412795985,-215.0335386473595,0.0,2.073641398783019,0.1,0.003160715103149414,0.06170320510864258,0.048929814,0.046703286,-213.39706674056558,-1.0709978431645453,-1.0709978431645453,0.0,800,0.08541989326477051,0.0032696460596816097,0.0027695459626543182,56800,-213.142879335944,0.0
71,0.6162271499633789,-213.88436597103504,0.5788450497780535,-213.04864784296174,-214.68375165241002,0.0,2.192177778979089,0.1,0.003229379653930664,0.0616452693939209,0.054681867,0.055670705,-213.44579666361255,-1.0689643399626518,-1.0689643399626518,0.0,800,0.10403227806091309,0.002643921705484089,0.002291387115475025,57600,-212.98342711353635,0.0
72,0.617149829864502,-213.54762064144785,0.603751744285987,-212.8009077454942,-214.17914782854967,0.0,2.227148165279306,0.1,0.003179788589477539,0.062003374099731445,0.05140933,0.044157162,-213.45597906139608,-1.0673143734628012,-1.0673143734628012,0.0,800,0.07900619506835938,0.001993529600826385,0.0016693319915148082,58400,-212.78206240881295,0.0
73,0.640749454498291,-213.7419648331035,0.4660921303178465,-213.30749929127154,-214.5194223908299,0.0,1.7717485677825282,0.1,0.00341033935546875,0.13035941123962402,0.048083257,0.056499414,-213.48457763856683,-1.0682671008346643,-1.0682671008346643,0.0,800,0.08283567428588867,0.0019783808538931997,0.001605433533496091,59200,-213.59978949134097,0.0
74,0.642819881439209,-213.980312867607,0.473201704148953,-213.22875320712288,-214.52349951076317,0.0,2.939574609384312,0.1,0.03264284133911133,0.06149005889892578,0.04683304,0.046759345,-213.53415116147085,-1.069429442834199,-1.069429442834199,0.0,800,0.07073473930358887,0.0016193075619451694,0.0013406048698664827,60000,-214.52311414343436,0.0
75,0.6391897201538086,-214.65914211409762,0.320927740795881,-214.23249350252348,-215.08089542997547,0.0,2.015885028510521,0.1,0.050315141677856445,0.08147644996643066,0.049599018,0.04677156,-213.64665025673352,-1.0728021786151474,-1.0728021786151474,0.0,800,0.07383346557617188,0.0016757349469557494,0.0013510730749602435,60800,-214.94765090492706,0.0
76,0.6641478538513184,-215.1545037397883,0.3101060017763608,-214.75491787638822,-215.50413423815064,0.0,2.626206878868021,0.1,0.0031549930572509766,0.06159090995788574,0.052960653,0.029474886,-213.797435605039,-1.0752504435262438,-1.0752504435262438,0.0,800,0.10930347442626953,0.0015123319987299997,0.0012053461340542544,61600,-214.99987128921444,0.0
77,0.6612410545349121,-214.9885353295174,1.359745266597808,-213.1497894378892,-216.6511012129069,0.0,1.7912681086245847,0.1,0.003871917724609375,0.06197166442871094,0.048199948,0.054081842,-213.91654557748683,-1.074443834768286,-1.074443834768286,0.0,800,0.09173130989074707,0.0011672357831454575,0.0009346445999576276,62400,-215.77572150407164,0.0
78,0.6856667995452881,-216.11662442058034,0.4142764874670376,-215.69539077974707,-216.74490383460463,0.0,1.5570277384209616,0.1,0.010292768478393555,0.05908536911010742,0.048024196,0.06468868,-214.1365534617962,-1.08004358162455,-1.08004358162455,0.0,800,0.08061861991882324,0.001268435900800418,0.0009152151099171449,63200,-216.36455146313597,0.0
79,0.6583924293518066,-216.22730576391461,0.11572379186295033,-216.09139484396846,-216.4114959093355,0.0,2.1815959738278567,0.1,0.0030655860900878906,0.060955047607421875,0.057965335,0.044847578,-214.34562869200806,-1.0805712207345466,-1.0805712207345466,0.0,800,0.0716712474822998,0.0009836737780052564,0.0007686248095971976,64000,-216.6139012967636,0.0
80,0.6715621948242188,-216.25079083514868,0.5303847930516777,-215.76749821675213,-217.14736180851475,0.0,2.091181156642073,0.1,0.043767690658569336,0.07996678352355957,0.054789018,0.04347753,-214.53614490632214,-1.0806723943602228,-1.0806723943602228,0.0,800,0.06752657890319824,0.0008023795620673713,0.0006042240466161106,64800,-216.54087219078687,0.0
81,0.6776158809661865,-216.2323580177414,0.4780681797001532,-215.8354492371974,-217.0295711246418,0.0,1.2837176968034107,0.1,0.006617546081542969,0.060904502868652344,0.043615352,0.07955031,-214.70576621746406,-1.080548684175508,-1.080548684175508,0.0,800,0.08235359191894531,0.0006665087759581262,0.0004993694560100101,65600,-216.38932993494186,0.0
82,0.6658742427825928,-215.97221123965681,0.34394675789520673,-215.41382025146862,-216.35021823936953,0.0,1.724906534717772,0.1,0.002957582473754883,0.062432050704956055,0.030882744,0.04128339,-214.83241071968334,-1.0792586186071027,-1.0792586186071027,0.0,800,0.0945436954498291,0.000550240866239107,0.00039623744765426996,66400,-216.36918459748154,0.0
83,0.6889984607696533,-215.28446065153196,0.34916910125813033,-214.90918968340898,-215.84163643030303,0.0,1.528118342306647,0.1,0.059046030044555664,0.38802242279052734,0.042133413,0.059542574,-214.8776157128682,-1.0758394822849582,-1.0758394822849582,0.0,800,0.12360644340515137,0.0003764388343959907,0.00028074298312977025,67200,-215.60110700056816,0.0
84,0.634160041809082,-215.38769075192636,0.4664859423483388,-214.8639439839005,-215.93936910480906,0.0,2.442130854038793,0.1,0.05547022819519043,0.873732328414917,0.045047022,0.03191526,-214.928623216774,-1.076351511682386,-1.076351511682386,0.0,800,0.726691722869873,0.00025976572799863915,0.00021419331138718416,68000,-215.7255832152313,0.0
85,0.6204605102539062,-215.23559013659627,0.29938646358969323,-214.77478655306578,-215.61088268769623,0.0,1.8935304242213749,0.1,0.0033719539642333984,0.06196904182434082,0.04686178,0.05227665,-214.95931990875624,-1.075575982684214,-1.075575982684214,0.0,800,0.14745831489562988,0.0002129996045907019,0.00016968109250600354,68800,-215.34419997276106,0.0
86,0.63625168800354,-215.19405355405493,0.210450194789871,-214.86593226464922,-215.4393883445906,0.0,1.9624150015094168,0.1,0.05493497848510742,0.3221158981323242,0.042881086,0.040335428,-214.98279327328612,-1.075341832508248,-1.075341832508248,0.0,800,0.06806111335754395,0.00016878282915772701,0.00013910312050440334,69600,-216.1930277085479,0.0
87,0.6585581302642822,-215.7808420414261,0.27011552512362325,-215.53062095151213,-216.21849401788043,0.0,1.8834660645868082,0.1,0.04900956153869629,0.12160730361938477,0.045759752,0.085218,-215.06259815010011,-1.0782859977917958,-1.0782859977917958,0.0,800,0.06863594055175781,0.0001832839007283722,0.00013827930217430145,70400,-215.45722202329713,0.0
88,0.6678361892700195,-215.40102309840125,0.8608942929799891,-214.1299175035192,-216.48159183640652,0.0,2.1818225754684994,0.1,0.05023765563964844,0.501021146774292,0.041559357,0.041592102,-215.09644064493025,-1.0763485173085785,-1.0763485173085785,0.0,800,0.16178059577941895,0.00015333074285038388,0.00012565587829960095,71200,-215.53818512465605,0.0
89,0.6737048625946045,-215.2617744554937,0.5389741184177357,-214.6031049597035,-216.0956493270696,0.0,2.137531165768443,0.1,0.05107259750366211,0.18485784530639648,0.038286265,0.03158734,-215.1129740259866,-1.0756894642937929,-1.0756894642937929,0.0,800,0.13529181480407715,0.00012199173050416096,0.00011128440981366173,72000,-214.66132412173934,0.0
90,0.6814208030700684,-214.42655093450887,0.7728730610570205,-213.56481085331214,-215.6705383357309,0.0,1.5660294846035954,0.1,0.05396628379821777,0.1624758243560791,0.04879425,0.069193006,-215.04433171683885,-1.0715637890087648,-1.0715637890087648,0.0,800,0.06747817993164062,0.00014035838946462146,9.310487113974695e-05,72800,-214.59457764729459,0.0
91,0.7024707794189453,-214.11773802351686,0.6153023830691741,-213.58118159437694,-215.16323515459737,0.0,1.9988924084667266,0.1,0.0033380985260009766,0.0613408088684082,0.04806398,0.041856747,-214.95167234750667,-1.0700069717139569,-1.0700069717139569,0.0,800,0.10085177421569824,0.00010869207099347108,9.158694856514252e-05,73600,-213.59935844750103,0.0
92,0.6798317432403564,-213.58012946610987,0.8558946131606885,-212.98250977531197,-215.05645260029647,0.0,2.0647540907019732,0.1,0.0038962364196777344,0.06139659881591797,0.048854645,0.046045616,-214.814518059367,-1.0673437093102192,-1.0673437093102192,0.0,800,0.08205127716064453,0.00011254412152609623,7.685695871469075e-05,74400,-214.13161491891864,0.0
93,0.677330493927002,-214.02220680566433,0.22222691305285444,-213.63748304676267,-214.16087722452642,0.0,1.8635835746383766,0.1,0.0034568309783935547,0.06301569938659668,0.04778666,0.04855248,-214.73528693399675,-1.0695594889112292,-1.0695594889112292,0.0,800,0.08186030387878418,4.8370832309363905e-05,4.373842973351884e-05,75200,-213.01909274842683,0.0
94,0.691389799118042,-213.28623362502552,0.9393206788046375,-211.84393899774852,-214.41239682568443,0.0,2.0013121303850596,0.1,0.0030825138092041016,0.0595698356628418,0.0346958,0.0319088,-214.59038160309964,-1.065921763515441,-1.065921763515441,0.0,800,0.06878018379211426,0.00013715502135978164,6.619098869051055e-05,76000,-212.91395605960943,0.0
95,0.6807587146759033,-212.781210181446,0.6321884478453861,-211.81682128618846,-213.47408940165832,0.0,2.4991762729634703,0.1,0.005990028381347656,0.06098508834838867,0.05086049,0.04174819,-214.40946446093426,-1.063393579986603,-1.063393579986603,0.0,800,0.08390998840332031,0.00010047489398363781,5.776319420123856e-05,76800,-212.89298438159437,0.0
96,0.6984691619873047,-212.8877392572776,0.4334898390729391,-212.47654840007667,-213.51689366862715,0.0,2.0473372018928004,0.1,0.006748676300048828,0.06041741371154785,0.042443763,0.0409853,-214.2572919405686,-1.0639422242662908,-1.0639422242662908,0.0,800,0.07061505317687988,5.938186114945251e-05,4.965296322115616e-05,77600,-212.0967306898034,0.0
97,1.0410246849060059,-212.2716710676136,0.29944875587269426,-211.90255724427732,-212.71201278419593,0.0,1.9188298109032353,0.1,0.006003379821777344,0.06621551513671875,0.04564163,0.050368518,-214.0587298532731,-1.0608924520746785,-1.0608924520746785,0.0,800,0.08047175407409668,5.4979456565795075e-05,4.83378795670741e-05,78400,-211.85295397997837,0.0
98,0.6500298976898193,-211.79844730672738,0.6610482536077726,-210.99640076293667,-212.8292229950549,0.0,1.974665035487585,0.1,0.0034418106079101562,0.08595991134643555,0.049581014,0.048891608,-213.83270159861854,-1.0585473396615401,-1.0585473396615401,0.0,800,0.07256317138671875,6.852802714498737e-05,5.154986507910838e-05,79200,-212.77776354687452,0.0
99,0.6452019214630127,-212.54494090795012,0.54438080750497,-211.9139471562298,-213.4135711683022,0.0,1.506768158339779,0.1,0.006037473678588867,0.061736345291137695,0.04553452,0.054426715,-213.70392552955173,-1.062259715299665,-1.062259715299665,0.0,800,0.07663726806640625,0.00010058309381331701,4.855173144491924e-05,80000,-212.83836489144815,0.0
100,0.6763641834259033,-213.04412187914235,0.7421077751547704,-212.1205674419354,-213.79374561389503,0.0,1.9516208491953768,0.1,0.04108262062072754,0.061899423599243164,0.045823544,0.052706905,-213.6379451645108,-1.0647367606495408,-1.0647367606495408,0.0,800,0.07839202880859375,9.700366521940882e-05,5.7494270776309105e-05,80800,-212.07019862816563,0.0
101,0.6759610176086426,-212.4056808528153,0.51263815296213,-211.60597971003455,-212.89341477951038,0.0,1.6817569973371456,0.1,0.01382756233215332,0.061856746673583984,0.04814865,0.061963372,-213.51471873334125,-1.061580327395152,-1.061580327395152,0.0,800,0.07230162620544434,3.5956149349038615e-05,3.150593485103615e-05,81600,-212.5777902794139,0.0
102,0.6864285469055176,-213.7472630065895,0.8462867171742533,-212.8154108739542,-215.1078364549178,0.0,2.4181611345650023,0.1,0.04988980293273926,0.07996964454650879,0.044083558,0.031545077,-213.53797316066607,-1.0682113821560308,-1.0682113821560308,0.0,800,0.0892176628112793,0.0001717578232483496,7.546845703419566e-05,82400,-211.4522744266424,0.0
103,0.6720542907714844,-211.34331000129325,1.0190689646016773,-209.9017302595797,-212.70925036224577,0.0,1.9734687795615735,0.1,0.02070021629333496,0.06131720542907715,0.046772413,0.042714924,-213.3185068447288,-1.0563561454312111,-1.0563561454312111,0.0,800,0.10516500473022461,0.00025105351039779266,7.319256376075648e-05,83200,-212.50181569296367,0.0
104,0.6845121383666992,-212.60846952342328,0.2664261094276955,-212.16416868237903,-212.86546751007035,0.0,2.3063733960428565,0.1,0.02286052703857422,0.06162667274475098,0.047931787,0.040724926,-213.24750311259825,-1.0625649142922258,-1.0625649142922258,0.0,800,0.07728981971740723,0.00013371130988626173,6.466145933391466e-05,84000,-212.430461353359,0.0
105,0.6951515674591064,-212.2896184699227,1.17681095255537,-210.69916375875695,-214.01951937703342,0.0,1.8451285235182278,0.1,0.010524749755859375,0.06254196166992188,0.047857687,0.044013634,-213.15171464833068,-1.0609518273468037,-1.0609518273468037,0.0,800,0.06984066963195801,0.00011601893821884657,7.790941767024122e-05,84800,-212.6182382232108,0.0
106,0.6869924068450928,-212.52409426889258,0.6036962788751181,-211.64084519995646,-213.34613943423233,0.0,2.040557724444504,0.1,0.0031499862670898438,0.06084942817687988,0.0438252,0.053468138,-213.08895261038685,-1.0620646969396519,-1.0620646969396519,0.0,800,0.08977723121643066,7.052572992035244e-05,5.994258416798422e-05,85600,-211.46158210557,0.0
107,0.6905426979064941,-212.16017233233785,0.9120618148935287,-210.9760274867486,-213.49778112028562,0.0,2.4339778974117965,0.1,0.04876899719238281,0.08729934692382812,0.051166847,0.04726344,-212.99607458258197,-1.0602995411873484,-1.0602995411873484,0.0,800,0.06951189041137695,7.712949158222846e-05,5.931945958571775e-05,86400,-212.82927398986251,0.0
108,0.6946620941162109,-213.04330155956296,0.9752090690215908,-212.08388864658232,-214.25134507120916,0.0,1.3454605314801484,0.1,0.015109777450561523,0.06248593330383301,0.04449843,0.067986205,-213.0007972802801,-1.0646780972836798,-1.0646780972836798,0.0,800,0.09945821762084961,0.00010071650549839073,7.428081583966758e-05,87200,-212.02300739901594,0.0
109,0.7130722999572754,-212.1226147191974,1.0229480729900968,-210.79194496284336,-213.6490004381168,0.0,2.1334152607955987,0.1,0.037488460540771484,0.06139039993286133,0.051437225,0.04662736,-212.91297902417182,-1.0601066783799409,-1.0601066783799409,0.0,800,0.08708548545837402,0.00010932203075316333,7.975586447392906e-05,88000,-211.54902552147936,0.0
110,0.7020468711853027,-211.63439948616133,0.37326894856214804,-211.0064012103095,-211.98857632406205,0.0,2.1441916808298687,0.1,0.027769804000854492,0.06565237045288086,0.044050664,0.043520708,-212.7851210703708,-1.0576908158212583,-1.0576908158212583,0.0,800,0.07960319519042969,4.0180698788975975e-05,3.330314403075625e-05,88800,-211.32178556969745,0.0
111,0.7093057632446289,-211.1119995248651,0.9293069820203967,-209.9123966387576,-212.33918968445377,0.0,1.9185260958937433,0.1,0.003039121627807617,0.060451507568359375,0.048183147,0.048685025,-212.61780891582023,-1.0551479499400225,-1.0551479499400225,0.0,800,0.07617616653442383,6.360779939602505e-05,5.228481104918324e-05,89600,-211.74409144694414,0.0
112,0.6632637977600098,-211.25997679434334,0.626694658665926,-210.55617563994818,-212.02189556104724,0.0,1.9239246644474763,0.1,0.023394346237182617,0.06368279457092285,0.04491706,0.045797177,-212.48202570367255,-1.0558376610725508,-1.0558376610725508,0.0,800,0.08398914337158203,3.8132591307929047e-05,3.952000987491906e-05,90400,-212.12749500303119,0.0
113,0.6742584705352783,-212.11198951223895,0.28752951622402284,-211.8290026563788,-212.59239579281555,0.0,2.1857358188081712,0.1,0.0032646656036376953,0.06362628936767578,0.045644537,0.045263838,-212.4450220845292,-1.0600516942805478,-1.0600516942805478,0.0,800,0.08266139030456543,9.805580763444014e-05,3.4291566334841505e-05,91200,-210.49549737530972,0.0
114,0.7757971286773682,-210.8012405962329,0.6421835387052963,-210.22609158268898,-211.8905594244639,0.0,2.40324369717795,0.1,0.03752779960632324,0.06398725509643555,0.050878588,0.03988943,-212.28064393569957,-1.0536231988651423,-1.0536231988651423,0.0,800,0.10219573974609375,6.436649229803915e-05,3.2656369095244386e-05,92000,-209.2348169539974,0.0
115,0.6865670680999756,-209.61181734644546,0.6727057789687361,-208.45202902073788,-210.06377703919864,0.0,1.8686168332501119,0.1,0.04880881309509277,0.12175941467285156,0.048398696,0.062893026,-212.01376127677418,-1.047756146225631,-1.047756146225631,0.0,800,0.07365727424621582,8.548280075987003e-05,5.0538181769642425e-05,92800,-208.3409052580191,0.0
116,0.7060654163360596,-209.40020245434076,0.6769265810135309,-208.538761068452,-210.4211361183177,0.0,1.76459060661334,0.1,0.01761484146118164,0.09589672088623047,0.046662264,0.044393416,-211.75240539453085,-1.0467461906837148,-1.0467461906837148,0.0,800,0.11347627639770508,6.381356588948945e-05,4.967663972913574e-05,93600,-207.69192447337085,0.0
117,0.7046198844909668,-208.06633659628744,0.9204919835278585,-206.95146153987412,-209.3384909766575,0.0,2.234408017277685,0.1,0.03261399269104004,0.06087470054626465,0.04715686,0.04342263,-211.3837985147065,-1.0401560547892579,-1.0401560547892579,0.0,800,0.07492971420288086,0.00011138705019226381,6.157682770724975e-05,94400,-206.70168660294948,0.0
118,0.6934778690338135,-208.23774848396926,0.7637811743292406,-207.40392722690572,-209.13143981146382,0.0,1.4303675297845582,0.1,0.00302886962890625,0.061443328857421875,0.0553434,0.05579813,-211.0691935116328,-1.04092786042323,-1.04092786042323,0.0,800,0.08141565322875977,4.637948675788664e-05,3.2877123613473865e-05,95200,-205.13240249914077,0.0
119,0.7028992176055908,-206.59294749628015,0.9598803912418838,-205.70407367347724,-208.14271593425732,0.0,2.3217137265486403,0.1,0.010687589645385742,0.06312084197998047,0.05285873,0.038684513,-210.62156891009755,-1.0328091953538594,-1.0328091953538594,0.0,800,0.07543683052062988,0.00017900218156017148,7.518923880658113e-05,96000,-205.29988907835732,0.0
120,0.696577787399292,-206.490359571249,0.6255623595378335,-205.6375153743603,-207.14050141320226,0.0,2.407401663378761,0.1,0.003047943115234375,0.06115555763244629,0.04593434,0.04019717,-210.2084479762127,-1.0323039876257964,-1.0323039876257964,0.0,800,0.08502459526062012,5.361534888342607e-05,2.7878687251682476e-05,96800,-205.87034938962816,0.0
121,0.7127187252044678,-207.18519193816167,0.45275282045056864,-206.60420310791304,-207.86327944408492,0.0,2.044069424521419,0.1,0.03304409980773926,0.06291341781616211,0.041684657,0.041506555,-209.90612237240762,-1.035800423500449,-1.035800423500449,0.0,800,0.07693004608154297,3.629985151744127e-05,3.7020607267025336e-05,97600,-207.18572645100303,0.0
122,0.7074840068817139,-208.44943876422911,0.4353883221036475,-207.95984522503315,-209.08845712782593,0.0,1.8464297825019698,0.1,0.025194406509399414,0.05980730056762695,0.049028073,0.09918703,-209.7604540115898,-1.0419470587632953,-1.0419470587632953,0.0,800,0.08682107925415039,0.0001756382904984449,8.460565886344645e-05,98400,-208.6606410722561,0.0
123,0.7181618213653564,-209.15230448774057,1.2934360486468814,-207.80378716680192,-210.58742293244325,0.0,2.3164458818993383,0.1,0.04867100715637207,0.07237052917480469,0.05178678,0.04198856,-209.69963905920486,-1.0453619574934745,-1.0453619574934745,0.0,800,0.26905059814453125,9.774638545519602e-05,7.020720499494383e-05,99200,-207.94638465613698,0.0
124,0.7155077457427979,-207.72675684382872,0.6274587255421179,-206.83020483387105,-208.44651165039727,0.0,2.0940698888411835,0.1,0.003122091293334961,0.08666372299194336,0.051486243,0.04478588,-209.50235083766725,-1.0383698165622028,-1.0383698165622028,0.0,800,0.1043701171875,7.972625531293818e-05,4.649332436514872e-05,100000,-208.10587721402547,0.0
125,0.6746826171875,-207.43542568547602,0.83281636741635,-206.56194256402514,-208.28627384247696,0.0,1.419118556798261,0.1,0.003226757049560547,0.062162160873413086,0.028706795,0.049319863,-209.29565832244813,-1.0368923142650628,-1.0368923142650628,0.0,800,0.07958269119262695,6.401864501377675e-05,4.912695453898565e-05,100800,-207.5932873813846,0.0
126,0.6736431121826172,-208.0800965050413,1.7088423959088046,-206.5871886827402,-210.77726197775118,0.0,1.6155879573059189,0.1,0.017016172409057617,0.0621333122253418,0.037028443,0.041838367,-209.17410214070748,-1.0400610063863758,-1.0400610063863758,0.0,800,0.07307219505310059,0.00014651029345048473,0.00011260347974990733,101600,-207.08399928752394,0.0
127,0.7003147602081299,-207.21391455237222,0.5638598850117797,-206.36211910124203,-207.94681063947374,0.0,2.26570147179703,0.1,0.036299943923950195,0.06313467025756836,0.047200985,0.043702528,-208.97808338187394,-1.035794558192733,-1.035794558192733,0.0,800,0.08494949340820312,6.98808959202746e-05,3.3968423614687725e-05,102400,-208.60075074244278,0.0
128,0.6839537620544434,-207.6796317509383,1.0594175032366198,-206.6892209311511,-209.46002210498966,0.0,1.32687876158402,0.1,0.0032129287719726562,0.061762332916259766,0.050572213,0.060673933,-208.84823821878038,-1.0381173714889034,-1.0381173714889034,0.0,800,0.07512640953063965,9.672923334020824e-05,7.412907068007112e-05,103200,-206.7364214218796,0.0
129,0.6902410984039307,-207.70133793711895,0.4589139657638077,-207.3469504546534,-208.48670039786788,0.0,1.7739202675759433,0.1,0.0032536983489990234,0.08688545227050781,0.05325161,0.06863932,-208.73354819061424,-1.0382478924856897,-1.0382478924856897,0.0,800,0.07271480560302734,6.510293522511237e-05,5.4025774995479384e-05,104000,-207.85118067348552,0.0
130,0.7178876399993896,-207.7550364311594,0.733005754015,-206.7204445942903,-208.76767638102191,0.0,1.8968850858769108,0.1,0.0362699031829834,0.06221771240234375,0.052032277,0.04794296,-208.63569701466875,-1.0385469979949142,-1.0385469979949142,0.0,800,0.07917380332946777,7.15346928610258e-05,3.945423145616745e-05,104800,-206.11451938208975,0.0
131,0.7073922157287598,-206.89693218275784,0.8258240233242967,-205.82674289320886,-208.13425353659449,0.0,1.7219636005283758,0.1,0.0030868053436279297,0.07306671142578125,0.047950506,0.09273063,-208.46182053147766,-1.0343224630707875,-1.0343224630707875,0.0,800,0.07432198524475098,7.389119381356719e-05,6.405584699130601e-05,105600,-206.27640933168223,0.0
132,0.7147114276885986,-206.28465240992045,0.3601470118126673,-205.66368483516385,-206.52191243415115,0.0,2.316883934359997,0.1,0.040099382400512695,0.062085866928100586,0.044596326,0.0410931,-208.24410371932194,-1.031299449054575,-1.031299449054575,0.0,800,0.07649707794189453,3.138982583327896e-05,2.6243915202898942e-05,106400,-207.37547624942258,0.0
133,0.7135496139526367,-207.8017984564146,0.7435369971997556,-206.64627836648822,-208.6575520845887,0.0,1.6494647734892784,0.1,0.04807853698730469,0.06881165504455566,0.048128746,0.065523006,-208.1998731930312,-1.0387926563066228,-1.0387926563066228,0.0,800,0.07331252098083496,9.382598355432727e-05,3.886759689449269e-05,107200,-206.27699548370677,0.0
134,0.7339363098144531,-206.77622729151997,1.0412260517822745,-205.280805478035,-208.12746186046087,0.0,2.07043799385173,0.1,0.04932141304016113,0.10817575454711914,0.04439376,0.044249143,-208.0575086028801,-1.033777187640894,-1.033777187640894,0.0,800,0.07816743850708008,0.000156569967714524,8.205812545467052e-05,108000,-205.94819948350968,0.0
135,0.7371385097503662,-206.36988989120928,0.2187166075995884,-206.05411716708932,-206.6080416611963,0.0,2.0871652574682433,0.1,0.0087127685546875,0.06378555297851562,0.03887603,0.034580957,-207.888746731713,-1.031762715897382,-1.031762715897382,0.0,800,0.07088398933410645,9.120679431073208e-05,2.7648651106637485e-05,108800,-205.68745540351765,0.0
136,0.7488534450531006,-207.11764672198746,0.6343051174691607,-206.19720976826557,-207.84881531249084,0.0,1.6249524512738702,0.1,0.050911903381347656,0.09996867179870605,0.04703918,0.05741242,-207.81163673074045,-1.035399299706337,-1.035399299706337,0.0,800,0.07397341728210449,7.737444685237148e-05,3.9990715261290444e-05,109600,-205.48960328072212,0.0
137,0.7398393154144287,-206.4676937933026,0.7370587518041255,-205.60386384782151,-207.43484306522342,0.0,1.8233989999300113,0.1,0.05109214782714844,0.08272314071655273,0.04705402,0.043684263,-207.67724243699666,-1.0322692507285518,-1.0322692507285518,0.0,800,0.09225153923034668,5.7998569489355897e-05,3.372575433077695e-05,110400,-205.27172754033415,0.0
138,0.7485828399658203,-206.3041717511205,0.549242260489035,-205.57917245300413,-207.12630759455294,0.0,2.2270488889444833,0.1,0.0032150745391845703,0.06342530250549316,0.055100206,0.036313593,-207.53993536840906,-1.031504963500464,-1.031504963500464,0.0,800,0.09933757781982422,9.823211502806471e-05,4.861014919941685e-05,111200,-205.61532567365145,0.0
139,0.6964457035064697,-206.75087616555265,0.7274371143874805,-205.98805422361872,-207.84872387519883,0.0,1.85810681443878,0.1,0.025370121002197266,0.06343913078308105,0.050598547,0.04655838,-207.4610294481234,-1.0336488461963866,-1.0336488461963866,0.0,800,0.08526754379272461,6.385922378418885e-05,3.697107475407125e-05,112000,-205.1027180495271,0.0
140,0.7016959190368652,-205.78636419501902,0.3092633660886395,-205.3375989210454,-206.19279924592186,0.0,2.0372938996175396,0.1,0.003213167190551758,0.06043529510498047,0.04711214,0.052546144,-207.29356292281295,-1.0289057171306761,-1.0289057171306761,0.0,800,0.07642316818237305,7.461899429835805e-05,2.0328104777611835e-05,112800,-204.67246164579095,0.0
141,0.7170414924621582,-205.24994052185346,0.2820048361630024,-204.9707274414915,-205.62891889433425,0.0,2.068658506878756,0.1,0.003145933151245117,0.06228017807006836,0.025447395,0.029317714,-207.089200682717,-1.026198767768955,-1.026198767768955,0.0,800,0.11084198951721191,0.00013159696933858685,5.316019929840891e-05,113600,-204.71268119043853,0.0
142,0.7189090251922607,-205.2944077463914,0.3638919634549915,-204.84539631593054,-205.76595276295635,0.0,2.5284765046188924,0.1,0.019179582595825195,0.06049036979675293,0.041758522,0.033736907,-206.90972138908444,-1.0263755242464039,-1.0263755242464039,0.0,800,0.09007835388183594,0.00019436197316094326,7.357014349194476e-05,114400,-204.53177496830344,0.0
143,0.7396585941314697,-205.21958804759112,0.3054616853354197,-204.8279505779831,-205.52999742315274,0.0,1.6952662749879879,0.1,0.022800445556640625,0.06390190124511719,0.048195112,0.055908173,-206.7407080549351,-1.0260400757775154,-1.0260400757775154,0.0,800,0.07596230506896973,0.0001037046406631297,8.96644203608108e-05,115200,-204.3670711226063,0.0
144,0.7180957794189453,-205.411847459471,0.42658591285174413,-204.8547594768796,-206.02533692905317,0.0,1.3840820856503293,0.1,0.01989579200744629,0.06392979621887207,0.04702769,0.07238148,-206.60782199538872,-1.027078274988842,-1.027078274988842,0.0,800,0.07118821144104004,7.364196576299213e-05,4.463336572811151e-05,116000,-204.04046311006945,0.0
145,0.7240538597106934,-205.71186646559218,0.4248248942453069,-205.1554819054381,-206.2421544094606,0.0,1.8304585706117504,0.1,0.0030298233032226562,0.06058812141418457,0.05027809,0.044039935,-206.5182264424091,-1.028550833224914,-1.028550833224914,0.0,800,0.07008600234985352,7.098288104826575e-05,3.1838944603990604e-05,116800,-204.09896805724324,0.0
146,0.7631638050079346,-205.23274553017373,0.7122137581234138,-204.63751095031617,-206.41088520399146,0.0,1.9009158887533788,0.1,0.027546405792236328,0.07018876075744629,0.050568916,0.03758707,-206.38967835118558,-1.02610467914749,-1.02610467914749,0.0,800,0.07754826545715332,9.425584789689072e-05,6.699680685781192e-05,117600,-203.50291484707645,0.0
147,0.7456080913543701,-204.77438859750984,0.29614599833335314,-204.32778672557043,-205.12011864859082,0.0,1.686634052980323,0.1,0.0030608177185058594,0.06228351593017578,0.04776227,0.05430396,-206.228149375818,-1.0238676414906898,-1.0238676414906898,0.0,800,0.07390499114990234,7.967153753706158e-05,2.7222555929109772e-05,118400,-203.3839834444889,0.0
148,0.7524416446685791,-204.38194969170917,0.22471664943245942,-204.1876510211324,-204.75731000535492,0.0,1.734407363161879,0.1,0.05533647537231445,0.08288407325744629,0.043851603,0.051961765,-206.0435294074071,-1.0219076393503053,-1.0219076393503053,0.0,800,0.07403016090393066,0.0002844199261924604,0.00010661415884583531,119200,-204.00852347182163,0.0
149,0.7795093059539795,-204.70819430828925,0.05735971614376802,-204.63891238236366,-204.79489469588927,0.0,1.690273244379056,0.1,0.02416062355041504,0.07696247100830078,0.048873674,0.036036663,-205.90999589749532,-1.0235608627757544,-1.0235608627757544,0.0,800,0.08050966262817383,0.0001473411153458282,7.374954952405215e-05,120000,-204.1144002400724,0.0
150,0.7527163028717041,-204.2659727770624,0.16722490340919532,-204.00636350741925,-204.4693036176098,0.0,1.9876611731636065,0.1,0.003056764602661133,0.06340742111206055,0.048653148,0.03865751,-205.74559358545204,-1.021243250087109,-1.021243250087109,0.0,800,0.0728759765625,0.0001250023166186701,4.5658137503247126e-05,120800,-204.2013289507886,0.0
151,0.7669689655303955,-204.530998398052,0.149323162795309,-204.38096757413078,-204.69594541583191,0.0,1.8448622743612806,0.1,0.005178928375244141,0.06073141098022461,0.049664736,0.057471685,-205.62413406671203,-1.0225253787267448,-1.0225253787267448,0.0,800,0.09081792831420898,8.446564692310585e-05,5.416583444398254e-05,121600,-204.2721535512616,0.0
152,0.7093677520751953,-204.57862107148924,0.1426868002692496,-204.41773760015417,-204.74871249345253,0.0,1.7482659433595147,0.1,0.0173184871673584,0.061930179595947266,0.03889849,0.04368912,-205.51958276718977,-1.0227572204777993,-1.0227572204777993,0.0,800,0.09635686874389648,8.923139057836785e-05,5.471748807258581e-05,122400,-204.56030415629087,0.0
153,0.7151689529418945,-204.8691852654074,0.21713333952001426,-204.66677221764644,-205.21521717805277,0.0,1.6674173552558627,0.1,0.006465435028076172,0.06321525573730469,0.049275197,0.06347584,-205.45454301701153,-1.0241975779975219,-1.0241975779975219,0.0,800,0.08332610130310059,4.745781564571273e-05,3.624152276734961e-05,123200,-204.5378912240092,0.0
154,0.7205555438995361,-204.99044177621178,0.32103646006202013,-204.60512990788703,-205.32160610591757,0.0,1.5667406875887036,0.1,0.01510930061340332,0.06163978576660156,0.05296435,0.05841043,-205.40813289293158,-1.0248057958232928,-1.0248057958232928,0.0,800,0.07441496849060059,3.469699131926133e-05,2.947850948492057e-05,124000,-204.43762824824947,0.0
155,0.7396869659423828,-204.70843665557226,0.19503495479078925,-204.48816920495122,-205.02290936368794,0.0,1.9275347475084164,0.1,0.004275321960449219,0.06250882148742676,0.045446027,0.04954685,-205.33816326919566,-1.023407170490596,-1.023407170490596,0.0,800,0.07258057594299316,4.1405493049289257e-05,2.6919065563444533e-05,124800,-204.5100073733679,0.0
156,0.7375278472900391,-204.82069347274367,0.15050403658323955,-204.6119722143976,-205.03140944278778,0.0,1.663237886510091,0.1,0.019060134887695312,0.06200766563415527,0.048885345,0.06742616,-205.2864162895505,-1.0239699727587723,-1.0239699727587723,0.0,800,0.07458281517028809,5.656490288572757e-05,4.010595175248887e-05,125600,-204.7681483495929,0.0
157,0.7534384727478027,-205.24412524209376,0.33007673262159976,-204.84105259908299,-205.70452938880064,0.0,1.6139569957358342,0.1,0.03665733337402344,0.07259178161621094,0.049304754,0.051612258,-205.2821871848048,-1.0260729026736481,-1.0260729026736481,0.0,800,0.09670782089233398,4.270239844137006e-05,2.2288470890182737e-05,126400,-204.53677356368203,0.0
158,0.7428309917449951,-204.7453969050164,0.06002690114676862,-204.66543219157907,-204.81788479463668,0.0,1.6602861998403993,0.1,0.0031914710998535156,0.06266164779663086,0.05158397,0.047096867,-205.22850815682597,-1.023579293099631,-1.023579293099631,0.0,800,0.07758569717407227,2.717023068117757e-05,1.5082770654229622e-05,127200,-204.7718969333454,0.0
159,0.7527432441711426,-204.9637474835446,0.14505824002644005,-204.82360810913642,-205.2068599023231,0.0,1.5499658016281193,0.1,0.044959068298339844,0.06483101844787598,0.04643687,0.0626466,-205.20203208949783,-1.0246695466194315,-1.0246695466194315,0.0,800,0.08220648765563965,2.1429594031635196e-05,1.984449307774144e-05,128000,-205.2834653075845,0.0
160,0.7569637298583984,-205.70595007606775,0.17649060561545582,-205.56474511512033,-206.00815180954456,0.0,2.255610829169204,0.1,0.010484457015991211,0.062215328216552734,0.047170363,0.040013053,-205.25242388815485,-1.028386341901315,-1.028386341901315,0.0,800,0.0823371410369873,4.8431831730923925e-05,2.0056841600538804e-05,128800,-205.69599363486978,0.0
161,0.7936556339263916,-206.02705604861373,0.26300983973316544,-205.69152493240207,-206.4171971332666,0.0,2.026343458206272,0.1,0.010001182556152344,0.06183624267578125,0.05054147,0.043061685,-205.32988710420074,-1.0299828271438392,-1.0299828271438392,0.0,800,0.0775294303894043,6.039416193353449e-05,1.9729581829205705e-05,129600,-205.56052960855243,0.0
162,0.7550427913665771,-205.5822483894023,0.239748527249518,-205.20255992578188,-205.85689629869884,0.0,1.7058474420889922,0.1,0.020670175552368164,0.06351399421691895,0.049145166,0.056169506,-205.35512323272093,-1.0277940182784167,-1.0277940182784167,0.0,800,0.0947420597076416,2.5630209122558114e-05,1.5127355408878166e-05,130400,-205.71799766117113,0.0
163,0.7675840854644775,-205.72021790888974,0.22671277157651523,-205.43606833555862,-206.06231144271752,0.0,1.8396445206282905,0.1,0.05100250244140625,0.08825135231018066,0.049510583,0.050561476,-205.39163270033782,-1.0285450316664537,-1.0285450316664537,0.0,800,0.08612179756164551,2.5244259645977046e-05,1.3788038053960337e-05,131200,-205.62226505194636,0.0
164,0.7552883625030518,-205.68026482066938,0.05960786259410548,-205.60523525532798,-205.76081813477256,0.0,1.4421243443543226,0.1,0.003255605697631836,0.06015419960021973,0.04751035,0.047208603,-205.420495912371,-1.0282670549357822,-1.0282670549357822,0.0,800,0.07963800430297852,3.0065447127796273e-05,1.3848858927914859e-05,132000,-205.53745419557103,0.0
165,0.7558205127716064,-205.93794929496536,0.2525693767786274,-205.76288584949424,-206.37399712316085,0.0,0.9973874016961353,0.1,0.04854130744934082,0.0754399299621582,0.04966651,0.05388856,-205.47224125063045,-1.0295988110631784,-1.0295988110631784,0.0,800,0.09451627731323242,2.0075446096551466e-05,1.1472471641564297e-05,132800,-205.20466672247494,0.0
166,0.7457611560821533,-205.71311642508863,0.12870305973097945,-205.5652706497562,-205.89901865283719,0.0,1.4679894491743712,0.1,0.012401819229125977,0.06660246849060059,0.052002463,0.0633489,-205.49632876807627,-1.0284722255880197,-1.0284722255880197,0.0,800,0.07389307022094727,1.6702693623449537e-05,1.3017440507111402e-05,133600,-205.0503141239283,0.0
167,0.7479407787322998,-205.88329623892471,0.28778133900424124,-205.48482546963277,-206.19748095597993,0.0,2.3434344391763515,0.1,0.030234098434448242,0.06422829627990723,0.04723608,0.043052033,-205.5350255151611,-1.0293748608594246,-1.0293748608594246,0.0,800,0.0747981071472168,3.263588934841129e-05,2.2525400563064318e-05,134400,-205.9143083873831,0.0
168,0.7624962329864502,-205.99877445045752,0.28942340710246,-205.68147438014762,-206.42814980076278,0.0,1.9863840727135729,0.1,0.0037126541137695312,0.11944293975830078,0.052040152,0.04116254,-205.58140040869074,-1.030004086502089,-1.030004086502089,0.0,800,0.08495473861694336,2.8802335720349964e-05,2.1291617081533245e-05,135200,-206.8733969917416,0.0
169,0.7423543930053711,-205.89761202237622,0.2535307918071174,-205.6510383225058,-206.28368995997707,0.0,1.8170573312888756,0.1,0.003216266632080078,0.06180310249328613,0.050740868,0.047116984,-205.6130215700593,-1.0295241994648103,-1.0295241994648103,0.0,800,0.0831458568572998,1.7195972972638937e-05,1.4791576829975742e-05,136000,-208.01070088908986,0.0
170,0.7515571117401123,-205.8689157188548,0.46520096279706924,-205.33823834387468,-206.47788595317596,0.0,2.005696130940417,0.1,0.04516005516052246,0.06455230712890625,0.046797622,0.04488911,-205.63861098493885,-1.0293822195065665,-1.0293822195065665,0.0,800,0.1093909740447998,1.9944094594753875e-05,1.7784612282745742e-05,136800,-209.30035236718268,0.0
171,0.7912578582763672,-205.77679727391,0.2595846027503282,-205.49912498075352,-206.17618460780997,0.0,1.9976375008267617,0.1,0.012888431549072266,0.06212329864501953,0.044513468,0.054393936,-205.65242961383598,-1.0288797850795834,-1.0288797850795834,0.0,800,0.08752727508544922,5.2008673799916755e-05,3.065667285955411e-05,137600,-211.88328316309517,0.0
172,0.7775111198425293,-205.77966796289968,0.27996617617792485,-205.3433333199197,-206.08826125084863,0.0,1.3185043496854962,0.1,0.05229377746582031,0.08682060241699219,0.03936289,0.057119653,-205.66515344874233,-1.028914859443329,-1.028914859443329,0.0,800,0.0804891586303711,1.8025810283390787e-05,1.2046192224855848e-05,138400,-213.67423541456904,0.0
173,0.7808520793914795,-205.68302661573887,0.3962855479995801,-205.2302790099717,-206.31973786903396,0.0,1.5907904265315045,0.1,0.029382944107055664,0.06335926055908203,0.048587292,0.07039055,-205.66694076544198,-1.0284357688471322,-1.0284357688471322,0.0,800,0.08755874633789062,1.7603859668768633e-05,1.7047032986548698e-05,139200,-214.16064080971827,0.0
174,0.7893030643463135,-206.94495152562223,1.4552340989123833,-205.4835881345719,-209.0036559545654,0.0,1.7855890272858947,0.1,0.02784872055053711,0.06437468528747559,0.044034977,0.048505638,-205.79474184146,-1.0345372722626571,-1.0345372722626571,0.0,800,0.07207965850830078,0.00013945119352359365,9.647082531952103e-05,140000,-214.52039950608795,0.0
175,0.8129031658172607,-206.9462818153239,1.479369268139747,-205.92881103321045,-209.50179797610923,0.0,1.7804518475160513,0.1,0.01058816909790039,0.0611419677734375,0.04736743,0.05833954,-205.9098958388464,-1.0345531945566186,-1.0345531945566186,0.0,800,0.07324647903442383,9.431770581044568e-05,8.410974488283784e-05,140800,-214.5629222308089,0.0
176,0.812542200088501,-206.0430053248913,0.1280883065575925,-205.90763963002595,-206.21946410489963,0.0,1.241916173063054,0.1,0.003114938735961914,0.0665428638458252,0.047076885,0.061575186,-205.9232067874509,-1.0301540485599172,-1.0301540485599172,0.0,800,0.0825953483581543,2.8968416368016164e-05,1.2215905381062941e-05,141600,-214.06834640529055,0.0
177,0.8042898178100586,-206.09683399137236,0.20595151665432718,-205.76626558709427,-206.33330846542665,0.0,1.0145588335846074,0.1,0.006446361541748047,0.06140017509460449,0.053629607,0.08940616,-205.94056950784307,-1.0304590365929396,-1.0304590365929396,0.0,800,0.08703446388244629,1.8258463416388858e-05,1.4819289061829157e-05,142400,-213.78362418354428,0.0
178,0.7566800117492676,-207.31848958012452,0.9590575121220487,-206.05392467050262,-208.3625807440859,0.0,1.2701166363079128,0.1,0.05752825736999512,0.09037542343139648,0.04994363,0.099672176,-206.0783615150712,-1.0363325309585112,-1.0363325309585112,0.0,800,0.09263944625854492,0.00011972643420674639,4.1827054183565564e-05,143200,-212.47183101161713,0.0
179,0.7495002746582031,-206.73003663558552,0.77399936152614,-205.51356337674954,-207.62348338244556,0.0,1.545797546149447,0.1,0.019522428512573242,0.0630195140838623,0.049389426,0.055406477,-206.14352902712264,-1.0334618270330433,-1.0334618270330433,0.0,800,0.0838167667388916,3.632758121263464e-05,3.5816281972251006e-05,144000,-213.06460187955497,0.0
180,0.7585668563842773,-208.97443731062089,1.0000374691771914,-207.75979452480732,-210.47223760866828,0.0,1.5832421577185607,0.1,0.003183603286743164,0.07475614547729492,0.049578786,0.063256204,-206.42661985547247,-1.0444123486143158,-1.0444123486143158,0.0,800,0.08200860023498535,0.00019151337377682477,6.023297594811041e-05,144800,-213.0348032010595,0.0
181,0.7470245361328125,-209.33899199390513,0.6857117887961028,-208.43604135082396,-210.3572201040118,0.0,1.484742260888108,0.1,0.004316806793212891,0.060166120529174805,0.047657426,0.06520769,-206.71785706931573,-1.0461681622338102,-1.0461681622338102,0.0,800,0.07887053489685059,4.703833716155927e-05,3.971833587563338e-05,145600,-213.74754782620994,0.0
182,0.7622334957122803,-209.8220953561702,1.5895649494181052,-207.74961041971503,-211.48139067237756,0.0,1.9881676825580563,0.1,0.036397457122802734,0.06372380256652832,0.045558847,0.046857383,-207.02828089800119,-1.048549566221555,-1.048549566221555,0.0,800,0.08092927932739258,0.00010393555195122294,0.00010082634590678763,146400,-213.86063945724587,0.0
183,0.7814090251922607,-211.9545379221412,1.289532001119752,-210.15869859994777,-213.76110360284324,0.0,1.293035966228586,0.1,0.0508882999420166,0.07821369171142578,0.04897137,0.07386735,-207.5209066004152,-1.0590458328695262,-1.0590458328695262,0.0,800,0.09039092063903809,0.0003362332280939986,0.00013592833066227962,147200,-213.9380530237238,0.0
184,0.8127453327178955,-211.40440094647522,1.152039268128586,-209.41094785598466,-212.1512809652938,0.0,1.6823246609078326,0.1,0.011680841445922852,0.06335020065307617,0.048799258,0.07777566,-207.9092560350212,-1.0563257390316962,-1.0563257390316962,0.0,800,0.09219622611999512,0.00010557556879998121,7.255032672613883e-05,148000,-212.95897390729635,0.0
185,0.776808500289917,-212.24005081697373,0.6018888360369005,-211.3667699818703,-213.06789505287472,0.0,1.8175271862653393,0.1,0.021318435668945312,0.07516741752624512,0.052093796,0.04981138,-208.34233551321648,-1.0602427734025042,-1.0602427734025042,0.0,800,0.07593774795532227,0.000602216193544904,0.00022729849372210207,148800,-213.07240047432154,0.0
186,0.8209562301635742,-211.07167971161394,0.7342941439498094,-210.24115382044423,-211.9765490462922,0.0,1.7659293541398542,0.1,0.019422054290771484,0.0614469051361084,0.046801668,0.044576783,-208.61526993305625,-1.0545972284158573,-1.0545972284158573,0.0,800,0.07737302780151367,0.0002625659557914438,0.00013734567333205432,149600,-212.55586826822227,0.0
187,0.8230373859405518,-212.48414295211694,0.7781532409254118,-211.27932763227892,-213.21583652206297,0.0,1.4718359894611026,0.1,0.010616064071655273,0.06485700607299805,0.05030383,0.056234494,-209.0021572349623,-1.061573492890604,-1.061573492890604,0.0,800,0.07600164413452148,0.0002794807497045944,0.000156258918969791,150400,-212.41797406461168,0.0
188,0.8403804302215576,-212.52806518564185,0.6412941622638852,-212.0252043393106,-213.62479225505396,0.0,1.355430717142925,0.1,0.0038619041442871094,0.06284785270690918,0.05152398,0.06269025,-209.3547480300303,-1.0616955759736801,-1.0616955759736801,0.0,800,0.11094355583190918,0.0002447021620604995,0.00020053136271460474,151200,-212.69610597060458,0.0
189,0.7664327621459961,-212.74870560078506,0.7381405794490817,-211.658285716829,-213.70339853698437,0.0,1.4141907404070748,0.1,0.004144430160522461,0.06496429443359375,0.04698348,0.0599053,-209.6941437871058,-1.0628113217784574,-1.0628113217784574,0.0,800,0.10491275787353516,0.0001599733524947031,0.00014658657183504336,152000,-212.42459136768676,0.0
190,0.7745165824890137,-212.73985249240835,0.46606402349831455,-212.09383411790137,-213.40860013392776,0.0,1.6864121905630816,0.1,0.04293632507324219,0.09609508514404297,0.04387539,0.046618592,-209.99871465763604,-1.0627592904075416,-1.0627592904075416,0.0,800,0.13016939163208008,0.00017823409444102853,0.0001438162034793203,152800,-212.10153306307097,0.0
191,0.7765467166900635,-212.51657055465665,0.8571256325262835,-211.0863969588346,-213.213087403473,0.0,2.2387141360205898,0.1,0.01057291030883789,0.06977486610412598,0.04947437,0.04177149,-210.25050024733812,-1.0616393106698854,-1.0616393106698854,0.0,800,0.0770256519317627,0.0001727956064594461,0.00015072011108939785,153600,-212.09183735716752,0.0
192,0.8092679977416992,-212.7330963783121,0.6762922074205303,-211.70948402916565,-213.54603725196242,0.0,2.0676116680742775,0.1,0.003921031951904297,0.06230902671813965,0.05274229,0.06110679,-210.4987598604355,-1.0625571079091403,-1.0625571079091403,0.0,800,0.08803677558898926,0.0005105061165124889,0.00032902640775398087,154400,-211.96221017907223,0.0
193,0.81549072265625,-212.0270404535587,0.4241755078660837,-211.54549124089067,-212.68871787491253,0.0,1.5566260000753185,0.1,0.03927421569824219,0.061959028244018555,0.04722824,0.089769036,-210.65158791974784,-1.0591362486978015,-1.0591362486978015,0.0,800,0.18616414070129395,0.00025859556150381374,0.00018720856765653822,155200,-211.71653734141213,0.0
194,0.8302910327911377,-211.075840861538,0.6744654596224406,-209.97147276006825,-211.79857476147467,0.0,1.6716210078559812,0.1,0.003305673599243164,0.06248283386230469,0.047347154,0.043821827,-210.69401321392687,-1.0543253859274961,-1.0543253859274961,0.0,800,0.07561469078063965,0.00026417826037094334,0.0001849349558490164,156000,-211.45726709529706,0.0
195,0.8454291820526123,-211.4239889739673,0.5808032287112138,-210.4741522840695,-212.04849544303647,0.0,2.1156957056842125,0.1,0.003126382827758789,0.061897993087768555,0.04422865,0.0548141,-210.7670107899309,-1.056055303980623,-1.056055303980623,0.0,800,0.07640886306762695,0.00021584227196876402,0.00018549360984732255,156800,-210.69430772009355,0.0
196,0.8161358833312988,-210.79287017434226,0.7112060081060179,-209.58841773845467,-211.32475878893337,0.0,1.6531407330633936,0.1,0.04840874671936035,0.09746932983398438,0.049497604,0.060190164,-210.76959672837205,-1.0530958109284707,-1.0530958109284707,0.0,800,0.09707331657409668,0.00022900399967086974,0.00011748402952885831,157600,-210.29336973348617,0.0
197,0.8381702899932861,-211.18303749689383,0.5837405069002846,-210.33164048463752,-211.89335420093082,0.0,1.6495778000700088,0.1,0.015009641647338867,0.06014823913574219,0.04873805,0.03632274,-210.81094080522422,-1.0549395709385576,-1.0549395709385576,0.0,800,0.07427573204040527,0.00016540041354606594,0.00013192636146738406,158400,-210.30532275056962,0.0
198,0.8150880336761475,-211.24873829004133,0.3376055406445491,-210.7071186587475,-211.57856426553548,0.0,2.5010430922970825,0.1,0.003337860107421875,0.06221365928649902,0.050929207,0.034870725,-210.85472055370596,-1.055202167027445,-1.055202167027445,0.0,800,0.07396483421325684,0.00014425064811801963,0.00010663539848631714,159200,-209.7790002454221,0.0
199,0.8310902118682861,-211.0622016235432,0.21575742148174748,-210.71519066569837,-211.2713620507625,0.0,1.9295778546276765,0.1,0.021010637283325195,0.06175422668457031,0.052910686,0.052286223,-210.8754686606897,-1.0542204538647972,-1.0542204538647972,0.0,800,0.08102655410766602,0.00016132107488807772,0.0001290154451688341,160000,-210.259844432627,0.0
200,0.7752470970153809,-210.98523301698154,0.7511742051941513,-209.77104282033196,-211.82013402421248,0.0,1.9295069345879556,0.1,0.0033121109008789062,0.06549668312072754,0.04957754,0.042192716,-210.88644509631888,-1.0539338254091057,-1.0539338254091057,0.0,800,0.07964086532592773,0.0001709732714309958,0.00011651815201932894,160800,-210.2526530023546,0.0
201,0.8268160820007324,-210.33639356247173,0.45260231099366444,-209.564647355107,-210.72234267852158,0.0,1.7265794558375527,0.1,0.005761146545410156,0.06302356719970703,0.051287323,0.05005493,-210.83143994293417,-1.0506997057497252,-1.0506997057497252,0.0,800,0.07384896278381348,0.0001162997316106894,9.418798492956915e-05,161600,-210.0443302920528,0.0
202,0.8112821578979492,-210.32415595031438,0.16527671211282471,-210.08957766572743,-210.48154509697753,0.0,1.9862073767448452,0.1,0.049855947494506836,0.06540250778198242,0.04598348,0.07598181,-210.7807115436722,-1.0506908863901685,-1.0506908863901685,0.0,800,0.08861589431762695,0.0001062516625329695,8.668847470265866e-05,162400,-210.79443182655777,0.0
203,0.8242650032043457,-209.77791946207554,0.2305426241332466,-209.48532755690897,-210.13030465636282,0.0,1.5296218978416138,0.1,0.017006635665893555,0.07672643661499023,0.052039962,0.070258036,-210.68043233551253,-1.0479093388455363,-1.0479093388455363,0.0,800,0.08068251609802246,9.652943436735584e-05,7.422946243885484e-05,163200,-210.72574875170744,0.0
204,0.8207907676696777,-210.32321574831766,0.40220198414459124,-209.76996826047233,-210.90675763051766,0.0,1.8428736775592622,0.1,0.012611150741577148,0.06373739242553711,0.047912065,0.22270617,-210.64471067679307,-1.0506668552694904,-1.0506668552694904,0.0,800,0.08201980590820312,0.00012151132683246285,0.00010298139848914845,164000,-210.41836270492945,0.0
205,0.8152086734771729,-209.7630130929184,0.5362176066577197,-209.23704259114967,-210.56163045034535,0.0,1.7963777356156625,0.1,0.05157470703125,0.08578300476074219,0.034893855,0.02915137,-210.5565409184056,-1.0478242933862338,-1.0478242933862338,0.0,800,0.08171701431274414,0.00010812347056008785,9.625394759103633e-05,164800,-209.8836560212558,0.0
206,0.8258531093597412,-210.72074261767818,0.8142689590530675,-209.66785142033407,-211.95014939934492,0.0,1.308630414081391,0.1,0.008086919784545898,0.06255006790161133,0.04674804,0.06384936,-210.57296108833287,-1.0526074867060442,-1.0526074867060442,0.0,800,0.08087491989135742,0.0002157848783656272,0.00014468203104535165,165600,-210.11350129752338,0.0
207,0.8507323265075684,-210.40418733206755,0.9987023208393586,-209.0642132126946,-211.85608496465696,0.0,1.9078867384483,0.1,0.039910316467285156,0.12401723861694336,0.045757927,0.05527857,-210.55608371270637,-1.0510265015850357,-1.0510265015850357,0.0,800,0.07507562637329102,0.00019474039440210895,0.00018490485568722895,166400,-209.81754026692127,0.0
208,0.8488900661468506,-210.08221857795456,0.7021473964824086,-209.3999145744077,-211.20981095270778,0.0,1.923463951296705,0.1,0.04486513137817383,0.06386375427246094,0.038229223,0.050149336,-210.5086971992312,-1.0495261897126604,-1.0495261897126604,0.0,800,0.0865640640258789,0.00013924978747343418,9.012416302801736e-05,167200,-210.05250203928463,0.0
209,0.8698527812957764,-209.79682585801027,0.23596306535881148,-209.51270427963294,-210.05002322119333,0.0,1.3617950405501213,0.1,0.03705406188964844,0.06134343147277832,0.052672517,0.072251424,-210.4375100651091,-1.0479433328181875,-1.0479433328181875,0.0,800,0.07967662811279297,7.709027255876903e-05,5.8369642311406275e-05,168000,-210.1557599360972,0.0
210,0.8593251705169678,-209.54094293843107,0.8722206367901247,-208.40976349177538,-210.56108016195714,0.0,2.1606014785048995,0.1,0.005243062973022461,0.08780908584594727,0.050854474,0.036676813,-210.3478533524413,-1.0466308035836727,-1.0466308035836727,0.0,800,0.08235979080200195,0.00012192439748070657,0.0001015537984260301,168800,-209.89345084733088,0.0
211,0.7945423126220703,-209.92283099950407,0.6570886974055808,-209.21443261311853,-210.70992201201284,0.0,1.3238105962997397,0.1,0.003389596939086914,0.06401348114013672,0.05277789,0.08195285,-210.30535111714758,-1.048488075341013,-1.048488075341013,0.0,800,0.08770895004272461,0.0001091434757982588,8.507581999667993e-05,169600,-209.65846600217347,0.0
212,0.8030738830566406,-209.3998312567856,1.0007766160378733,-208.3301275371255,-211.0413497795287,0.0,1.863124318326412,0.1,0.04823923110961914,0.1504497528076172,0.050095063,0.043509815,-210.2147991311114,-1.045953047419136,-1.045953047419136,0.0,800,0.09818696975708008,0.0001476133104732433,0.00013061904872573187,170400,-209.90251373696404,0.0
213,0.8108844757080078,-209.2107735572462,0.19488881792857732,-208.90823634784445,-209.45237217057542,0.0,1.7416173603644283,0.1,0.0059812068939208984,0.07202363014221191,0.042711332,0.05419161,-210.1143965737249,-1.045062285718454,-1.045062285718454,0.0,800,0.07459068298339844,9.120041007377928e-05,6.106208735239987e-05,171200,-210.3927697303102,0.0
214,0.8424429893493652,-210.52540696670346,0.728210729705604,-209.3495060539234,-211.2380245947178,0.0,1.3997036775248188,0.1,0.04298520088195801,0.0715944766998291,0.04764419,0.070110574,-210.15549761302276,-1.0514971922625034,-1.0514971922625034,0.0,800,0.07471346855163574,0.00023864938050677467,0.00010446258229690388,172000,-209.93018412542597,0.0
215,0.8196728229522705,-210.21672749435317,1.0463128747510495,-208.94212635938882,-211.7222182703668,0.0,1.7473371762920955,0.1,0.06245875358581543,0.15985321998596191,0.048927855,0.082983166,-210.1616206011558,-1.0499887420586327,-1.0499887420586327,0.0,800,0.07210421562194824,0.00013970292420643194,0.00012202265604143092,172800,-210.18991808498592,0.0
216,0.8418986797332764,-210.0180084752955,0.7191319279455071,-209.07447600147944,-211.0961757818864,0.0,2.4069351813041204,0.1,0.003225564956665039,0.0630497932434082,0.049801283,0.041002885,-210.14725938856978,-1.048965994602788,-1.048965994602788,0.0,800,0.08008265495300293,8.271595717392943e-05,7.910512391612038e-05,173600,-210.02998681021157,0.0
217,0.85494065284729,-210.43546871349236,0.41640835489018657,-209.916960264867,-210.85810046357676,0.0,2.090900159761951,0.1,0.031835317611694336,0.06161785125732422,0.050920576,0.045217026,-210.17608032106205,-1.051016018813406,-1.051016018813406,0.0,800,0.07100176811218262,5.876415099603779e-05,4.436679237699328e-05,174400,-209.61529868427291,0.0
218,0.8304593563079834,-209.2904798864932,1.4775457595226058,-207.38049828816042,-210.73051711886532,0.0,2.2627833487766615,0.1,0.014676809310913086,0.06487154960632324,0.052046794,0.044485774,-210.08752027760517,-1.0453838692550315,-1.0453838692550315,0.0,800,0.0849449634552002,0.00019947363462760002,0.00014602425412805727,175200,-209.9961221999292,0.0
219,0.8432581424713135,-209.9893323424439,0.7986413431154146,-208.70722387581523,-210.84338966034753,0.0,1.5829490655169185,0.1,0.005248546600341797,0.0674746036529541,0.05104361,0.06396212,-210.07770148408903,-1.048811116378575,-1.048811116378575,0.0,800,0.07320046424865723,8.73422733826501e-05,7.447257423230488e-05,176000,-210.35987277370646,0.0
220,0.8787550926208496,-210.26439275152407,1.1651198454944045,-208.56391803762295,-211.74393579375354,0.0,1.3108031390148769,0.1,0.055463552474975586,0.9948768615722656,0.047524862,0.08808607,-210.09637061083254,-1.0502212504722626,-1.0502212504722626,0.0,800,0.7287967205047607,0.00012810722371005273,0.00011726195503347898,176800,-210.32748341251522,0.0
221,0.8727636337280273,-210.08973628908024,1.63389629923036,-208.20272786229182,-211.9685444598063,0.0,1.894653612844549,0.1,0.05552792549133301,1.0082182884216309,0.04642426,0.06587716,-210.0957071786573,-1.0493750338566392,-1.0493750338566392,0.0,800,0.7309527397155762,0.00018181357044368615,0.00018199766087135524,177600,-210.07953114897566,0.0
222,0.8582384586334229,-210.4392741532182,1.631067101472911,-207.85986151570273,-211.87370376538428,0.0,1.9374168305989363,0.1,0.056832075119018555,1.0043082237243652,0.048170686,0.05040326,-210.1300638761134,-1.0511224097322394,-1.0511224097322394,0.0,800,0.7360053062438965,0.00021376894719999685,0.00019004537698361163,178400,-207.89375575450228,0.0
223,0.9976413249969482,-208.04873609264445,0.8870833990229771,-207.1679224831312,-209.49696827030618,0.0,1.7189864778077493,0.1,0.05295276641845703,1.0122482776641846,0.05049076,0.06606113,-209.9219310977665,-1.039373869186798,-1.039373869186798,0.0,800,0.7327814102172852,0.0006364729827906026,0.0001249406725066027,179200,-208.49326316297666,0.0
224,0.8033735752105713,-208.44344154566707,2.1129953290932115,-206.39273869915965,-211.5907590028017,0.0,2.4215692441122054,0.1,0.055124759674072266,1.0082552433013916,0.050971963,0.038304828,-209.77408214255655,-1.0412812076135713,-1.0412812076135713,0.0,800,0.7308628559112549,0.0002750111536620554,0.00025670878500802616,180000,-209.66122802182258,0.0
225,0.7919285297393799,-209.48285125375367,1.6902435576562729,-207.8132988081047,-211.7725319587748,0.0,2.488277378802741,0.1,0.054602622985839844,1.0035054683685303,0.05055927,0.049335305,-209.74495905367627,-1.046325651091731,-1.046325651091731,0.0,800,0.7385926246643066,0.00024980348778647234,0.00014567628740746517,180800,-209.72501720055934,0.0
226,0.8231592178344727,-209.79372794138817,0.9067982283259566,-208.54003317533326,-211.10113355863794,0.0,2.2345157624305494,0.1,0.057092905044555664,1.0100600719451904,0.05366629,0.049292244,-209.74983594244745,-1.0478419361719544,-1.0478419361719544,0.0,800,0.7384259700775146,0.00011430259704930705,6.883822192864914e-05,181600,-209.09456779208048,0.0
227,0.7913382053375244,-209.0396568955564,1.0699132115112528,-207.6635514427524,-210.11321177639516,0.0,2.0290330956331504,0.1,0.05154156684875488,1.0100595951080322,0.04275972,0.041970666,-209.67881803775833,-1.044107708665188,-1.044107708665188,0.0,800,0.17106080055236816,0.00014500391301360699,0.00010994252547886433,182400,-210.28103346875048,0.0
228,0.8432526588439941,-210.59510295860346,0.5795181483576417,-209.69668177527052,-211.29280498727442,0.0,2.034732135585058,0.1,0.0365595817565918,0.06415987014770508,0.045520607,0.058657717,-209.77044652984284,-1.051849902588997,-1.051849902588997,0.0,800,0.08188247680664062,0.00024303393898681487,5.1131672220227754e-05,183200,-211.3945881629219,0.0
229,0.8579003810882568,-211.14169310619877,1.3332637131174636,-209.5899526339347,-213.21098795924323,0.0,1.8442911518385767,0.1,0.02170848846435547,0.08093714714050293,0.051747862,0.057157293,-209.90757118747842,-1.0545693913689054,-1.0545693913689054,0.0,800,0.0757133960723877,0.00011229702954215704,0.0001021449149990042,184000,-210.84597407643244,0.0
230,0.8563783168792725,-210.95905782118308,0.9092417513148837,-210.01018769543734,-212.08286866285124,0.0,1.8407395237352961,0.1,0.030350685119628906,0.06455755233764648,0.059832066,0.05192453,-210.0127198508489,-1.0536624340719376,-1.0536624340719376,0.0,800,0.10400390625,5.7379910903531675e-05,5.68176046376316e-05,184800,-209.9405512775801,0.0
231,0.8321011066436768,-210.1211784181941,0.7714307838041164,-208.8542223476106,-210.92944678173419,0.0,1.925164710063109,0.1,0.05310559272766113,0.10696816444396973,0.050515853,0.0495948,-210.02356570758343,-1.0494626305549062,-1.0494626305549062,0.0,800,0.0849757194519043,7.38505573001938e-05,5.1909152841226546e-05,185600,-211.28983124238826,0.0
232,0.8767130374908447,-211.44600675641726,0.23357446236685436,-211.04398522484783,-211.6109771525444,0.0,2.236283260011568,0.1,0.04868292808532715,0.18368077278137207,0.050946675,0.042997252,-210.16580981246682,-1.056115857881867,-1.056115857881867,0.0,800,0.7159481048583984,0.00014490584187393279,3.102453157650783e-05,186400,-209.6755800983432,0.0
233,0.8646330833435059,-210.7176408686335,1.231970284986272,-208.97893163779474,-212.42863013298967,0.0,3.005755995338894,0.1,0.05359482765197754,0.11695194244384766,0.04802118,0.03417843,-210.22099291808348,-1.0524589020482267,-1.0524589020482267,0.0,800,0.11597418785095215,0.00012530334927302026,8.929721038255157e-05,187200,-210.8345676693872,0.0
234,0.8660275936126709,-211.8600502631902,0.45572705231694627,-211.21311058423365,-212.4668474831418,0.0,1.5514869084151388,0.1,0.053399085998535156,0.6189355850219727,0.045135025,0.052472115,-210.3848986525942,-1.0581831730759137,-1.0581831730759137,0.0,800,0.0951690673828125,6.604574235064409e-05,2.8472037771062144e-05,188000,-211.7835688058667,0.0
235,0.8417232036590576,-212.80470564010184,0.33494705344502324,-212.3324974880964,-213.27209467939102,0.0,2.1575213031808826,0.1,0.0035927295684814453,0.07507896423339844,0.04795573,0.04669566,-210.62687935134497,-1.0629553622496197,-1.0629553622496197,0.0,800,0.07929396629333496,0.00012064193129648193,2.5720231639852025e-05,188800,-211.88084061036352,0.0
236,0.8779492378234863,-212.60628362070702,0.383809811868682,-211.94567766931667,-212.87203560465716,0.0,1.8206841274370724,0.1,0.05539441108703613,0.10505318641662598,0.044824027,0.05380585,-210.82481977828115,-1.0619774715029648,-1.0619774715029648,0.0,800,0.0757589340209961,2.992748649574642e-05,2.3936165685830628e-05,189600,-210.98352425584372,0.0
237,0.8654167652130127,-211.38239195313602,0.6755117789077089,-210.24366677750172,-211.92943184230046,0.0,2.5687568362900377,0.1,0.012594938278198242,0.09257960319519043,0.051732622,0.034796298,-210.88057699576666,-1.055842561345751,-1.055842561345751,0.0,800,0.07491087913513184,9.039806841123537e-05,3.481596127481667e-05,190400,-211.6223227731683,0.0
238,0.8658652305603027,-212.53627449502227,0.5922185552053576,-211.60951327745585,-213.05698048437236,0.0,3.4217598048651916,0.1,0.04943227767944336,0.16588830947875977,0.05483896,0.025880888,-211.04614674569223,-1.0616307461282548,-1.0616307461282548,0.0,800,0.07982683181762695,6.998777681588533e-05,3.391254219990324e-05,191200,-210.8855814924085,0.0
239,0.853348970413208,-211.60966110536063,0.4127418174819576,-211.01790754420065,-212.10532133133503,0.0,2.009410960644583,0.1,0.013431310653686523,0.06256937980651855,0.04435015,0.046320967,-211.1024981816591,-1.0569778138100578,-1.0569778138100578,0.0,800,0.0947418212890625,4.67377230113717e-05,2.4403810488621424e-05,192000,-210.45765129465198,0.0
240,0.8462307453155518,-211.49923645510833,0.46039316756539117,-210.80836168812323,-211.99245045024296,0.0,1.6328934523287186,0.1,0.029783964157104492,0.06139254570007324,0.045648996,0.063687034,-211.142172009004,-1.0564475992129778,-1.0564475992129778,0.0,800,0.07748913764953613,3.550156516131042e-05,3.3755533585133636e-05,192800,-211.12830326998713,0.0
241,0.863445520401001,-210.91240534696243,0.5610907234811356,-209.96982840675273,-211.44610180033004,0.0,2.4801559313340045,0.1,0.00858616828918457,0.06573128700256348,0.05053735,0.038351215,-211.11919534279988,-1.0534999762641601,-1.0534999762641601,0.0,800,0.0957491397857666,4.717281439745076e-05,2.921234981083746e-05,193600,-210.97212495475256,0.0
242,0.8644075393676758,-211.80917850189113,0.78097064825139,-210.96635350490095,-212.87526960508768,0.0,2.090312306185931,0.1,0.049802303314208984,0.17723727226257324,0.05498568,0.047359955,-211.188193658709,-1.058002107603068,-1.058002107603068,0.0,800,0.08037257194519043,8.526165892388966e-05,4.217190678397825e-05,194400,-209.48221922332996,0.0
243,0.8856041431427002,-210.91355408975608,0.56470327866399,-210.30814299194552,-211.6495676946009,0.0,1.67989159125703,0.1,0.0034286975860595703,0.06434488296508789,0.04798179,0.058906768,-211.1607297018137,-1.0535098244560186,-1.0535098244560186,0.0,800,0.08527016639709473,4.968363870036972e-05,3.227609539547207e-05,195200,-209.73273710996992,0.0
244,0.8726818561553955,-209.6666028844541,1.0084193261683183,-207.97082261064,-210.54026585717028,0.0,1.8919373564239659,0.1,0.0034024715423583984,0.062140464782714844,0.049644697,0.0465867,-211.01131702007774,-1.047251377112562,-1.047251377112562,0.0,800,0.0912618637084961,0.00010089453511047415,5.394245922470743e-05,196000,-212.10373262905492,0.0
245,0.8486368656158447,-213.43521251632654,0.4126130890630026,-212.90846041997128,-214.064521371604,0.0,2.637753270085636,0.1,0.04998421669006348,0.12601542472839355,0.047853295,0.03442843,-211.25370656970264,-1.0661484916085948,-1.0661484916085948,0.0,800,0.08167815208435059,0.00045355882179424844,2.854245464692527e-05,196800,-212.59447602821834,0.0
246,0.8676629066467285,-213.574671485974,1.0530667869121297,-211.94489146140577,-214.65088385223913,0.0,2.2179907752293992,0.1,0.0033082962036132812,0.06243300437927246,0.0485868,0.051123153,-211.4858030613298,-1.066871171306006,-1.066871171306006,0.0,800,0.0733194351196289,9.10720330463354e-05,6.287241109929938e-05,197600,-211.39187471711816,0.0
247,0.8729066848754883,-211.84542698343242,1.4723338858757125,-209.57842502280224,-213.29774020843072,0.0,1.6185858844744339,0.1,0.005087137222290039,0.06118607521057129,0.048034906,0.058439855,-211.52176545354007,-1.0581853064603992,-1.0581853064603992,0.0,800,0.07459497451782227,0.00023281382491660172,0.00010352976796854946,198400,-211.62948222180088,0.0
248,0.864494800567627,-212.31476392746572,0.6778501352703165,-211.16775984733482,-212.93045071734815,0.0,1.6766966660783649,0.1,0.003291606903076172,0.06244826316833496,0.050756384,0.058275767,-211.60106530093265,-1.0605545835943468,-1.0605545835943468,0.0,800,0.0752878189086914,4.18575835101872e-05,3.0102997848396265e-05,199200,-210.7289244192639,0.0
249,0.8497698307037354,-211.4498288961839,0.45684329145280594,-210.65881718453355,-211.73006379379575,0.0,2.041638483538592,0.1,0.04961252212524414,0.08266377449035645,0.048059102,0.047775295,-211.58594166045776,-1.0562164316378195,-1.0562164316378195,0.0,800,0.09715104103088379,4.462881571382086e-05,2.6314108266421496e-05,200000,-210.40766907681248,0.0
250,0.862652063369751,-210.86128835477587,0.9601244773643534,-209.36180838640865,-211.93411919326584,0.0,2.150797622407121,0.1,0.0035593509674072266,0.06242108345031738,0.043576945,0.04041561,-211.51347632988958,-1.0532564816293777,-1.0532564816293777,0.0,800,0.07782626152038574,6.841523008579818e-05,5.378116593551726e-05,200800,-209.96000409644185,0.0
251,0.856102466583252,-210.1486055963103,0.5411325756362824,-209.39531110713241,-210.8562931975416,0.0,1.6640121485314772,0.1,0.003369569778442383,0.06383895874023438,0.046956334,0.05535128,-211.37698925653166,-1.0496665817478679,-1.0496665817478679,0.0,800,0.07336997985839844,4.978144232445292e-05,2.4797695823267752e-05,201600,-211.66802191085537,0.0
252,0.8549656867980957,-212.58387960336313,0.9310087986963049,-211.17340518241735,-213.65542272547862,0.0,2.0359448814275463,0.1,0.023230314254760742,0.06421232223510742,0.049410906,0.045268644,-211.4976782912148,-1.0618905893034174,-1.0618905893034174,0.0,800,0.07356643676757812,0.00022940424097342457,3.952172247324568e-05,202400,-211.25034811177474,0.0
253,0.8772404193878174,-211.7579554841244,0.44077426516388035,-211.01398095052568,-212.15188493675393,0.0,2.3144934775144916,0.1,0.01699995994567871,0.06565451622009277,0.048544396,0.03965577,-211.52370601050578,-1.057729797037998,-1.057729797037998,0.0,800,0.07968640327453613,2.52072805779981e-05,1.685296748534361e-05,203200,-211.7380185106346,0.0
254,0.868811845779419,-211.80256863883497,0.38498828157948084,-211.40780845713127,-212.24141810051393,0.0,1.2141992543414726,0.1,0.003342151641845703,0.062310218811035156,0.046875153,0.082219355,-211.5515922733387,-1.057963342087497,-1.057963342087497,0.0,800,0.22095251083374023,1.5520397029104384e-05,1.3188281985220205e-05,204000,-211.2958941907468,0.0
255,0.8845686912536621,-212.03876464418133,0.6074740254888721,-211.32076730289475,-212.89937691161592,0.0,1.7346463817893574,0.1,0.003272533416748047,0.0640406608581543,0.047929574,0.063167535,-211.600309510423,-1.05914794761906,-1.05914794761906,0.0,800,0.071990966796875,2.5203167637219108e-05,2.5208458001880162e-05,204800,-210.01189447617944,0.0
256,0.8741788864135742,-210.6505192019028,0.8933948634928329,-209.42721036484585,-211.64847337532447,0.0,1.848782286740891,0.1,0.014814138412475586,0.06528711318969727,0.04714447,0.06075061,-211.50533047957097,-1.0521915601643126,-1.0521915601643126,0.0,800,0.07307791709899902,0.00010779714203667212,4.0061482855934105e-05,205600,-210.7321775297065,0.0
257,0.8788747787475586,-210.974989210925,1.2918879787174877,-209.647831011905,-212.53963061762482,0.0,2.4551181938842435,0.1,0.0033032894134521484,0.060469865798950195,0.053266123,0.039183572,-211.45229635270638,-1.0538009226888867,-1.0538009226888867,0.0,800,0.0784912109375,7.93456755062608e-05,8.442739016520706e-05,206400,-210.84427159152116,0.0
258,0.8509619235992432,-210.75204294324863,1.2346212598134405,-208.84682700951888,-211.9899193480167,0.0,2.0350638469117945,0.1,0.0034508705139160156,0.0619964599609375,0.049089715,0.051274322,-211.38227101176062,-1.0526719249286387,-1.0526719249286387,0.0,800,0.07662534713745117,7.403725389705323e-05,8.223455180213915e-05,207200,-211.0601650511326,0.0
259,0.880023717880249,-212.72708492017966,0.6782887666896236,-211.99580963752916,-213.80588078494907,0.0,2.729802555526319,0.1,0.0036122798919677734,0.06572198867797852,0.049746,0.037347276,-211.51675240260255,-1.0625891263145895,-1.0625891263145895,0.0,800,0.08319234848022461,0.00011589108789491044,3.2702691636870713e-05,208000,-210.36485204064238,0.0
260,0.8762190341949463,-211.5404737245715,0.8698562417492879,-210.16374608143303,-212.57374962606136,0.0,2.291576562759979,0.1,0.0030748844146728516,0.06339240074157715,0.05205509,0.044638723,-211.51912453479943,-1.0566394880494792,-1.0566394880494792,0.0,800,0.08388686180114746,6.805966330616318e-05,3.579953561644243e-05,208800,-210.94798673812775,0.0
261,0.8899853229522705,-212.31595577354835,0.9219056424271298,-210.99457135359438,-213.43076699190502,0.0,2.1181457794781995,0.1,0.027576923370361328,0.06536269187927246,0.047680713,0.049318165,-211.59880765867433,-1.0605093905784413,-1.0605093905784413,0.0,800,0.0756523609161377,5.3410013301111364e-05,4.917548433893705e-05,209600,-210.6389405144328,0.0
262,0.8764197826385498,-212.1650233260139,0.2372454270069244,-211.9561998389202,-212.56496502794684,0.0,1.5305082138835349,0.1,0.003239154815673828,0.06141519546508789,0.054584995,0.07940283,-211.65542922540828,-1.0597692494341429,-1.0597692494341429,0.0,800,0.07756185531616211,9.111833012003309e-06,9.331188340885118e-06,210400,-210.16817896778596,0.0
263,0.8965415954589844,-211.42379941415408,0.5442872985844719,-210.49023604894566,-211.85853689022304,0.0,2.0676799973273803,0.1,0.010469436645507812,0.06183266639709473,0.049266938,0.053339582,-211.63226624428287,-1.0560644822318852,-1.0560644822318852,0.0,800,0.09226107597351074,4.3022236449191406e-05,2.2428413393664538e-05,211200,-208.4985231458741,0.0
264,0.8504884243011475,-210.10012073377072,1.1202031895939608,-208.3059165866878,-211.39336544005428,0.0,1.9420983869800212,0.1,0.017348289489746094,0.0648965835571289,0.047261667,0.059696414,-211.47905169323167,-1.0494341848975166,-1.0494341848975166,0.0,800,0.0760343074798584,0.00013044861245322222,6.641300991758691e-05,212000,-207.71109111913378,0.0
265,0.8630070686340332,-209.47774016619127,0.8806485106831646,-208.21446185305223,-210.36685264034315,0.0,2.186836263989849,0.1,0.048792362213134766,0.22141551971435547,0.04558465,0.0402495,-211.27892054052762,-1.0463185608346415,-1.0463185608346415,0.0,800,0.11344027519226074,5.108125034553562e-05,4.0926516189949245e-05,212800,-206.89380750720184,0.0
266,0.8736100196838379,-208.99809690205913,1.7160121384379048,-207.08502244315565,-211.36575975285123,0.0,1.8542872036467557,0.1,0.0209658145904541,0.0657052993774414,0.045717467,0.055073008,-211.05083817668077,-1.0439418335369868,-1.0439418335369868,0.0,800,0.07641458511352539,0.00011079523643240589,0.00010377735134499762,213600,-206.8542699519049,0.0
267,0.8536489009857178,-207.82387878390765,0.6608342293106293,-207.1331971768554,-208.9087124591356,0.0,1.7930382272017122,0.1,0.003440380096435547,0.06460452079772949,0.05150965,0.051874977,-210.72814223740346,-1.0380823290253534,-1.0380823290253534,0.0,800,0.07517290115356445,6.580074137729956e-05,1.958358614105218e-05,214400,-206.39879930506632,0.0
268,0.8487892150878906,-208.80299377152124,1.6178360682546749,-207.33686551667654,-211.3364514534597,0.0,2.0086151558176315,0.1,0.023759841918945312,0.06566762924194336,0.052919503,0.047937173,-210.53562739081525,-1.0429883330545695,-1.0429883330545695,0.0,800,0.08120036125183105,0.0001266732158050668,9.6583133277005e-05,215200,-205.38429267910274,0.0
269,0.8385961055755615,-208.53559920681323,0.9875155701520301,-207.4645829590567,-210.0732531062955,0.0,1.9525809291724743,0.1,0.012929439544677734,0.06453824043273926,0.05822439,0.0649268,-210.33562457241507,-1.041639547779241,-1.041639547779241,0.0,800,0.07973480224609375,3.9799199857736775e-05,4.0019310711936714e-05,216000,-205.27984972997442,0.0
270,0.8535687923431396,-206.83845403351722,0.9720851253397237,-205.69202796281553,-208.20076667930948,0.0,1.8034399676797974,0.1,0.04202151298522949,0.06256866455078125,0.048635256,0.0489992,-209.98590751852527,-1.0332433543525248,-1.0332433543525248,0.0,800,0.07267212867736816,0.00015463370481267295,4.1979839792709974e-05,216800,-204.72156476118565,0.0
271,0.8464064598083496,-206.89730457569445,1.2137275881974459,-205.54234428774757,-208.33009524202535,0.0,2.3962334793797817,0.1,0.0034987926483154297,0.06249809265136719,0.04919267,0.037257917,-209.6770472242422,-1.0335416751648272,-1.0335416751648272,0.0,800,0.08800458908081055,6.642868399811e-05,6.394531918355866e-05,217600,-204.39406146363126,0.0
272,0.8767876625061035,-206.23365034527814,1.0288896027805263,-204.5059306527476,-207.03684663777133,0.0,1.658353535524544,0.1,0.030540943145751953,0.06192803382873535,0.056417126,0.05330871,-209.3327075363458,-1.030238723238774,-1.030238723238774,0.0,800,0.07348847389221191,5.110331129721926e-05,4.248515847273108e-05,218400,-202.9556835756057,0.0
273,0.8807351589202881,-204.54277052927904,0.7877804385023355,-203.59498872735384,-205.5153885717344,0.0,1.9869677014246623,0.1,0.012606382369995117,0.0626063346862793,0.05159233,0.04221543,-208.8537138356391,-1.0219334024990676,-1.0219334024990676,0.0,800,0.10416007041931152,0.0001234597782234262,3.47329247028722e-05,219200,-202.25965827088626,0.0
274,0.8945326805114746,-203.32231668778036,0.6651453257229073,-202.53830862375673,-204.19063438899656,0.0,1.8294036403975966,0.1,0.017179250717163086,0.062127113342285156,0.046465278,0.051245708,-208.30057412085324,-1.0159514883186629,-1.0159514883186629,0.0,800,0.07750535011291504,0.00012936534543455845,2.516886872025426e-05,220000,-203.2396238531123,0.0
275,0.9167213439941406,-203.65305312810744,0.2896653184270626,-203.27305447563273,-203.95038098333777,0.0,1.5862168517819808,0.1,0.05428457260131836,0.9598872661590576,0.044820417,0.049668822,-207.83582202157868,-1.0175763893916754,-1.0175763893916754,0.0,800,0.7226016521453857,1.1222483528242902e-05,9.920614821351067e-06,220800,-204.92280977275777,0.0
276,0.8997273445129395,-206.54551874003945,1.0578246623088716,-205.32857379981021,-208.24149187479975,0.0,1.7000658083733327,0.1,0.052986860275268555,0.9034507274627686,0.049837064,0.04773191,-207.70679169342475,-1.0317912141165686,-1.0317912141165686,0.0,800,0.48499345779418945,0.0003721164670645164,5.447000018899231e-05,221600,-205.14157204002564,0.0
277,0.8936865329742432,-206.29774078620503,2.0477046228510414,-203.44065481866247,-209.09972153346652,0.0,2.0921052425645015,0.1,0.05308794975280762,0.8897228240966797,0.05133297,0.057101782,-207.5658866027028,-1.0305960914382752,-1.0305960914382752,0.0,800,0.08194208145141602,0.0001547474690356331,0.00016878666606061284,222400,-204.38300706505484,0.0
278,0.8834865093231201,-206.29599748373278,0.6256170176219543,-205.43440986951222,-207.08621607935984,0.0,1.7883672026497806,0.1,0.020692825317382812,0.06342530250549316,0.047374506,0.066752784,-207.4388976908058,-1.0305961267285517,-1.0305961267285517,0.0,800,0.07328438758850098,2.787401598167419e-05,1.9466391192830665e-05,223200,-203.91457106990262,0.0
279,0.9026060104370117,-206.89946499546556,1.0007592363626387,-205.73858820218942,-208.4999279839597,0.0,1.2716750132834425,0.1,0.010555267333984375,0.06555461883544922,0.049763598,0.05132843,-207.38495442127177,-1.0335501529673392,-1.0335501529673392,0.0,800,0.10944557189941406,5.4906777267235545e-05,3.9052473433583886e-05,224000,-203.60043284695288,0.0
280,0.8978946208953857,-206.19778370208368,1.0456065492095563,-204.6614577140906,-207.35742901676278,0.0,2.3747506432998713,0.1,0.014919757843017578,0.07565474510192871,0.044063516,0.04245246,-207.26623734935296,-1.0301070775596737,-1.0301070775596737,0.0,800,0.08001184463500977,7.711949009836782e-05,4.7190148439458e-05,224800,-204.37670410409535,0.0
281,0.9099044799804688,-209.30988697366996,1.1149246309516492,-207.75649077330473,-210.45211649759054,0.0,1.2832100823587385,0.1,0.04917144775390625,0.06689596176147461,0.045019597,0.1042932,-207.47060231178466,-1.045505904241307,-1.045505904241307,0.0,800,0.07941937446594238,0.0003464414894289118,6.134513211022496e-05,225600,-204.79404423344258,0.0
282,0.9020061492919922,-207.58363049517828,0.9227859835439555,-206.48704193540627,-208.91439405898151,0.0,1.5457835111558431,0.1,0.003265380859375,0.06411933898925781,0.054874323,0.08961662,-207.48190513012403,-1.0369399303537326,-1.0369399303537326,0.0,800,0.09270191192626953,9.253297990387143e-05,3.903928551027742e-05,226400,-205.60344477311241,0.0
283,0.9303295612335205,-208.3578047717387,0.6839856997594275,-207.88526082625705,-209.53680567176607,0.0,1.7525376369008228,0.1,0.013974428176879883,0.06189560890197754,0.05159738,0.047298893,-207.56949509428551,-1.0407466984294351,-1.0407466984294351,0.0,800,0.07342839241027832,3.0240080069336342e-05,2.601179000010797e-05,227200,-203.88326243695056,0.0
284,0.9151229858398438,-207.09184546229918,1.1878613597902798,-205.91258441161796,-208.74725109127814,0.0,1.4905369944464522,0.1,0.027363061904907227,0.06540632247924805,0.051753968,0.06181784,-207.52173013108688,-1.034522621987601,-1.034522621987601,0.0,800,0.08107924461364746,9.579531907736886e-05,6.28163082011015e-05,228000,-203.30689618795876,0.0
285,0.8998446464538574,-207.13731293908882,0.9639693986143919,-205.63805932596392,-208.04380805177513,0.0,1.745099965443481,0.1,0.0033817291259765625,0.06487369537353516,0.052013822,0.077751845,-207.4832884118871,-1.0347180108221141,-1.0347180108221141,0.0,800,0.08955717086791992,3.3449012156747855e-05,3.3634114705240135e-05,228800,-202.74439894090207,0.0
286,0.9007701873779297,-204.79419852255458,1.0435664006428658,-203.16310120919007,-205.7814619082609,0.0,2.117707108137701,0.1,0.013091087341308594,0.06035947799682617,0.04907945,0.045449954,-207.21437942295384,-1.0232021561348266,-1.0232021561348266,0.0,800,0.0766448974609375,0.0001973628413814716,4.865573678227003e-05,229600,-202.799034817642,0.0
287,0.904097318649292,-203.2148347551825,1.0310552129103476,-201.84341175098152,-204.6683986208041,0.0,2.856731897945904,0.1,0.04799985885620117,0.1399695873260498,0.049086593,0.030061984,-206.8144249561767,-1.0154506852643397,-1.0154506852643397,0.0,800,0.09032845497131348,0.00014685127490224299,4.855670639705054e-05,230400,-203.52831454864713,0.0
288,0.9210245609283447,-202.78614281116094,0.32826099493550576,-202.36264941692414,-203.24518054432951,0.0,1.579778936928267,0.1,0.022590160369873047,0.06455206871032715,0.053042866,0.05091456,-206.41159674167514,-1.0133348810295506,-1.0133348810295506,0.0,800,0.08347320556640625,1.3125868724344855e-05,9.782161400811375e-06,231200,-203.98243501596792,0.0
289,0.9113361835479736,-203.7157750908212,0.5043613912419003,-203.15815113948295,-204.3839123952827,0.0,1.8680231890361962,0.1,0.0032875537872314453,0.06242227554321289,0.04439655,0.039001726,-206.14201457658976,-1.0179172434406296,-1.0179172434406296,0.0,800,0.0766150951385498,5.326117978536957e-05,1.9010096042240705e-05,232000,-206.06073658894934,0.0
290,0.9175353050231934,-205.00943756728316,1.117170996873357,-203.3113583777682,-206.3872381679369,0.0,2.437533937550407,0.1,0.003537416458129883,0.0628511905670166,0.05477462,0.048211575,-206.0287568756591,-1.0242971068027806,-1.0242971068027806,0.0,800,0.09920692443847656,9.384843202215904e-05,4.315110664001411e-05,232800,-206.01835778821703,0.0
291,0.8947694301605225,-207.02698920624096,0.8843795940283921,-205.6496545083527,-207.94927647160236,0.0,1.6771449760998554,0.1,0.015000581741333008,0.06058382987976074,0.04796755,0.06347775,-206.1285801087173,-1.0342153434920933,-1.0342153434920933,0.0,800,0.07437968254089355,0.00016517461960229439,3.875778431197833e-05,233600,-207.13350666853873,0.0
292,0.8967628479003906,-207.73841919309265,1.1637104425813296,-206.18084781430855,-209.3454840127202,0.0,2.1402301510072554,0.1,0.04934096336364746,0.06324076652526855,0.05154457,0.046513032,-206.28956401715485,-1.037730895180565,-1.037730895180565,0.0,800,0.08340835571289062,7.777611142942757e-05,4.966544294741081e-05,234400,-205.87000914416612,0.0
293,0.8982181549072266,-205.3160684806483,1.1163074082304083,-204.21182647449695,-207.1803340194876,0.0,2.3137585167303443,0.1,0.04907035827636719,0.07866120338439941,0.04668683,0.046782713,-206.1922144635042,-1.0258086531967245,-1.0258086531967245,0.0,800,0.0800316333770752,0.0002234625066012603,5.394686853898857e-05,235200,-205.7212257679107,0.0
294,0.9139020442962646,-208.76301012363933,1.4504030834144777,-206.52036745524737,-210.5754138620577,0.0,1.894628846732182,0.1,0.011367559432983398,0.062409400939941406,0.048309337,0.048245955,-206.44929402951772,-1.0428135288187796,-1.0428135288187796,0.0,800,0.07297492027282715,0.0003881920574654417,9.640096561592191e-05,236000,-205.5656203167367,0.0
295,0.8985354900360107,-205.17620761073863,1.3538938145459631,-202.91306122097018,-206.45260006659615,0.0,1.7477324100066853,0.1,0.008919000625610352,0.06304597854614258,0.052031774,0.052399993,-206.3219853876398,-1.0251331595734312,-1.0251331595734312,0.0,800,0.08749771118164062,0.00030929370352087966,7.906948206512996e-05,236800,-205.04388852856232,0.0
296,0.9179449081420898,-206.65225826916011,0.9155644958563588,-205.290794076098,-207.7665796498603,0.0,1.7486532424855115,0.1,0.0035071372985839844,0.0653388500213623,0.057344593,0.058308143,-206.35501267579184,-1.032434347911713,-1.032434347911713,0.0,800,0.11113214492797852,0.00010586684048058691,3.201357952107246e-05,237600,-206.5196945461294,0.0
297,0.9236495494842529,-206.34520253953957,0.6491112047330978,-205.4591015123096,-206.96873489053343,0.0,1.309159908232347,0.1,0.003537416458129883,0.06456875801086426,0.048356343,0.07984712,-206.35403166216662,-1.0309061238377346,-1.0309061238377346,0.0,800,0.07927656173706055,3.290837178870581e-05,1.5982057288567672e-05,238400,-206.9084448996518,0.0
298,0.9074375629425049,-207.76392580650548,1.4022090446097057,-205.9359369651458,-209.88073529829995,0.0,1.4746673287192975,0.1,0.03838396072387695,0.09183406829833984,0.04713207,0.06966076,-206.4950210766005,-1.0379290221971307,-1.0379290221971307,0.0,800,0.07661223411560059,0.0001204807624073318,6.276478881876292e-05,239200,-206.29170741085773,0.0
299,0.9519240856170654,-207.13033561169982,1.8448145589618496,-205.47735137823622,-210.0809049508094,0.0,1.6904891656011525,0.1,0.03369307518005371,0.06386947631835938,0.041952424,0.05493436,-206.55855253011043,-1.034821773470454,-1.034821773470454,0.0,800,0.07544445991516113,0.00011844914393525452,0.00011256627625590908,240000,-206.3458062410203,0.0
300,0.9452211856842041,-205.9265092872954,1.0552762058904495,-204.91895018181725,-207.41517566860784,0.0,2.012317267741614,0.1,0.0280609130859375,0.06497478485107422,0.051218174,0.049015593,-206.49534820582895,-1.0288969151790335,-1.0288969151790335,0.0,800,0.0845787525177002,9.68216189166007e-05,3.573475387286892e-05,240800,-205.36630095865166,0.0
301,0.916210412979126,-204.97334146472917,1.1493620277165224,-203.1581137977424,-206.32028121971268,0.0,1.9944711955205963,0.1,0.00671696662902832,0.06418561935424805,0.038245387,0.039786752,-206.34314753171898,-1.0242125828178787,-1.0242125828178787,0.0,800,0.09698057174682617,6.315470894476297e-05,3.9319783974531175e-05,241600,-205.66747037645015,0.0
302,0.8578553199768066,-205.6975463973207,0.8626592502733594,-204.45874124551287,-206.79016218874676,0.0,1.5425253149843703,0.1,0.023944377899169922,0.06494617462158203,0.046297878,0.066198625,-206.27858741827916,-1.027813780768832,-1.027813780768832,0.0,800,0.10304689407348633,3.889062571444021e-05,2.4285836305028777e-05,242400,-204.73153263143885,0.0
303,0.9048714637756348,-204.50954436407838,0.9118936005649132,-203.24937538059547,-205.6454013945139,0.0,1.6259614934094815,0.1,0.003754138946533203,0.06724357604980469,0.05574679,0.055201735,-206.1016831128591,-1.021937973747425,-1.021937973747425,0.0,800,0.07592368125915527,6.974666914551132e-05,2.438947037073769e-05,243200,-202.51676517402538,0.0
304,0.9026036262512207,-202.853910999842,0.3631889799814613,-202.43754638985345,-203.4368886602257,0.0,2.126972105866208,0.1,0.006288290023803711,0.060805559158325195,0.049297106,0.04386163,-205.77690590155737,-1.0137718968629652,-1.0137718968629652,0.0,800,0.07486867904663086,7.911254349354654e-05,6.9551958358557355e-06,244000,-201.9217519972672,0.0
305,0.935870885848999,-202.0189556618215,0.35295508747675725,-201.6743448867882,-202.58815716483596,0.0,1.776635161845608,0.1,0.003411531448364258,0.06459307670593262,0.05637893,0.063314304,-205.4011108775838,-1.0096650286207969,-1.0096650286207969,0.0,800,0.07919549942016602,2.446791548934406e-05,8.556611223120825e-06,244800,-202.95887511522042,0.0
306,0.9090828895568848,-202.83226248520697,0.7284866040723934,-201.72426543001606,-203.7407363646856,0.0,2.8122508433571785,0.1,0.010809183120727539,0.09024238586425781,0.04706834,0.029468944,-205.14422603834612,-1.0136742952043953,-1.0136742952043953,0.0,800,0.15167713165283203,3.585236786099243e-05,1.4977718195000215e-05,245600,-202.5838557844701,0.0
307,0.9147601127624512,-203.20284381331317,0.838808588574748,-202.22945339807617,-204.51392867115916,0.0,2.4822124143495934,0.1,0.0031380653381347656,0.0639348030090332,0.04478419,0.036421385,-204.95008781584283,-1.015507174433365,-1.015507174433365,0.0,800,0.07455968856811523,3.3684908989686064e-05,2.3257772611772968e-05,246400,-203.70647473493827,0.0
308,0.9220302104949951,-203.69034996025172,1.2216046711463642,-202.32459289592805,-205.49639397891386,0.0,1.965126233411727,0.1,0.05128645896911621,0.16206765174865723,0.05284648,0.05665874,-204.8241140302837,-1.0179302051067665,-1.0179302051067665,0.0,800,0.08127450942993164,3.844653214475547e-05,3.837749420840918e-05,247200,-202.80158860978744,0.0
309,0.9603362083435059,-203.84204188168877,1.7255193660957227,-202.7676170279145,-206.82925478348616,0.0,2.3620826215318,0.1,0.023817777633666992,0.06864285469055176,0.04780735,0.037235484,-204.7259068154242,-1.0186809920790547,-1.0186809920790547,0.0,800,0.07862186431884766,8.322469214517111e-05,7.615400125571816e-05,248000,-202.33599495774027,0.0
310,0.9718155860900879,-202.57800890058968,0.30237195106917475,-202.16176248023083,-203.01587231790757,0.0,1.7029487584403995,0.1,0.0035293102264404297,0.0623471736907959,0.049360484,0.0523977,-204.51111702394076,-1.0124283892350854,-1.0124283892350854,0.0,800,0.11248660087585449,5.6522769219461373e-05,5.902877845276922e-06,248800,-201.12506951089858,0.0
311,0.9586491584777832,-201.53020714845803,0.20490423843138938,-201.3139158539029,-201.82538840696375,0.0,2.0204154835745265,0.1,0.04445672035217285,0.11582732200622559,0.049487725,0.046905298,-204.2130260363925,-1.0072655527647945,-1.0072655527647945,0.0,800,0.1126856803894043,2.997298058333052e-05,8.22085260223737e-06,249600,-201.08935221110372,0.0
312,0.9656364917755127,-201.53507778097241,0.1504987054058218,-201.36708773362054,-201.74996413615492,0.0,1.821639359493177,0.1,0.003952741622924805,0.06296181678771973,0.048219573,0.04735412,-203.9452312108505,-1.0073013346261859,-1.0073013346261859,0.0,800,0.07724475860595703,8.795852870711893e-06,7.645408396925499e-06,250400,-201.64258022718013,0.0
313,0.9478471279144287,-201.89872600124914,0.13889852618843068,-201.75218345814667,-202.12741023601015,0.0,2.2616625419188097,0.1,0.0361330509185791,0.06458592414855957,0.05555769,0.041208576,-203.74058068989035,-1.009084641215118,-1.009084641215118,0.0,800,0.07644534111022949,1.0580743272757538e-05,5.243425892668314e-06,251200,-202.68254777208685,0.0
314,0.9674289226531982,-202.2669920586898,1.2960884563734985,-201.4672800946228,-204.51002669458958,0.0,1.9885415024804933,0.1,0.040747642517089844,0.062463998794555664,0.035423763,0.03860056,-203.5932218267703,-1.0108953346706442,-1.0108953346706442,0.0,800,0.07471179962158203,5.4669328221327004e-05,4.680655199579083e-05,252000,-202.39305046002622,0.0
315,0.9757421016693115,-201.83755706301474,0.48231644198533025,-201.08789624277048,-202.42261390111727,0.0,1.2569332284690249,0.1,0.049920082092285156,0.09620141983032227,0.0534434,0.06298501,-203.41765535039474,-1.008782543940739,-1.008782543940739,0.0,800,0.08479619026184082,2.3059629338003986e-05,7.4338674474497926e-06,252800,-202.56470059272942,0.0
316,0.979255199432373,-201.8770369580385,0.4137972070460538,-201.40963824065292,-202.4235412689364,0.0,1.631725291343805,0.1,0.0030755996704101562,0.06249666213989258,0.041811224,0.0584099,-203.26359351115914,-1.0089615031610908,-1.0089615031610908,0.0,800,0.11303257942199707,7.3668473898670706e-06,6.483785812368622e-06,253600,-202.7621578132935,0.0
317,0.8914248943328857,-202.20338725811217,0.1539237909975892,-202.01251633990148,-202.39507850767342,0.0,1.5694569472282862,0.1,0.0034799575805664062,0.06535935401916504,0.046075825,0.064375274,-203.15757288585445,-1.0105831946802235,-1.0105831946802235,0.0,800,0.07767558097839355,5.932722419706456e-06,3.850528352780515e-06,254400,-201.65041550045564,0.0
318,0.8951034545898438,-201.5091806209722,0.27739125887398836,-201.27722005708043,-201.9636260067673,0.0,1.9264805985883853,0.1,0.014501094818115234,0.06286287307739258,0.04748229,0.030359255,-202.99273365936622,-1.0071645883567624,-1.0071645883567624,0.0,800,0.08181643486022949,1.0033765902706366e-05,5.560757309111929e-06,255200,-201.08984813280662,0.0
319,0.8993380069732666,-202.0317340764064,0.45507850695046814,-201.27816754478604,-202.49990932456225,0.0,1.6026285335174457,0.1,0.0033245086669921875,0.062463998794555664,0.04669623,0.062166024,-202.89663370107024,-1.009793801843979,-1.009793801843979,0.0,800,0.07523965835571289,6.717039925295976e-05,3.479570207493784e-05,256000,-200.818146370694,0.0
320,0.9152405261993408,-202.85666801207418,1.0743774929351855,-202.05683089210606,-204.69876056732727,0.0,1.7171477097295937,0.1,0.04687786102294922,0.06732177734375,0.047987755,0.058591295,-202.89263713217065,-1.0139517354693495,-1.0139517354693495,0.0,800,0.07733464241027832,0.00014775874208239228,9.603281232912182e-05,256800,-200.68206661236795,0.0
321,0.8947534561157227,-201.33088721460734,0.048118632901071955,-201.26390139350687,-201.3803316968463,0.0,1.7423114843481609,0.1,0.02812671661376953,0.06299757957458496,0.048628017,0.06844776,-202.73646214041435,-1.0063119103688833,-1.0063119103688833,0.0,800,0.07652544975280762,7.756791473355841e-05,1.2276410600482524e-05,257600,-200.6892552691836,0.0
322,0.9278395175933838,-202.17232492865065,0.7990628020742278,-201.48523856786454,-203.507793239935,0.0,1.6918323423902455,0.1,0.003107786178588867,0.0795445442199707,0.048236467,0.060870357,-202.68004841923798,-1.010528543981141,-1.010528543981141,0.0,800,0.07955241203308105,7.036988462431216e-05,5.6436639707489e-05,258400,-200.90435433007838,0.0
323,0.9682266712188721,-203.4638058456511,1.0066575235132704,-201.74292014140843,-204.2650638394105,0.0,2.9425768573223228,0.1,0.017284631729125977,0.0635991096496582,0.03709115,0.024760794,-202.7584241618793,-1.0169920959154835,-1.0169920959154835,0.0,800,0.07727837562561035,0.00023624073050584275,6.125103715557557e-05,259200,-201.04649004155212,0.0
324,0.9545953273773193,-206.80744378292383,1.6052123139060472,-204.87387317936623,-208.6422923006533,0.0,1.9932941422040125,0.1,0.006171703338623047,0.06417155265808105,0.04837269,0.054078422,-203.16332612398378,-1.0336433571164578,-1.0336433571164578,0.0,800,0.09250354766845703,0.0007127649218144919,0.0001421525751074312,260000,-201.7684780912277,0.0
325,0.9738354682922363,-207.39216535682542,2.2787479890210287,-203.91523694969118,-209.56084675894994,0.0,2.2819024498856977,0.1,0.003235340118408203,0.07112383842468262,0.042676333,0.045872208,-203.58621004726794,-1.0365600976153961,-1.0365600976153961,0.0,800,0.0818490982055664,0.00026463708764085325,0.00022802916898441217,260800,-201.27844417093357,0.0
326,0.9671320915222168,-205.5314292347121,3.4832515731189835,-201.9638360690145,-209.68787674563168,0.0,1.9359417718755583,0.1,0.014873266220092773,0.06441020965576172,0.04850203,0.052719418,-203.78073196601235,-1.0272726178456972,-1.0272726178456972,0.0,800,0.08551764488220215,0.0006794262732705222,0.0005917988084442365,261600,-202.37951871067722,0.0
327,0.9643051624298096,-207.66547898565284,0.8205476103069845,-206.65961754225063,-208.9204082324975,0.0,1.9368894435819684,0.1,0.020705461502075195,0.06246590614318848,0.046743702,0.048778385,-204.1692066679764,-1.0379203299885802,-1.0379203299885802,0.0,800,0.0939939022064209,9.057569099706657e-05,7.446424916262582e-05,262400,-209.25974684934224,0.0
328,0.9843237400054932,-207.7943294485155,0.9181890796597442,-206.3320400257669,-208.66355419905753,0.0,2.003700128079635,0.1,0.007133960723876953,0.06649637222290039,0.050005857,0.047174495,-204.5317189460303,-1.0386156231401187,-1.0386156231401187,0.0,800,0.07896709442138672,0.00011596079780846882,6.237891745459307e-05,263200,-209.00802992673448,0.0
329,0.9804787635803223,-206.1677013867829,0.9524785668861571,-205.37284229014108,-207.78216788153588,0.0,1.9421635406732256,0.1,0.0511174201965332,0.13443875312805176,0.051733565,0.05576226,-204.69531719010558,-1.03060302349683,-1.03060302349683,0.0,800,0.08240938186645508,0.00023846368870939638,6.597103642275385e-05,264000,-207.11363754676077,0.0
330,0.9111042022705078,-207.939603131758,1.0212967035728797,-206.34683565438965,-209.17319750432247,0.0,2.11789261214883,0.1,0.0034339427947998047,0.06272315979003906,0.045401074,0.051903494,-205.01974578427084,-1.0393811674673843,-1.0393811674673843,0.0,800,0.07805442810058594,0.00024316181831208496,6.334034902607714e-05,264800,-206.49298151823064,0.0
331,0.9419045448303223,-207.3675634065665,1.675170298544128,-205.2469353630757,-209.68512409949568,0.0,2.4780514044778497,0.1,0.02664971351623535,0.06516385078430176,0.047394346,0.035920832,-205.2545275465004,-1.0364611015618082,-1.0364611015618082,0.0,800,0.07549095153808594,0.00015849227844964882,0.00012284564323631977,265600,-204.63868936043903,0.0
332,0.9192039966583252,-208.041212185674,1.2647260475056974,-206.7957194284616,-209.75948434216699,0.0,1.7478206187109844,0.1,0.003471851348876953,0.06303143501281738,0.0494839,0.0668775,-205.53319601041778,-1.0398712142137008,-1.0398712142137008,0.0,800,0.07977557182312012,0.00010553079025673692,8.903454073143184e-05,266400,-204.33200478637264,0.0
333,0.9228053092956543,-206.56253517126896,1.4346766523927938,-204.77953135560807,-208.77580796278755,0.0,2.093280376492347,0.1,0.028333187103271484,0.0652017593383789,0.047913127,0.05689156,-205.63612992650292,-1.0325238117452673,-1.0325238117452673,0.0,800,0.0752565860748291,0.0002159547680599706,9.689215579163086e-05,267200,-201.1341060683567,0.0
334,0.959312915802002,-205.62935352828458,3.2546062185676417,-202.3637863235874,-209.62128789788775,0.0,2.0163143262952357,0.1,0.0032644271850585938,0.16749954223632812,0.048129834,0.045795504,-205.63545228668107,-1.0277356502547634,-1.0277356502547634,0.0,800,0.08066391944885254,0.0005195079009692624,0.00042675668383368865,268000,-201.51509361590465,0.0
335,0.9414775371551514,-206.2772836717695,1.7372564687471397,-204.53328090982635,-208.15443305060236,0.0,1.8367708387533914,0.1,0.012490034103393555,0.06509661674499512,0.054353878,0.05545448,-205.69963542518994,-1.0310535565931964,-1.0310535565931964,0.0,800,0.08445978164672852,0.00018320330868763218,0.00012880427314157766,268800,-201.59589777662737,0.0
336,0.929783821105957,-202.51037623634113,0.32609978366563414,-202.18489614833666,-203.03260370933918,0.0,2.121387532120851,0.1,0.04775738716125488,0.08540010452270508,0.047473535,0.045332555,-205.38070950630507,-1.012165163975848,-1.012165163975848,0.0,800,0.07586503028869629,0.0006213075572074327,5.546487853393622e-05,269600,-201.0868930034823,0.0
337,0.9607861042022705,-204.43706767968206,3.1043293793954403,-202.4667727663775,-209.81056604355234,0.0,1.7985041312986596,0.1,0.01045989990234375,0.062415122985839844,0.0531093,0.050461724,-205.28634532364276,-1.021786696974013,-1.021786696974013,0.0,800,0.08998394012451172,0.0006185985285375501,0.00038124684413475273,270400,-201.0856919572188,0.0
