Iter | Sampling Pol | Evaluation Pol | Best (Sampled) 
   0 62.89 64.13 -100000000.00 
   1 56.42 64.13 62.89 
   2 52.65 64.13 62.89 
   3 57.17 64.12 62.89 
   4 36.66 64.13 62.89 
   5 29.45 64.12 62.89 
   6 53.38 64.12 62.89 
   7 49.64 40.14 62.89 
   8 34.72 42.15 62.89 
   9 42.68 37.15 62.89 
  10 56.38 36.15 62.89 
  11 59.70 44.15 62.89 
  12 37.93 64.13 62.89 
  13 51.97 64.13 62.89 
  14 46.47 35.18 62.89 
  15 64.16 30.18 62.89 
  16 46.47 34.16 64.16 
  17 47.17 30.15 64.16 
  18 46.49 41.15 64.16 
  19 64.15 32.19 64.16 
  20 44.08 37.20 64.16 
  21 56.92 25.20 64.16 
  22 51.32 64.14 64.16 
  23 64.13 64.12 64.16 
  24 32.95 64.12 64.16 
  25 56.67 64.11 64.16 
  26 56.99 64.11 64.16 
  27 56.40 64.11 64.16 
  28 55.41 64.11 64.16 
  29 57.93 64.11 64.16 
  30 41.94 64.11 64.16 
  31 55.17 64.11 64.16 
  32 64.16 31.14 64.16 
  33 42.59 64.11 64.16 
  34 52.42 64.11 64.16 
  35 58.41 64.10 64.16 
  36 57.68 64.10 64.16 
  37 48.76 64.11 64.16 
  38 43.97 64.11 64.16 
  39 59.94 64.10 64.16 
  40 59.42 64.10 64.16 
  41 48.73 64.10 64.16 
  42 59.20 64.10 64.16 
  43 53.66 64.10 64.16 
  44 50.95 64.10 64.16 
  45 56.15 64.10 64.16 
  46 59.12 64.10 64.16 
  47 62.44 64.10 64.16 
  48 52.93 64.10 64.16 
  49 64.13 64.10 64.16 
  50 64.11 64.11 64.16 
  51 53.90 64.11 64.16 
  52 53.17 64.12 64.16 
  53 47.55 64.12 64.16 
  54 50.97 64.13 64.16 
  55 60.40 64.14 64.16 
  56 60.25 64.13 64.16 
  57 53.39 64.13 64.16 
  58 57.64 64.11 64.16 
  59 64.12 64.12 64.16 
  60 64.11 64.11 64.16 
  61 55.61 64.10 64.16 
  62 64.13 64.11 64.16 
  63 60.16 64.11 64.16 
  64 56.39 64.10 64.16 
  65 58.65 64.10 64.16 
  66 47.44 64.10 64.16 
  67 64.10 64.10 64.16 
  68 63.14 64.11 64.16 
  69 59.80 64.10 64.16 
  70 64.12 64.11 64.16 
  71 64.17 64.11 64.16 
  72 59.83 64.11 64.17 
  73 64.14 64.11 64.17 
  74 52.46 64.11 64.17 
  75 64.12 64.10 64.17 
  76 57.64 64.10 64.17 
  77 64.10 64.09 64.17 
  78 57.45 64.10 64.17 
  79 63.88 64.10 64.17 
  80 62.14 64.10 64.17 
  81 64.12 64.10 64.17 
  82 62.37 64.09 64.17 
  83 57.61 64.09 64.17 
  84 64.11 64.10 64.17 
  85 58.63 64.09 64.17 
  86 59.36 64.09 64.17 
  87 64.10 64.09 64.17 
  88 64.10 64.09 64.17 
  89 62.89 64.10 64.17 
  90 64.11 64.10 64.17 
  91 64.10 64.10 64.17 
  92 64.19 64.10 64.17 
  93 50.91 64.10 64.19 
  94 55.12 64.09 64.19 
  95 64.11 64.09 64.19 
  96 55.20 64.09 64.19 
  97 63.86 64.10 64.19 
  98 53.87 64.10 64.19 
  99 64.10 64.10 64.19 
 100 63.88 64.10 64.19 
 101 64.10 64.10 64.19 
 102 64.11 64.10 64.19 
 103 64.10 64.10 64.19 
 104 57.38 64.10 64.19 
 105 64.10 64.10 64.19 
 106 64.12 64.10 64.19 
 107 53.40 64.10 64.19 
 108 64.10 64.10 64.19 
 109 64.11 64.10 64.19 
 110 56.66 64.10 64.19 
 111 64.11 64.10 64.19 
 112 64.10 64.09 64.19 
 113 51.35 64.10 64.19 
 114 64.15 64.09 64.19 
 115 64.10 64.09 64.19 
 116 64.10 64.09 64.19 
 117 64.10 64.10 64.19 
 118 64.11 64.10 64.19 
 119 64.11 64.09 64.19 
 120 64.12 64.09 64.19 
 121 64.10 64.10 64.19 
 122 64.10 64.10 64.19 
 123 64.10 64.09 64.19 
 124 57.62 64.09 64.19 
 125 64.10 64.09 64.19 
 126 64.10 64.09 64.19 
 127 64.10 64.09 64.19 
 128 64.10 64.09 64.19 
 129 64.09 64.09 64.19 
 130 64.10 64.09 64.19 
 131 64.10 64.09 64.19 
 132 64.10 64.09 64.19 
 133 64.10 64.09 64.19 
 134 64.11 64.09 64.19 
 135 64.10 64.09 64.19 
 136 64.10 64.09 64.19 
 137 64.10 64.09 64.19 
 138 64.10 64.09 64.19 
 139 57.10 64.09 64.19 
 140 64.10 64.09 64.19 
 141 64.10 64.09 64.19 
 142 64.10 64.09 64.19 
 143 64.10 64.09 64.19 
 144 64.10 64.09 64.19 
 145 64.09 64.09 64.19 
 146 64.09 64.09 64.19 
 147 64.10 64.09 64.19 
 148 64.10 64.09 64.19 
 149 59.61 64.09 64.19 
 150 64.09 64.09 64.19 
 151 64.10 64.09 64.19 
 152 64.10 64.09 64.19 
 153 64.10 64.09 64.19 
 154 64.10 64.09 64.19 
 155 64.10 64.09 64.19 
 156 64.10 64.09 64.19 
 157 64.10 64.09 64.19 
 158 64.09 64.09 64.19 
 159 52.59 64.09 64.19 
 160 64.10 64.09 64.19 
 161 64.10 64.09 64.19 
 162 64.10 64.09 64.19 
 163 64.10 64.09 64.19 
 164 64.11 64.09 64.19 
 165 64.10 64.10 64.19 
 166 64.10 64.09 64.19 
 167 55.85 64.09 64.19 
 168 64.09 64.09 64.19 
 169 64.10 64.09 64.19 
 170 58.88 64.09 64.19 
 171 64.09 64.09 64.19 
 172 64.10 64.09 64.19 
 173 64.09 64.09 64.19 
 174 64.10 64.09 64.19 
 175 64.09 64.09 64.19 
 176 64.10 64.09 64.19 
 177 64.10 64.09 64.19 
 178 64.10 64.09 64.19 
 179 64.10 64.09 64.19 
 180 64.10 64.09 64.19 
 181 64.10 64.09 64.19 
 182 64.09 64.09 64.19 
 183 64.09 64.09 64.19 
 184 64.10 64.09 64.19 
 185 64.10 64.09 64.19 
 186 64.10 64.09 64.19 
 187 64.09 64.09 64.19 
 188 64.09 64.09 64.19 
 189 64.10 64.09 64.19 
 190 64.10 64.09 64.19 
 191 62.36 64.09 64.19 
 192 64.09 64.10 64.19 
 193 64.10 64.10 64.19 
 194 64.10 64.10 64.19 
 195 64.10 64.09 64.19 
 196 60.86 64.10 64.19 
 197 64.11 64.09 64.19 
 198 64.10 64.09 64.19 
 199 64.10 64.09 64.19 
 200 64.10 64.09 64.19 
 201 64.10 64.09 64.19 
 202 64.10 64.09 64.19 
 203 64.09 64.09 64.19 
 204 64.09 64.09 64.19 
 205 64.09 64.09 64.19 
 206 64.12 64.09 64.19 
 207 64.10 64.09 64.19 
 208 64.10 64.09 64.19 
 209 64.09 64.09 64.19 
 210 64.10 64.09 64.19 
 211 64.10 64.09 64.19 
 212 62.86 64.09 64.19 
 213 64.10 64.09 64.19 
 214 64.10 64.09 64.19 
 215 64.10 64.09 64.19 
 216 59.37 64.09 64.19 
 217 64.10 64.09 64.19 
 218 64.10 64.09 64.19 
 219 64.10 64.09 64.19 
 220 51.86 64.09 64.19 
 221 64.10 64.09 64.19 
 222 64.10 64.09 64.19 
 223 64.11 64.09 64.19 
 224 64.09 64.09 64.19 
 225 64.13 64.09 64.19 
 226 64.09 64.09 64.19 
 227 64.10 64.09 64.19 
 228 64.10 64.09 64.19 
 229 64.10 64.09 64.19 
 230 64.10 64.09 64.19 
 231 64.10 64.09 64.19 
 232 64.10 64.09 64.19 
 233 64.10 64.09 64.19 
 234 64.10 64.09 64.19 
 235 64.09 64.09 64.19 
 236 64.09 64.09 64.19 
 237 64.09 64.09 64.19 
 238 64.09 64.09 64.19 
 239 51.35 64.09 64.19 
 240 64.09 64.09 64.19 
 241 64.09 64.09 64.19 
 242 55.85 64.09 64.19 
 243 64.10 64.09 64.19 
 244 64.09 64.09 64.19 
 245 64.11 64.09 64.19 
 246 53.60 64.09 64.19 
 247 64.10 64.09 64.19 
 248 63.60 64.09 64.19 
 249 64.10 64.09 64.19 
 250 64.10 64.09 64.19 
 251 64.10 64.09 64.19 
 252 64.09 64.09 64.19 
 253 64.11 64.09 64.19 
 254 64.09 64.09 64.19 
 255 64.10 64.09 64.19 
 256 64.10 64.09 64.19 
 257 64.10 64.09 64.19 
 258 64.10 64.09 64.19 
 259 64.10 64.09 64.19 
 260 64.10 64.09 64.19 
 261 64.10 64.09 64.19 
 262 64.09 64.09 64.19 
 263 64.09 64.09 64.19 
 264 64.09 64.09 64.19 
 265 64.10 64.09 64.19 
 266 64.10 64.09 64.19 
 267 64.10 64.09 64.19 
 268 64.09 64.09 64.19 
 269 64.10 64.09 64.19 
 270 64.10 64.09 64.19 
 271 64.10 64.09 64.19 
 272 64.09 64.09 64.19 
 273 64.10 64.09 64.19 
 274 64.09 64.09 64.19 
 275 64.10 64.09 64.19 
 276 64.09 64.09 64.19 
 277 64.09 64.09 64.19 
 278 64.10 64.09 64.19 
 279 64.10 64.09 64.19 
 280 64.09 64.09 64.19 
 281 64.10 64.09 64.19 
 282 64.10 64.09 64.19 
 283 64.10 64.09 64.19 
 284 64.10 64.09 64.19 
 285 64.09 64.09 64.19 
 286 64.10 64.09 64.19 
 287 64.09 64.09 64.19 
 288 64.10 64.09 64.19 
 289 64.10 64.09 64.19 
 290 64.09 64.09 64.19 
 291 64.10 64.09 64.19 
 292 64.10 64.09 64.19 
 293 64.10 64.09 64.19 
 294 64.09 64.09 64.19 
 295 64.09 64.09 64.19 
 296 64.10 64.09 64.19 
 297 64.09 64.09 64.19 
 298 64.09 64.09 64.19 
 299 64.09 64.09 64.19 
 300 64.09 64.09 64.19 
 301 64.10 64.09 64.19 
 302 64.09 64.09 64.19 
 303 64.10 64.09 64.19 
 304 64.10 64.09 64.19 
 305 64.09 64.09 64.19 
 306 64.09 64.09 64.19 
 307 64.10 64.09 64.19 
 308 64.10 64.09 64.19 
 309 64.09 64.09 64.19 
 310 64.09 64.09 64.19 
 311 64.10 64.09 64.19 
 312 64.10 64.09 64.19 
 313 51.35 64.09 64.19 
 314 64.09 64.09 64.19 
 315 64.09 64.09 64.19 
 316 64.09 64.09 64.19 
 317 64.09 64.09 64.19 
 318 64.10 64.09 64.19 
 319 64.10 64.09 64.19 
 320 64.09 64.09 64.19 
 321 64.10 64.09 64.19 
 322 64.09 64.09 64.19 
 323 64.10 64.09 64.19 
 324 64.09 64.09 64.19 
 325 64.09 64.09 64.19 
 326 64.09 64.09 64.19 
 327 64.09 64.09 64.19 
 328 64.09 64.09 64.19 
 329 64.10 64.09 64.19 
 330 64.09 64.09 64.19 
 331 64.09 64.09 64.19 
 332 64.09 64.09 64.19 
 333 64.09 64.09 64.19 
 334 64.09 64.09 64.19 
 335 64.09 64.09 64.19 
 336 64.09 64.09 64.19 
 337 64.09 64.09 64.19 
 338 64.09 64.09 64.19 
 339 64.09 64.09 64.19 
 340 64.09 64.09 64.19 
 341 64.09 64.09 64.19 
 342 64.09 64.09 64.19 
 343 64.09 64.09 64.19 
 344 64.09 64.09 64.19 
 345 64.09 64.09 64.19 
 346 64.09 64.09 64.19 
 347 64.09 64.09 64.19 
 348 64.09 64.09 64.19 
 349 64.09 64.09 64.19 
 350 64.09 64.09 64.19 
 351 64.09 64.09 64.19 
 352 64.09 64.09 64.19 
 353 64.09 64.09 64.19 
 354 64.09 64.09 64.19 
 355 64.09 64.09 64.19 
 356 64.09 64.09 64.19 
 357 64.09 64.09 64.19 
 358 64.09 64.09 64.19 
 359 64.09 64.09 64.19 
 360 64.09 64.09 64.19 
 361 64.09 64.09 64.19 
 362 64.09 64.09 64.19 
 363 64.09 64.09 64.19 
 364 64.09 64.09 64.19 
 365 64.09 64.09 64.19 
 366 64.09 64.09 64.19 
 367 64.09 64.09 64.19 
 368 64.09 64.09 64.19 
 369 64.09 64.09 64.19 
 370 64.09 64.09 64.19 
 371 64.09 64.09 64.19 
 372 64.09 64.09 64.19 
 373 64.09 64.09 64.19 
 374 64.09 64.09 64.19 
 375 64.09 64.09 64.19 
 376 64.09 64.09 64.19 
 377 64.09 64.09 64.19 
 378 64.09 64.09 64.19 
 379 64.09 64.09 64.19 
 380 64.09 64.09 64.19 
 381 64.09 64.09 64.19 
 382 64.09 64.09 64.19 
 383 64.09 64.09 64.19 
 384 64.09 64.09 64.19 
 385 64.09 64.09 64.19 
 386 64.09 64.09 64.19 
 387 64.09 64.09 64.19 
 388 64.09 64.09 64.19 
 389 64.09 64.09 64.19 
 390 64.09 64.09 64.19 
 391 64.09 64.09 64.19 
 392 64.09 64.09 64.19 
 393 64.09 64.09 64.19 
 394 64.09 64.09 64.19 
 395 64.09 64.09 64.19 
 396 64.09 64.09 64.19 
 397 64.09 64.09 64.19 
 398 64.09 64.09 64.19 
 399 64.09 64.09 64.19 
 400 64.09 64.09 64.19 
 401 64.09 64.09 64.19 
 402 64.09 64.09 64.19 
 403 64.09 64.09 64.19 
 404 64.09 64.09 64.19 
 405 64.09 64.09 64.19 
 406 64.09 64.09 64.19 
 407 64.09 64.09 64.19 
 408 64.09 64.09 64.19 
 409 64.09 64.09 64.19 
 410 64.09 64.09 64.19 
 411 64.09 64.09 64.19 
 412 64.09 64.09 64.19 
 413 64.09 64.09 64.19 
 414 64.09 64.09 64.19 
 415 64.09 64.09 64.19 
 416 64.09 64.09 64.19 
 417 64.09 64.09 64.19 
 418 64.09 64.09 64.19 
 419 64.09 64.09 64.19 
 420 64.09 64.09 64.19 
 421 64.09 64.09 64.19 
 422 64.09 64.09 64.19 
 423 64.09 64.09 64.19 
 424 64.09 64.09 64.19 
 425 64.09 64.09 64.19 
 426 64.09 64.09 64.19 
 427 64.09 64.09 64.19 
 428 64.09 64.09 64.19 
 429 64.09 64.09 64.19 
 430 64.09 64.09 64.19 
 431 64.09 64.09 64.19 
 432 64.09 64.09 64.19 
 433 64.09 64.09 64.19 
 434 64.09 64.09 64.19 
 435 64.09 64.09 64.19 
 436 64.09 64.09 64.19 
 437 64.09 64.09 64.19 
 438 64.09 64.09 64.19 
 439 64.09 64.09 64.19 
 440 64.09 64.09 64.19 
 441 64.09 64.09 64.19 
 442 64.09 64.09 64.19 
 443 64.09 64.09 64.19 
 444 64.09 64.09 64.19 
 445 64.09 64.09 64.19 
 446 64.09 64.09 64.19 
 447 64.09 64.09 64.19 
 448 64.09 64.09 64.19 
 449 64.09 64.09 64.19 
 450 64.09 64.09 64.19 
 451 64.09 64.09 64.19 
 452 64.09 64.09 64.19 
 453 64.09 64.09 64.19 
 454 64.09 64.09 64.19 
 455 64.09 64.09 64.19 
 456 64.09 64.09 64.19 
 457 64.09 64.09 64.19 
 458 64.09 64.09 64.19 
 459 64.09 64.09 64.19 
 460 64.09 64.09 64.19 
 461 64.09 64.09 64.19 
 462 64.09 64.09 64.19 
 463 64.09 64.09 64.19 
 464 64.09 64.09 64.19 
 465 64.09 64.09 64.19 
 466 64.09 64.09 64.19 
 467 64.09 64.09 64.19 
 468 64.09 64.09 64.19 
 469 64.09 64.09 64.19 
 470 64.09 64.09 64.19 
 471 64.09 64.09 64.19 
 472 64.09 64.09 64.19 
 473 64.09 64.09 64.19 
 474 64.09 64.09 64.19 
 475 64.09 64.09 64.19 
 476 64.09 64.09 64.19 
 477 64.09 64.09 64.19 
 478 64.09 64.09 64.19 
 479 64.09 64.09 64.19 
 480 64.09 64.09 64.19 
 481 64.09 64.09 64.19 
 482 64.09 64.09 64.19 
 483 64.09 64.09 64.19 
 484 64.09 64.09 64.19 
 485 64.09 64.09 64.19 
 486 64.09 64.09 64.19 
 487 64.09 64.09 64.19 
 488 64.09 64.09 64.19 
 489 64.09 64.09 64.19 
 490 64.09 64.09 64.19 
 491 64.09 64.09 64.19 
 492 64.09 64.09 64.19 
 493 64.09 64.09 64.19 
 494 64.09 64.09 64.19 
 495 64.09 64.09 64.19 
 496 64.09 64.09 64.19 
 497 64.09 64.09 64.19 
 498 64.09 64.09 64.19 
 499 64.09 64.09 64.19 
 500 64.09 64.09 64.19 
 501 64.09 64.09 64.19 
 502 64.09 64.09 64.19 
 503 64.09 64.09 64.19 
 504 64.09 64.09 64.19 
 505 64.09 64.09 64.19 
 506 64.09 64.09 64.19 
 507 64.09 64.09 64.19 
 508 64.09 64.09 64.19 
 509 64.09 64.09 64.19 
 510 64.09 64.09 64.19 
 511 64.09 64.09 64.19 
 512 64.09 64.09 64.19 
 513 64.09 64.09 64.19 
 514 64.09 64.09 64.19 
 515 64.09 64.09 64.19 
 516 64.09 64.09 64.19 
 517 64.09 64.09 64.19 
 518 64.09 64.09 64.19 
 519 64.09 64.09 64.19 
 520 64.09 64.09 64.19 
 521 64.09 64.09 64.19 
 522 64.09 64.09 64.19 
 523 64.09 64.09 64.19 
 524 64.09 64.09 64.19 
 525 64.09 64.09 64.19 
 526 64.09 64.09 64.19 
 527 64.09 64.09 64.19 
 528 64.09 64.09 64.19 
 529 64.09 64.09 64.19 
 530 64.09 64.09 64.19 
 531 64.09 64.09 64.19 
 532 64.09 64.09 64.19 
 533 64.09 64.09 64.19 
 534 64.09 64.09 64.19 
 535 64.09 64.09 64.19 
 536 64.09 64.09 64.19 
 537 64.09 64.09 64.19 
 538 64.09 64.09 64.19 
 539 64.09 64.09 64.19 
 540 64.09 64.09 64.19 
 541 64.09 64.09 64.19 
 542 64.09 64.09 64.19 
 543 64.09 64.09 64.19 
 544 64.09 64.09 64.19 
 545 64.09 64.09 64.19 
 546 64.09 64.09 64.19 
 547 64.09 64.09 64.19 
 548 64.09 64.09 64.19 
 549 64.09 64.09 64.19 
 550 64.09 64.09 64.19 
 551 64.09 64.09 64.19 
 552 64.09 64.09 64.19 
 553 64.09 64.09 64.19 
 554 64.09 64.09 64.19 
 555 64.09 64.09 64.19 
 556 64.09 64.09 64.19 
 557 64.09 64.09 64.19 
 558 64.09 64.09 64.19 
 559 64.09 64.09 64.19 
 560 64.09 64.09 64.19 
 561 64.09 64.09 64.19 
 562 64.09 64.09 64.19 
 563 64.09 64.09 64.19 
 564 64.09 64.09 64.19 
 565 64.09 64.09 64.19 
 566 64.09 64.09 64.19 
 567 64.09 64.09 64.19 
 568 64.09 64.09 64.19 
 569 64.09 64.09 64.19 
 570 64.09 64.09 64.19 
 571 64.09 64.09 64.19 
 572 64.09 64.09 64.19 
 573 64.09 64.09 64.19 
 574 64.09 64.09 64.19 
 575 64.09 64.09 64.19 
 576 64.09 64.09 64.19 
 577 64.09 64.09 64.19 
 578 64.09 64.09 64.19 
 579 64.09 64.09 64.19 
 580 64.09 64.09 64.19 
 581 64.09 64.09 64.19 
 582 64.09 64.09 64.19 
 583 64.09 64.09 64.19 
 584 64.09 64.09 64.19 
 585 64.09 64.09 64.19 
 586 64.09 64.09 64.19 
 587 64.09 64.09 64.19 
 588 64.09 64.09 64.19 
 589 64.09 64.09 64.19 
 590 64.09 64.09 64.19 
 591 64.09 64.09 64.19 
 592 64.09 64.09 64.19 
 593 64.09 64.09 64.19 
 594 64.09 64.09 64.19 
 595 64.09 64.09 64.19 
 596 64.09 64.09 64.19 
 597 64.09 64.09 64.19 
 598 64.09 64.09 64.19 
 599 64.09 64.09 64.19 
 600 64.09 64.09 64.19 
 601 64.09 64.09 64.19 
 602 64.09 64.09 64.19 
 603 64.09 64.09 64.19 
 604 64.09 64.09 64.19 
 605 64.09 64.09 64.19 
 606 64.09 64.09 64.19 
 607 64.09 64.09 64.19 
 608 64.09 64.09 64.19 
 609 64.09 64.09 64.19 
 610 64.09 64.09 64.19 
 611 64.09 64.09 64.19 
 612 64.09 64.09 64.19 
 613 64.09 64.09 64.19 
 614 64.09 64.09 64.19 
 615 64.09 64.09 64.19 
 616 64.09 64.09 64.19 
 617 64.09 64.09 64.19 
 618 64.09 64.09 64.19 
 619 64.09 64.09 64.19 
 620 64.09 64.09 64.19 
 621 64.09 64.09 64.19 
 622 64.09 64.09 64.19 
 623 64.09 64.09 64.19 
 624 64.09 64.09 64.19 
 625 64.09 64.09 64.19 
 626 64.09 64.09 64.19 
 627 64.09 64.09 64.19 
 628 64.09 64.09 64.19 
 629 64.09 64.09 64.19 
 630 64.09 64.09 64.19 
 631 64.09 64.09 64.19 
 632 64.09 64.09 64.19 
 633 64.09 64.09 64.19 
 634 64.09 64.09 64.19 
 635 64.09 64.09 64.19 
 636 64.09 64.09 64.19 
 637 64.09 64.09 64.19 
 638 64.09 64.09 64.19 
 639 64.09 64.09 64.19 
 640 64.09 64.09 64.19 
 641 64.09 64.09 64.19 
 642 64.09 64.09 64.19 
 643 64.09 64.09 64.19 
 644 64.09 64.09 64.19 
 645 64.09 64.09 64.19 
 646 64.09 64.09 64.19 
 647 64.09 64.09 64.19 
 648 64.09 64.09 64.19 
 649 64.09 64.09 64.19 
 650 64.09 64.09 64.19 
 651 64.09 64.09 64.19 
 652 64.09 64.09 64.19 
 653 64.09 64.09 64.19 
 654 64.09 64.09 64.19 
 655 64.09 64.09 64.19 
 656 64.09 64.09 64.19 
 657 64.09 64.09 64.19 
 658 64.09 64.09 64.19 
 659 64.09 64.09 64.19 
 660 64.09 64.09 64.19 
 661 64.09 64.09 64.19 
 662 64.09 64.09 64.19 
 663 64.09 64.09 64.19 
 664 64.09 64.09 64.19 
 665 64.09 64.09 64.19 
 666 64.09 64.09 64.19 
 667 64.09 64.09 64.19 
 668 64.09 64.09 64.19 
 669 64.09 64.09 64.19 
 670 64.09 64.09 64.19 
 671 64.09 64.09 64.19 
 672 64.09 64.09 64.19 
 673 64.09 64.09 64.19 
 674 64.09 64.09 64.19 
 675 64.09 64.09 64.19 
 676 64.09 64.09 64.19 
 677 64.09 64.09 64.19 
 678 64.09 64.09 64.19 
 679 64.09 64.09 64.19 
 680 64.09 64.09 64.19 
 681 64.09 64.09 64.19 
 682 64.09 64.09 64.19 
 683 64.09 64.09 64.19 
 684 64.09 64.09 64.19 
 685 64.09 64.09 64.19 
 686 64.09 64.09 64.19 
 687 64.09 64.09 64.19 
 688 64.09 64.09 64.19 
 689 64.09 64.09 64.19 
 690 64.09 64.09 64.19 
 691 64.09 64.09 64.19 
 692 64.09 64.09 64.19 
 693 64.09 64.09 64.19 
 694 64.09 64.09 64.19 
 695 64.09 64.09 64.19 
 696 64.09 64.09 64.19 
 697 64.09 64.09 64.19 
 698 64.09 64.09 64.19 
 699 64.09 64.09 64.19 
 700 64.09 64.09 64.19 
 701 64.09 64.09 64.19 
 702 64.09 64.09 64.19 
 703 64.09 64.09 64.19 
 704 64.09 64.09 64.19 
 705 64.09 64.09 64.19 
 706 64.09 64.09 64.19 
 707 64.09 64.09 64.19 
 708 64.09 64.09 64.19 
 709 64.09 64.09 64.19 
 710 64.09 64.09 64.19 
 711 64.09 64.09 64.19 
 712 64.09 64.09 64.19 
 713 64.09 64.09 64.19 
 714 64.09 64.09 64.19 
 715 64.09 64.09 64.19 
 716 64.09 64.09 64.19 
 717 64.09 64.09 64.19 
 718 64.09 64.09 64.19 
 719 64.09 64.09 64.19 
 720 64.09 64.09 64.19 
 721 64.09 64.09 64.19 
 722 64.09 64.09 64.19 
 723 64.09 64.09 64.19 
 724 64.09 64.09 64.19 
 725 64.09 64.09 64.19 
 726 64.09 64.09 64.19 
 727 64.09 64.09 64.19 
 728 64.09 64.09 64.19 
 729 64.09 64.09 64.19 
 730 64.09 64.09 64.19 
 731 64.09 64.09 64.19 
 732 64.09 64.09 64.19 
 733 64.09 64.09 64.19 
 734 64.09 64.09 64.19 
 735 64.09 64.09 64.19 
 736 64.09 64.09 64.19 
 737 64.09 64.09 64.19 
 738 64.09 64.09 64.19 
 739 64.09 64.09 64.19 
 740 64.09 64.09 64.19 
 741 64.09 64.09 64.19 
 742 64.09 64.09 64.19 
 743 64.09 64.09 64.19 
 744 64.09 64.09 64.19 
 745 64.09 64.09 64.19 
 746 64.09 64.09 64.19 
 747 64.09 64.09 64.19 
 748 64.09 64.09 64.19 
 749 64.09 64.09 64.19 
 750 64.09 64.09 64.19 
 751 64.09 64.09 64.19 
 752 64.09 64.09 64.19 
 753 64.09 64.09 64.19 
 754 64.09 64.09 64.19 
 755 64.09 64.09 64.19 
 756 64.09 64.09 64.19 
 757 64.09 64.09 64.19 
 758 64.09 64.09 64.19 
 759 64.09 64.09 64.19 
 760 64.09 64.09 64.19 
 761 64.09 64.09 64.19 
 762 64.09 64.09 64.19 
 763 64.09 64.09 64.19 
 764 64.09 64.09 64.19 
 765 64.09 64.09 64.19 
 766 64.09 64.09 64.19 
 767 64.09 64.09 64.19 
 768 64.09 64.09 64.19 
 769 64.09 64.09 64.19 
 770 64.09 64.09 64.19 
 771 64.09 64.09 64.19 
 772 64.09 64.09 64.19 
 773 64.09 64.09 64.19 
 774 64.09 64.09 64.19 
 775 64.09 64.09 64.19 
 776 64.09 64.09 64.19 
 777 64.09 64.09 64.19 
 778 64.09 64.09 64.19 
 779 64.09 64.09 64.19 
 780 64.09 64.09 64.19 
 781 64.09 64.09 64.19 
 782 64.09 64.09 64.19 
 783 64.09 64.09 64.19 
 784 64.09 64.09 64.19 
 785 64.09 64.09 64.19 
 786 64.09 64.09 64.19 
 787 64.09 64.09 64.19 
 788 64.09 64.09 64.19 
 789 64.09 64.09 64.19 
 790 64.09 64.09 64.19 
 791 64.09 64.09 64.19 
 792 64.09 64.09 64.19 
 793 64.09 64.09 64.19 
 794 64.09 64.09 64.19 
 795 64.09 64.09 64.19 
 796 64.09 64.09 64.19 
 797 64.09 64.09 64.19 
 798 64.09 64.09 64.19 
 799 64.09 64.09 64.19 
 800 64.09 64.09 64.19 
 801 64.09 64.09 64.19 
 802 64.09 64.09 64.19 
 803 64.09 64.09 64.19 
 804 64.09 64.09 64.19 
 805 64.09 64.09 64.19 
 806 64.09 64.09 64.19 
 807 64.09 64.09 64.19 
 808 64.09 64.09 64.19 
 809 64.09 64.09 64.19 
 810 64.09 64.09 64.19 
 811 64.09 64.09 64.19 
 812 64.09 64.09 64.19 
 813 64.09 64.09 64.19 
 814 64.09 64.09 64.19 
 815 64.09 64.09 64.19 
 816 64.09 64.09 64.19 
 817 64.09 64.09 64.19 
 818 64.09 64.09 64.19 
 819 64.09 64.09 64.19 
 820 64.09 64.09 64.19 
 821 64.09 64.09 64.19 
 822 64.09 64.09 64.19 
 823 64.09 64.09 64.19 
 824 64.09 64.09 64.19 
 825 64.09 64.09 64.19 
 826 64.09 64.09 64.19 
 827 64.09 64.09 64.19 
 828 64.09 64.09 64.19 
 829 64.09 64.09 64.19 
 830 64.09 64.09 64.19 
 831 64.09 64.09 64.19 
 832 64.09 64.09 64.19 
 833 64.09 64.09 64.19 
 834 64.09 64.09 64.19 
 835 64.09 64.09 64.19 
 836 64.09 64.09 64.19 
 837 64.09 64.09 64.19 
 838 64.09 64.09 64.19 
 839 64.09 64.09 64.19 
 840 64.09 64.09 64.19 
 841 64.09 64.09 64.19 
 842 64.09 64.09 64.19 
 843 64.09 64.09 64.19 
 844 64.09 64.09 64.19 
 845 64.09 64.09 64.19 
 846 64.09 64.09 64.19 
 847 64.09 64.09 64.19 
 848 64.09 64.09 64.19 
 849 64.09 64.09 64.19 
 850 64.09 64.09 64.19 
 851 64.09 64.09 64.19 
 852 64.09 64.09 64.19 
 853 64.09 64.09 64.19 
 854 64.09 64.09 64.19 
 855 64.09 64.09 64.19 
 856 64.09 64.09 64.19 
 857 64.09 64.09 64.19 
 858 64.09 64.09 64.19 
 859 64.09 64.09 64.19 
 860 64.09 64.09 64.19 
 861 64.09 64.09 64.19 
 862 64.09 64.09 64.19 
 863 64.09 64.09 64.19 
 864 64.09 64.09 64.19 
 865 64.09 64.09 64.19 
 866 64.09 64.09 64.19 
 867 64.09 64.09 64.19 
 868 64.09 64.09 64.19 
 869 64.09 64.09 64.19 
 870 64.09 64.09 64.19 
 871 64.09 64.09 64.19 
 872 64.09 64.09 64.19 
 873 64.09 64.09 64.19 
 874 64.09 64.09 64.19 
 875 64.09 64.09 64.19 
 876 64.09 64.09 64.19 
 877 64.09 64.09 64.19 
 878 64.09 64.09 64.19 
 879 64.09 64.09 64.19 
 880 64.09 64.09 64.19 
 881 64.09 64.09 64.19 
 882 64.09 64.09 64.19 
 883 64.09 64.09 64.19 
 884 64.09 64.09 64.19 
 885 64.09 64.09 64.19 
 886 64.09 64.09 64.19 
 887 64.09 64.09 64.19 
 888 64.09 64.09 64.19 
 889 64.09 64.09 64.19 
 890 64.09 64.09 64.19 
 891 64.09 64.09 64.19 
 892 64.09 64.09 64.19 
 893 64.09 64.09 64.19 
 894 64.09 64.09 64.19 
 895 64.09 64.09 64.19 
 896 64.09 64.09 64.19 
 897 64.09 64.09 64.19 
 898 64.09 64.09 64.19 
 899 64.09 64.09 64.19 
 900 64.09 64.09 64.19 
 901 64.09 64.09 64.19 
 902 64.09 64.09 64.19 
 903 64.09 64.09 64.19 
 904 64.09 64.09 64.19 
 905 64.09 64.09 64.19 
 906 64.09 64.09 64.19 
 907 64.09 64.09 64.19 
 908 64.09 64.09 64.19 
 909 64.09 64.09 64.19 
 910 64.09 64.09 64.19 
 911 64.09 64.09 64.19 
 912 64.09 64.09 64.19 
 913 64.09 64.09 64.19 
 914 64.09 64.09 64.19 
 915 64.09 64.09 64.19 
 916 64.09 64.09 64.19 
 917 64.09 64.09 64.19 
 918 64.09 64.09 64.19 
 919 64.09 64.09 64.19 
 920 64.09 64.09 64.19 
 921 64.09 64.09 64.19 
 922 64.09 64.09 64.19 
 923 64.09 64.09 64.19 
 924 64.09 64.09 64.19 
 925 64.09 64.09 64.19 
 926 64.09 64.09 64.19 
 927 64.09 64.09 64.19 
 928 64.09 64.09 64.19 
 929 64.09 64.09 64.19 
 930 64.09 64.09 64.19 
 931 64.09 64.09 64.19 
 932 64.09 64.09 64.19 
 933 64.09 64.09 64.19 
 934 64.09 64.09 64.19 
 935 64.09 64.09 64.19 
 936 64.09 64.09 64.19 
 937 64.09 64.09 64.19 
 938 64.09 64.09 64.19 
 939 64.09 64.09 64.19 
 940 64.09 64.09 64.19 
 941 64.09 64.09 64.19 
 942 64.09 64.09 64.19 
 943 64.09 64.09 64.19 
 944 64.09 64.09 64.19 
 945 64.09 64.09 64.19 
 946 64.09 64.09 64.19 
 947 64.09 64.09 64.19 
 948 64.09 64.09 64.19 
 949 64.09 64.09 64.19 
 950 64.09 64.09 64.19 
 951 64.09 64.09 64.19 
 952 64.09 64.09 64.19 
 953 64.09 64.09 64.19 
 954 64.09 64.09 64.19 
 955 64.09 64.09 64.19 
 956 64.09 64.09 64.19 
 957 64.09 64.09 64.19 
 958 64.09 64.09 64.19 
 959 64.09 64.09 64.19 
 960 64.09 64.09 64.19 
 961 64.09 64.09 64.19 
 962 64.09 64.09 64.19 
 963 64.09 64.09 64.19 
 964 64.09 64.09 64.19 
 965 64.09 64.09 64.19 
 966 64.09 64.09 64.19 
 967 64.09 64.09 64.19 
 968 64.09 64.09 64.19 
 969 64.09 64.09 64.19 
 970 64.09 64.09 64.19 
 971 64.09 64.09 64.19 
 972 64.09 64.09 64.19 
 973 64.09 64.09 64.19 
 974 64.09 64.09 64.19 
 975 64.09 64.09 64.19 
 976 64.09 64.09 64.19 
 977 64.09 64.09 64.19 
 978 64.09 64.09 64.19 
 979 64.09 64.09 64.19 
 980 64.09 64.09 64.19 
 981 64.09 64.09 64.19 
 982 64.09 64.09 64.19 
 983 64.09 64.09 64.19 
 984 64.09 64.09 64.19 
 985 64.09 64.09 64.19 
 986 64.09 64.09 64.19 
 987 64.09 64.09 64.19 
 988 64.09 64.09 64.19 
 989 64.09 64.09 64.19 
 990 64.09 64.09 64.19 
 991 64.09 64.09 64.19 
 992 64.09 64.09 64.19 
 993 64.09 64.09 64.19 
 994 64.09 64.09 64.19 
 995 64.09 64.09 64.19 
 996 64.09 64.09 64.19 
 997 64.09 64.09 64.19 
 998 64.09 64.09 64.19 
 999 64.09 64.09 64.19 
1000 64.09 64.09 64.19 
1001 64.09 64.09 64.19 
1002 64.09 64.09 64.19 
1003 64.09 64.09 64.19 
1004 64.09 64.09 64.19 
1005 64.09 64.09 64.19 
1006 64.09 64.09 64.19 
1007 64.09 64.09 64.19 
1008 64.09 64.09 64.19 
1009 64.09 64.09 64.19 
1010 64.09 64.09 64.19 
1011 64.09 64.09 64.19 
1012 64.09 64.09 64.19 
1013 64.09 64.09 64.19 
1014 64.09 64.09 64.19 
1015 64.09 64.09 64.19 
1016 64.09 64.09 64.19 
1017 64.09 64.09 64.19 
1018 64.09 64.09 64.19 
1019 64.09 64.09 64.19 
1020 64.09 64.09 64.19 
1021 64.09 64.09 64.19 
1022 64.09 64.09 64.19 
1023 64.09 64.09 64.19 
1024 64.09 64.09 64.19 
1025 64.09 64.09 64.19 
1026 64.09 64.09 64.19 
1027 64.09 64.09 64.19 
1028 64.09 64.09 64.19 
1029 64.09 64.09 64.19 
1030 64.09 64.09 64.19 
1031 64.09 64.09 64.19 
1032 64.09 64.09 64.19 
1033 64.09 64.09 64.19 
1034 64.09 64.09 64.19 
1035 64.09 64.09 64.19 
1036 64.09 64.09 64.19 
1037 64.09 64.09 64.19 
1038 64.09 64.09 64.19 
1039 64.09 64.09 64.19 
1040 64.09 64.09 64.19 
1041 64.09 64.09 64.19 
1042 64.09 64.09 64.19 
1043 64.09 64.09 64.19 
1044 64.09 64.09 64.19 
1045 64.09 64.09 64.19 
1046 64.09 64.09 64.19 
1047 64.09 64.09 64.19 
1048 64.09 64.09 64.19 
1049 64.09 64.09 64.19 
1050 64.09 64.09 64.19 
1051 64.09 64.09 64.19 
1052 64.09 64.09 64.19 
1053 64.09 64.09 64.19 
1054 64.09 64.09 64.19 
1055 64.09 64.09 64.19 
1056 64.09 64.09 64.19 
1057 64.09 64.09 64.19 
1058 64.09 64.09 64.19 
1059 64.09 64.09 64.19 
1060 64.09 64.09 64.19 
1061 64.09 64.09 64.19 
1062 64.09 64.09 64.19 
1063 64.09 64.09 64.19 
1064 64.09 64.09 64.19 
1065 64.09 64.09 64.19 
1066 64.09 64.09 64.19 
1067 64.09 64.09 64.19 
1068 64.09 64.09 64.19 
1069 64.09 64.09 64.19 
1070 64.09 64.09 64.19 
1071 64.09 64.09 64.19 
1072 64.09 64.09 64.19 
1073 64.09 64.09 64.19 
1074 64.09 64.09 64.19 
1075 64.09 64.09 64.19 
1076 64.09 64.09 64.19 
1077 64.09 64.09 64.19 
1078 64.09 64.09 64.19 
1079 64.09 64.09 64.19 
1080 64.09 64.09 64.19 
1081 64.09 64.09 64.19 
1082 64.09 64.09 64.19 
1083 64.09 64.09 64.19 
1084 64.09 64.09 64.19 
1085 64.09 64.09 64.19 
1086 64.09 64.09 64.19 
1087 64.09 64.09 64.19 
1088 64.09 64.09 64.19 
1089 64.09 64.09 64.19 
1090 64.09 64.09 64.19 
1091 64.09 64.09 64.19 
1092 64.09 64.09 64.19 
1093 64.09 64.09 64.19 
1094 64.09 64.09 64.19 
1095 64.09 64.09 64.19 
1096 64.09 64.09 64.19 
1097 64.09 64.09 64.19 
1098 64.09 64.09 64.19 
1099 64.09 64.09 64.19 
1100 64.09 64.09 64.19 
1101 64.09 64.09 64.19 
1102 64.09 64.09 64.19 
1103 64.09 64.09 64.19 
1104 64.09 64.09 64.19 
1105 64.09 64.09 64.19 
1106 64.09 64.09 64.19 
1107 64.09 64.09 64.19 
1108 64.09 64.09 64.19 
1109 64.09 64.09 64.19 
1110 64.09 64.09 64.19 
1111 64.09 64.09 64.19 
1112 64.09 64.09 64.19 
1113 64.09 64.09 64.19 
1114 64.09 64.09 64.19 
1115 64.09 64.09 64.19 
1116 64.09 64.09 64.19 
1117 64.09 64.09 64.19 
1118 64.09 64.09 64.19 
1119 64.09 64.09 64.19 
1120 64.09 64.09 64.19 
1121 64.09 64.09 64.19 
1122 64.09 64.09 64.19 
1123 64.09 64.09 64.19 
1124 64.09 64.09 64.19 
1125 64.09 64.09 64.19 
1126 64.09 64.09 64.19 
1127 64.09 64.09 64.19 
1128 64.09 64.09 64.19 
1129 64.09 64.09 64.19 
1130 64.09 64.09 64.19 
1131 64.09 64.09 64.19 
1132 64.09 64.09 64.19 
1133 64.09 64.09 64.19 
1134 64.09 64.09 64.19 
1135 64.09 64.09 64.19 
1136 64.09 64.09 64.19 
1137 64.09 64.09 64.19 
1138 64.09 64.09 64.19 
1139 64.09 64.09 64.19 
1140 64.09 64.09 64.19 
1141 64.09 64.09 64.19 
1142 64.09 64.09 64.19 
1143 64.09 64.09 64.19 
1144 64.09 64.09 64.19 
1145 64.09 64.09 64.19 
1146 64.09 64.09 64.19 
1147 64.09 64.09 64.19 
1148 64.09 64.09 64.19 
1149 64.09 64.09 64.19 
1150 64.09 64.09 64.19 
1151 64.09 64.09 64.19 
1152 64.09 64.09 64.19 
1153 64.09 64.09 64.19 
1154 64.09 64.09 64.19 
1155 64.09 64.09 64.19 
1156 64.09 64.09 64.19 
1157 64.09 64.09 64.19 
1158 64.09 64.09 64.19 
1159 64.09 64.09 64.19 
1160 64.09 64.09 64.19 
1161 64.09 64.09 64.19 
1162 64.09 64.09 64.19 
1163 64.09 64.09 64.19 
1164 64.09 64.09 64.19 
1165 64.09 64.09 64.19 
1166 64.09 64.09 64.19 
1167 64.09 64.09 64.19 
1168 64.09 64.09 64.19 
1169 64.09 64.09 64.19 
1170 64.09 64.09 64.19 
1171 64.09 64.09 64.19 
1172 64.09 64.09 64.19 
1173 64.09 64.09 64.19 
1174 64.09 64.09 64.19 
1175 64.09 64.09 64.19 
1176 64.09 64.09 64.19 
1177 64.09 64.09 64.19 
1178 64.09 64.09 64.19 
1179 64.09 64.09 64.19 
1180 64.09 64.09 64.19 
1181 64.09 64.09 64.19 
1182 64.09 64.09 64.19 
1183 64.09 64.09 64.19 
1184 64.09 64.09 64.19 
1185 64.09 64.09 64.19 
1186 64.09 64.09 64.19 
1187 64.09 64.09 64.19 
1188 64.09 64.09 64.19 
1189 64.09 64.09 64.19 
1190 64.09 64.09 64.19 
1191 64.09 64.09 64.19 
1192 64.09 64.09 64.19 
1193 64.09 64.09 64.19 
1194 64.09 64.09 64.19 
1195 64.09 64.09 64.19 
1196 64.09 64.09 64.19 
1197 64.09 64.09 64.19 
1198 64.09 64.09 64.19 
1199 64.09 64.09 64.19 
1200 64.09 64.09 64.19 
1201 64.09 64.09 64.19 
1202 64.09 64.09 64.19 
1203 64.09 64.09 64.19 
1204 64.09 64.09 64.19 
1205 64.09 64.09 64.19 
1206 64.09 64.09 64.19 
1207 64.09 64.09 64.19 
1208 64.09 64.09 64.19 
1209 64.09 64.09 64.19 
1210 64.09 64.09 64.19 
1211 64.09 64.09 64.19 
1212 64.09 64.09 64.19 
1213 64.09 64.09 64.19 
1214 64.09 64.09 64.19 
1215 64.09 64.09 64.19 
1216 64.09 64.09 64.19 
1217 64.09 64.09 64.19 
1218 64.09 64.09 64.19 
1219 64.09 64.09 64.19 
1220 64.09 64.09 64.19 
1221 64.09 64.09 64.19 
1222 64.09 64.09 64.19 
1223 64.09 64.09 64.19 
1224 64.09 64.09 64.19 
1225 64.09 64.09 64.19 
1226 64.09 64.09 64.19 
1227 64.09 64.09 64.19 
1228 64.09 64.09 64.19 
1229 64.09 64.09 64.19 
1230 64.09 64.09 64.19 
1231 64.09 64.09 64.19 
1232 64.09 64.09 64.19 
1233 64.09 64.09 64.19 
1234 64.09 64.09 64.19 
1235 64.09 64.09 64.19 
1236 64.09 64.09 64.19 
1237 64.09 64.09 64.19 
1238 64.09 64.09 64.19 
1239 64.09 64.09 64.19 
1240 64.09 64.09 64.19 
1241 64.09 64.09 64.19 
1242 64.09 64.09 64.19 
1243 64.09 64.09 64.19 
1244 64.09 64.09 64.19 
1245 64.09 64.09 64.19 
1246 64.09 64.09 64.19 
1247 64.09 64.09 64.19 
1248 64.09 64.09 64.19 
1249 64.09 64.09 64.19 
1250 64.09 64.09 64.19 
1251 64.09 64.09 64.19 
1252 64.09 64.09 64.19 
1253 64.09 64.09 64.19 
1254 64.09 64.09 64.19 
1255 64.09 64.09 64.19 
1256 64.09 64.09 64.19 
1257 64.09 64.09 64.19 
1258 64.09 64.09 64.19 
1259 64.09 64.09 64.19 
1260 64.09 64.09 64.19 
1261 64.09 64.09 64.19 
1262 64.09 64.09 64.19 
1263 64.09 64.09 64.19 
1264 64.09 64.09 64.19 
1265 64.09 64.09 64.19 
1266 64.09 64.09 64.19 
1267 64.09 64.09 64.19 
1268 64.09 64.09 64.19 
1269 64.09 64.09 64.19 
1270 64.09 64.09 64.19 
1271 64.09 64.09 64.19 
1272 64.09 64.09 64.19 
1273 64.09 64.09 64.19 
1274 64.09 64.09 64.19 
1275 64.09 64.09 64.19 
1276 64.09 64.09 64.19 
1277 64.09 64.09 64.19 
1278 64.09 64.09 64.19 
1279 64.09 64.09 64.19 
1280 64.09 64.09 64.19 
1281 64.09 64.09 64.19 
1282 64.09 64.09 64.19 
1283 64.09 64.09 64.19 
1284 64.09 64.09 64.19 
1285 64.09 64.09 64.19 
1286 64.09 64.09 64.19 
1287 64.09 64.09 64.19 
1288 64.09 64.09 64.19 
1289 64.09 64.09 64.19 
1290 64.09 64.09 64.19 
1291 64.09 64.09 64.19 
1292 64.09 64.09 64.19 
1293 64.09 64.09 64.19 
1294 64.09 64.09 64.19 
1295 64.09 64.09 64.19 
1296 64.09 64.09 64.19 
1297 64.09 64.09 64.19 
1298 64.09 64.09 64.19 
1299 64.09 64.09 64.19 
1300 64.09 64.09 64.19 
1301 64.09 64.09 64.19 
1302 64.09 64.09 64.19 
1303 64.09 64.09 64.19 
1304 64.09 64.09 64.19 
1305 64.09 64.09 64.19 
1306 64.09 64.09 64.19 
1307 64.09 64.09 64.19 
1308 64.09 64.09 64.19 
1309 64.09 64.09 64.19 
1310 64.09 64.09 64.19 
1311 64.09 64.09 64.19 
1312 64.09 64.09 64.19 
1313 64.09 64.09 64.19 
1314 64.09 64.09 64.19 
1315 64.09 64.09 64.19 
1316 64.09 64.09 64.19 
1317 64.09 64.09 64.19 
1318 64.09 64.09 64.19 
1319 64.09 64.09 64.19 
1320 64.09 64.09 64.19 
1321 64.09 64.09 64.19 
1322 64.09 64.09 64.19 
1323 64.09 64.09 64.19 
1324 64.09 64.09 64.19 
1325 64.09 64.09 64.19 
1326 64.09 64.09 64.19 
1327 64.09 64.09 64.19 
1328 64.09 64.09 64.19 
1329 64.09 64.09 64.19 
1330 64.09 64.09 64.19 
1331 64.09 64.09 64.19 
1332 64.09 64.09 64.19 
1333 64.09 64.09 64.19 
1334 64.09 64.09 64.19 
1335 64.09 64.09 64.19 
1336 64.09 64.09 64.19 
1337 64.09 64.09 64.19 
1338 64.09 64.09 64.19 
1339 64.09 64.09 64.19 
1340 64.09 64.09 64.19 
1341 64.09 64.09 64.19 
1342 64.09 64.09 64.19 
1343 64.09 64.09 64.19 
1344 64.09 64.09 64.19 
1345 64.09 64.09 64.19 
1346 64.09 64.09 64.19 
1347 64.09 64.09 64.19 
1348 64.09 64.09 64.19 
1349 64.09 64.09 64.19 
1350 64.09 64.09 64.19 
1351 64.09 64.09 64.19 
1352 64.09 64.09 64.19 
1353 64.09 64.09 64.19 
1354 64.09 64.09 64.19 
1355 64.09 64.09 64.19 
1356 64.09 64.09 64.19 
1357 64.09 64.09 64.19 
1358 64.09 64.09 64.19 
1359 64.09 64.09 64.19 
1360 64.09 64.09 64.19 
1361 64.09 64.09 64.19 
1362 64.09 64.09 64.19 
1363 64.09 64.09 64.19 
1364 64.09 64.09 64.19 
1365 64.09 64.09 64.19 
1366 64.09 64.09 64.19 
1367 64.09 64.09 64.19 
1368 64.09 64.09 64.19 
1369 64.09 64.09 64.19 
1370 64.09 64.09 64.19 
1371 64.09 64.09 64.19 
1372 64.09 64.09 64.19 
1373 64.09 64.09 64.19 
1374 64.09 64.09 64.19 
1375 64.09 64.09 64.19 
1376 64.09 64.09 64.19 
1377 64.09 64.09 64.19 
1378 64.09 64.09 64.19 
1379 64.09 64.09 64.19 
1380 64.09 64.09 64.19 
1381 64.09 64.09 64.19 
1382 64.09 64.09 64.19 
1383 64.09 64.09 64.19 
1384 64.09 64.09 64.19 
1385 64.09 64.09 64.19 
1386 64.09 64.09 64.19 
1387 64.09 64.09 64.19 
1388 64.09 64.09 64.19 
1389 64.09 64.09 64.19 
1390 64.09 64.09 64.19 
1391 64.09 64.09 64.19 
1392 64.09 64.09 64.19 
1393 64.09 64.09 64.19 
1394 64.09 64.09 64.19 
1395 64.09 64.09 64.19 
1396 64.09 64.09 64.19 
1397 64.09 64.09 64.19 
1398 64.09 64.09 64.19 
1399 64.09 64.09 64.19 
1400 64.09 64.09 64.19 
1401 64.09 64.09 64.19 
1402 64.09 64.09 64.19 
1403 64.09 64.09 64.19 
1404 64.09 64.09 64.19 
1405 64.09 64.09 64.19 
1406 64.09 64.09 64.19 
1407 64.09 64.09 64.19 
1408 64.09 64.09 64.19 
1409 64.09 64.09 64.19 
1410 64.09 64.09 64.19 
1411 64.09 64.09 64.19 
1412 64.09 64.09 64.19 
1413 64.09 64.09 64.19 
1414 64.09 64.09 64.19 
1415 64.09 64.09 64.19 
1416 64.09 64.09 64.19 
1417 64.09 64.09 64.19 
1418 64.09 64.09 64.19 
1419 64.09 64.09 64.19 
1420 64.09 64.09 64.19 
1421 64.09 64.09 64.19 
1422 64.09 64.09 64.19 
1423 64.09 64.09 64.19 
1424 64.09 64.09 64.19 
1425 64.09 64.09 64.19 
1426 64.09 64.09 64.19 
1427 64.09 64.09 64.19 
1428 64.09 64.09 64.19 
1429 64.09 64.09 64.19 
1430 64.09 64.09 64.19 
1431 64.09 64.09 64.19 
1432 64.09 64.09 64.19 
1433 64.09 64.09 64.19 
1434 64.09 64.09 64.19 
1435 64.09 64.09 64.19 
1436 64.09 64.09 64.19 
1437 64.09 64.09 64.19 
1438 64.09 64.09 64.19 
1439 64.09 64.09 64.19 
1440 64.09 64.09 64.19 
1441 64.09 64.09 64.19 
1442 64.09 64.09 64.19 
1443 64.09 64.09 64.19 
1444 64.09 64.09 64.19 
1445 64.09 64.09 64.19 
1446 64.09 64.09 64.19 
1447 64.09 64.09 64.19 
1448 64.09 64.09 64.19 
1449 64.09 64.09 64.19 
1450 64.09 64.09 64.19 
1451 64.09 64.09 64.19 
1452 64.09 64.09 64.19 
1453 64.09 64.09 64.19 
1454 64.09 64.09 64.19 
1455 64.09 64.09 64.19 
1456 64.09 64.09 64.19 
1457 64.09 64.09 64.19 
1458 64.09 64.09 64.19 
1459 64.09 64.09 64.19 
1460 64.09 64.09 64.19 
1461 64.09 64.09 64.19 
1462 64.09 64.09 64.19 
1463 64.09 64.09 64.19 
1464 64.09 64.09 64.19 
1465 64.09 64.09 64.19 
1466 64.09 64.09 64.19 
1467 64.09 64.09 64.19 
1468 64.09 64.09 64.19 
1469 64.09 64.09 64.19 
1470 64.09 64.09 64.19 
1471 64.09 64.09 64.19 
1472 64.09 64.09 64.19 
1473 64.09 64.09 64.19 
1474 64.09 64.09 64.19 
1475 64.09 64.09 64.19 
1476 64.09 64.09 64.19 
1477 64.09 64.09 64.19 
1478 64.09 64.09 64.19 
1479 64.09 64.09 64.19 
1480 64.09 64.09 64.19 
1481 64.09 64.09 64.19 
1482 64.09 64.09 64.19 
1483 64.09 64.09 64.19 
1484 64.09 64.09 64.19 
1485 64.09 64.09 64.19 
1486 64.09 64.09 64.19 
1487 64.09 64.09 64.19 
1488 64.09 64.09 64.19 
1489 64.09 64.09 64.19 
1490 64.09 64.09 64.19 
1491 64.09 64.09 64.19 
1492 64.09 64.09 64.19 
1493 64.09 64.09 64.19 
1494 64.09 64.09 64.19 
1495 64.09 64.09 64.19 
1496 64.09 64.09 64.19 
1497 64.09 64.09 64.19 
1498 64.09 64.09 64.19 
1499 64.09 64.09 64.19 
1500 64.09 64.09 64.19 
1501 64.09 64.09 64.19 
1502 64.09 64.09 64.19 
1503 64.09 64.09 64.19 
1504 64.09 64.09 64.19 
1505 64.09 64.09 64.19 
1506 64.09 64.09 64.19 
1507 64.09 64.09 64.19 
1508 64.09 64.09 64.19 
1509 64.09 64.09 64.19 
1510 64.09 64.09 64.19 
1511 64.09 64.09 64.19 
1512 64.09 64.09 64.19 
1513 64.09 64.09 64.19 
1514 64.09 64.09 64.19 
1515 64.09 64.09 64.19 
1516 64.09 64.09 64.19 
1517 64.09 64.09 64.19 
1518 64.09 64.09 64.19 
1519 64.09 64.09 64.19 
1520 64.09 64.09 64.19 
1521 64.09 64.09 64.19 
1522 64.09 64.09 64.19 
1523 64.09 64.09 64.19 
1524 64.09 64.09 64.19 
1525 64.09 64.09 64.19 
1526 64.09 64.09 64.19 
1527 64.09 64.09 64.19 
1528 64.09 64.09 64.19 
1529 64.09 64.09 64.19 
1530 64.09 64.09 64.19 
1531 64.09 64.09 64.19 
1532 64.09 64.09 64.19 
1533 64.09 64.09 64.19 
1534 64.09 64.09 64.19 
1535 64.09 64.09 64.19 
1536 64.09 64.09 64.19 
1537 64.09 64.09 64.19 
1538 64.09 64.09 64.19 
1539 64.09 64.09 64.19 
1540 64.09 64.09 64.19 
1541 64.09 64.09 64.19 
1542 64.09 64.09 64.19 
1543 64.09 64.09 64.19 
1544 64.09 64.09 64.19 
1545 64.09 64.09 64.19 
1546 64.09 64.09 64.19 
1547 64.09 64.09 64.19 
1548 64.09 64.09 64.19 
1549 64.09 64.09 64.19 
1550 64.09 64.09 64.19 
1551 64.09 64.09 64.19 
1552 64.09 64.09 64.19 
1553 64.09 64.09 64.19 
1554 64.09 64.09 64.19 
1555 64.09 64.09 64.19 
1556 64.09 64.09 64.19 
1557 64.09 64.09 64.19 
1558 64.09 64.09 64.19 
1559 64.09 64.09 64.19 
1560 64.09 64.09 64.19 
1561 64.09 64.09 64.19 
1562 64.09 64.09 64.19 
1563 64.09 64.09 64.19 
1564 64.09 64.09 64.19 
1565 64.09 64.09 64.19 
1566 64.09 64.09 64.19 
1567 64.09 64.09 64.19 
1568 64.09 64.09 64.19 
1569 64.09 64.09 64.19 
1570 64.09 64.09 64.19 
1571 64.09 64.09 64.19 
1572 64.09 64.09 64.19 
1573 64.09 64.09 64.19 
1574 64.09 64.09 64.19 
1575 64.09 64.09 64.19 
1576 64.09 64.09 64.19 
1577 64.09 64.09 64.19 
1578 64.09 64.09 64.19 
1579 64.09 64.09 64.19 
1580 64.09 64.09 64.19 
1581 64.09 64.09 64.19 
1582 64.09 64.09 64.19 
1583 64.09 64.09 64.19 
1584 64.09 64.09 64.19 
1585 64.09 64.09 64.19 
1586 64.09 64.09 64.19 
1587 64.09 64.09 64.19 
1588 64.09 64.09 64.19 
1589 64.09 64.09 64.19 
1590 64.09 64.09 64.19 
1591 64.09 64.09 64.19 
1592 64.09 64.09 64.19 
1593 64.09 64.09 64.19 
1594 64.09 64.09 64.19 
1595 64.09 64.09 64.19 
1596 64.09 64.09 64.19 
1597 64.09 64.09 64.19 
1598 64.09 64.09 64.19 
1599 64.09 64.09 64.19 
1600 64.09 64.09 64.19 
1601 64.09 64.09 64.19 
1602 64.09 64.09 64.19 
1603 64.09 64.09 64.19 
1604 64.09 64.09 64.19 
1605 64.09 64.09 64.19 
1606 64.09 64.09 64.19 
1607 64.09 64.09 64.19 
1608 64.09 64.09 64.19 
1609 64.09 64.09 64.19 
1610 64.09 64.09 64.19 
1611 64.09 64.09 64.19 
1612 64.09 64.09 64.19 
1613 64.09 64.09 64.19 
1614 64.09 64.09 64.19 
1615 64.09 64.09 64.19 
1616 64.09 64.09 64.19 
1617 64.09 64.09 64.19 
1618 64.09 64.09 64.19 
1619 64.09 64.09 64.19 
1620 64.09 64.09 64.19 
1621 64.09 64.09 64.19 
1622 64.09 64.09 64.19 
1623 64.09 64.09 64.19 
1624 64.09 64.09 64.19 
1625 64.09 64.09 64.19 
1626 64.09 64.09 64.19 
1627 64.09 64.09 64.19 
1628 64.09 64.09 64.19 
1629 64.09 64.09 64.19 
1630 64.09 64.09 64.19 
1631 64.09 64.09 64.19 
1632 64.09 64.09 64.19 
1633 64.09 64.09 64.19 
1634 64.09 64.09 64.19 
1635 64.09 64.09 64.19 
1636 64.09 64.09 64.19 
1637 64.09 64.09 64.19 
1638 64.09 64.09 64.19 
1639 64.09 64.09 64.19 
1640 64.09 64.09 64.19 
1641 64.09 64.09 64.19 
1642 64.09 64.09 64.19 
1643 64.09 64.09 64.19 
1644 64.09 64.09 64.19 
1645 64.09 64.09 64.19 
1646 64.09 64.09 64.19 
1647 64.09 64.09 64.19 
1648 64.09 64.09 64.19 
1649 64.09 64.09 64.19 
1650 64.09 64.09 64.19 
1651 64.09 64.09 64.19 
1652 64.09 64.09 64.19 
1653 64.09 64.09 64.19 
1654 64.09 64.09 64.19 
1655 64.09 64.09 64.19 
1656 64.09 64.09 64.19 
1657 64.09 64.09 64.19 
1658 64.09 64.09 64.19 
1659 64.09 64.09 64.19 
1660 64.09 64.09 64.19 
1661 64.09 64.09 64.19 
1662 64.09 64.09 64.19 
1663 64.09 64.09 64.19 
1664 64.09 64.09 64.19 
1665 64.09 64.09 64.19 
1666 64.09 64.09 64.19 
1667 64.09 64.09 64.19 
1668 64.09 64.09 64.19 
1669 64.09 64.09 64.19 
1670 64.09 64.09 64.19 
1671 64.09 64.09 64.19 
1672 64.09 64.09 64.19 
1673 64.09 64.09 64.19 
1674 64.09 64.09 64.19 
1675 64.09 64.09 64.19 
1676 64.09 64.09 64.19 
1677 64.09 64.09 64.19 
1678 64.09 64.09 64.19 
1679 64.09 64.09 64.19 
1680 64.09 64.09 64.19 
1681 64.09 64.09 64.19 
1682 64.09 64.09 64.19 
1683 64.09 64.09 64.19 
1684 64.09 64.09 64.19 
1685 64.09 64.09 64.19 
1686 64.09 64.09 64.19 
1687 64.09 64.09 64.19 
1688 64.09 64.09 64.19 
1689 64.09 64.09 64.19 
1690 64.09 64.09 64.19 
1691 64.09 64.09 64.19 
1692 64.09 64.09 64.19 
1693 64.09 64.09 64.19 
1694 64.09 64.09 64.19 
1695 64.09 64.09 64.19 
1696 64.09 64.09 64.19 
1697 64.09 64.09 64.19 
1698 64.09 64.09 64.19 
1699 64.09 64.09 64.19 
1700 64.09 64.09 64.19 
1701 64.09 64.09 64.19 
1702 64.09 64.09 64.19 
1703 64.09 64.09 64.19 
1704 64.09 64.09 64.19 
1705 64.09 64.09 64.19 
1706 64.09 64.09 64.19 
1707 64.09 64.09 64.19 
1708 64.09 64.09 64.19 
1709 64.09 64.09 64.19 
1710 64.09 64.09 64.19 
1711 64.09 64.09 64.19 
1712 64.09 64.09 64.19 
1713 64.09 64.09 64.19 
1714 64.09 64.09 64.19 
1715 64.09 64.09 64.19 
1716 64.09 64.09 64.19 
1717 64.09 64.09 64.19 
1718 64.09 64.09 64.19 
1719 64.09 64.09 64.19 
1720 64.09 64.09 64.19 
1721 64.09 64.09 64.19 
1722 64.09 64.09 64.19 
1723 64.09 64.09 64.19 
1724 64.09 64.09 64.19 
1725 64.09 64.09 64.19 
1726 64.09 64.09 64.19 
1727 64.09 64.09 64.19 
1728 64.09 64.09 64.19 
1729 64.09 64.09 64.19 
1730 64.09 64.09 64.19 
1731 64.09 64.09 64.19 
1732 64.09 64.09 64.19 
1733 64.09 64.09 64.19 
1734 64.09 64.09 64.19 
1735 64.09 64.09 64.19 
1736 64.09 64.09 64.19 
1737 64.09 64.09 64.19 
1738 64.09 64.09 64.19 
1739 64.09 64.09 64.19 
1740 64.09 64.09 64.19 
1741 64.09 64.09 64.19 
1742 64.09 64.09 64.19 
1743 64.09 64.09 64.19 
1744 64.09 64.09 64.19 
1745 64.09 64.09 64.19 
1746 64.09 64.09 64.19 
1747 64.09 64.09 64.19 
1748 64.09 64.09 64.19 
1749 64.09 64.09 64.19 
1750 64.09 64.09 64.19 
1751 64.09 64.09 64.19 
1752 64.09 64.09 64.19 
1753 64.09 64.09 64.19 
1754 64.09 64.09 64.19 
1755 64.09 64.09 64.19 
1756 64.09 64.09 64.19 
1757 64.09 64.09 64.19 
1758 64.09 64.09 64.19 
1759 64.09 64.09 64.19 
1760 64.09 64.09 64.19 
1761 64.09 64.09 64.19 
1762 64.09 64.09 64.19 
1763 64.09 64.09 64.19 
1764 64.09 64.09 64.19 
1765 64.09 64.09 64.19 
1766 64.09 64.09 64.19 
1767 64.09 64.09 64.19 
1768 64.09 64.09 64.19 
1769 64.09 64.09 64.19 
1770 64.09 64.09 64.19 
1771 64.09 64.09 64.19 
1772 64.09 64.09 64.19 
1773 64.09 64.09 64.19 
1774 64.09 64.09 64.19 
1775 64.09 64.09 64.19 
1776 64.09 64.09 64.19 
1777 64.09 64.09 64.19 
1778 64.09 64.09 64.19 
1779 64.09 64.09 64.19 
1780 64.09 64.09 64.19 
1781 64.09 64.09 64.19 
1782 64.09 64.09 64.19 
1783 64.09 64.09 64.19 
1784 64.09 64.09 64.19 
1785 64.09 64.09 64.19 
1786 64.09 64.09 64.19 
1787 64.09 64.09 64.19 
1788 64.09 64.09 64.19 
1789 64.09 64.09 64.19 
1790 64.09 64.09 64.19 
1791 64.09 64.09 64.19 
1792 64.09 64.09 64.19 
1793 64.09 64.09 64.19 
1794 64.09 64.09 64.19 
1795 64.09 64.09 64.19 
1796 64.09 64.09 64.19 
1797 64.09 64.09 64.19 
1798 64.09 64.09 64.19 
1799 64.09 64.09 64.19 
1800 64.09 64.09 64.19 
1801 64.09 64.09 64.19 
1802 64.09 64.09 64.19 
1803 64.09 64.09 64.19 
1804 64.09 64.09 64.19 
1805 64.09 64.09 64.19 
1806 64.09 64.09 64.19 
1807 64.09 64.09 64.19 
1808 64.09 64.09 64.19 
1809 64.09 64.09 64.19 
1810 64.09 64.09 64.19 
1811 64.09 64.09 64.19 
1812 64.09 64.09 64.19 
1813 64.09 64.09 64.19 
1814 64.09 64.09 64.19 
1815 64.09 64.09 64.19 
1816 64.09 64.09 64.19 
1817 64.09 64.09 64.19 
1818 64.09 64.09 64.19 
1819 64.09 64.09 64.19 
1820 64.09 64.09 64.19 
1821 64.09 64.09 64.19 
1822 64.09 64.09 64.19 
1823 64.09 64.09 64.19 
1824 64.09 64.09 64.19 
1825 64.09 64.09 64.19 
1826 64.09 64.09 64.19 
1827 64.09 64.09 64.19 
1828 64.09 64.09 64.19 
1829 64.09 64.09 64.19 
1830 64.09 64.09 64.19 
1831 64.09 64.09 64.19 
1832 64.09 64.09 64.19 
1833 64.09 64.09 64.19 
1834 64.09 64.09 64.19 
1835 64.09 64.09 64.19 
1836 64.09 64.09 64.19 
1837 64.09 64.09 64.19 
1838 64.09 64.09 64.19 
1839 64.09 64.09 64.19 
1840 64.09 64.09 64.19 
1841 64.09 64.09 64.19 
1842 64.09 64.09 64.19 
1843 64.09 64.09 64.19 
1844 64.09 64.09 64.19 
1845 64.09 64.09 64.19 
1846 64.09 64.09 64.19 
1847 64.09 64.09 64.19 
1848 64.09 64.09 64.19 
1849 64.09 64.09 64.19 
1850 64.09 64.09 64.19 
1851 64.09 64.09 64.19 
1852 64.09 64.09 64.19 
1853 64.09 64.09 64.19 
1854 64.09 64.09 64.19 
1855 64.09 64.09 64.19 
1856 64.09 64.09 64.19 
1857 64.09 64.09 64.19 
1858 64.09 64.09 64.19 
1859 64.09 64.09 64.19 
1860 64.09 64.09 64.19 
1861 64.09 64.09 64.19 
1862 64.09 64.09 64.19 
1863 64.09 64.09 64.19 
1864 64.09 64.09 64.19 
1865 64.09 64.09 64.19 
1866 64.09 64.09 64.19 
1867 64.09 64.09 64.19 
1868 64.09 64.09 64.19 
1869 64.09 64.09 64.19 
1870 64.09 64.09 64.19 
1871 64.09 64.09 64.19 
1872 64.09 64.09 64.19 
1873 64.09 64.09 64.19 
1874 64.09 64.09 64.19 
1875 64.09 64.09 64.19 
1876 64.09 64.09 64.19 
1877 64.09 64.09 64.19 
1878 64.09 64.09 64.19 
1879 64.09 64.09 64.19 
1880 64.09 64.09 64.19 
1881 64.09 64.09 64.19 
1882 64.09 64.09 64.19 
1883 64.09 64.09 64.19 
1884 64.09 64.09 64.19 
1885 64.09 64.09 64.19 
1886 64.09 64.09 64.19 
1887 64.09 64.09 64.19 
1888 64.09 64.09 64.19 
1889 64.09 64.09 64.19 
1890 64.09 64.09 64.19 
1891 64.09 64.09 64.19 
1892 64.09 64.09 64.19 
1893 64.09 64.09 64.19 
1894 64.09 64.09 64.19 
1895 64.09 64.09 64.19 
1896 64.09 64.09 64.19 
1897 64.09 64.09 64.19 
1898 64.09 64.09 64.19 
1899 64.09 64.09 64.19 
1900 64.09 64.09 64.19 
1901 64.09 64.09 64.19 
1902 64.09 64.09 64.19 
1903 64.09 64.09 64.19 
1904 64.09 64.09 64.19 
1905 64.09 64.09 64.19 
1906 64.09 64.09 64.19 
1907 64.09 64.09 64.19 
1908 64.09 64.09 64.19 
1909 64.09 64.09 64.19 
1910 64.09 64.09 64.19 
1911 64.09 64.09 64.19 
1912 64.09 64.09 64.19 
1913 64.09 64.09 64.19 
1914 64.09 64.09 64.19 
1915 64.09 64.09 64.19 
1916 64.09 64.09 64.19 
1917 64.09 64.09 64.19 
1918 64.09 64.09 64.19 
1919 64.09 64.09 64.19 
1920 64.09 64.09 64.19 
1921 64.09 64.09 64.19 
1922 64.09 64.09 64.19 
1923 64.09 64.09 64.19 
1924 64.09 64.09 64.19 
1925 64.09 64.09 64.19 
1926 64.09 64.09 64.19 
1927 64.09 64.09 64.19 
1928 64.09 64.09 64.19 
1929 64.09 64.09 64.19 
1930 64.09 64.09 64.19 
1931 64.09 64.09 64.19 
1932 64.09 64.09 64.19 
1933 64.09 64.09 64.19 
1934 64.09 64.09 64.19 
1935 64.09 64.09 64.19 
1936 64.09 64.09 64.19 
1937 64.09 64.09 64.19 
1938 64.09 64.09 64.19 
1939 64.09 64.09 64.19 
1940 64.09 64.09 64.19 
1941 64.09 64.09 64.19 
1942 64.09 64.09 64.19 
1943 64.09 64.09 64.19 
1944 64.09 64.09 64.19 
1945 64.09 64.09 64.19 
1946 64.09 64.09 64.19 
1947 64.09 64.09 64.19 
1948 64.09 64.09 64.19 
1949 64.09 64.09 64.19 
1950 64.09 64.09 64.19 
1951 64.09 64.09 64.19 
1952 64.09 64.09 64.19 
1953 64.09 64.09 64.19 
1954 64.09 64.09 64.19 
1955 64.09 64.09 64.19 
1956 64.09 64.09 64.19 
1957 64.09 64.09 64.19 
1958 64.09 64.09 64.19 
1959 64.09 64.09 64.19 
1960 64.09 64.09 64.19 
1961 64.09 64.09 64.19 
1962 64.09 64.09 64.19 
1963 64.09 64.09 64.19 
1964 64.09 64.09 64.19 
1965 64.09 64.09 64.19 
1966 64.09 64.09 64.19 
1967 64.09 64.09 64.19 
1968 64.09 64.09 64.19 
1969 64.09 64.09 64.19 
1970 64.09 64.09 64.19 
1971 64.09 64.09 64.19 
1972 64.09 64.09 64.19 
1973 64.09 64.09 64.19 
1974 64.09 64.09 64.19 
1975 64.09 64.09 64.19 
1976 64.09 64.09 64.19 
1977 64.09 64.09 64.19 
1978 64.09 64.09 64.19 
1979 64.09 64.09 64.19 
1980 64.09 64.09 64.19 
1981 64.09 64.09 64.19 
1982 64.09 64.09 64.19 
1983 64.09 64.09 64.19 
1984 64.09 64.09 64.19 
1985 64.09 64.09 64.19 
1986 64.09 64.09 64.19 
1987 64.09 64.09 64.19 
1988 64.09 64.09 64.19 
1989 64.09 64.09 64.19 
1990 64.09 64.09 64.19 
1991 64.09 64.09 64.19 
1992 64.09 64.09 64.19 
1993 64.09 64.09 64.19 
1994 64.09 64.09 64.19 
1995 64.09 64.09 64.19 
1996 64.09 64.09 64.19 
1997 64.09 64.09 64.19 
1998 64.09 64.09 64.19 
1999 64.09 64.09 64.19 
2000 64.09 64.09 64.19 
2001 64.09 64.09 64.19 
2002 64.09 64.09 64.19 
2003 64.09 64.09 64.19 
2004 64.09 64.09 64.19 
2005 64.09 64.09 64.19 
2006 64.09 64.09 64.19 
2007 64.09 64.09 64.19 
2008 64.09 64.09 64.19 
2009 64.09 64.09 64.19 
2010 64.09 64.09 64.19 
2011 64.09 64.09 64.19 
2012 64.09 64.09 64.19 
2013 64.09 64.09 64.19 
2014 64.09 64.09 64.19 
2015 64.09 64.09 64.19 
2016 64.09 64.09 64.19 
2017 64.09 64.09 64.19 
2018 64.09 64.09 64.19 
2019 64.09 64.09 64.19 
2020 64.09 64.09 64.19 
2021 64.09 64.09 64.19 
2022 64.09 64.09 64.19 
2023 64.09 64.09 64.19 
2024 64.09 64.09 64.19 
2025 64.09 64.09 64.19 
2026 64.09 64.09 64.19 
2027 64.09 64.09 64.19 
2028 64.09 64.09 64.19 
2029 64.09 64.09 64.19 
2030 64.09 64.09 64.19 
2031 64.09 64.09 64.19 
2032 64.09 64.09 64.19 
2033 64.09 64.09 64.19 
2034 64.09 64.09 64.19 
2035 64.09 64.09 64.19 
2036 64.09 64.09 64.19 
2037 64.09 64.09 64.19 
2038 64.09 64.09 64.19 
2039 64.09 64.09 64.19 
2040 64.09 64.09 64.19 
2041 64.09 64.09 64.19 
2042 64.09 64.09 64.19 
2043 64.09 64.09 64.19 
2044 64.09 64.09 64.19 
2045 64.09 64.09 64.19 
2046 64.09 64.09 64.19 
2047 64.09 64.09 64.19 
2048 64.09 64.09 64.19 
2049 64.09 64.09 64.19 
2050 64.09 64.09 64.19 
2051 64.09 64.09 64.19 
2052 64.09 64.09 64.19 
2053 64.09 64.09 64.19 
2054 64.09 64.09 64.19 
2055 64.09 64.09 64.19 
2056 64.09 64.09 64.19 
2057 64.09 64.09 64.19 
2058 64.09 64.09 64.19 
2059 64.09 64.09 64.19 
2060 64.09 64.09 64.19 
2061 64.09 64.09 64.19 
2062 64.09 64.09 64.19 
2063 64.09 64.09 64.19 
2064 64.09 64.09 64.19 
2065 64.09 64.09 64.19 
2066 64.09 64.09 64.19 
2067 64.09 64.09 64.19 
2068 64.09 64.09 64.19 
2069 64.09 64.09 64.19 
2070 64.09 64.09 64.19 
2071 64.09 64.09 64.19 
2072 64.09 64.09 64.19 
2073 64.09 64.09 64.19 
2074 64.09 64.09 64.19 
2075 64.09 64.09 64.19 
2076 64.09 64.09 64.19 
2077 64.09 64.09 64.19 
2078 64.09 64.09 64.19 
2079 64.09 64.09 64.19 
2080 64.09 64.09 64.19 
2081 64.09 64.09 64.19 
2082 64.09 64.09 64.19 
2083 64.09 64.09 64.19 
2084 64.09 64.09 64.19 
2085 64.09 64.09 64.19 
2086 64.09 64.09 64.19 
2087 64.09 64.09 64.19 
2088 64.09 64.09 64.19 
2089 64.09 64.09 64.19 
2090 64.09 64.09 64.19 
2091 64.09 64.09 64.19 
2092 64.09 64.09 64.19 
2093 64.09 64.09 64.19 
2094 64.09 64.09 64.19 
2095 64.09 64.09 64.19 
2096 64.09 64.09 64.19 
2097 64.09 64.09 64.19 
2098 64.09 64.09 64.19 
2099 64.09 64.09 64.19 
2100 64.09 64.09 64.19 
2101 64.09 64.09 64.19 
2102 64.09 64.09 64.19 
2103 64.09 64.09 64.19 
2104 64.09 64.09 64.19 
2105 64.09 64.09 64.19 
2106 64.09 64.09 64.19 
2107 64.09 64.09 64.19 
2108 64.09 64.09 64.19 
2109 64.09 64.09 64.19 
2110 64.09 64.09 64.19 
2111 64.09 64.09 64.19 
2112 64.09 64.09 64.19 
2113 64.09 64.09 64.19 
2114 64.09 64.09 64.19 
2115 64.09 64.09 64.19 
2116 64.09 64.09 64.19 
2117 64.09 64.09 64.19 
2118 64.09 64.09 64.19 
2119 64.09 64.09 64.19 
2120 64.09 64.09 64.19 
2121 64.09 64.09 64.19 
2122 64.09 64.09 64.19 
2123 64.09 64.09 64.19 
2124 64.09 64.09 64.19 
2125 64.09 64.09 64.19 
2126 64.09 64.09 64.19 
2127 64.09 64.09 64.19 
2128 64.09 64.09 64.19 
2129 64.09 64.09 64.19 
2130 64.09 64.09 64.19 
2131 64.09 64.09 64.19 
2132 64.09 64.09 64.19 
2133 64.09 64.09 64.19 
2134 64.09 64.09 64.19 
2135 64.09 64.09 64.19 
2136 64.09 64.09 64.19 
2137 64.09 64.09 64.19 
2138 64.09 64.09 64.19 
2139 64.09 64.09 64.19 
2140 64.09 64.09 64.19 
2141 64.09 64.09 64.19 
2142 64.09 64.09 64.19 
2143 64.09 64.09 64.19 
2144 64.09 64.09 64.19 
2145 64.09 64.09 64.19 
2146 64.09 64.09 64.19 
2147 64.09 64.09 64.19 
2148 64.09 64.09 64.19 
2149 64.09 64.09 64.19 
2150 64.09 64.09 64.19 
2151 64.09 64.09 64.19 
2152 64.09 64.09 64.19 
2153 64.09 64.09 64.19 
2154 64.09 64.09 64.19 
2155 64.09 64.09 64.19 
2156 64.09 64.09 64.19 
2157 64.09 64.09 64.19 
2158 64.09 64.09 64.19 
2159 64.09 64.09 64.19 
2160 64.09 64.09 64.19 
2161 64.09 64.09 64.19 
2162 64.09 64.09 64.19 
2163 64.09 64.09 64.19 
2164 64.09 64.09 64.19 
2165 64.09 64.09 64.19 
2166 64.09 64.09 64.19 
2167 64.09 64.09 64.19 
2168 64.09 64.09 64.19 
2169 64.09 64.09 64.19 
2170 64.09 64.09 64.19 
2171 64.09 64.09 64.19 
2172 64.09 64.09 64.19 
2173 64.09 64.09 64.19 
2174 64.09 64.09 64.19 
2175 64.09 64.09 64.19 
2176 64.09 64.09 64.19 
2177 64.09 64.09 64.19 
2178 64.09 64.09 64.19 
2179 64.09 64.09 64.19 
2180 64.09 64.09 64.19 
2181 64.09 64.09 64.19 
2182 64.09 64.09 64.19 
2183 64.09 64.09 64.19 
2184 64.09 64.09 64.19 
2185 64.09 64.09 64.19 
2186 64.09 64.09 64.19 
2187 64.09 64.09 64.19 
2188 64.09 64.09 64.19 
2189 64.09 64.09 64.19 
2190 64.09 64.09 64.19 
2191 64.09 64.09 64.19 
2192 64.09 64.09 64.19 
2193 64.09 64.09 64.19 
2194 64.09 64.09 64.19 
2195 64.09 64.09 64.19 
2196 64.09 64.09 64.19 
2197 64.09 64.09 64.19 
2198 64.09 64.09 64.19 
2199 64.09 64.09 64.19 
2200 64.09 64.09 64.19 
2201 64.09 64.09 64.19 
2202 64.09 64.09 64.19 
2203 64.09 64.09 64.19 
2204 64.09 64.09 64.19 
2205 64.09 64.09 64.19 
2206 64.09 64.09 64.19 
2207 64.09 64.09 64.19 
2208 64.09 64.09 64.19 
2209 64.09 64.09 64.19 
2210 64.09 64.09 64.19 
2211 64.09 64.09 64.19 
2212 64.09 64.09 64.19 
2213 64.09 64.09 64.19 
2214 64.09 64.09 64.19 
2215 64.09 64.09 64.19 
2216 64.09 64.09 64.19 
2217 64.09 64.09 64.19 
2218 64.09 64.09 64.19 
2219 64.09 64.09 64.19 
2220 64.09 64.09 64.19 
2221 64.09 64.09 64.19 
2222 64.09 64.09 64.19 
2223 64.09 64.09 64.19 
2224 64.09 64.09 64.19 
2225 64.09 64.09 64.19 
2226 64.09 64.09 64.19 
2227 64.09 64.09 64.19 
2228 64.09 64.09 64.19 
2229 64.09 64.09 64.19 
2230 64.09 64.09 64.19 
2231 64.09 64.09 64.19 
2232 64.09 64.09 64.19 
2233 64.09 64.09 64.19 
2234 64.09 64.09 64.19 
2235 64.09 64.09 64.19 
2236 64.09 64.09 64.19 
2237 64.09 64.09 64.19 
2238 64.09 64.09 64.19 
2239 64.09 64.09 64.19 
2240 64.09 64.09 64.19 
2241 64.09 64.09 64.19 
2242 64.09 64.09 64.19 
2243 64.09 64.09 64.19 
2244 64.09 64.09 64.19 
2245 64.09 64.09 64.19 
2246 64.09 64.09 64.19 
2247 64.09 64.09 64.19 
2248 64.09 64.09 64.19 
2249 64.09 64.09 64.19 
2250 64.09 64.09 64.19 
2251 64.09 64.09 64.19 
2252 64.09 64.09 64.19 
2253 64.09 64.09 64.19 
2254 64.09 64.09 64.19 
2255 64.09 64.09 64.19 
2256 64.09 64.09 64.19 
2257 64.09 64.09 64.19 
2258 64.09 64.09 64.19 
2259 64.09 64.09 64.19 
2260 64.09 64.09 64.19 
2261 64.09 64.09 64.19 
2262 64.09 64.09 64.19 
2263 64.09 64.09 64.19 
2264 64.09 64.09 64.19 
2265 64.09 64.09 64.19 
2266 64.09 64.09 64.19 
2267 64.09 64.09 64.19 
2268 64.09 64.09 64.19 
2269 64.09 64.09 64.19 
2270 64.09 64.09 64.19 
2271 64.09 64.09 64.19 
2272 64.09 64.09 64.19 
2273 64.09 64.09 64.19 
2274 64.09 64.09 64.19 
2275 64.09 64.09 64.19 
2276 64.09 64.09 64.19 
2277 64.09 64.09 64.19 
2278 64.09 64.09 64.19 
2279 64.09 64.09 64.19 
2280 64.09 64.09 64.19 
2281 64.09 64.09 64.19 
2282 64.09 64.09 64.19 
2283 64.09 64.09 64.19 
2284 64.09 64.09 64.19 
2285 64.09 64.09 64.19 
2286 64.09 64.09 64.19 
2287 64.09 64.09 64.19 
2288 64.09 64.09 64.19 
2289 64.09 64.09 64.19 
2290 64.09 64.09 64.19 
2291 64.09 64.09 64.19 
2292 64.09 64.09 64.19 
2293 64.09 64.09 64.19 
2294 64.09 64.09 64.19 
2295 64.09 64.09 64.19 
2296 64.09 64.09 64.19 
2297 64.09 64.09 64.19 
2298 64.09 64.09 64.19 
2299 64.09 64.09 64.19 
2300 64.09 64.09 64.19 
2301 64.09 64.09 64.19 
2302 64.09 64.09 64.19 
2303 64.09 64.09 64.19 
2304 64.09 64.09 64.19 
2305 64.09 64.09 64.19 
2306 64.09 64.09 64.19 
2307 64.09 64.09 64.19 
2308 64.09 64.09 64.19 
2309 64.09 64.09 64.19 
2310 64.09 64.09 64.19 
2311 64.09 64.09 64.19 
2312 64.09 64.09 64.19 
2313 64.09 64.09 64.19 
2314 64.09 64.09 64.19 
2315 64.09 64.09 64.19 
2316 64.09 64.09 64.19 
2317 64.09 64.09 64.19 
2318 64.09 64.09 64.19 
2319 64.09 64.09 64.19 
2320 64.09 64.09 64.19 
2321 64.09 64.09 64.19 
2322 64.09 64.09 64.19 
2323 64.09 64.09 64.19 
2324 64.09 64.09 64.19 
2325 64.09 64.09 64.19 
2326 64.09 64.09 64.19 
2327 64.09 64.09 64.19 
2328 64.09 64.09 64.19 
2329 64.09 64.09 64.19 
2330 64.09 64.09 64.19 
2331 64.09 64.09 64.19 
2332 64.09 64.09 64.19 
2333 64.09 64.09 64.19 
2334 64.09 64.09 64.19 
2335 64.09 64.09 64.19 
2336 64.09 64.09 64.19 
2337 64.09 64.09 64.19 
2338 64.09 64.09 64.19 
2339 64.09 64.09 64.19 
2340 64.09 64.09 64.19 
2341 64.09 64.09 64.19 
2342 64.09 64.09 64.19 
2343 64.09 64.09 64.19 
2344 64.09 64.09 64.19 
2345 64.09 64.09 64.19 
2346 64.09 64.09 64.19 
2347 64.09 64.09 64.19 
2348 64.09 64.09 64.19 
2349 64.09 64.09 64.19 
