Iter | Sampling Pol | Evaluation Pol | Best (Sampled) 
   0 -18.61 -11.45 -100000000.00 
   1 -19.14 -11.07 -18.61 
   2 -17.65 -11.28 -18.61 
   3 -18.40 -10.63 -17.65 
   4 -17.97 -9.77 -17.65 
   5 -18.19 -8.94 -17.65 
   6 -16.99 -8.94 -17.65 
   7 -13.75 -9.00 -16.99 
   8 -15.61 -8.16 -13.75 
   9 -15.35 -8.12 -13.75 
  10 -14.97 -7.62 -13.75 
  11 -13.47 -8.32 -13.75 
  12 -16.03 -7.56 -13.47 
  13 -14.71 -7.44 -13.47 
  14 -16.59 -8.06 -13.47 
  15 -14.12 -7.71 -13.47 
  16 -16.94 -7.55 -13.47 
  17 -15.36 -6.98 -13.47 
  18 -13.61 -6.52 -13.47 
  19 -14.21 -5.84 -13.47 
  20 -13.53 -5.86 -13.47 
  21 -14.20 -5.22 -13.47 
  22 -12.92 -4.76 -13.47 
  23 -13.33 -4.81 -12.92 
  24 -13.92 -5.24 -12.92 
  25 -11.81 -5.14 -12.92 
  26 -12.52 -5.04 -11.81 
  27 -13.92 -4.69 -11.81 
  28 -12.85 -4.61 -11.81 
  29 -12.84 -4.52 -11.81 
  30 -12.15 -4.46 -11.81 
  31 -11.76 -4.25 -11.81 
  32 -13.38 -4.00 -11.76 
  33 -13.35 -4.11 -11.76 
  34 -15.09 -4.04 -11.76 
  35 -12.96 -4.08 -11.76 
  36 -12.49 -4.00 -11.76 
  37 -10.35 -4.09 -11.76 
  38 -10.03 -4.12 -10.35 
  39 -9.98 -4.29 -10.03 
  40 -10.23 -4.20 -9.98 
  41 -10.77 -4.27 -9.98 
  42 -10.83 -3.99 -9.98 
  43 -12.20 -4.18 -9.98 
  44 -11.44 -4.30 -9.98 
  45 -10.99 -4.24 -9.98 
  46 -8.94 -4.16 -9.98 
  47 -10.34 -4.15 -8.94 
  48 -8.52 -4.19 -8.94 
  49 -9.94 -4.37 -8.52 
  50 -10.33 -4.32 -8.52 
  51 -9.37 -4.40 -8.52 
  52 -9.31 -4.54 -8.52 
  53 -9.49 -4.53 -8.52 
  54 -7.87 -4.78 -8.52 
  55 -9.20 -4.79 -7.87 
  56 -8.32 -4.81 -7.87 
  57 -8.62 -4.77 -7.87 
  58 -9.38 -4.90 -7.87 
  59 -7.93 -4.72 -7.87 
  60 -9.18 -4.72 -7.87 
  61 -8.50 -4.73 -7.87 
  62 -8.45 -4.64 -7.87 
  63 -8.37 -4.57 -7.87 
  64 -7.99 -4.50 -7.87 
  65 -8.18 -4.51 -7.87 
  66 -7.65 -4.57 -7.87 
  67 -8.11 -4.53 -7.65 
  68 -8.25 -4.56 -7.65 
  69 -8.58 -4.51 -7.65 
  70 -7.86 -4.43 -7.65 
  71 -7.99 -4.37 -7.65 
  72 -8.03 -4.41 -7.65 
  73 -7.69 -4.38 -7.65 
  74 -7.22 -4.21 -7.65 
  75 -7.21 -4.13 -7.22 
  76 -8.10 -4.14 -7.21 
  77 -7.96 -4.19 -7.21 
  78 -7.68 -4.20 -7.21 
  79 -7.57 -4.33 -7.21 
  80 -6.71 -4.10 -7.21 
  81 -8.21 -4.20 -6.71 
  82 -6.66 -4.31 -6.71 
  83 -6.73 -4.01 -6.66 
  84 -6.67 -3.95 -6.66 
  85 -6.18 -3.94 -6.66 
  86 -6.79 -4.09 -6.18 
  87 -6.41 -3.89 -6.18 
  88 -6.93 -3.99 -6.18 
  89 -6.53 -4.15 -6.18 
  90 -6.67 -4.19 -6.18 
  91 -7.00 -4.21 -6.18 
  92 -6.81 -4.09 -6.18 
  93 -6.57 -4.19 -6.18 
  94 -6.87 -4.07 -6.18 
  95 -7.03 -4.51 -6.18 
  96 -6.87 -4.48 -6.18 
  97 -6.55 -4.47 -6.18 
  98 -6.10 -4.42 -6.18 
  99 -6.98 -4.63 -6.10 
 100 -6.36 -4.60 -6.10 
 101 -6.31 -4.23 -6.10 
 102 -6.41 -4.32 -6.10 
 103 -6.64 -4.10 -6.10 
 104 -6.15 -4.14 -6.10 
 105 -6.08 -4.09 -6.10 
 106 -6.11 -4.08 -6.08 
 107 -6.20 -4.20 -6.08 
 108 -6.14 -3.94 -6.08 
 109 -6.21 -3.93 -6.08 
 110 -6.26 -4.04 -6.08 
 111 -6.57 -4.11 -6.08 
 112 -6.07 -4.16 -6.08 
 113 -6.00 -3.98 -6.07 
 114 -6.05 -3.96 -6.00 
 115 -6.13 -3.77 -6.00 
 116 -6.28 -3.95 -6.00 
 117 -5.94 -3.73 -6.00 
 118 -6.08 -3.73 -5.94 
 119 -5.94 -3.94 -5.94 
 120 -6.04 -3.68 -5.94 
 121 -6.05 -3.88 -5.94 
 122 -5.96 -3.74 -5.94 
 123 -5.68 -4.02 -5.94 
 124 -6.19 -4.25 -5.68 
 125 -6.20 -3.94 -5.68 
 126 -5.67 -4.05 -5.68 
 127 -5.99 -4.02 -5.67 
 128 -6.42 -4.20 -5.67 
 129 -5.99 -3.99 -5.67 
 130 -5.63 -4.14 -5.67 
 131 -5.53 -4.08 -5.63 
 132 -6.12 -3.93 -5.53 
 133 -5.77 -3.88 -5.53 
 134 -6.00 -3.38 -5.53 
 135 -6.03 -3.47 -5.53 
 136 -5.79 -3.80 -5.53 
 137 -6.03 -3.82 -5.53 
 138 -5.77 -3.80 -5.53 
 139 -5.78 -3.82 -5.53 
 140 -5.87 -3.70 -5.53 
 141 -6.06 -3.63 -5.53 
 142 -6.20 -3.36 -5.53 
 143 -6.34 -3.44 -5.53 
 144 -5.93 -3.01 -5.53 
 145 -6.25 -2.86 -5.53 
 146 -6.05 -2.85 -5.53 
 147 -5.42 -2.45 -5.53 
 148 -6.09 -2.65 -5.42 
 149 -5.16 -2.52 -5.42 
 150 -5.73 -2.35 -5.16 
 151 -6.20 -2.25 -5.16 
 152 -6.14 -2.28 -5.16 
 153 -5.42 -2.42 -5.16 
 154 -6.03 -2.35 -5.16 
 155 -6.01 -2.40 -5.16 
 156 -5.87 -2.07 -5.16 
 157 -5.84 -1.98 -5.16 
 158 -5.72 -1.98 -5.16 
 159 -5.95 -2.50 -5.16 
 160 -6.27 -2.46 -5.16 
 161 -5.42 -2.09 -5.16 
 162 -5.77 -2.51 -5.16 
 163 -5.43 -2.17 -5.16 
 164 -6.28 -2.57 -5.16 
 165 -5.66 -2.74 -5.16 
 166 -6.09 -2.65 -5.16 
 167 -6.08 -2.63 -5.16 
 168 -5.43 -2.79 -5.16 
 169 -6.65 -2.73 -5.16 
 170 -5.39 -2.67 -5.16 
 171 -5.41 -2.77 -5.16 
 172 -5.82 -2.96 -5.16 
 173 -5.95 -3.24 -5.16 
 174 -5.45 -3.20 -5.16 
 175 -5.59 -3.36 -5.16 
 176 -6.47 -3.22 -5.16 
 177 -5.97 -3.37 -5.16 
 178 -6.23 -3.00 -5.16 
 179 -5.72 -3.10 -5.16 
 180 -5.80 -3.17 -5.16 
 181 -5.96 -2.94 -5.16 
 182 -5.41 -3.00 -5.16 
 183 -5.63 -3.08 -5.16 
 184 -5.52 -3.11 -5.16 
 185 -5.50 -2.99 -5.16 
 186 -5.60 -3.02 -5.16 
 187 -5.60 -2.80 -5.16 
 188 -5.69 -2.84 -5.16 
 189 -4.93 -3.06 -5.16 
 190 -5.19 -2.71 -4.93 
 191 -5.19 -2.74 -4.93 
 192 -6.13 -2.90 -4.93 
 193 -5.59 -2.91 -4.93 
 194 -5.40 -3.09 -4.93 
 195 -5.14 -3.02 -4.93 
 196 -6.11 -3.26 -4.93 
 197 -5.29 -3.18 -4.93 
 198 -5.52 -3.26 -4.93 
 199 -5.42 -3.20 -4.93 
 200 -5.65 -3.57 -4.93 
 201 -5.41 -3.45 -4.93 
 202 -5.59 -3.53 -4.93 
 203 -5.33 -3.48 -4.93 
 204 -6.33 -3.44 -4.93 
 205 -6.06 -3.36 -4.93 
 206 -5.04 -3.27 -4.93 
 207 -6.01 -3.11 -4.93 
 208 -5.14 -3.49 -4.93 
 209 -5.64 -3.50 -4.93 
 210 -5.25 -3.37 -4.93 
 211 -5.08 -3.33 -4.93 
 212 -5.59 -3.42 -4.93 
 213 -6.00 -3.18 -4.93 
 214 -5.85 -3.29 -4.93 
 215 -5.28 -3.26 -4.93 
 216 -5.61 -3.40 -4.93 
 217 -5.52 -3.41 -4.93 
 218 -5.45 -3.36 -4.93 
 219 -5.97 -3.29 -4.93 
 220 -5.73 -3.48 -4.93 
 221 -5.68 -3.67 -4.93 
 222 -5.54 -3.82 -4.93 
 223 -5.43 -3.50 -4.93 
 224 -5.19 -3.68 -4.93 
 225 -5.78 -3.77 -4.93 
 226 -5.95 -3.93 -4.93 
 227 -5.77 -3.78 -4.93 
 228 -5.42 -3.88 -4.93 
 229 -5.21 -3.99 -4.93 
 230 -5.44 -3.98 -4.93 
 231 -5.81 -3.89 -4.93 
 232 -5.18 -3.84 -4.93 
 233 -5.85 -3.95 -4.93 
 234 -5.02 -3.71 -4.93 
 235 -5.10 -3.79 -4.93 
 236 -5.63 -3.84 -4.93 
 237 -5.07 -3.98 -4.93 
 238 -5.64 -3.76 -4.93 
 239 -5.54 -3.78 -4.93 
 240 -4.98 -3.66 -4.93 
 241 -4.88 -3.59 -4.93 
 242 -4.87 -3.57 -4.88 
 243 -4.94 -3.32 -4.87 
 244 -4.83 -3.40 -4.87 
 245 -5.30 -3.33 -4.83 
 246 -5.57 -3.28 -4.83 
 247 -4.92 -3.16 -4.83 
 248 -5.33 -3.12 -4.83 
 249 -5.06 -3.08 -4.83 
 250 -5.86 -2.92 -4.83 
 251 -4.94 -2.99 -4.83 
 252 -4.99 -3.02 -4.83 
 253 -5.05 -2.94 -4.83 
 254 -5.22 -2.94 -4.83 
 255 -4.87 -2.95 -4.83 
 256 -5.73 -3.10 -4.83 
 257 -5.09 -2.97 -4.83 
 258 -6.21 -2.79 -4.83 
 259 -5.11 -2.86 -4.83 
 260 -5.24 -2.85 -4.83 
 261 -5.27 -2.70 -4.83 
 262 -5.98 -2.79 -4.83 
 263 -6.06 -2.74 -4.83 
 264 -5.15 -2.62 -4.83 
 265 -4.63 -2.51 -4.83 
 266 -4.75 -2.42 -4.63 
 267 -5.42 -2.55 -4.63 
 268 -5.02 -2.58 -4.63 
 269 -5.35 -2.65 -4.63 
 270 -4.61 -2.56 -4.63 
 271 -4.63 -2.58 -4.61 
 272 -4.95 -2.63 -4.61 
 273 -4.77 -2.67 -4.61 
 274 -6.09 -2.73 -4.61 
 275 -4.77 -2.78 -4.61 
 276 -5.29 -2.87 -4.61 
 277 -4.58 -2.69 -4.61 
 278 -4.92 -2.68 -4.58 
 279 -4.57 -2.56 -4.58 
 280 -4.75 -2.64 -4.57 
 281 -5.01 -2.68 -4.57 
 282 -4.99 -2.64 -4.57 
 283 -4.77 -2.62 -4.57 
 284 -4.58 -2.58 -4.57 
 285 -4.52 -2.81 -4.57 
 286 -4.43 -2.79 -4.52 
 287 -5.15 -2.79 -4.43 
 288 -5.02 -2.41 -4.43 
 289 -4.60 -2.33 -4.43 
 290 -5.28 -2.30 -4.43 
 291 -5.37 -2.67 -4.43 
 292 -4.46 -2.56 -4.43 
 293 -5.08 -2.50 -4.43 
 294 -5.29 -2.52 -4.43 
 295 -4.83 -2.52 -4.43 
 296 -4.44 -2.11 -4.43 
 297 -4.58 -2.08 -4.43 
 298 -4.89 -2.17 -4.43 
 299 -4.83 -2.18 -4.43 
 300 -4.95 -2.23 -4.43 
 301 -5.03 -1.97 -4.43 
 302 -4.98 -2.04 -4.43 
 303 -5.06 -1.84 -4.43 
 304 -4.84 -1.79 -4.43 
 305 -4.52 -1.73 -4.43 
 306 -4.94 -1.75 -4.43 
 307 -4.89 -2.07 -4.43 
 308 -4.95 -1.68 -4.43 
 309 -5.05 -2.09 -4.43 
 310 -4.39 -1.99 -4.43 
 311 -4.35 -2.00 -4.39 
 312 -4.23 -1.98 -4.35 
 313 -4.50 -1.97 -4.23 
 314 -4.30 -1.96 -4.23 
 315 -4.79 -2.37 -4.23 
 316 -4.64 -2.33 -4.23 
 317 -4.66 -2.36 -4.23 
 318 -5.05 -2.33 -4.23 
 319 -4.81 -1.92 -4.23 
 320 -4.61 -1.88 -4.23 
 321 -4.48 -2.32 -4.23 
 322 -4.66 -2.29 -4.23 
 323 -4.61 -1.85 -4.23 
 324 -4.78 -2.29 -4.23 
 325 -4.67 -1.87 -4.23 
 326 -4.64 -2.26 -4.23 
 327 -4.15 -1.83 -4.23 
 328 -4.18 -2.25 -4.15 
 329 -4.14 -2.22 -4.15 
 330 -4.18 -2.25 -4.14 
 331 -4.53 -2.22 -4.14 
 332 -4.29 -2.17 -4.14 
 333 -4.56 -2.25 -4.14 
 334 -3.73 -1.84 -4.14 
 335 -4.48 -1.80 -3.73 
 336 -3.95 -1.79 -3.73 
 337 -4.00 -1.78 -3.73 
 338 -3.45 -1.81 -3.73 
 339 -3.79 -1.81 -3.45 
 340 -3.56 -1.81 -3.45 
 341 -3.69 -1.85 -3.45 
 342 -3.69 -1.72 -3.45 
 343 -4.27 -1.29 -3.45 
 344 -3.92 -1.31 -3.45 
 345 -3.76 -1.33 -3.45 
 346 -3.36 -1.31 -3.45 
 347 -3.44 -1.39 -3.36 
 348 -3.92 -1.34 -3.36 
 349 -3.06 -1.35 -3.36 
 350 -3.74 -1.37 -3.06 
 351 -4.77 -1.38 -3.06 
 352 -4.83 -1.38 -3.06 
 353 -3.46 -1.79 -3.06 
 354 -4.04 -1.83 -3.06 
 355 -3.51 -1.74 -3.06 
 356 -3.70 -1.72 -3.06 
 357 -2.61 -1.67 -3.06 
 358 -3.90 -1.23 -2.61 
 359 -4.75 -1.26 -2.61 
 360 -3.74 -1.19 -2.61 
 361 -3.21 -0.80 -2.61 
 362 -3.73 -1.25 -2.61 
 363 -3.65 -0.83 -2.61 
 364 -3.25 -0.66 -2.61 
 365 -2.78 -0.69 -2.61 
 366 -4.64 -0.72 -2.61 
 367 -3.51 -0.90 -2.61 
 368 -2.20 -0.72 -2.61 
 369 -4.10 -0.72 -2.20 
 370 -3.61 -0.72 -2.20 
 371 -3.50 -0.73 -2.20 
 372 -3.71 -0.61 -2.20 
 373 -1.80 -0.62 -2.20 
 374 -3.62 -0.57 -1.80 
 375 -2.20 -0.53 -1.80 
 376 -1.97 -0.53 -1.80 
 377 -3.19 -0.55 -1.80 
 378 -3.65 -0.13 -1.80 
 379 -3.62 -0.19 -1.80 
 380 101.14 -0.57 -1.80 
 381 -3.23 -0.53 101.14 
 382 -2.61 -0.70 101.14 
 383 -0.43 -1.12 101.14 
 384 -3.83 -1.59 101.14 
 385 -3.38 -1.04 101.14 
 386 -2.45 -1.06 101.14 
 387 -4.43 -1.08 101.14 
 388 -3.22 -1.00 101.14 
 389 -3.53 -1.02 101.14 
 390 -4.08 -1.01 101.14 
 391 -1.33 -0.37 101.14 
 392 -3.33  0.15 101.14 
 393 -2.09  0.23 101.14 
 394 -2.19  0.20 101.14 
 395 -1.62 -0.43 101.14 
 396  1.83 -0.03 101.14 
 397 162.39  0.09 101.14 
 398 -3.78  0.54 162.39 
 399 100.53  0.85 162.39 
 400 -2.45  2.23 162.39 
 401 -1.53  1.99 162.39 
 402 -2.33  0.35 162.39 
 403 -3.08  0.91 162.39 
 404 118.20  1.32 162.39 
 405 -6.48  3.20 162.39 
 406 -3.76  5.58 162.39 
 407 114.77  1.66 162.39 
 408 -1.65  2.27 162.39 
 409 37.19  2.28 162.39 
 410 -2.49  2.29 162.39 
 411 169.41  1.01 162.39 
 412 253.28  0.85 169.41 
 413 59.28  1.54 253.28 
 414 75.86  3.67 253.28 
 415 110.27  3.89 253.28 
 416 -1.54  9.99 253.28 
 417 235.09 11.02 253.28 
 418 188.58  9.92 253.28 
 419 -6.46  2.45 253.28 
 420 245.27  3.15 253.28 
 421 121.94 10.50 253.28 
 422 70.82  9.05 253.28 
 423 146.96  9.76 253.28 
 424 27.58 10.95 253.28 
 425 145.55 12.17 253.28 
 426 -2.35  8.54 253.28 
 427 -1.83  9.60 253.28 
 428 190.76 12.60 253.28 
 429 -3.14 12.17 253.28 
 430 440.27  7.50 253.28 
 431 38.40  6.69 440.27 
 432 145.33  7.28 440.27 
 433 181.89  7.55 440.27 
 434 118.22  8.80 440.27 
 435 139.03 11.27 440.27 
 436 -7.30  8.42 440.27 
 437 109.53 11.01 440.27 
 438 133.56 12.64 440.27 
 439  9.71 16.43 440.27 
 440 158.90 17.26 440.27 
 441 109.72 13.78 440.27 
 442 111.49 13.46 440.27 
 443 85.34 14.51 440.27 
 444 81.63 15.04 440.27 
 445 31.89 11.88 440.27 
 446 -9.03 15.89 440.27 
 447 94.14 14.44 440.27 
 448 19.96 16.80 440.27 
 449 -4.97 87.52 440.27 
 450 127.65 480.51 440.27 
 451 27.12 593.11 440.27 
 452 67.93 550.04 440.27 
 453 22.40 555.30 440.27 
 454 82.68 375.63 440.27 
 455 113.82 605.34 440.27 
 456 -7.21 430.36 440.27 
 457 44.48 141.11 440.27 
 458 -7.07 18.00 440.27 
 459 81.22 26.13 440.27 
 460 70.25 251.87 440.27 
 461 188.09 124.52 440.27 
 462 -2.05 19.36 440.27 
 463 48.37 17.48 440.27 
 464 96.96 19.59 440.27 
 465  8.49 125.45 440.27 
 466 -6.53 90.41 440.27 
 467 53.04 123.93 440.27 
 468 12.93 19.28 440.27 
 469 115.41 15.04 440.27 
 470 207.34 15.63 440.27 
 471 13.03 102.23 440.27 
 472 38.87 285.73 440.27 
 473 129.45 484.48 440.27 
 474 122.36 520.54 440.27 
 475 -11.33 604.60 440.27 
 476 96.62 509.50 440.27 
 477 -9.39 552.53 440.27 
 478 25.29 602.11 440.27 
 479 152.26 651.32 440.27 
 480 -3.20 552.76 440.27 
 481 17.38 603.68 440.27 
 482 31.43 543.72 440.27 
 483 332.70 541.48 440.27 
 484 142.26 491.27 440.27 
 485 197.38 590.20 440.27 
 486  0.22 529.15 440.27 
 487 -14.16 467.76 440.27 
 488 221.77 460.95 440.27 
 489 -7.62 528.51 440.27 
 490 -8.62 529.19 440.27 
 491 31.54 499.18 440.27 
 492 207.51 479.02 440.27 
 493 72.75 418.76 440.27 
 494 28.25 339.38 440.27 
 495 200.31 589.11 440.27 
 496 172.95 589.06 440.27 
 497 245.43 528.28 440.27 
 498 130.80 417.57 440.27 
 499 33.17 538.95 440.27 
