Iter | Sampling Pol | Evaluation Pol | Best (Sampled) 
   0  0.03  0.03 -100000000.00 
   1  0.04  0.03  0.03 
   2  0.04  0.03  0.04 
   3  0.05  0.03  0.04 
   4  0.05  0.04  0.05 
   5  0.06  0.04  0.05 
   6  0.05  0.05  0.06 
   7  0.04  0.06  0.06 
   8  0.08  0.06  0.06 
   9  0.07  0.07  0.08 
  10  0.04  0.06  0.08 
  11  0.06  0.06  0.08 
  12  0.11  0.09  0.08 
  13  0.10  0.11  0.11 
  14  0.21  0.19  0.11 
  15  0.19  0.22  0.21 
  16  0.09  0.21  0.21 
  17  0.11  0.27  0.21 
  18  0.23  0.31  0.21 
  19  0.11  0.20  0.23 
  20  0.13  0.36  0.23 
  21  0.19  0.53  0.23 
  22  0.31  0.56  0.23 
  23  0.07  0.42  0.31 
  24  0.52  0.83  0.31 
  25  0.08  0.68  0.52 
  26  0.29  1.08  0.52 
  27  0.10  1.14  0.52 
  28  0.19  1.28  0.52 
  29  0.12  1.84  0.52 
  30  0.20  1.79  0.52 
  31  0.25  1.85  0.52 
  32  0.14  2.14  0.52 
  33  0.39  2.47  0.52 
  34  0.30  2.86  0.52 
  35  0.16  1.17  0.52 
  36  0.70  1.05  0.52 
  37  0.37  1.34  0.70 
  38  0.38  2.05  0.70 
  39  0.59  2.39  0.70 
  40  0.55  2.96  0.70 
  41  0.69  1.80  0.70 
  42  0.21  1.93  0.70 
  43  0.47  1.53  0.70 
  44  0.80  1.81  0.70 
  45  0.28  1.59  0.80 
  46  0.47  1.62  0.80 
  47  0.59  1.88  0.80 
  48  0.66  1.78  0.80 
  49  0.32  1.99  0.80 
  50  0.30  2.83  0.80 
  51  0.48  1.94  0.80 
  52  0.45  2.40  0.80 
  53  0.38  2.18  0.80 
  54  0.36  1.38  0.80 
  55  0.28  1.55  0.80 
  56  0.65  1.21  0.80 
  57  0.27  1.82  0.80 
  58  0.72  1.53  0.80 
  59  0.59  1.27  0.80 
  60  0.17  1.41  0.80 
  61  0.51  1.61  0.80 
  62  1.92  4.85  0.80 
  63  0.78  1.15  1.92 
  64  0.50  1.15  1.92 
  65  0.72  1.21  1.92 
  66  1.16  4.86  1.92 
  67  1.34  4.94  1.92 
  68  1.13  3.13  1.92 
  69  0.60  3.52  1.92 
  70  0.67  4.17  1.92 
  71  1.60  4.33  1.92 
  72  1.99  4.25  1.92 
  73  2.15  6.12  1.99 
  74  1.18  2.75  2.15 
  75  1.05  4.58  2.15 
  76  0.50  4.23  2.15 
  77  0.82  3.97  2.15 
  78  0.62  3.60  2.15 
  79  1.32  3.44  2.15 
  80  0.94  3.74  2.15 
  81  2.22  2.55  2.15 
  82  0.49  3.58  2.22 
  83  0.57  2.32  2.22 
  84  2.02  5.08  2.22 
  85  0.79  7.13  2.22 
  86  1.25  3.89  2.22 
  87  0.46  0.87  2.22 
  88  1.48  1.14  2.22 
  89  1.63  2.19  2.22 
  90  1.26  2.06  2.22 
  91  1.01  2.45  2.22 
  92  1.04  2.56  2.22 
  93  2.14  1.36  2.22 
  94  1.21  1.09  2.22 
  95  2.66  1.85  2.22 
  96  1.91  1.35  2.66 
  97  1.19  3.33  2.66 
  98  2.51  2.89  2.66 
  99  2.02  2.20  2.66 
 100  1.40  0.94  2.66 
 101  1.00  0.97  2.66 
 102  1.64  1.33  2.66 
 103  2.57  1.05  2.66 
 104  1.01  1.05  2.66 
 105  1.46  0.90  2.66 
 106  2.48  1.21  2.66 
 107  3.73  1.38  2.66 
 108  2.97  1.56  3.73 
 109  1.02  1.35  3.73 
 110  1.37  0.82  3.73 
 111  2.49  0.60  3.73 
 112  1.15  0.48  3.73 
 113  2.59  0.37  3.73 
 114  2.87  0.36  3.73 
 115  1.97  0.44  3.73 
 116  1.99  0.62  3.73 
 117  1.35  0.61  3.73 
 118  1.05  0.44  3.73 
 119  0.92  0.78  3.73 
 120  1.67  1.70  3.73 
 121  3.24  1.54  3.73 
 122  2.21  1.84  3.73 
 123  1.56  1.97  3.73 
 124  1.37  1.96  3.73 
 125  2.26  2.47  3.73 
 126  1.00  2.22  3.73 
 127  2.40  2.26  3.73 
 128  1.89  3.30  3.73 
 129  2.97  3.17  3.73 
 130  0.92  1.94  3.73 
 131  2.36  2.69  3.73 
 132  2.24  2.16  3.73 
 133  1.87  2.46  3.73 
 134  1.67  4.08  3.73 
 135  1.16  5.23  3.73 
 136  2.09  4.63  3.73 
 137  2.06  5.78  3.73 
 138  2.49  5.33  3.73 
 139  1.38  4.61  3.73 
 140  2.53  4.27  3.73 
 141  1.15  5.06  3.73 
 142  2.29  6.84  3.73 
 143  3.65  5.46  3.73 
 144  0.88  4.98  3.73 
 145  2.07  4.01  3.73 
 146  0.97  7.20  3.73 
 147  0.92  8.50  3.73 
 148  1.53  7.04  3.73 
 149  1.75  8.29  3.73 
 150  1.36  6.12  3.73 
 151  1.72  6.46  3.73 
 152  1.86  6.45  3.73 
 153  3.13  3.32  3.73 
 154  0.81  4.95  3.73 
 155  1.60  4.71  3.73 
 156  2.06  4.49  3.73 
 157  1.91  5.86  3.73 
 158  1.69  4.98  3.73 
 159  2.01  7.63  3.73 
 160  4.04  4.31  3.73 
 161  2.65  6.56  4.04 
 162  1.64  8.92  4.04 
 163  2.10  6.21  4.04 
 164  1.72  5.17  4.04 
 165  2.23  6.58  4.04 
 166  3.08  4.42  4.04 
 167  0.98  4.93  4.04 
 168  3.06  5.01  4.04 
 169  1.88  8.00  4.04 
 170  2.86  7.01  4.04 
 171  4.36  8.34  4.04 
 172  1.82  7.12  4.36 
 173  2.68  5.68  4.36 
 174  2.94  6.41  4.36 
 175  3.36  9.13  4.36 
 176  4.59  5.26  4.36 
 177  1.64  9.21  4.59 
 178  2.93  6.13  4.59 
 179  5.13  6.47  4.59 
 180  2.23  6.11  5.13 
 181  2.51  7.54  5.13 
 182  2.25  8.22  5.13 
 183  2.11  8.73  5.13 
 184  6.01  8.69  5.13 
 185  2.38  9.84  6.01 
 186  3.90  8.79  6.01 
 187  3.14  8.06  6.01 
 188  3.81  6.04  6.01 
 189  2.79  7.17  6.01 
 190  2.12  6.95  6.01 
 191  2.75  9.84  6.01 
 192  3.20  8.65  6.01 
 193  2.82  6.86  6.01 
 194  2.68  6.14  6.01 
 195  1.81  6.49  6.01 
 196  2.11  6.46  6.01 
 197  1.42  8.96  6.01 
 198  2.34  2.24  6.01 
 199  2.98  2.06  6.01 
 200  3.36  3.10  6.01 
 201  2.07  4.26  6.01 
 202  2.07 10.37  6.01 
 203  2.17  8.66  6.01 
 204  4.52  8.15  6.01 
 205  3.27  9.72  6.01 
 206  1.86  8.03  6.01 
 207  3.22  6.09  6.01 
 208  2.88  3.84  6.01 
 209  2.78  7.34  6.01 
 210  2.19  9.13  6.01 
 211  4.13  9.01  6.01 
 212  1.75  7.92  6.01 
 213  2.31  7.57  6.01 
 214  0.82  7.37  6.01 
 215  3.36  5.32  6.01 
 216  3.92  7.21  6.01 
 217  4.64  7.51  6.01 
 218  1.31  7.69  6.01 
 219  3.99  5.11  6.01 
 220  2.15  5.74  6.01 
 221  3.44  3.73  6.01 
 222  2.26  4.62  6.01 
 223  3.00  5.60  6.01 
 224  4.33  5.76  6.01 
 225  2.21  4.45  6.01 
 226  2.70  6.77  6.01 
 227  3.91 11.22  6.01 
 228  2.18  5.86  6.01 
 229  3.15  5.96  6.01 
 230  3.28  4.60  6.01 
 231  1.88  6.11  6.01 
 232  4.66  6.77  6.01 
 233  3.56  6.94  6.01 
 234  6.07  5.19  6.01 
 235  3.43  8.71  6.07 
 236  1.57  7.76  6.07 
 237  5.14  9.51  6.07 
 238  4.94  7.90  6.07 
 239  4.56  8.93  6.07 
 240  4.37  8.37  6.07 
 241  3.23  7.28  6.07 
 242  2.73  9.14  6.07 
 243  2.83  8.92  6.07 
 244  1.21 11.05  6.07 
 245  2.70  9.26  6.07 
 246  4.03  7.04  6.07 
 247  1.41  6.87  6.07 
 248  2.15 10.27  6.07 
 249  3.20 11.01  6.07 
 250  4.41  8.71  6.07 
 251  3.99 11.29  6.07 
 252  2.25 11.72  6.07 
 253  6.04  9.82  6.07 
 254  2.73  8.75  6.07 
 255  2.69  8.93  6.07 
 256  1.07  9.77  6.07 
 257  1.40 10.83  6.07 
 258  4.41  8.86  6.07 
 259  3.90  9.55  6.07 
 260  4.73  8.03  6.07 
 261  3.45 10.35  6.07 
 262  4.50 10.98  6.07 
 263  7.69 12.27  6.07 
 264  6.14 12.64  7.69 
 265  4.11 12.36  7.69 
 266  5.68 11.24  7.69 
 267  3.73 11.12  7.69 
 268  5.05 12.96  7.69 
 269  3.00 13.41  7.69 
 270  3.15 12.36  7.69 
 271  3.44  8.44  7.69 
 272  3.94 11.83  7.69 
 273  6.46 11.19  7.69 
 274  3.52 12.25  7.69 
 275  5.53 12.09  7.69 
 276  3.14 10.18  7.69 
 277  5.36 10.80  7.69 
 278  2.64  9.25  7.69 
 279  3.17 15.19  7.69 
 280  4.34  8.40  7.69 
 281  6.18 12.71  7.69 
 282  6.21  7.03  7.69 
 283  3.97  7.93  7.69 
 284  2.97 12.96  7.69 
 285  4.94 10.72  7.69 
 286  5.65  4.47  7.69 
 287  6.54  6.56  7.69 
 288  2.98  7.13  7.69 
 289  3.82  7.15  7.69 
 290  6.80 11.29  7.69 
 291  5.25  8.62  7.69 
 292  0.95  8.25  7.69 
 293  4.81  7.94  7.69 
 294  2.32 12.24  7.69 
 295  5.17  8.95  7.69 
 296  2.54 14.08  7.69 
 297  2.88 12.24  7.69 
 298  3.73 10.64  7.69 
 299  1.35 11.33  7.69 
 300  3.03  6.87  7.69 
 301  3.20 13.10  7.69 
 302  3.75 11.35  7.69 
 303  6.78 11.56  7.69 
 304  2.84 12.48  7.69 
 305  4.89 10.09  7.69 
 306  5.14  6.64  7.69 
 307  3.59  5.47  7.69 
 308  5.52  3.89  7.69 
 309  5.13  4.38  7.69 
 310  4.46  3.07  7.69 
 311  6.37  3.99  7.69 
 312  6.48  4.65  7.69 
 313  2.67  4.31  7.69 
 314  4.68  3.80  7.69 
 315  9.68  7.31  7.69 
 316  3.90  2.13  9.68 
 317  3.00  2.36  9.68 
 318  3.95  6.05  9.68 
 319  3.93  3.15  9.68 
 320  1.58  6.59  9.68 
 321  3.96  6.86  9.68 
 322  5.19  3.97  9.68 
 323  2.44  7.17  9.68 
 324  4.00  5.42  9.68 
 325  3.55  5.12  9.68 
 326  4.45  5.01  9.68 
 327  4.42  5.55  9.68 
 328  7.06  3.04  9.68 
 329  4.47  6.24  9.68 
 330  4.34  3.60  9.68 
 331  3.47  8.12  9.68 
 332  3.93  2.57  9.68 
 333  4.39  5.97  9.68 
 334  5.26 10.18  9.68 
 335  4.92  3.93  9.68 
 336  2.57  2.66  9.68 
 337  3.29  1.58  9.68 
 338  2.61  2.96  9.68 
 339  4.33  3.32  9.68 
 340  3.96  5.55  9.68 
 341  3.95  3.57  9.68 
 342  2.62  1.55  9.68 
 343  5.42  2.77  9.68 
 344  5.02  2.08  9.68 
 345  3.66  3.25  9.68 
 346  3.51  4.17  9.68 
 347  6.23  4.58  9.68 
 348  6.39  2.86  9.68 
 349  3.68  3.17  9.68 
 350  6.72 37.03  9.68 
 351  3.66  2.22  9.68 
 352  4.71  3.18  9.68 
 353  4.96  2.12  9.68 
 354  6.76  2.38  9.68 
 355  5.46  2.69  9.68 
 356  4.42  3.75  9.68 
 357  3.84  1.89  9.68 
 358  5.23  1.22  9.68 
 359  3.56  2.90  9.68 
 360  5.21 15.93  9.68 
 361  5.13  1.76  9.68 
 362  3.97 11.90  9.68 
 363  2.31  1.92  9.68 
 364  4.99  1.49  9.68 
 365  7.11  1.77  9.68 
 366  5.13  3.95  9.68 
 367  6.11  2.06  9.68 
 368  5.30  1.42  9.68 
 369  4.58 15.31  9.68 
 370  7.68  2.95  9.68 
 371  5.85  1.77  9.68 
 372  6.13  1.41  9.68 
 373  5.16  1.97  9.68 
 374  5.00  1.73  9.68 
 375  4.24  3.06  9.68 
 376  5.80  4.02  9.68 
 377  5.91  1.40  9.68 
 378  6.91  3.96  9.68 
 379  4.08  4.54  9.68 
 380  5.70  4.45  9.68 
 381  4.05  2.79  9.68 
 382  6.91  1.89  9.68 
 383  5.06  3.50  9.68 
 384  5.99  3.43  9.68 
 385  4.65  5.96  9.68 
 386  4.88  4.51  9.68 
 387  2.47  3.59  9.68 
 388  4.24  4.39  9.68 
 389  4.71  3.99  9.68 
 390  3.50  4.26  9.68 
 391  3.80  5.58  9.68 
 392  5.20  5.11  9.68 
 393  5.12  3.63  9.68 
 394  5.12  5.40  9.68 
 395  4.82  2.86  9.68 
 396  5.35  3.09  9.68 
 397  2.28 15.87  9.68 
 398  6.20  2.60  9.68 
 399  2.06  5.78  9.68 
 400  5.29  6.42  9.68 
 401  4.75  2.41  9.68 
 402  5.27  2.88  9.68 
 403  8.69 14.98  9.68 
 404  6.44  4.99  9.68 
 405  5.04  3.39  9.68 
 406  7.95  3.76  9.68 
 407  5.95  3.64  9.68 
 408  8.96  3.28  9.68 
 409  4.43  3.70  9.68 
 410  6.28  3.44  9.68 
 411  4.76  3.68  9.68 
 412  5.02  3.75  9.68 
 413  3.27  7.96  9.68 
 414  5.91  4.08  9.68 
 415  7.63 30.09  9.68 
 416  6.52  3.76  9.68 
 417  6.49  3.79  9.68 
 418  3.14  3.87  9.68 
 419  7.05  3.83  9.68 
 420  5.34  7.43  9.68 
 421  5.06  3.77  9.68 
 422  5.18  4.07  9.68 
 423  6.48  4.22  9.68 
 424  4.41  3.24  9.68 
 425  6.21  3.70  9.68 
 426  7.38  4.30  9.68 
 427  6.62  4.11  9.68 
 428  3.94  3.42  9.68 
 429  5.47  3.91  9.68 
 430  3.30  1.95  9.68 
 431  5.41  4.05  9.68 
 432  5.31  1.90  9.68 
 433  4.06  3.35  9.68 
 434  5.58  6.94  9.68 
 435  7.99  1.89  9.68 
 436  6.34  4.93  9.68 
 437  6.67  6.85  9.68 
 438  2.43  5.49  9.68 
 439  5.27  4.10  9.68 
 440  6.02  4.02  9.68 
 441  5.63  3.56  9.68 
 442  3.34  6.25  9.68 
 443  6.34  7.32  9.68 
 444  7.74  2.43  9.68 
 445  5.77  7.59  9.68 
 446  4.65  2.16  9.68 
 447  6.42  1.90  9.68 
 448  6.04  2.60  9.68 
 449  4.05  6.49  9.68 
 450  6.26  6.67  9.68 
 451  5.98  5.75  9.68 
 452  5.63  5.88  9.68 
 453  7.41  5.92  9.68 
 454  8.58  5.13  9.68 
 455  3.39  6.04  9.68 
 456  6.96  6.20  9.68 
 457  5.95  6.86  9.68 
 458  3.65  5.79  9.68 
 459  3.22  5.41  9.68 
 460 10.27 12.28  9.68 
 461  8.11  5.16 10.27 
 462  6.21  6.05 10.27 
 463  7.93  6.12 10.27 
 464  8.85  5.99 10.27 
 465  5.44  6.47 10.27 
 466  9.83  6.33 10.27 
 467  5.90  5.71 10.27 
 468  4.03  6.38 10.27 
 469  7.53  5.44 10.27 
 470  4.47  4.64 10.27 
 471  5.51  4.61 10.27 
 472  5.17  5.40 10.27 
 473  4.75  4.98 10.27 
 474  6.03  5.13 10.27 
 475  6.69  4.68 10.27 
 476  6.61  4.86 10.27 
 477  5.00  6.38 10.27 
 478  5.17  2.24 10.27 
 479  8.50  1.82 10.27 
 480  6.44  6.28 10.27 
 481  5.67  5.16 10.27 
 482  6.73  5.30 10.27 
 483  5.82  4.77 10.27 
 484  5.39  1.74 10.27 
 485  4.00  2.83 10.27 
 486  6.15  2.50 10.27 
 487  7.72  4.31 10.27 
 488  3.80  5.02 10.27 
 489  6.14  5.96 10.27 
 490  5.36  5.47 10.27 
 491  6.42  5.53 10.27 
 492  5.72  5.17 10.27 
 493  3.68  6.53 10.27 
 494  6.86  6.56 10.27 
 495  5.75  6.19 10.27 
 496  5.70  5.92 10.27 
 497  6.62  8.58 10.27 
 498  5.27  6.25 10.27 
 499  6.07  6.44 10.27 
 500  5.42  6.71 10.27 
 501  8.06  8.17 10.27 
 502  3.41  8.05 10.27 
 503  7.16  7.96 10.27 
 504  8.50  8.78 10.27 
 505  8.92  8.25 10.27 
 506  5.54  7.36 10.27 
 507  6.05  8.85 10.27 
 508  7.51  6.37 10.27 
 509  4.62  6.17 10.27 
 510  8.97  7.08 10.27 
 511  2.21  8.31 10.27 
 512  3.54  5.81 10.27 
 513  7.39  5.95 10.27 
 514  5.86  5.85 10.27 
 515  9.07  8.09 10.27 
 516  4.54  8.50 10.27 
 517 10.12 10.71 10.27 
 518  3.49  9.23 10.27 
 519  5.52  8.77 10.27 
 520  7.90  9.51 10.27 
 521  7.59  7.20 10.27 
 522  8.27  6.18 10.27 
 523  4.33  5.57 10.27 
 524  7.83  6.44 10.27 
 525  9.29  7.02 10.27 
 526  6.54  5.73 10.27 
 527  7.27  4.88 10.27 
 528  6.10  7.66 10.27 
 529  4.25  8.17 10.27 
 530  5.60  9.03 10.27 
 531  6.88  8.73 10.27 
 532  4.27  7.42 10.27 
 533  8.80  7.47 10.27 
 534  4.77  6.95 10.27 
 535  7.83  8.70 10.27 
 536  9.54  8.31 10.27 
 537  7.76  8.49 10.27 
 538  5.11  8.24 10.27 
 539  7.18  7.12 10.27 
 540  5.80  8.35 10.27 
 541  5.88  6.75 10.27 
 542  4.60  8.79 10.27 
 543  6.14  8.70 10.27 
 544  6.98  6.39 10.27 
 545  7.81  6.12 10.27 
 546  7.79  5.39 10.27 
 547  4.14  6.50 10.27 
 548  3.27  6.33 10.27 
 549  6.27  6.18 10.27 
 550  6.44  6.37 10.27 
 551  6.18  6.71 10.27 
 552  7.59  6.17 10.27 
 553  3.84  6.06 10.27 
 554  7.91  5.10 10.27 
 555  8.74  3.44 10.27 
 556  9.33  3.66 10.27 
 557  6.51  5.41 10.27 
 558  5.06  3.53 10.27 
 559  3.53  6.96 10.27 
 560  5.62  4.70 10.27 
 561  6.16  5.84 10.27 
 562  8.26  9.38 10.27 
 563  7.01  5.12 10.27 
 564  7.79  5.17 10.27 
 565  4.05  5.95 10.27 
 566  5.51  5.85 10.27 
 567  5.95  5.85 10.27 
 568  7.46  5.97 10.27 
 569  6.36  2.13 10.27 
 570  6.16  5.61 10.27 
 571  4.44  3.09 10.27 
 572  7.00  3.12 10.27 
 573  7.73  9.14 10.27 
 574  5.77  8.55 10.27 
 575  8.62  8.65 10.27 
 576  6.15  8.29 10.27 
 577  8.30  8.62 10.27 
 578  7.47  9.29 10.27 
 579  5.37  5.92 10.27 
 580  8.19  7.83 10.27 
 581  8.47  9.41 10.27 
 582  8.17  9.67 10.27 
 583  7.16  9.71 10.27 
 584  7.64 11.11 10.27 
 585  5.58  9.89 10.27 
 586  7.05  9.29 10.27 
 587  7.99 11.35 10.27 
 588  5.53  9.91 10.27 
 589  8.00 10.17 10.27 
 590  6.33  8.72 10.27 
 591  6.47  9.67 10.27 
 592  8.47  8.14 10.27 
 593  4.23  8.01 10.27 
 594  6.26  6.85 10.27 
 595  7.99  4.72 10.27 
 596  8.22  3.91 10.27 
 597  5.89  6.19 10.27 
 598  9.03  6.09 10.27 
 599  7.74  6.74 10.27 
 600  5.61  8.57 10.27 
 601  5.99 13.50 10.27 
 602  8.51  7.65 10.27 
 603  5.39  7.56 10.27 
 604  7.07  7.22 10.27 
 605  5.34  7.20 10.27 
 606  4.81  7.13 10.27 
 607  9.36  6.98 10.27 
 608  6.10  5.75 10.27 
 609  9.63  3.30 10.27 
 610  8.32  3.80 10.27 
 611  7.66  2.53 10.27 
 612  2.14  2.75 10.27 
 613  7.05  2.81 10.27 
 614  6.62  1.85 10.27 
 615  5.51  2.93 10.27 
 616  4.90  7.34 10.27 
 617 10.61  5.57 10.27 
 618  4.48  4.49 10.61 
 619  7.14  3.91 10.61 
 620  7.71  3.83 10.61 
 621  9.23  4.23 10.61 
 622  8.04  2.90 10.61 
 623  5.92  8.61 10.61 
 624  6.95  8.30 10.61 
 625  7.41  6.42 10.61 
 626  6.95  6.44 10.61 
 627  5.48  7.87 10.61 
 628  8.11  6.78 10.61 
 629  8.03  7.41 10.61 
 630  7.40  7.09 10.61 
 631  6.66  7.87 10.61 
 632  2.85  7.64 10.61 
 633  6.80  4.21 10.61 
 634  5.48  1.84 10.61 
 635  8.62  0.68 10.61 
 636  5.04  1.12 10.61 
 637  7.93  0.54 10.61 
 638  5.71  1.33 10.61 
 639  5.56  0.55 10.61 
 640  7.05  0.42 10.61 
 641  7.21  0.39 10.61 
 642  4.01  0.49 10.61 
 643  9.37  0.72 10.61 
 644  6.59  1.06 10.61 
 645  8.17  0.68 10.61 
 646  5.01  0.45 10.61 
 647  6.06  0.47 10.61 
 648  5.03  0.58 10.61 
 649  6.25  0.61 10.61 
 650  6.89  1.19 10.61 
 651  6.12  1.07 10.61 
 652  9.44  0.83 10.61 
 653  4.89  1.39 10.61 
 654  4.83  0.68 10.61 
 655  8.11  0.47 10.61 
 656  4.40  2.43 10.61 
 657  5.69  1.69 10.61 
 658  5.37  0.88 10.61 
 659  8.86  0.99 10.61 
 660  7.23  1.95 10.61 
 661  5.32  0.97 10.61 
 662  6.08  3.22 10.61 
 663  6.34  0.76 10.61 
 664  2.27  1.51 10.61 
 665  8.23  3.08 10.61 
 666  5.14  1.14 10.61 
 667  6.67  2.14 10.61 
 668  7.27  1.08 10.61 
 669  8.56  0.83 10.61 
 670  7.07  1.75 10.61 
 671  6.62  1.76 10.61 
 672  6.35  1.23 10.61 
 673  6.88  1.58 10.61 
 674  6.59  1.59 10.61 
 675  9.47  2.03 10.61 
 676  6.99  1.60 10.61 
 677  4.02  4.55 10.61 
 678  7.09  3.49 10.61 
 679  5.59  3.01 10.61 
 680 11.30  2.16 10.61 
 681  5.79  2.07 11.30 
 682  6.04  3.27 11.30 
 683  7.32  1.26 11.30 
 684  8.83  3.37 11.30 
 685  5.90  2.11 11.30 
 686  5.46  3.11 11.30 
 687  4.91  4.64 11.30 
 688  5.80  6.11 11.30 
 689  5.66  4.32 11.30 
 690  6.57  4.81 11.30 
 691  5.78  4.18 11.30 
 692  9.88  3.93 11.30 
 693  4.43  3.27 11.30 
 694  7.49  5.29 11.30 
 695  6.64  4.52 11.30 
 696  7.00  5.34 11.30 
 697  9.41  4.55 11.30 
 698  5.63  4.44 11.30 
 699 10.12  4.70 11.30 
 700  5.04  5.00 11.30 
 701  7.21  4.83 11.30 
 702  6.06  5.76 11.30 
 703  4.70  5.12 11.30 
 704  7.37  4.69 11.30 
 705  6.84  3.84 11.30 
 706  8.05  6.38 11.30 
 707  5.14  7.71 11.30 
 708  9.46  7.02 11.30 
 709  8.87  4.67 11.30 
 710  8.61  3.99 11.30 
 711 10.30  4.20 11.30 
 712  7.58  5.81 11.30 
 713  7.13  3.85 11.30 
 714 10.13  4.10 11.30 
 715  7.53  4.61 11.30 
 716  9.42  4.62 11.30 
 717  9.92  5.35 11.30 
 718  7.15  2.99 11.30 
 719  5.16  4.92 11.30 
 720  6.26  5.27 11.30 
 721  8.20  3.43 11.30 
 722 10.03  4.70 11.30 
 723 13.11  5.10 11.30 
 724  5.96  5.84 13.11 
 725  9.92  3.38 13.11 
 726  8.02  6.81 13.11 
 727  8.44  4.23 13.11 
 728  7.22  5.55 13.11 
 729  9.29  4.42 13.11 
 730  6.40  4.64 13.11 
 731  8.75  5.66 13.11 
 732  8.82  5.51 13.11 
 733  7.28  5.60 13.11 
 734  6.93  3.74 13.11 
 735  8.33  5.08 13.11 
 736  9.87  3.64 13.11 
 737 10.13  6.80 13.11 
 738  3.68  4.48 13.11 
 739  9.56  3.21 13.11 
 740  7.28  4.10 13.11 
 741  9.31  6.85 13.11 
 742  6.73  7.10 13.11 
 743  7.76  8.48 13.11 
 744  9.38  5.32 13.11 
 745  5.75  8.73 13.11 
 746  9.55  8.05 13.11 
 747  9.27  5.30 13.11 
 748  5.20  6.26 13.11 
 749  8.39  6.16 13.11 
 750  7.65  5.44 13.11 
 751  9.21  4.57 13.11 
 752  6.41  9.59 13.11 
 753  7.32  9.75 13.11 
 754  9.47  4.49 13.11 
 755  8.27  5.30 13.11 
 756  9.44  9.15 13.11 
 757 11.07 13.63 13.11 
 758  7.95 12.22 13.11 
 759  5.96  4.34 13.11 
 760 11.12  9.43 13.11 
 761  6.78  5.44 13.11 
 762 10.88  5.70 13.11 
 763  6.66  6.52 13.11 
 764  8.93  4.05 13.11 
 765 11.15  7.95 13.11 
 766  4.50  6.22 13.11 
 767  9.03  6.79 13.11 
 768  6.79  7.43 13.11 
 769  8.47  5.58 13.11 
 770  9.16  9.54 13.11 
 771  7.83  7.51 13.11 
 772  9.55  7.10 13.11 
 773  8.79 15.61 13.11 
 774  7.44 12.97 13.11 
 775  8.43 13.76 13.11 
 776  7.57 14.90 13.11 
 777  6.71 14.55 13.11 
 778  9.70 13.24 13.11 
 779  9.30  6.22 13.11 
 780  8.35  5.81 13.11 
 781  9.04 10.10 13.11 
 782 11.34 11.03 13.11 
 783  9.83 10.01 13.11 
 784  6.47 10.47 13.11 
 785  9.04  6.93 13.11 
 786  9.61  8.16 13.11 
 787  8.94  8.83 13.11 
 788  5.99 10.63 13.11 
 789  8.34  8.90 13.11 
 790  6.68  9.67 13.11 
 791 10.49  8.99 13.11 
 792  7.28 10.97 13.11 
 793  6.75  8.61 13.11 
 794  9.06  7.52 13.11 
 795  5.41  8.96 13.11 
 796  5.95  7.93 13.11 
 797  8.62  7.25 13.11 
 798  9.81  8.46 13.11 
 799 10.71  7.24 13.11 
 800  8.79  5.17 13.11 
 801  8.44  7.90 13.11 
 802  8.82  7.83 13.11 
 803 10.67  6.75 13.11 
 804  9.65  7.51 13.11 
 805  9.60  6.39 13.11 
 806  8.97  6.04 13.11 
 807  9.66  7.72 13.11 
 808  5.76  8.44 13.11 
 809  9.75  7.49 13.11 
 810 10.64  6.56 13.11 
 811  7.06  6.74 13.11 
 812 10.69  8.86 13.11 
 813  4.51  8.10 13.11 
 814  8.57  7.54 13.11 
 815  7.91  8.06 13.11 
 816  6.40  7.56 13.11 
 817  6.87  6.05 13.11 
 818  6.28  4.45 13.11 
 819 11.71  5.80 13.11 
 820  7.97  5.15 13.11 
 821 10.78  1.61 13.11 
 822 11.94  4.95 13.11 
 823  4.80  3.60 13.11 
 824  8.08  4.52 13.11 
 825  7.31  6.26 13.11 
 826 11.98  6.03 13.11 
 827  6.77  5.50 13.11 
 828  7.12  4.65 13.11 
 829 10.44  4.34 13.11 
 830  8.54  4.44 13.11 
 831 11.64  5.10 13.11 
 832  3.04  5.80 13.11 
 833  5.78  4.64 13.11 
 834  9.66  5.60 13.11 
 835  8.64  8.71 13.11 
 836  7.01  6.04 13.11 
 837  8.97  6.79 13.11 
 838  6.56  8.04 13.11 
 839  3.16  5.11 13.11 
 840  7.97  2.05 13.11 
 841  7.66  5.02 13.11 
 842  7.82  3.88 13.11 
 843  9.13  2.07 13.11 
 844 11.72  1.63 13.11 
 845  8.51  4.94 13.11 
 846  9.54  6.84 13.11 
 847  7.70  6.91 13.11 
 848  8.45  4.44 13.11 
 849  7.51  4.34 13.11 
 850  8.78  4.52 13.11 
 851 11.53  4.75 13.11 
 852  8.48  6.23 13.11 
 853  8.79  5.13 13.11 
 854  5.21  5.50 13.11 
 855  5.09  4.25 13.11 
 856 12.57  4.32 13.11 
 857  7.76  4.47 13.11 
 858  9.46  6.49 13.11 
 859  8.90  4.86 13.11 
 860  7.80  4.79 13.11 
 861 12.43  5.07 13.11 
 862  9.39  3.39 13.11 
 863 11.03  5.01 13.11 
 864  8.20  4.50 13.11 
 865  7.70  2.91 13.11 
 866  8.81  4.92 13.11 
 867 11.44  4.27 13.11 
 868  8.04  2.75 13.11 
 869  8.30  2.45 13.11 
 870  5.42  2.11 13.11 
 871  5.87  4.32 13.11 
 872 10.30  2.98 13.11 
 873 10.35  3.54 13.11 
 874  4.11  2.84 13.11 
 875  7.60  3.26 13.11 
 876  6.49  2.84 13.11 
 877  5.46  3.88 13.11 
 878 11.66  2.77 13.11 
 879 10.59  2.68 13.11 
 880  5.58  4.00 13.11 
 881  8.40  2.51 13.11 
 882  7.94  3.15 13.11 
 883  6.98  6.33 13.11 
 884 10.24  4.09 13.11 
 885  8.32  8.11 13.11 
 886  8.52  4.67 13.11 
 887  9.34  4.94 13.11 
 888 10.10  6.40 13.11 
 889 10.61  6.12 13.11 
 890  9.66  5.41 13.11 
 891 10.89  4.26 13.11 
 892  8.59  4.98 13.11 
 893 12.58  4.54 13.11 
 894  9.08  3.16 13.11 
 895  7.00  4.76 13.11 
 896  6.94 14.03 13.11 
 897 14.07 13.10 13.11 
 898 13.44 14.20 14.07 
 899 10.33 13.27 14.07 
 900 10.30 13.96 14.07 
 901  7.68  9.39 14.07 
 902  9.98  8.67 14.07 
 903 10.35  6.92 14.07 
 904 11.37  6.26 14.07 
 905  9.54  7.70 14.07 
 906  9.88  5.67 14.07 
 907 13.23  8.60 14.07 
 908  7.03 11.67 14.07 
 909  6.53 15.23 14.07 
 910  6.15  5.74 14.07 
 911  6.21  5.57 14.07 
 912  5.94  1.52 14.07 
 913  6.65  5.13 14.07 
 914  9.36  9.51 14.07 
 915  8.41  7.21 14.07 
 916  7.75  7.66 14.07 
 917 10.11  9.36 14.07 
 918 12.54 10.60 14.07 
 919 11.36 15.51 14.07 
 920  4.94  9.84 14.07 
 921  9.33  6.20 14.07 
 922  6.03  4.60 14.07 
 923  9.93  5.46 14.07 
 924  5.55  4.22 14.07 
 925 12.09  5.29 14.07 
 926  7.67  5.61 14.07 
 927  9.40  4.51 14.07 
 928  8.83  3.39 14.07 
 929  4.44  4.40 14.07 
 930  7.59  1.88 14.07 
 931  9.11  2.90 14.07 
 932  7.44  6.74 14.07 
 933 10.89  3.82 14.07 
 934  9.13  7.08 14.07 
 935  7.72 13.25 14.07 
 936  9.61 13.67 14.07 
 937 10.34 12.31 14.07 
 938  7.26  6.78 14.07 
 939  8.43 14.59 14.07 
 940 11.59  2.53 14.07 
 941  9.67  2.15 14.07 
 942 11.50  5.56 14.07 
 943 10.68  1.41 14.07 
 944  7.34  7.70 14.07 
 945  4.43  5.21 14.07 
 946  7.29  8.23 14.07 
 947  8.25  8.03 14.07 
 948  6.98  4.77 14.07 
 949 11.69  3.41 14.07 
 950  7.51  4.62 14.07 
 951  6.02  4.07 14.07 
 952  9.04  4.56 14.07 
 953  6.85  3.18 14.07 
 954 10.59  5.59 14.07 
 955  8.70  7.77 14.07 
 956  8.54  4.79 14.07 
 957  7.42  5.43 14.07 
 958  7.75  4.93 14.07 
 959 10.42  5.02 14.07 
 960  9.36  5.09 14.07 
 961  4.29  4.88 14.07 
 962  7.51  4.57 14.07 
 963  9.89  6.41 14.07 
 964  8.65  5.42 14.07 
 965  6.90  4.14 14.07 
 966  8.20  5.68 14.07 
 967  4.78  4.38 14.07 
 968  8.25  3.78 14.07 
 969  9.48  3.39 14.07 
 970  8.80  3.78 14.07 
 971 13.15  3.67 14.07 
 972 10.06  3.83 14.07 
 973  5.97  4.54 14.07 
 974  8.67  6.75 14.07 
 975 12.16  5.11 14.07 
 976  7.68  3.99 14.07 
 977  8.62  4.70 14.07 
 978 10.48  4.83 14.07 
 979  5.79  4.51 14.07 
 980  8.58  3.76 14.07 
 981  8.19  5.81 14.07 
 982  6.66  5.50 14.07 
 983 10.80  3.57 14.07 
 984  7.52  3.06 14.07 
 985  8.32  5.61 14.07 
 986  7.47  2.46 14.07 
 987 11.29  4.75 14.07 
 988  5.14  6.18 14.07 
 989  8.56  3.79 14.07 
 990 13.48  6.70 14.07 
 991  4.98  3.92 14.07 
 992 10.30  4.50 14.07 
 993  4.04  3.69 14.07 
 994  6.19  4.51 14.07 
 995  9.63  6.40 14.07 
 996 10.24  3.73 14.07 
 997 11.41  4.83 14.07 
 998  7.17  4.44 14.07 
 999  4.92  4.50 14.07 
1000  5.23  3.95 14.07 
1001 11.36  4.20 14.07 
1002 10.69  4.97 14.07 
1003  8.18  4.31 14.07 
1004  5.93  5.88 14.07 
1005  8.05  3.74 14.07 
1006  5.20  3.49 14.07 
1007  8.31  5.01 14.07 
1008  8.31  4.90 14.07 
1009  7.91  6.65 14.07 
1010  5.97  5.68 14.07 
1011 11.16  7.36 14.07 
1012  8.88  4.64 14.07 
1013  7.86  4.75 14.07 
1014  4.35  4.84 14.07 
1015  7.85  4.41 14.07 
1016  7.57  5.10 14.07 
1017  5.62  4.10 14.07 
1018  6.50  8.44 14.07 
1019  4.11  4.08 14.07 
1020  6.21  4.44 14.07 
1021  9.52  4.34 14.07 
1022  8.80  4.42 14.07 
1023  6.20  6.83 14.07 
1024  7.59  6.02 14.07 
1025  8.86  6.08 14.07 
1026  9.95  7.00 14.07 
1027  7.46  7.47 14.07 
1028  9.79  6.04 14.07 
1029  6.47  4.03 14.07 
1030 11.19  5.22 14.07 
1031 10.69  3.86 14.07 
1032  6.66  3.68 14.07 
1033  7.49  4.38 14.07 
1034  6.98  4.66 14.07 
1035  5.87  3.32 14.07 
1036  7.04  3.43 14.07 
1037  7.06  6.40 14.07 
1038  9.76  5.57 14.07 
1039  4.53  3.95 14.07 
1040  8.38  2.41 14.07 
1041  9.90  2.41 14.07 
1042  8.75  5.39 14.07 
1043  8.45  3.62 14.07 
1044 11.82  4.93 14.07 
1045  6.66  2.97 14.07 
1046 10.59  3.44 14.07 
1047  4.32  2.89 14.07 
1048  5.58  4.94 14.07 
1049 10.04  6.66 14.07 
1050  6.41  1.57 14.07 
1051  8.35  2.58 14.07 
1052  9.25  3.33 14.07 
1053  9.29  4.14 14.07 
1054  7.55  4.76 14.07 
1055  8.48  3.40 14.07 
1056 10.33  2.91 14.07 
1057  7.30  3.09 14.07 
1058  9.29  4.49 14.07 
1059  8.37  5.28 14.07 
1060  9.80  7.06 14.07 
1061  5.33  6.09 14.07 
1062 11.96  4.97 14.07 
1063  9.32  4.79 14.07 
1064  7.16  5.44 14.07 
1065  8.56  4.21 14.07 
1066 11.58  4.00 14.07 
1067 12.24  3.86 14.07 
1068  8.53  4.22 14.07 
1069  9.11  4.75 14.07 
1070 10.14  3.59 14.07 
1071  7.79  7.73 14.07 
1072  6.92  3.73 14.07 
1073  7.31  7.10 14.07 
1074  8.30  5.22 14.07 
1075  9.76  7.18 14.07 
1076  8.37  6.68 14.07 
1077  8.33  9.47 14.07 
1078  7.61  7.35 14.07 
1079  7.09 11.04 14.07 
1080  5.24 10.31 14.07 
1081 11.58  4.23 14.07 
1082  7.26  8.13 14.07 
1083  4.98 10.60 14.07 
1084  8.27  5.33 14.07 
1085  5.93  5.28 14.07 
1086  8.67  8.35 14.07 
1087  6.05  7.59 14.07 
1088  6.33 12.13 14.07 
1089  6.72  8.79 14.07 
1090  8.30  8.92 14.07 
1091  8.93 10.05 14.07 
1092  8.20 13.17 14.07 
1093  9.42 10.97 14.07 
1094 10.15 12.09 14.07 
1095  6.23  6.74 14.07 
1096  8.85  5.57 14.07 
1097  9.41  5.89 14.07 
1098  7.46  8.28 14.07 
1099  7.21  6.65 14.07 
1100  8.26  9.96 14.07 
1101  8.53 10.37 14.07 
1102 12.53  7.26 14.07 
1103  9.77  6.69 14.07 
1104 13.55  5.43 14.07 
1105  8.40  7.87 14.07 
1106  9.56  8.20 14.07 
1107 11.55  8.66 14.07 
1108  5.24  8.85 14.07 
1109  7.68  7.20 14.07 
1110  7.10 13.28 14.07 
1111  8.24 13.33 14.07 
1112  5.18 11.56 14.07 
1113  6.50 14.14 14.07 
1114  9.50 16.81 14.07 
1115  8.26 13.57 14.07 
1116  8.80 13.18 14.07 
1117 10.57  8.26 14.07 
1118  6.38  5.81 14.07 
1119  6.60 10.19 14.07 
1120  9.16  6.84 14.07 
1121 11.75  8.90 14.07 
1122  6.86  8.14 14.07 
1123  7.42  7.30 14.07 
1124  5.14 10.10 14.07 
1125  9.94 12.16 14.07 
1126 11.41 11.48 14.07 
1127  7.69 10.94 14.07 
1128  5.48 13.09 14.07 
1129  8.37  9.70 14.07 
1130  6.20 10.68 14.07 
1131  9.77 10.57 14.07 
1132 12.19 12.64 14.07 
1133  7.82 12.52 14.07 
1134 11.83 15.83 14.07 
1135  7.61 16.17 14.07 
1136 11.41 10.37 14.07 
1137  9.91 12.17 14.07 
1138  5.45  4.89 14.07 
1139  6.17  6.94 14.07 
1140  8.18 13.34 14.07 
1141  5.99 13.82 14.07 
1142  7.87  7.91 14.07 
1143  9.88  8.81 14.07 
1144  7.43  7.65 14.07 
1145 11.20  9.16 14.07 
1146 11.13 14.23 14.07 
1147  7.15 14.59 14.07 
1148  8.81 15.77 14.07 
1149  9.70 11.81 14.07 
1150 10.46 14.67 14.07 
1151 12.03 10.45 14.07 
1152 11.61  6.99 14.07 
1153  6.43  4.97 14.07 
1154 10.98  6.38 14.07 
1155  7.93  7.29 14.07 
1156  9.48  6.17 14.07 
1157  5.52  4.23 14.07 
1158  7.43 13.30 14.07 
1159 12.90 10.74 14.07 
1160  9.49 11.56 14.07 
1161 13.57 10.58 14.07 
1162  7.84 15.30 14.07 
1163  7.08 11.29 14.07 
1164  9.05 12.22 14.07 
1165  9.08 13.23 14.07 
1166 10.03  8.82 14.07 
1167 12.12  9.36 14.07 
1168  9.34 10.78 14.07 
1169  8.23 12.02 14.07 
1170 12.64 11.34 14.07 
1171  6.37 13.80 14.07 
1172  8.87 14.47 14.07 
1173  6.84 10.69 14.07 
1174  7.01  8.62 14.07 
1175  9.51  7.53 14.07 
1176  8.32  9.55 14.07 
1177 12.66  7.10 14.07 
1178  8.76  8.58 14.07 
1179  6.20 10.82 14.07 
1180  9.49  7.44 14.07 
1181  9.79  7.78 14.07 
1182 11.14 10.35 14.07 
1183  9.94  8.47 14.07 
1184  6.28  8.93 14.07 
1185  8.55  7.70 14.07 
1186  9.17  8.78 14.07 
1187 10.29  7.46 14.07 
1188 10.10  9.67 14.07 
1189  7.09  8.53 14.07 
1190 12.79 10.32 14.07 
1191  7.45  7.59 14.07 
1192  9.09  9.38 14.07 
1193 10.72 13.33 14.07 
1194  9.15 11.91 14.07 
1195  8.26 16.26 14.07 
1196  8.65 13.54 14.07 
1197  9.48 12.82 14.07 
1198  6.49 12.22 14.07 
1199  7.39  8.39 14.07 
1200  9.76  9.01 14.07 
1201  7.99  8.97 14.07 
1202 11.86  8.06 14.07 
1203  8.75  8.33 14.07 
1204  6.77  8.42 14.07 
1205 12.23  7.57 14.07 
1206  7.63  8.40 14.07 
1207 11.04  8.48 14.07 
1208  9.54 10.62 14.07 
1209  8.91  6.82 14.07 
1210  8.11  8.75 14.07 
1211 12.44  8.17 14.07 
1212  9.29  9.85 14.07 
1213  9.36  7.63 14.07 
1214 10.31  8.32 14.07 
1215 12.49  8.21 14.07 
1216 10.38 11.40 14.07 
1217 10.66  9.05 14.07 
1218  8.31  7.42 14.07 
1219  8.14 10.00 14.07 
1220  9.61  9.90 14.07 
1221  8.25 11.87 14.07 
1222 12.65  7.35 14.07 
1223  7.13  4.35 14.07 
1224 10.09  6.92 14.07 
1225 11.04  7.33 14.07 
1226 10.06 10.39 14.07 
1227  9.23  8.66 14.07 
1228 12.49  7.46 14.07 
1229  7.58  9.65 14.07 
1230 10.40  8.62 14.07 
1231 11.54 11.11 14.07 
1232  9.50  9.91 14.07 
1233  9.27  9.28 14.07 
1234  5.59  9.15 14.07 
1235  9.30  9.73 14.07 
1236  9.58  6.69 14.07 
1237  9.99 10.26 14.07 
1238  8.22  6.84 14.07 
1239  6.88 10.18 14.07 
1240  8.73  9.62 14.07 
1241 10.96  9.20 14.07 
1242  9.56 10.02 14.07 
1243 10.79  6.52 14.07 
1244  8.78  6.02 14.07 
1245  7.78  6.24 14.07 
1246  9.08 11.19 14.07 
1247 10.67 11.57 14.07 
1248  8.67 10.57 14.07 
1249  8.20 11.04 14.07 
1250 10.91 10.86 14.07 
1251 11.64 12.95 14.07 
1252 10.80 14.24 14.07 
1253  5.90 13.01 14.07 
1254  7.09 12.17 14.07 
1255  9.64 13.57 14.07 
1256  8.79 11.60 14.07 
1257 10.66 10.87 14.07 
1258 10.46 11.36 14.07 
1259 10.03 15.09 14.07 
1260  9.77 13.61 14.07 
1261  9.92 13.08 14.07 
1262 11.31 13.31 14.07 
1263 12.92 12.85 14.07 
1264  7.85 12.45 14.07 
1265 10.99 11.64 14.07 
1266 12.10 12.66 14.07 
1267 10.00 15.97 14.07 
1268 11.74 11.03 14.07 
1269 13.72  8.58 14.07 
1270 14.35  9.35 14.07 
1271  7.73 13.62 14.35 
1272 10.77  8.98 14.35 
1273  9.26  7.44 14.35 
1274 11.94 12.65 14.35 
1275  8.91 11.28 14.35 
1276  9.10 15.51 14.35 
1277 11.67 13.06 14.35 
1278 11.22 12.88 14.35 
1279  7.06 12.94 14.35 
1280  8.26 15.53 14.35 
1281 11.38 13.73 14.35 
1282 11.70  5.91 14.35 
1283 12.15 16.28 14.35 
1284  9.72  3.99 14.35 
1285  9.37  3.80 14.35 
1286 10.24  5.01 14.35 
1287  9.82  3.36 14.35 
1288  8.70  7.25 14.35 
1289  9.65  5.55 14.35 
1290  7.32  4.41 14.35 
1291  7.69  2.94 14.35 
1292 10.51  6.12 14.35 
1293  7.48 12.75 14.35 
1294 11.02 11.34 14.35 
1295  8.27 11.69 14.35 
1296 12.00 10.85 14.35 
1297  9.50  9.29 14.35 
1298  7.59 11.80 14.35 
1299  9.84 11.41 14.35 
1300  6.77 10.54 14.35 
1301 10.38  7.73 14.35 
1302 11.78 11.10 14.35 
1303  6.07  6.68 14.35 
1304  7.06  8.15 14.35 
1305 12.67 14.14 14.35 
1306 11.62 10.33 14.35 
1307 12.29 13.19 14.35 
1308  9.19 13.28 14.35 
1309  8.96 10.62 14.35 
1310  9.59 12.00 14.35 
1311 12.70 11.70 14.35 
1312 12.16 11.55 14.35 
1313 10.48 10.98 14.35 
1314  9.54 13.96 14.35 
