iteration,time_sampling,stoc_pol_mean,stoc_pol_std,stoc_pol_max,stoc_pol_min,rollout_success,alpha,delta,time_vpg,time_npg,kl_dist,surr_improvement,running_score,rwd_sparse,rwd_dense,success_percentage,num_samples,time_VF,VF_error_before,VF_error_after,env_samples,eval_score,eval_success
0,1.0764875411987305,-0.597278362984903,0.5563601539846722,0.23013163817184257,-1.2275961917121452,0.0,0.07492692509993575,0.1,0.04313254356384277,0.09070730209350586,0.05679695,19.695898,-0.597278362984903,0.0,-0.009249313272999642,0.0,48,0.0028221607208251953,1.0676840343836427,1.0676840343836427,48,-0.3151861961375008,0.0
1,0.9709322452545166,-0.42566357077362543,0.5480659978307908,0.2533404421297809,-1.2550147568458265,0.0,0.10896287777648077,0.1,0.0027179718017578125,0.0493626594543457,0.052664414,1.79763,-0.5801168837637752,0.0,-0.005633336034505453,0.0,95,0.0054607391357421875,1.06052252667549,1.06052252667549,143,0.22777197764920296,0.0
2,1.0189836025238037,-0.4306826113685797,0.6603826522806273,0.23127915008784017,-1.0911532098768386,0.0,0.09299508513889328,0.1,0.002309083938598633,0.045662879943847656,0.055890128,3.4132009,-0.5651734565242558,0.0,-0.006607513970741627,0.0,63,0.002530336380004883,1.0626179563195801,1.0626179563195801,206,0.22775699093020027,0.0
3,1.073047399520874,-0.5945711223099852,0.5142978471891977,0.22945064663008896,-1.0907792017983093,0.0,0.09171034243010232,0.1,0.002409219741821289,0.0821073055267334,0.056815866,1.6232859,-0.5681132231028286,0.0,-0.009683127999090402,0.0,43,0.0022966861724853516,1.0713189194014205,1.0713189194014205,249,0.22761817427961692,0.0
4,1.0331039428710938,0.11257874214072888,0.2483605959291654,0.2974134249846314,-0.31525017078221973,0.0,0.10801052605922894,0.1,0.002823352813720703,0.048105478286743164,0.0470631,1.4327503,-0.5000440265784729,0.0,0.0011442791183786049,0.0,94,0.0025055408477783203,1.0611350651182665,1.0611350651182665,343,0.22919159063162034,0.0
5,1.0083765983581543,-0.4327221656410576,0.5197560584120178,0.08955467750960144,-1.2274976409466687,0.0,0.0870301173557089,0.1,0.002267122268676758,0.07540464401245117,0.05068646,2.4282753,-0.4933118404847314,0.0,-0.00711206430875177,0.0,55,0.002392292022705078,1.066045274698069,1.066045274698069,398,0.2286814952840118,0.0
6,1.0197038650512695,0.01592994153065147,0.19574738038645595,0.1951833875718738,-0.31514264006652026,0.0,0.0976162899813312,0.1,0.0023462772369384766,0.04687047004699707,0.048857678,1.7766815,-0.44238766228319315,0.0,-0.0010987122863198718,0.0,66,0.002529621124267578,1.0703409379239206,1.0703409379239206,464,0.22908140536553523,0.0
7,1.0837886333465576,-0.22855094960002004,0.4720628941495827,0.23915642728590836,-0.8238436865756373,0.0,0.09475225219142734,0.1,0.002311229705810547,0.04685473442077637,0.049460173,2.320496,-0.42100399101487584,0.0,-0.004350087057556258,0.0,64,0.0024099349975585938,1.0651788635434514,1.0651788635434514,528,0.23005900541740765,0.0
8,1.0091288089752197,-0.2985693279865865,0.5583214918941515,0.22714351404726618,-1.090831864980741,0.0,0.09211282042786177,0.1,0.002325773239135742,0.07311153411865234,0.048897646,2.1386511,-0.40876052471204694,0.0,-0.004831769325209655,0.0,55,0.002429962158203125,1.0673979148407962,1.0673979148407962,583,0.23023168382138248,0.0
9,1.0447421073913574,-0.1963428359650921,0.43169834786788513,0.23728554026891557,-0.6913717650049542,0.0,0.0910295228579494,0.1,0.0023794174194335938,0.04686427116394043,0.04880207,7.548048,-0.38751875583735146,0.0,-0.003916465175264955,0.0,65,0.002493143081665039,1.0666665685536145,1.0666665685536145,648,0.23049909255213175,0.0
10,1.0794212818145752,0.0683464748695049,0.2905106775421997,0.24843521196870055,-0.43464832002239673,0.0,0.10410357097034578,0.1,0.002407073974609375,0.04811978340148926,0.050579067,2.3075957,-0.3419322327666658,0.0,0.0005354320111391948,0.0,86,0.0025784969329833984,1.059691941956617,1.059691941956617,734,0.19554907931913434,0.0
11,1.077589988708496,-0.27536521800617036,0.5733789395410853,0.24646250738976216,-1.1462884030163578,0.0,0.09972050502392846,0.1,0.0023331642150878906,0.04781842231750488,0.05035473,2.0398045,-0.33527553129061627,0.0,-0.004044949787322126,0.0,79,0.002343416213989258,1.0606548302289427,1.0606548302289427,813,0.23213029848105307,0.0
12,1.03208327293396,-0.09031109000671084,0.5778494672468499,0.2648853511030691,-1.0909031233765583,0.0,0.1046820986445115,0.1,0.002600431442260742,0.048269033432006836,0.05048055,1.3462118,-0.3107790871622257,0.0,-0.002090584014959001,0.0,78,0.0027129650115966797,1.0614182391314915,1.0614182391314915,891,0.232088519962211,0.0
13,1.0329484939575195,-0.07516551507582614,0.24345507792059787,0.2276877931694803,-0.31459198831351176,0.0,0.10182941906279853,0.1,0.006484508514404297,0.04891037940979004,0.049057063,1.8186302,-0.28721772995358574,0.0,-0.0017588806619585362,0.0,75,0.003177165985107422,1.063526790385444,1.063526790385444,966,0.23278421756828038,0.0
14,1.0291447639465332,-0.13791445503585248,0.3533317055138194,0.23256814287622607,-0.6919117240514085,0.0,0.09551872674935041,0.1,0.002332448959350586,0.08522295951843262,0.04862068,2.1912127,-0.27228740246181243,0.0,-0.0035946314072764878,0.0,57,0.0024542808532714844,1.0758650268176995,1.0758650268176995,1023,0.23426988024557907,0.0
15,1.1061482429504395,0.18595730516851994,0.0914596872355219,0.25100654930336996,0.028182402984118005,0.0,0.10933672666467885,0.1,0.002432584762573242,0.048295021057128906,0.049735293,1.7327342,-0.2264629316987792,0.0,0.0025220082596797496,0.0,102,0.003056764602661133,1.058097761725267,1.058097761725267,1125,0.2337282564817893,0.0
16,1.0626318454742432,-0.13131333489699368,0.4915996263395203,0.25029487568737463,-0.9573753277388933,0.0,0.09448435722822902,0.1,0.002491474151611328,0.046775102615356445,0.04937589,1.866152,-0.21694797201860064,0.0,-0.0026016988079561707,0.0,70,0.0026700496673583984,1.064380190853114,1.064380190853114,1195,0.23225718207936596,0.0
17,1.0407252311706543,-0.658162101644183,0.7624993423321146,0.2273664325096696,-1.5801610580008196,0.0,0.09258028704886247,0.1,0.002199888229370117,0.04566764831542969,0.048594583,2.1488993,-0.26106938498115884,0.0,-0.010105942942183165,0.0,60,0.0025801658630371094,1.0604569495693414,1.0604569495693414,1255,0.23177390494876438,0.0
18,1.0735061168670654,-0.13182473245012327,0.43141620162791744,0.23153709345758267,-0.8243342693579834,0.0,0.1074153616054779,0.1,0.0023109912872314453,0.046682119369506836,0.050642155,1.6415263,-0.24814491972805527,0.0,-0.002160300588731028,0.0,81,0.004377603530883789,1.0598398801849618,1.0598398801849618,1336,0.23124548752411433,0.0
19,1.0515153408050537,-0.46764443394329347,0.5842743419251875,0.23092248093287804,-1.2275940075148017,0.0,0.08979349557477954,0.1,0.002221822738647461,0.07415485382080078,0.049019873,2.2054627,-0.2700948711495791,0.0,-0.007548593876471541,0.0,56,0.004572868347167969,1.0651598312620567,1.0651598312620567,1392,0.23072248056224254,0.0
20,1.1079792976379395,0.046123212225697374,0.27917126639502526,0.24319888611822416,-0.4332360278797678,0.0,0.10025169187275015,0.1,0.003256559371948242,0.046546220779418945,0.0502251,4.434549,-0.23847306281205144,0.0,0.00024056018400350505,0.0,77,0.0024871826171875,1.0627430561930884,1.0627430561930884,1469,0.23028822761507342,0.0
21,1.0962181091308594,-0.35645861978468063,0.6318677160119712,0.25083798611775343,-1.2275121929431165,0.0,0.09089720133165648,0.1,0.002241373062133789,0.045745849609375,0.04782718,2.630624,-0.2502716185093144,0.0,-0.0056228380092497275,0.0,65,0.0024487972259521484,1.0622563927490158,1.0622563927490158,1534,0.23053130240414368,0.0
22,1.1262829303741455,-0.05695301640711281,0.5200048959971686,0.2517162814967755,-0.9575029022082815,0.0,0.10569608913069194,0.1,0.0025420188903808594,0.04671311378479004,0.049076386,1.7410154,-0.23093975829909424,0.0,-0.001632080401003546,0.0,79,0.0026214122772216797,1.0613053728224644,1.0613053728224644,1613,0.2310228054010568,0.0
23,1.1283013820648193,0.09541432374306319,0.3093266926962642,0.3488557992924022,-0.4340574329979203,0.0,0.1140627590940318,0.1,0.002402067184448242,0.04889678955078125,0.05088982,1.5424836,-0.1983043500948785,0.0,0.0008833378843468914,0.0,93,0.0027709007263183594,1.0573439168729397,1.0573439168729397,1706,0.23043950393850018,0.0
24,1.072977066040039,-0.19860443655146243,0.5439042359930782,0.24242894203681709,-1.090823054346031,0.0,0.0989529813673715,0.1,0.0023658275604248047,0.04785966873168945,0.048101828,2.0027468,-0.19833435874053693,0.0,-0.00348016820147538,0.0,75,0.002492666244506836,1.0597560931834968,1.0597560931834968,1781,0.23119725311066994,0.0
25,1.096611499786377,-0.260199946890122,0.6435675582107978,0.25169733535010597,-1.332480198927523,0.0,0.10233381653916428,0.1,0.0023300647735595703,0.04714632034301758,0.049326446,1.4495436,-0.20452091755549542,0.0,-0.0038504456355947705,0.0,72,0.0024237632751464844,1.0605854852621757,1.0605854852621757,1853,0.23434107992771555,0.0
26,1.1442923545837402,0.15496116027321732,0.19814611736134566,0.27745960785291834,-0.1881059897756412,0.0,0.11131560621192702,0.1,0.0026092529296875,0.04907941818237305,0.05160563,3.288309,-0.16857270977262415,0.0,0.0016831970785822403,0.0,95,0.0024232864379882812,1.0593225701674949,1.0593225701674949,1948,0.23293026575326095,0.0
27,1.1385443210601807,0.010618074557138257,0.40537481589345736,0.2572549279719394,-0.6913252940158983,0.0,0.10783937812027042,0.1,0.002377748489379883,0.04773378372192383,0.049292456,1.4648596,-0.1506536313396479,0.0,-0.00026027467309624715,0.0,80,0.0029032230377197266,1.0606867860571154,1.0606867860571154,2028,0.23568492667286334,0.0
28,1.1450886726379395,0.10440700343887155,0.15174001284868172,0.2343004348861626,-0.13840870949596207,0.0,0.1096226485800197,0.1,0.0024046897888183594,0.04923105239868164,0.04933623,1.9945229,-0.12514756786179596,0.0,0.0009491881721543711,0.0,97,0.002434253692626953,1.05994953451417,1.05994953451417,2125,0.2340861860984842,0.0
29,1.0435009002685547,0.2374055123935706,0.0067251157513641,0.24549168295648616,0.22730499125068748,0.0,0.10970524449963479,0.1,0.0027971267700195312,0.04998469352722168,0.04878861,1.3286664,-0.0888922598362593,0.0,0.002723529255740563,0.0,89,0.0026907920837402344,1.0624817745872774,1.0624817745872774,2214,0.23674031864133838,0.0
30,1.0570600032806396,-0.39156302637603074,0.6810812646924085,0.2575951477086862,-1.3678998471963002,0.0,0.09975072442029043,0.1,0.002535581588745117,0.04791998863220215,0.051112555,1.7917078,-0.11915933649023644,0.0,-0.006101197234319717,0.0,68,0.002839803695678711,1.0615151613337221,1.0615151613337221,2282,0.23759454802474522,0.0
31,1.0780935287475586,-0.049131189458509805,0.5224136418034561,0.26943513846594813,-0.9536474860030784,0.0,0.11387493627017402,0.1,0.002664804458618164,0.05032038688659668,0.050867047,1.6434064,-0.11215652178706377,0.0,-0.0006414047197048664,0.0,100,0.0027570724487304688,1.0602140138562743,1.0602140138562743,2382,0.2372901683232147,0.0
32,1.0785973072052002,-0.06058674662030428,0.3404658803845759,0.26127787297550187,-0.5585238528277459,0.0,0.10828748139828068,0.1,0.0025501251220703125,0.04902291297912598,0.050362106,2.0049305,-0.10699954427038783,0.0,-0.0012072608562462212,0.0,92,0.002831697463989258,1.058058059599185,1.058058059599185,2474,0.2413313548100485,0.0
33,1.074617862701416,0.13709005197627477,0.18869611944004766,0.2540095627979595,-0.18962629146152787,0.0,0.10868935927924878,0.1,0.0024805068969726562,0.05228400230407715,0.048728988,1.7060643,-0.08259058464572157,0.0,0.001450275211780097,0.0,95,0.0028085708618164062,1.059121686933587,1.059121686933587,2569,0.24298450519737816,0.0
34,1.0829393863677979,-0.4197598796023604,0.678197650394615,0.2633764630858473,-1.2258500417860483,0.0,0.10351527773973095,0.1,0.002432584762573242,0.0482785701751709,0.048536334,2.583975,-0.11630751414138546,0.0,-0.006007506039218015,0.0,84,0.0029222965240478516,1.057269041031073,1.057269041031073,2653,0.24205118635821865,0.0
35,1.0822668075561523,0.05071869102942744,0.3527587430437674,0.2805932368553088,-0.559632017882165,0.0,0.10222804371098508,0.1,0.0025343894958496094,0.047330617904663086,0.049060594,1.966245,-0.09960489362430418,0.0,0.0002791150203375098,0.0,84,0.0028645992279052734,1.0593427106291569,1.0593427106291569,2737,0.25017151651404107,0.0
36,1.1037650108337402,0.25247195312428067,0.02202539644934749,0.2873673825705425,0.22685232827678825,0.0,0.11399587686586805,0.1,0.002382993698120117,0.04826760292053223,0.049724177,1.5215044,-0.06439720894944569,0.0,0.00292772863678286,0.0,97,0.00279998779296875,1.0576506652715763,1.0576506652715763,2834,0.24925830048238393,0.0
37,1.1284606456756592,-0.11912433980769027,0.5135525625598271,0.24777883833427805,-0.9958602394903715,0.0,0.11528078204117322,0.1,0.0024008750915527344,0.048351287841796875,0.049029924,1.4532824,-0.06986992203527015,0.0,-0.0016298864220903313,0.0,98,0.0031023025512695312,1.0576555959329135,1.0576555959329135,2932,0.2541692223210507,0.0
38,1.1289441585540771,0.3658482935943465,0.21629321024456455,0.7403611010164619,0.23297190334431161,0.0,0.12156457796615122,0.1,0.0023734569549560547,0.05054926872253418,0.049222488,1.2379974,-0.026298100472308482,0.0,0.004714338249194024,0.0,107,0.003119945526123047,1.057793545761267,1.057793545761267,3039,0.25091965074559325,0.0
39,1.1196753978729248,0.04483436051203249,0.318276803307416,0.2635658427791847,-0.5043749863200411,0.0,0.1060009261251896,0.1,0.002590656280517578,0.047997236251831055,0.049203318,1.975078,-0.019184854373874384,0.0,0.0006402940056601351,0.0,98,0.002628326416015625,1.0616121687539612,1.0616121687539612,3137,0.2691756736649486,0.0
40,1.1159062385559082,0.202418559324766,0.06979337956887809,0.25722276109541187,0.08257006652018628,0.0,0.11405978719516868,0.1,0.0023865699768066406,0.04946732521057129,0.05000758,1.3258226,0.0029754869959896513,0.0,0.002730142558452886,0.0,104,0.0027894973754882812,1.0585887785910575,1.0585887785910575,3241,0.28163156987731286,0.0
41,1.1054401397705078,-0.19881852174336334,0.5027007280437461,0.3510283035787831,-0.823520133557955,0.0,0.10030504961235154,0.1,0.002819061279296875,0.04811692237854004,0.049511727,2.6657834,-0.017203913877945648,0.0,-0.003491258710183706,0.0,73,0.0017273426055908203,1.0621549001215462,1.0621549001215462,3314,0.2942883197460821,0.0
42,1.2046332359313965,0.1675850814029345,0.28496501433061383,0.37743789625423263,-0.3151840010954914,0.0,0.11330515493562658,0.1,0.002493619918823242,0.050994157791137695,0.049742095,1.2752162,0.0012749856501423646,0.0,0.001845978965456342,0.0,94,0.0025572776794433594,1.059840103188064,1.059840103188064,3408,0.2781571496501498,0.0
43,1.143036127090454,0.2576399262987268,0.0257784845360164,0.29556073965749996,0.2305491847676886,0.0,0.11942214750482505,0.1,0.0023565292358398438,0.04835319519042969,0.049059447,1.3764452,0.02691147971500081,0.0,0.003465241708025665,0.0,108,0.0030603408813476562,1.0598417612833975,1.0598417612833975,3516,0.2745828342451045,0.0
44,1.15596342086792,0.2548400106909571,0.013318585583509639,0.2731398711194788,0.23622779190899812,0.0,0.11685203594839283,0.1,0.0026144981384277344,0.05190467834472656,0.049109664,1.4277917,0.04970433281259644,0.0,0.0034345276905607164,0.0,108,0.00312042236328125,1.0624141074786113,1.0624141074786113,3624,0.25502462113386803,0.0
45,1.1115455627441406,0.24487783109182537,0.016988937896432285,0.2706432950488211,0.2283973519775575,0.0,0.10709226753872746,0.1,0.002889394760131836,0.04947304725646973,0.05028829,1.5388358,0.06922168264051934,0.0,0.0028449953392553897,0.0,98,0.0027534961700439453,1.0590356390473146,1.0590356390473146,3722,0.25145053204214723,0.0
46,1.1351985931396484,0.05960853766952495,0.18581414001670177,0.2461342174737826,-0.1885894470172358,0.0,0.10205973363922961,0.1,0.0024521350860595703,0.047646284103393555,0.049289845,1.9047544,0.0682603681434199,0.0,-3.0315429264302432e-05,0.0,80,0.0027709007263183594,1.06003739509945,1.06003739509945,3802,0.242658367347058,0.0
47,1.082402229309082,0.16191649752657727,0.12472892986914277,0.24161505281792217,-0.053916870069547373,0.0,0.10424271310131226,0.1,0.0024840831756591797,0.04775094985961914,0.04965196,1.4082321,0.07762598108173564,0.0,0.0017546494299538456,0.0,87,0.0027892589569091797,1.065253048694599,1.065253048694599,3889,0.24302986355433687,0.0
48,1.09348464012146,-0.23716492659663008,0.6625826995914212,0.24383958138003692,-1.3678560608566264,0.0,0.10270307204794239,0.1,0.002646207809448242,0.05149960517883301,0.050453275,1.263717,0.04614689031389907,0.0,-0.004050048438054016,0.0,74,0.002743959426879883,1.059080128950637,1.059080128950637,3963,0.24586755114439107,0.0
49,1.0402634143829346,0.25819814469483515,0.04068600488575389,0.3281576681825267,0.2308376252713078,0.0,0.11768707104383351,0.1,0.002477884292602539,0.0488734245300293,0.048974257,1.5549088,0.06735201575199268,0.0,0.003474643230294617,0.0,102,0.003281116485595703,1.0597220493382395,1.0597220493382395,4065,0.24848866481520307,0.0
50,1.0469284057617188,0.2416152302975964,0.0019365041063282358,0.24309089545237828,0.23828514205097928,0.0,0.11180188617726465,0.1,0.002576112747192383,0.04793596267700195,0.049901355,1.6019027,0.08477833720655306,0.0,0.0032635264238580013,0.0,95,0.002648591995239258,1.0574786404282577,1.0574786404282577,4160,0.25642051499909035,0.0
51,1.051121711730957,-0.19304616057188695,0.8231594648639419,0.30649473885185685,-1.6185515982327996,0.0,0.12000772779720278,0.1,0.002444744110107422,0.048500776290893555,0.050214376,1.5357301,0.05699588742870906,0.0,-0.002542561980845605,0.0,100,0.002582073211669922,1.0579966653082278,1.0579966653082278,4260,0.2555654876326843,0.0
52,1.0695030689239502,0.29164121320726377,0.06068348737138758,0.38850611143055236,0.23994097138816595,0.0,0.11789979075769293,0.1,0.0025615692138671875,0.04832911491394043,0.050357003,1.4439577,0.08046042000656453,0.0,0.0038916643855413653,0.0,108,0.0031113624572753906,1.060543018255419,1.060543018255419,4368,0.2510647348539779,0.0
53,1.069326639175415,0.15898749692579073,0.20761820780748405,0.3624399763942503,-0.1883891280871286,0.0,0.11727053813188587,0.1,0.0026013851165771484,0.04773068428039551,0.050215025,1.1879148,0.08831312769848715,0.0,0.0017413139630524774,0.0,95,0.002717733383178711,1.0619122875163243,1.0619122875163243,4463,0.25251919024016667,0.0
54,1.0579555034637451,-0.06192430378836872,0.5169044835572454,0.24666011074977123,-0.9571607477539985,0.0,0.10785327237804591,0.1,0.002556324005126953,0.04673337936401367,0.05054803,1.7012225,0.07328938454980156,0.0,-0.0012315441424990995,0.0,81,0.003115415573120117,1.0560575089557005,1.0560575089557005,4544,0.24330511033057345,0.0
55,1.0561108589172363,0.24298212195374325,0.00618606244156287,0.2523794843989944,0.23645223940926896,0.0,0.1090110021685522,0.1,0.00247955322265625,0.04892683029174805,0.04960051,1.409045,0.09025865829019573,0.0,0.0032780983006393642,0.0,95,0.002792835235595703,1.0606283852929512,1.0606283852929512,4639,0.2419429632438447,0.0
56,1.0590732097625732,0.07862238081026496,0.297361800640536,0.2801398302473175,-0.4354102523251244,0.0,0.10817304436190626,0.1,0.002371549606323242,0.04795026779174805,0.050510325,1.7606779,0.08909503054220266,0.0,0.0006689471251000835,0.0,86,0.002688169479370117,1.0625825398997761,1.0625825398997761,4725,0.23717109887465174,0.0
57,1.0805068016052246,0.27463489743584396,0.026432400218749263,0.29885884480751357,0.23001494916614007,0.0,0.11113315814443342,0.1,0.002471923828125,0.05245709419250488,0.04945281,1.6095625,0.1076490172315668,0.0,0.00368211693302994,0.0,100,0.0028808116912841797,1.0591614759630346,1.0591614759630346,4825,0.24061410368842173,0.0
58,1.083374261856079,-0.058169928896870504,0.28842895977889876,0.23210973123972733,-0.3770659920991901,0.0,0.10230098986408626,0.1,0.0024716854095458984,0.047893524169921875,0.0498845,1.9297134,0.09106712261872306,0.0,-0.0011302132209148007,0.0,86,0.0025713443756103516,1.0599068472416888,1.0599068472416888,4911,0.23870934580601322,0.0
59,1.175560474395752,-0.4585741711330227,0.5929296893615544,0.2466316268077966,-1.2274820565263065,0.0,0.10266603411109326,0.1,0.0023293495178222656,0.04710578918457031,0.050038338,1.8226118,0.03610299324354849,0.0,-0.006997248723950043,0.0,68,0.002532482147216797,1.0596445082450399,1.0596445082450399,4979,0.23664318565074405,0.0
60,1.1615140438079834,0.13300552997488563,0.17519128014250895,0.2420131189064958,-0.17031668573421244,0.0,0.11804315750324079,0.1,0.0024313926696777344,0.049546003341674805,0.050344564,1.5412108,0.045793246916682205,0.0,0.0018142218633803802,0.0,108,0.005678415298461914,1.0589351546323627,1.0589351546323627,5087,0.23606607977219504,0.0
61,1.1692566871643066,0.1749056716548159,0.1286397051117886,0.2572030931532716,-0.04731757149104765,0.0,0.10644514223743767,0.1,0.002588033676147461,0.04898977279663086,0.04943968,2.045162,0.05870448939049558,0.0,0.0019066998392865988,0.0,96,0.0025641918182373047,1.0588688758676483,1.0588688758676483,5183,0.236061133754265,0.0
62,1.1618101596832275,0.10405787329604765,0.41044373180078253,0.4956348424133501,-0.5854343519904792,0.0,0.11230006156858807,0.1,0.002463817596435547,0.049149513244628906,0.0492131,1.3235674,0.06323982778105079,0.0,0.001408954556440649,0.0,99,0.002782583236694336,1.0583147856238628,1.0583147856238628,5282,0.237391815317589,0.0
63,1.062636137008667,0.07883537324637369,0.19578872680317932,0.3003098505606636,-0.1890348616182953,0.0,0.10678767087014686,0.1,0.0026221275329589844,0.04994916915893555,0.04979976,1.1672201,0.06479938232758309,0.0,0.0006735487712649504,0.0,86,0.0027742385864257812,1.063546909410596,1.063546909410596,5368,0.23612147257746777,0.0
64,1.109250783920288,0.24842135394458326,0.0262374875356756,0.2936601587928369,0.22931009716393636,0.0,0.11542220672997029,0.1,0.002796649932861328,0.050913095474243164,0.0496344,1.3259017,0.0831615794892831,0.0,0.0033279864357020727,0.0,102,0.003251791000366211,1.0573345771999854,1.0573345771999854,5470,0.23466768825831386,0.0
65,1.0957512855529785,0.25520469823496245,0.021250372607265845,0.29025080459124775,0.23780697399758566,0.0,0.11420890173360702,0.1,0.0029115676879882812,0.05122208595275879,0.050783966,1.6034728,0.10036589136385105,0.0,0.003442015666515446,0.0,108,0.005053520202636719,1.0583620859018543,1.0583620859018543,5578,0.2351204701429682,0.0
66,1.1255249977111816,0.24738535696562858,0.00944689009834466,0.2585448134968118,0.23752852304672212,0.0,0.11560827567914528,0.1,0.0027267932891845703,0.04916644096374512,0.049570665,1.3835245,0.1150678379240288,0.0,0.003337515498937912,0.0,108,0.007133960723876953,1.0578281435391983,1.0578281435391983,5686,0.2362399851099486,0.0
67,1.1156055927276611,0.2795127196553475,0.06998932696057776,0.3999067554982787,0.2325793024526981,0.0,0.12692565885857354,0.1,0.0026743412017822266,0.04920530319213867,0.050073642,1.0984728,0.13151232609716068,0.0,0.0037455101673697336,0.0,108,0.004891157150268555,1.058596296849231,1.058596296849231,5794,0.23566707313711355,0.0
68,1.1230223178863525,-0.09103365716694789,0.658440455331477,0.37719953338532375,-1.2275149227117665,0.0,0.10497191688176984,0.1,0.0026361942291259766,0.046799421310424805,0.050121013,1.6643726,0.10925772777074982,0.0,-0.0016461054119453723,0.0,78,0.002763032913208008,1.05834536704345,1.05834536704345,5872,0.23616138033879888,0.0
69,1.1352736949920654,0.24072239653308403,0.0011421600851727167,0.24154643923744712,0.23875208928400782,0.0,0.11046848346215993,0.1,0.0023746490478515625,0.047618865966796875,0.049952608,1.4271493,0.12240419464698325,0.0,0.0032524709244754397,0.0,91,0.0026454925537109375,1.0615813503726805,1.0615813503726805,5963,0.2363347786664408,0.0
70,1.1711843013763428,0.18644031820479606,0.14023982761266865,0.2977252475539167,-0.05286238709835733,0.0,0.10761763729182579,0.1,0.0023522377014160156,0.04789233207702637,0.04896015,1.5071509,0.12880780700276453,0.0,0.0020821858873499373,0.0,89,0.0025458335876464844,1.0591037689786982,1.0591037689786982,6052,0.238090188698343,0.0
71,1.193448781967163,0.2530079149712857,0.018400490983539082,0.2778087003170322,0.22588436484772778,0.0,0.12388248658520294,0.1,0.0024116039276123047,0.04927659034729004,0.050658353,1.1979743,0.14122781779961666,0.0,0.0034037745256332444,0.0,108,0.005687713623046875,1.0561987950221754,1.0561987950221754,6160,0.23884937093005343,0.0
72,1.1373298168182373,-0.3770825560182646,0.7483421518342027,0.33762652975073015,-1.524548791902447,0.0,0.10393985225355218,0.1,0.002917051315307617,0.047597408294677734,0.050175164,1.7010639,0.08939678041782853,0.0,-0.005478283372312964,0.0,74,0.0026450157165527344,1.0609996058927955,1.0609996058927955,6234,0.2365672317202722,0.0
73,1.1433773040771484,0.30210580843036783,0.15514509694451267,0.5631903973878025,0.15692782899142088,0.0,0.11324566875393456,0.1,0.002397775650024414,0.04864978790283203,0.050049752,1.2347096,0.11066768321908246,0.0,0.003985025413606657,0.0,102,0.0028727054595947266,1.0596907153877309,1.0596907153877309,6336,0.23584396814974365,0.0
74,1.1452341079711914,0.12648441020821377,0.27741687657204633,0.43916636541481346,-0.3091783256422922,0.0,0.11039380642358368,0.1,0.002732515335083008,0.04797029495239258,0.04932805,1.7494572,0.1122493559179956,0.0,0.0011684679144823363,0.0,97,0.002835988998413086,1.0602267989592868,1.0602267989592868,6433,0.23685196747558335,0.0
75,1.1261587142944336,-0.16658979683205105,0.693567086962273,0.24015741401736546,-1.3678605100175973,0.0,0.11148443051208407,0.1,0.0023162364959716797,0.046485185623168945,0.049477696,1.6321758,0.08436544064299094,0.0,-0.0027314170294294227,0.0,77,0.0025031566619873047,1.0622970355779024,1.0622970355779024,6510,0.2378612297479834,0.0
76,1.1661295890808105,0.23978015893883647,0.013417232008750129,0.25099744894108933,0.21737919250582727,0.0,0.1181072767776558,0.1,0.002469778060913086,0.04937338829040527,0.049603295,1.3407712,0.0999069124725755,0.0,0.0032367201001959837,0.0,100,0.0027616024017333984,1.0585301473643463,1.0585301473643463,6610,0.2392284613226082,0.0
77,1.1562724113464355,0.02546411756239597,0.3752577633508573,0.26148033454000874,-0.6241544550556055,0.0,0.11197649095865726,0.1,0.0024650096893310547,0.0490109920501709,0.04957125,1.4720631,0.09246263298155755,0.0,-7.843381032383596e-05,0.0,98,0.0026273727416992188,1.0611424650653787,1.0611424650653787,6708,0.2375609030664688,0.0
78,1.1646413803100586,0.2600386636370233,0.10228569918318692,0.36070611282759035,0.09024398197095818,0.0,0.11672760970267824,0.1,0.0024764537811279297,0.04943037033081055,0.049863514,1.2653852,0.10922023604710412,0.0,0.0034137217866017392,0.0,108,0.004986763000488281,1.0585555912076456,1.0585555912076456,6816,0.24110994083331416,0.0
79,1.1143131256103516,0.1645200460078451,0.15337104257558404,0.2972298512272453,-0.09617634505511052,0.0,0.11752968875781522,0.1,0.004886150360107422,0.051190853118896484,0.049804106,1.6272422,0.11475021704317823,0.0,0.0022331607333167473,0.0,108,0.004156589508056641,1.057699601422155,1.057699601422155,6924,0.24156550729764437,0.0
80,1.1165742874145508,0.2520360814402135,0.017275326317329896,0.2814770263413089,0.2372879010352933,0.0,0.11983200125107604,0.1,0.0028734207153320312,0.0506134033203125,0.05084536,1.2549019,0.12847880348288176,0.0,0.003401266038931804,0.0,104,0.004528522491455078,1.057603624209245,1.057603624209245,7028,0.24147410046150788,0.0
81,1.1196603775024414,0.028715133132787396,0.23235041159916664,0.24500268307029405,-0.31271310285664655,0.0,0.10836355010034557,0.1,0.002764463424682617,0.04998278617858887,0.049952034,1.476266,0.11850243644787234,0.0,2.3841093446959078e-05,0.0,93,0.0026578903198242188,1.0631523367514806,1.0631523367514806,7121,0.24007667666002286,0.0
82,1.1280760765075684,0.2604641559816346,0.024527200497146708,0.29949256128841095,0.23607725721922534,0.0,0.11489614954640374,0.1,0.002576589584350586,0.04969334602355957,0.050208293,1.5431236,0.13269860840124856,0.0,0.0034955200757814334,0.0,92,0.002704620361328125,1.0595734245918278,1.0595734245918278,7213,0.2425139147938483,0.0
83,1.1267507076263428,0.17940459300236083,0.13931721296905342,0.2763027773195694,-0.060868631885266034,0.0,0.11504880155066548,0.1,0.0025720596313476562,0.05037641525268555,0.049907275,1.2569262,0.13736920686135978,0.0,0.0024191162923532165,0.0,107,0.0031957626342773438,1.0565105232164884,1.0565105232164884,7320,0.24396275789151378,0.0
84,1.1317086219787598,0.3179695071860394,0.05557667164773838,0.3845691587422151,0.2332007294026981,0.0,0.1186975554894108,0.1,0.0028486251831054688,0.050087690353393555,0.050025817,1.542606,0.15542923689382773,0.0,0.004278655878285411,0.0,105,0.00603175163269043,1.0575668365629411,1.0575668365629411,7425,0.24653105253100227,0.0
85,1.1311509609222412,0.24093557100084417,0.012833598980755947,0.2625296229244165,0.2297005232356526,0.0,0.11298906654599021,0.1,0.0027081966400146484,0.0498042106628418,0.049997915,1.2983282,0.1639798703045294,0.0,0.0032552689562676583,0.0,97,0.00266265869140625,1.0588698295312025,1.0588698295312025,7522,0.2425145131869709,0.0
86,1.188981533050537,0.008204446425660705,0.4296982422082702,0.27540162719287054,-0.7355037857875648,0.0,0.11050858473477237,0.1,0.0029754638671875,0.04947519302368164,0.049819104,1.834419,0.1484023279166425,0.0,0.00014191965453874222,0.0,107,0.005934476852416992,1.0552306164195413,1.0552306164195413,7629,0.24468060187703866,0.0
87,1.1417772769927979,0.22283077806341228,0.08251182646460005,0.32124064554617804,0.09236639332700758,0.0,0.10470303861718676,0.1,0.002477407455444336,0.047316551208496094,0.050457835,1.6664647,0.1558451729313195,0.0,0.00252548228921655,0.0,88,0.0026895999908447266,1.061182301140557,1.061182301140557,7717,0.2441071779876943,0.0
88,1.1471612453460693,0.2532896228408446,0.021265596144174195,0.2899627269207763,0.23848627850561233,0.0,0.10771572112383238,0.1,0.002501964569091797,0.04943656921386719,0.049979676,1.8567352,0.165589617922272,0.0,0.003409856670825214,0.0,100,0.0025866031646728516,1.0608780217424882,1.0608780217424882,7817,0.24068100775131196,0.0
89,1.1500658988952637,-0.400071888240998,0.7914743604786637,0.25729965687728495,-1.6957680883113417,0.0,0.10942419367130203,0.1,0.002444744110107422,0.04842543601989746,0.049930315,1.7205385,0.10902346730594502,0.0,-0.005299214543720851,0.0,99,0.0028095245361328125,1.0603442672819061,1.0603442672819061,7916,0.24346994940326683,0.0
90,1.1713552474975586,0.18904794447516177,0.09975342893844226,0.3250573262010128,0.09296205688479975,0.0,0.1036179227847561,0.1,0.0023860931396484375,0.046901702880859375,0.049967777,1.5267925,0.1170259150228667,0.0,0.0015964302015793394,0.0,86,0.002562284469604492,1.0621862046227781,1.0621862046227781,8002,0.24140303795417806,0.0
91,1.1578278541564941,0.014673990373086754,0.4675105577882332,0.6671138949160604,-0.5306885082982482,0.0,0.10933748081541282,0.1,0.002384185791015625,0.04762578010559082,0.0499062,1.4745274,0.10679072255788871,0.0,-0.00016335555404057992,0.0,94,0.0026307106018066406,1.0592113366217124,1.0592113366217124,8096,0.2430713396862072,0.0
92,1.227477788925171,0.328031744441979,0.0587152686545207,0.37169686941785596,0.22716618880184924,0.0,0.11566316420945405,0.1,0.0023610591888427734,0.04829907417297363,0.049369626,1.1940908,0.12891482474629773,0.0,0.004322752535967676,0.0,100,0.002629518508911133,1.0605485474897285,1.0605485474897285,8196,0.24334167535709308,0.0
93,1.1313903331756592,0.2622701519343191,0.20006058806643234,0.5194918513763345,-0.03939403101537131,0.0,0.10628483209982366,0.1,0.002844095230102539,0.048668861389160156,0.049335748,1.6115502,0.14225035746509987,0.0,0.003006912244854572,0.0,87,0.0027899742126464844,1.0618828124647142,1.0618828124647142,8283,0.2434832082944518,0.0
94,1.161015272140503,0.23434601085257772,0.009150386862923432,0.2468387479540166,0.22430740451736808,0.0,0.10789186113342424,0.1,0.002819061279296875,0.04870414733886719,0.049511924,1.4923942,0.15145992280384765,0.0,0.003122005941989007,0.0,93,0.002920866012573242,1.0608207132663408,1.0608207132663408,8376,0.2420917503243246,0.0
95,1.136791706085205,-0.20408846809572373,0.7913882127044132,0.26771302154169985,-1.5746724409123063,0.0,0.11599653043948155,0.1,0.0026781558990478516,0.05117034912109375,0.04960997,2.1905797,0.11590508371389051,0.0,-0.0026825617466000387,0.0,107,0.003041982650756836,1.0579144058557453,1.0579144058557453,8483,0.24563735293977906,0.0
