iteration,time_sampling,stoc_pol_mean,stoc_pol_std,stoc_pol_max,stoc_pol_min,rollout_success,alpha,delta,time_vpg,time_npg,kl_dist,surr_improvement,running_score,rwd_sparse,rwd_dense,success_percentage,num_samples,time_VF,VF_error_before,VF_error_after,env_samples,eval_score,eval_success
0,1.3298804759979248,0.01342721744631045,0.005399230034097096,0.021954356311891236,0.006998395532242404,0.0,0.13472056862886175,0.1,0.04355931282043457,0.0583651065826416,0.053262964,2.0057273,0.01342721744631045,0.0,0.0002672413135094456,0.0,200,0.03875732421875,19.30284497563536,6.788666108905867,200,0.014155625927049284,0.0
1,1.2141764163970947,0.019137112997213362,0.004823387129775896,0.02608601499085069,0.012940555106939054,0.0,0.14359759814659293,0.1,0.007637977600097656,0.054285287857055664,0.055903684,1.3242794,0.013998207001400743,0.0,0.0003733228000044571,0.0,200,0.01771092414855957,2.9098127980592703,0.3959252296404286,400,0.012893146162940594,0.0
2,1.2013654708862305,0.010668993924951454,0.006609107656626019,0.02081504797119968,0.002587215890596154,0.0,0.15399763863364374,0.1,0.002661466598510742,0.05225515365600586,0.049101148,0.9122217,0.013665285693755814,0.0,0.00021317117100599187,0.0,200,0.030075788497924805,0.9437276840160964,2.790682332009307,600,0.00840959610167248,0.0
3,1.234088659286499,0.0225772228132168,0.01842781977109934,0.05260461773027071,0.002366067502676251,0.0,0.1471355264207542,0.1,0.0026662349700927734,0.05114936828613281,0.052669886,1.1533337,0.014556479405701912,0.0,0.00045063979549371026,0.0,200,0.09537434577941895,1.4723713065035802,0.5568151171825185,800,0.013693620105852696,0.0
4,1.2102246284484863,0.02856869052386049,0.014577347944633386,0.05314289446566634,0.014920033485449648,0.0,0.15446448638538923,0.1,0.0024988651275634766,0.05191540718078613,0.049828336,1.0753208,0.01595770051751777,0.0,0.0005710874366444667,0.0,200,0.028825759887695312,0.47169077039384816,0.6519204186203255,1000,0.016033874544023406,0.0
5,1.1868793964385986,0.020515399478997935,0.010236181325774795,0.037357609215988644,0.00989778660230377,0.0,0.14752953581169065,0.1,0.0025358200073242188,0.05006814002990723,0.048953418,1.1639286,0.01641347041366579,0.0,0.00040477907018008133,0.0,200,0.02660369873046875,1.5722040539737328,0.4805234318046576,1200,0.029520485269460814,0.0
6,1.2258391380310059,0.02215431168506849,0.016357449952384123,0.04349305378707613,0.00606043137151416,0.0,0.14834646726289458,0.1,0.002529144287109375,0.047818660736083984,0.05207919,1.1451173,0.016987554540806058,0.0,0.0004429419340585072,0.0,200,0.10352420806884766,0.585444089049865,0.673707537591205,1400,0.04971512502429653,0.0
7,1.2236113548278809,0.02425429886912568,0.02600319504515504,0.06794946074468647,0.0041445354692224955,0.0,0.1555094183837395,0.1,0.0025434494018554688,0.049214839935302734,0.051239964,1.4689403,0.01771422897363802,0.0,0.0004826575994084448,0.0,200,0.0794985294342041,0.8209763565073027,0.6865809479922667,1600,0.06337926969394846,0.0
8,1.2538957595825195,0.04697420245341838,0.07036036584358595,0.16871519500036353,0.0018063665968348264,0.0,0.14339407204176777,0.1,0.0025272369384765625,0.049570560455322266,0.049416326,1.7681782,0.020640226321616054,0.0,0.0009371665710104384,0.0,200,0.02967977523803711,0.8681614940509204,0.7475303790839407,1800,0.07817939022271626,0.0
9,1.2325804233551025,0.03267779093287092,0.019419986573628145,0.06253713017393357,0.011290513044138223,0.0,0.15635308028993486,0.1,0.002805948257446289,0.05304980278015137,0.04978973,0.9390292,0.02184398278274154,0.0,0.0006526056045738594,0.0,200,0.03040456771850586,0.4316415733707248,0.5616807067516043,2000,0.12002615340932345,0.0
10,1.31563401222229,0.03974803127139888,0.043707796919816015,0.11252889497208916,0.0014076252171144406,0.0,0.14667728157263332,0.1,0.002660512924194336,0.057035207748413086,0.048610926,1.4843863,0.023634387631607273,0.0,0.0007949577170753113,0.0,200,0.031499385833740234,0.6741128925858997,0.627423494262512,2200,0.05480137348727518,0.0
11,1.283036470413208,0.0435274182590515,0.02681579608259637,0.07736092117253207,0.010721255917763406,0.0,0.13883613103909648,0.1,0.002785205841064453,0.07068443298339844,0.050585117,1.1469907,0.025623690694351695,0.0,0.0008664684364471896,0.0,200,0.03600716590881348,0.3869116828919455,0.40502448373506755,2400,0.08535248983251033,0.0
12,1.2968087196350098,0.05054098562314595,0.05344038877861551,0.1427370081650343,0.01369282989549678,0.0,0.15717116597962086,0.1,0.0027523040771484375,0.05510282516479492,0.048757948,1.2346516,0.02811542018723112,0.0,0.0010101772557525334,0.0,200,0.024872779846191406,0.6434429999227945,0.5875884317832132,2600,0.10206619610028851,0.0
13,1.3486008644104004,0.06841086809443282,0.09761736047239578,0.23661533489886985,0.0033617408544020805,0.0,0.14023872655823746,0.1,0.0027687549591064453,0.05391335487365723,0.051852614,1.5975642,0.032144964977951294,0.0,0.0013678878797930276,0.0,200,0.02151036262512207,0.7757643978061952,0.7407517608899898,2800,0.10321857221147997,0.0
14,1.3156359195709229,0.21784031633717,0.30723971264691485,0.7498544122122469,0.03410282007612008,0.0,0.13902549230128608,0.1,0.0026755332946777344,0.062261343002319336,0.050733842,1.7626456,0.05071450011387317,0.0,0.004356382792820651,0.0,200,0.030194520950317383,0.8423057596199739,0.7288601968447489,3000,0.12801576137819184,0.0
15,1.3554165363311768,0.02651377364420626,0.004580689550584737,0.030356670483818432,0.019051937536439155,0.0,0.13539584591267634,0.1,0.0027513504028320312,0.05468869209289551,0.050787326,1.6855301,0.04829442746690649,0.0,0.0005240508583507034,0.0,200,0.023983240127563477,34.92696349459514,25.41217542576252,3200,0.07800391589061025,0.0
16,1.3791530132293701,0.045371117802612784,0.04872215623855789,0.12823471627612668,0.0037976207092908455,0.0,0.1363550671341239,0.1,0.003187894821166992,0.060762882232666016,0.049609255,1.5088408,0.04800209650047711,0.0,0.0008956612948491484,0.0,200,0.02970576286315918,2.7619801664215777,0.7884151595549518,3400,0.19447064588830712,0.0
17,1.3889095783233643,0.04987970801235797,0.025542203615894418,0.08004364897572774,0.02007407391974781,0.0,0.14330001656299077,0.1,0.002559661865234375,0.10055017471313477,0.050539784,1.0864346,0.0481898576516652,0.0,0.0009959390645520542,0.0,200,0.021566390991210938,0.5182608428491439,0.4196246124898063,3600,0.1119096000810465,0.0
18,1.3599658012390137,0.08153298062671951,0.05569459292878215,0.14079516701770692,0.013841808216511127,0.0,0.13940947069656795,0.1,0.0026514530181884766,0.05357193946838379,0.049340054,1.1299417,0.05152416994917063,0.0,0.0016304901342814294,0.0,200,0.03730893135070801,0.6386032998798389,0.7467378080636851,3800,0.08545948206017502,0.0
19,1.3659329414367676,0.046073250954114395,0.035389693881463485,0.09015171431850998,0.008123039716952843,0.0,0.14343341208608312,0.1,0.002668142318725586,0.08148479461669922,0.05128505,1.0786929,0.050979078049665005,0.0,0.0009183135815860731,0.0,200,0.030753135681152344,0.6312808402967134,0.574730395122881,4000,0.10046309371399455,0.0
20,1.3672993183135986,0.0413405610460173,0.02795014767905841,0.08565928069401747,0.014199552292262864,0.0,0.1402081002675796,0.1,0.0026650428771972656,0.0539393424987793,0.050495062,1.2671098,0.05001522634930023,0.0,0.0008266404971644391,0.0,200,0.03125739097595215,0.5107411557732188,0.4579836330025333,4200,0.15069867392166272,0.0
21,1.348755121231079,0.06478549500356423,0.05825167645297891,0.1582077550452402,0.0059269949288015275,0.0,0.13009458420697947,0.1,0.0026674270629882812,0.0508723258972168,0.050595295,2.2956202,0.051492253214726634,0.0,0.0012930426490300202,0.0,200,0.05767941474914551,0.6579406215580634,0.6020746283387176,4400,0.191631145883823,0.0
22,1.3814866542816162,0.3607586219113362,0.31104253970805873,0.6960512657340661,0.01750670003955944,0.0,0.1352739808574746,0.1,0.002565145492553711,0.04968619346618652,0.049874786,1.5672129,0.08241889008438759,0.0,0.007212651178753363,0.0,200,0.028693437576293945,0.9012008340875457,0.8074184125019577,4600,0.33469043840773177,0.0
23,1.3543462753295898,0.10068147152234322,0.09128140968992321,0.24098322552132728,0.012088383945188918,0.0,0.13768411494957428,0.1,0.002515077590942383,0.04898428916931152,0.049436394,1.8649871,0.08424514822818316,0.0,0.002010650017373645,0.0,200,0.07071590423583984,0.5970803159019996,0.6644412815075029,4800,0.39445139808354107,0.0
24,1.3301503658294678,0.1643216521794713,0.12925208110413502,0.37946510255022387,0.035488165055761585,0.0,0.13108076932415438,0.1,0.0026044845581054688,0.049239158630371094,0.049872365,1.7844864,0.09225279862331198,0.0,0.003269051170026948,0.0,200,0.02153611183166504,0.5316309500364748,0.5012120479389223,5000,0.36580542918011894,0.0
25,1.231623649597168,0.046865841050731556,0.04583380714041449,0.12498845147819487,0.008646682285591806,0.0,0.1440917126400657,0.1,0.002869844436645508,0.06041264533996582,0.04940006,2.2533257,0.08771410286605394,0.0,0.0009336833984178842,0.0,200,0.04453229904174805,4.355451349325441,4.036566812433181,5200,0.45049740658305365,0.0
26,1.2629234790802002,0.07086178845043783,0.07511866792107856,0.1977374771595973,0.006197916754562768,0.0,0.1319120458837603,0.1,0.0026972293853759766,0.0500483512878418,0.048731312,1.5690961,0.08602887142449234,0.0,0.0014166471826770654,0.0,200,0.09657430648803711,1.2840232354863257,0.9257378343560806,5400,0.6170032145279418,0.0
27,1.3178248405456543,0.03055224399534222,0.010929400770674044,0.0416935794435725,0.014502299461450967,0.0,0.13998267358139052,0.1,0.0027196407318115234,0.05066204071044922,0.050358687,0.7237489,0.08048120868157732,0.0,0.0006110780508342474,0.0,200,0.028703689575195312,9.331453069961553,3.8623012563263623,5600,0.48868286338081374,0.0
28,1.3669281005859375,0.10440492599130899,0.09492459640143958,0.2392356559587239,0.012054854700045,0.0,0.12687336129149066,0.1,0.002801656723022461,0.07399463653564453,0.04936297,1.8743043,0.0828735804125505,0.0,0.002087434847022382,0.0,200,0.016730070114135742,0.5802169870611679,0.6298257758205933,5800,0.2858237179478986,0.0
29,1.348771572113037,0.06356714184829737,0.037161405178299745,0.10096741358617187,0.004315876200503976,0.0,0.14282899137458838,0.1,0.014690399169921875,0.05291152000427246,0.05024413,0.8984492,0.08094293655612518,0.0,0.001269015697465173,0.0,200,0.036817073822021484,0.41095296629193095,0.408096385372778,6000,0.4811526106696731,0.0
30,1.3935914039611816,0.2537852068181769,0.2757989418030968,0.6989587756008869,0.013610733059159068,0.0,0.14456899359215766,0.1,0.0029435157775878906,0.05094003677368164,0.05161096,1.6143781,0.09822716358233036,0.0,0.005075248111138377,0.0,200,0.022760391235351562,0.859881543967483,0.8270714717863894,6200,0.5326595241935238,0.0
31,1.3601551055908203,0.09666420297056362,0.08552759063791691,0.24327111741401375,0.028624250191954408,0.0,0.13880643344879037,0.1,0.00262451171875,0.05944228172302246,0.050365824,1.6694729,0.09807086752115368,0.0,0.0019327226629412015,0.0,200,0.022807836532592773,0.5980439932927579,0.5661322616114359,6400,0.5123473939433996,0.0
32,1.384490966796875,0.05286112588721212,0.03485208405520662,0.11307544325501015,0.02898978070399018,0.0,0.13740823343752426,0.1,0.002639293670654297,0.06330442428588867,0.050006095,1.4913437,0.09354989335775953,0.0,0.00105389353415269,0.0,200,0.01853656768798828,0.9262752081169129,1.0784351866267565,6600,0.2573811551953465,0.0
33,1.408984899520874,0.12959692306269216,0.05858236604539302,0.19568569679001846,0.03525605427341702,0.0,0.13679799861103448,0.1,0.002603769302368164,0.055068254470825195,0.050276965,0.8040008,0.09715459632825278,0.0,0.002553879085088864,0.0,200,0.03261685371398926,0.3413809686467313,0.3251568237525702,6800,0.1987105362223063,0.0
34,1.445953369140625,0.06605059797567552,0.037747474641163424,0.10390645344611664,0.01823076508328612,0.0,0.14026427367275618,0.1,0.0026416778564453125,0.049722909927368164,0.050551035,1.1044222,0.09404419649299506,0.0,0.0013127909620563177,0.0,200,0.042543649673461914,0.6206959021655432,0.5968895427556428,7000,0.26987891123906366,0.0
35,1.4995036125183105,0.1963282996422995,0.19344049431517912,0.49591168870302704,0.011745239772928682,0.0,0.1384998846440159,0.1,0.0025861263275146484,0.04970502853393555,0.05041691,1.8510023,0.10427260680792551,0.0,0.003923198812383209,0.0,200,0.028333425521850586,0.6929741983558173,0.6680385351541295,7200,0.19921705012276072,0.0
36,1.412977933883667,0.12698832478737218,0.11622277833619879,0.3119333909392636,0.0066490270546418475,0.0,0.14187337957882987,0.1,0.002584218978881836,0.04962015151977539,0.049878627,1.6060222,0.10654417860587018,0.0,0.0025385419458524754,0.0,200,0.023340702056884766,0.5580946929924759,0.542253426934068,7400,0.20264824261098802,0.0
37,1.4246206283569336,0.04833441709504922,0.022935018607879352,0.08373552252962309,0.027738713139780102,0.0,0.13978712621618888,0.1,0.0026137828826904297,0.06402707099914551,0.05079029,1.1801779,0.10072320245478808,0.0,0.0009523793536637517,0.0,200,0.04180622100830078,2.844205540872268,2.4720498971829947,7600,0.2578759716616346,0.0
38,1.4644067287445068,0.23212052422717389,0.19418531597030417,0.5488687351186847,0.02891817191999781,0.0,0.13895507391906714,0.1,0.0025463104248046875,0.060541391372680664,0.049098134,1.5007789,0.11386293463202667,0.0,0.004640734383675051,0.0,200,0.02949690818786621,0.621584430605632,0.5950069427833634,7800,0.24063669935953466,0.0
39,1.3968093395233154,0.1076574335719499,0.10139313160634265,0.2577536389719345,0.012029044872014475,0.0,0.1425370505266791,0.1,0.0029129981994628906,0.07385492324829102,0.050641514,1.1010398,0.113242384526019,0.0,0.0021495876779000092,0.0,200,0.037880659103393555,0.5545104712501884,0.5760933825330669,8000,0.22928991030889426,0.0
40,1.327498197555542,0.13418090343479,0.11199021659202198,0.30403019977938267,0.010251129662570415,0.0,0.14034309457506683,0.1,0.0026803016662597656,0.05521988868713379,0.050146464,1.2257576,0.1153362364168961,0.0,0.002656141103160167,0.0,200,0.029299259185791016,0.47436446885979466,0.4585475719599033,8200,0.3082768357117604,0.0
41,1.3171451091766357,0.31972836093693086,0.25192359734925557,0.6590484159647905,0.0634454254340619,0.0,0.1327940541836948,0.1,0.0027494430541992188,0.0507807731628418,0.050555676,1.6585073,0.13577544886889958,0.0,0.006386663706072512,0.0,200,0.03011178970336914,0.6344434698437017,0.5575097773159197,8400,0.4367667214283817,0.0
42,1.3449451923370361,0.11678980561818171,0.03186912378187023,0.1510560760942118,0.06468166639876541,0.0,0.13948810734127842,0.1,0.0027561187744140625,0.06274604797363281,0.05043946,0.82732177,0.1338768845438278,0.0,0.0023337905226043757,0.0,200,0.05702543258666992,0.3700772492405819,0.5751492081879328,8600,0.40006440696024637,0.0
43,1.3626799583435059,0.4735565226883838,0.46836390266498024,1.2521649030184616,0.06638401488302277,0.0,0.1386842592096327,0.1,0.0027763843536376953,0.05356431007385254,0.049801234,1.8105239,0.1678448483582834,0.0,0.009421738891779255,0.0,200,0.027830839157104492,0.6942084724133754,0.6309213710042487,8800,0.5591160345373193,0.0
44,1.3959102630615234,0.2906225262852211,0.20672387763683342,0.5859650205797552,0.03546949671704736,0.0,0.14337922772679948,0.1,0.002810955047607422,0.05123329162597656,0.049786635,1.1769792,0.18012261615097716,0.0,0.005806896295154402,0.0,200,0.030043601989746094,0.44740161489459546,0.4490809268168919,9000,0.3929901664178503,0.0
45,1.3928067684173584,0.16636472490502469,0.08952585909188367,0.27695317963936383,0.02739120415339398,0.0,0.13690774950224655,0.1,0.0026254653930664062,0.05161547660827637,0.049882613,1.0786781,0.1787468270263819,0.0,0.003308447962453354,0.0,200,0.028728961944580078,1.2971117435424389,0.6185659815843331,9200,0.4774062853616359,0.0
46,1.4216582775115967,0.23761525439763187,0.15640653336694588,0.4662305801480193,0.024832767188871813,0.0,0.13268230434671638,0.1,0.002743244171142578,0.054830074310302734,0.049232196,1.5184773,0.18463366976350692,0.0,0.004745119711919047,0.0,200,0.02065134048461914,0.3856786906021477,0.41767419709085923,9400,0.49485879965398377,0.0
47,1.4009873867034912,0.21126106844876807,0.10043905001218183,0.27464756598856715,0.037397909822588074,0.0,0.13448698336784082,0.1,0.002820253372192383,0.058092594146728516,0.048837613,1.2371339,0.18729640963203306,0.0,0.004200145576368644,0.0,200,0.015631914138793945,0.3093596680881346,0.2863009498245722,9600,0.3679932062489178,0.0
48,1.4217829704284668,0.7409251567059051,0.4469375337957388,1.2718105819414376,0.2871506843164608,0.0,0.139793528353401,0.1,0.0026175975799560547,0.0506742000579834,0.050126974,1.0776405,0.24265928433942024,0.0,0.014753856481734533,0.0,200,0.018059253692626953,0.6928031246862123,0.5406627434072374,9800,0.3976470714508464,0.0
49,1.4299957752227783,0.6358917353204203,0.5979144668104067,1.6576766011565447,0.18700280927332993,0.0,0.12935217854828535,0.1,0.0027234554290771484,0.05070614814758301,0.04950971,2.7890372,0.2819825294375203,0.0,0.012549986442126638,0.0,200,0.02386641502380371,0.6417639826738801,0.5363805117764527,10000,0.5662576056222931,0.0
50,1.4103291034698486,0.21913689750547805,0.1553533253341102,0.480684004747697,0.07727574517980665,0.0,0.13546274228548177,0.1,0.0026302337646484375,0.049880266189575195,0.05052207,1.3773007,0.2756979662443161,0.0,0.004366208656338114,0.0,200,0.0267789363861084,1.5482052716590042,1.8935839022349392,10200,0.6688244133467481,0.0
51,1.4280292987823486,0.21251540513764333,0.14974008419142223,0.45298729003665383,0.05667079486634109,0.0,0.13526055630997721,0.1,0.002656698226928711,0.05074119567871094,0.04896636,1.7593516,0.2693797101336488,0.0,0.004250248712746944,0.0,200,0.01732182502746582,2.3149624178548076,1.1000496146933576,10400,0.9081666408328778,0.0
52,1.4540717601776123,0.14147957127731928,0.06307137955856375,0.19207413210071508,0.03532031678472769,0.0,0.13123261648301388,0.1,0.0026962757110595703,0.05119132995605469,0.051335517,1.2013578,0.25658969624801586,0.0,0.0028262589413056674,0.0,200,0.02417922019958496,4.755835045541024,1.427112648744231,10600,1.1712663973762685,0.0
53,1.47347092628479,0.29972240899031516,0.24685180200171722,0.6928188185145896,0.020845261896220674,0.0,0.14320902384958423,0.1,0.002725839614868164,0.05044078826904297,0.04974912,1.2955295,0.2609029675222458,0.0,0.005927136733743697,0.0,200,0.015547990798950195,0.42683305999641297,0.4713861406366299,10800,0.7239229612788273,0.0
54,1.4801197052001953,0.6225325955781345,0.39210421044816696,1.27825509893848,0.2434991516741319,0.0,0.1309107870132052,0.1,0.002695798873901367,0.04990506172180176,0.048079938,4.2619033,0.2970659303278347,0.0,0.012438472701045821,0.0,200,0.027271747589111328,0.6134571623766296,0.6208298077515262,11000,0.8791811129912993,0.0
55,1.4650206565856934,0.35340646089233085,0.316314199773739,0.776525663143919,0.020953189769608402,0.0,0.12809009002268348,0.1,0.002706289291381836,0.06173110008239746,0.049888235,1.0774115,0.30269998338428433,0.0,0.006903261996939207,0.0,200,0.03584718704223633,0.5490063408087916,0.5207237913070611,11200,1.2727187847915735,0.0
56,1.4556457996368408,0.1287746349276052,0.09776892846640146,0.2761568302612949,0.028205069467408833,0.0,0.12948923260904063,0.1,0.004483699798583984,0.05413079261779785,0.04961379,1.2417042,0.28530744853861645,0.0,0.0024455280781321754,0.0,200,0.023799896240234375,0.6275687683295427,0.6771366247244922,11400,0.8023919961967533,0.0
57,1.5001232624053955,0.4583731066883434,0.4274635347326928,1.0983641978729517,0.010321381985180815,0.0,0.13348947855159723,0.1,0.0026302337646484375,0.05183744430541992,0.0502719,1.3989192,0.30261401435358914,0.0,0.009143215376721213,0.0,200,0.017838001251220703,0.6135264454134796,0.5926815784456996,11600,0.8075956895950324,0.0
58,1.51896071434021,0.48377856369875316,0.2575985380386499,0.7851230084071321,0.1583600202095688,0.0,0.13122100048443686,0.1,0.0025844573974609375,0.05173468589782715,0.049455766,1.5437837,0.32073046928810556,0.0,0.009675585206503138,0.0,200,0.032617807388305664,0.45622851439969053,0.40220647316780855,11800,0.7716150337697202,0.0
59,1.4079945087432861,0.2815643885779553,0.13213054214345313,0.4125989561817848,0.08576427262639458,0.0,0.13156115796052076,0.1,0.002912759780883789,0.05291748046875,0.04930597,1.0517511,0.31681386121709054,0.0,0.005626638087728271,0.0,200,0.020079612731933594,0.2772711345815189,0.31085319605575684,12000,0.803514690736229,0.0
60,1.3936829566955566,0.13586607030396006,0.074998562269228,0.2324431770645368,0.03413510264284712,0.0,0.1281387502795277,0.1,0.0027239322662353516,0.07176756858825684,0.04954142,0.73268235,0.29871908212577747,0.0,0.002717359319803598,0.0,200,0.019749879837036133,1.6062066522059983,1.564792107676762,12200,0.8575830905634606,0.0
61,1.4420192241668701,0.3108896842428221,0.15486998581998063,0.4949667014350079,0.13578042215116468,0.0,0.13609152919941692,0.1,0.002757549285888672,0.07533740997314453,0.049105417,1.0640566,0.29993614233748195,0.0,0.00620325218860308,0.0,200,0.034325361251831055,0.2608110020412071,0.25322524908502697,12400,0.8667092450126915,0.0
62,1.391951560974121,0.5634921551217059,0.2845650224017762,0.91214052986816,0.135649054852157,0.0,0.12855462406574247,0.1,0.002701997756958008,0.06079387664794922,0.049371436,1.284549,0.32629174361590435,0.0,0.011269886036394047,0.0,200,0.01447153091430664,0.39019865560389694,0.37223925457191853,12600,1.2284580815748478,0.0
63,1.4030296802520752,0.23219644146301943,0.07009255177421177,0.3108873816275303,0.11891762689357618,0.0,0.13590809027898837,0.1,0.0026772022247314453,0.05190300941467285,0.05016531,0.86307746,0.3168822134006159,0.0,0.004588618646906802,0.0,200,0.09706687927246094,0.2343909449963441,0.2685436961765038,12800,0.9595889908491243,0.0
64,1.38236665725708,0.20094916178020367,0.07305137486014536,0.3113252920854409,0.11338209712884839,0.0,0.13264250373867154,0.1,0.0028526782989501953,0.05168747901916504,0.049287427,1.0531884,0.3052889082385747,0.0,0.003950288353643714,0.0,200,0.10784673690795898,0.5229302813547748,0.44647729951942705,13000,1.0623948132965264,0.0
65,1.3842887878417969,0.46549158990686734,0.38199528991351317,1.121644599671141,0.168538501677482,0.0,0.13023308207762238,0.1,0.002735137939453125,0.05008244514465332,0.04979033,2.2332585,0.32130917640540396,0.0,0.009309458794842936,0.0,200,0.029040813446044922,0.477089159766574,0.47484696107972313,13200,1.284664721318501,0.0
66,1.465125560760498,0.7307557415195359,0.5022868711244122,1.4269341764807222,0.10238402208201981,0.0,0.1290549860445776,0.1,0.0028429031372070312,0.052405595779418945,0.049166974,1.6865138,0.3622538329168172,0.0,0.014613627625245974,0.0,200,0.06250476837158203,0.5551678765962903,0.5067386043369692,13400,0.9741328950368202,0.0
67,1.4664011001586914,0.7344860540085849,0.6792144464750817,1.4165417469190595,0.026294674602356436,0.0,0.1291094699655151,0.1,0.0027320384979248047,0.05249500274658203,0.049570914,1.2711968,0.39947705502599395,0.0,0.014676755109340616,0.0,200,0.028957128524780273,0.6107316159423606,0.5452541262198363,13600,1.3946747230017864,0.0
68,1.4773011207580566,0.5965926091076532,0.5620611560781613,1.5531132149460596,0.1149727557699992,0.0,0.14084467228609307,0.1,0.002770662307739258,0.053430795669555664,0.049979284,1.4590994,0.4191886104341599,0.0,0.011927568218647107,0.0,200,0.015413761138916016,0.4959701073286326,0.47857177860798894,13800,1.6018755374199685,0.0
69,1.4896156787872314,0.4509758754770182,0.3463082312056097,0.9955983768634221,0.03535810420266571,0.0,0.1334131235949402,0.1,0.0027599334716796875,0.0756223201751709,0.05009704,1.2376256,0.42236733693844575,0.0,0.008987942227149983,0.0,200,0.015354633331298828,0.4739975609563593,0.5028209894126956,14000,1.8248589928699905,0.0
70,1.5482301712036133,0.440444954619677,0.5929169093234689,1.464226133751503,0.03277046827905809,0.0,0.12336533734162476,0.1,0.0028412342071533203,0.056696176528930664,0.049116753,2.597882,0.4241750987065689,0.0,0.008783434464926583,0.0,200,0.026334524154663086,0.7640523024013162,0.7130631889569138,14200,1.205563794556188,0.0
71,1.562692403793335,0.3320933208710909,0.1753045902488595,0.5667344763013464,0.14137070474502272,0.0,0.1292522857420134,0.1,0.002810955047607422,0.053650617599487305,0.04964371,1.1836149,0.41496692092302107,0.0,0.006480975374314808,0.0,200,0.0614166259765625,0.7144876861591667,0.4554469928960737,14400,1.6431186314906032,0.0
72,1.533233404159546,0.8506716791956341,0.37971255323803366,1.2634431386423923,0.27279186523852994,0.0,0.13231236991763856,0.1,0.002646207809448242,0.053717613220214844,0.04962173,1.3829598,0.4585373967502824,0.0,0.016950019642054236,0.0,200,0.05233144760131836,0.34851926760890467,0.35383541400993607,14600,1.74387733646214,0.0
73,1.534372329711914,0.3606109106250634,0.22096695280003262,0.5932734040550127,0.031347060768011505,0.0,0.12676155819641322,0.1,0.002613067626953125,0.05224442481994629,0.04971199,0.7308597,0.4487447481377605,0.0,0.0072046424318951766,0.0,200,0.02900552749633789,0.30888325891903734,0.3166238277311122,14800,1.5498572504315262,0.0
74,1.5914592742919922,0.6397588507950278,0.5769642510831613,1.6085077204692209,0.186121863362444,0.0,0.12302326281025339,0.1,0.0025930404663085938,0.05233883857727051,0.049548186,2.9891388,0.46784615840348726,0.0,0.012784857935137714,0.0,200,0.02643609046936035,0.5052105108756612,0.4990468230953681,15000,0.38369205097171416,0.0
75,1.415055513381958,0.38446483611477,0.10449250016088889,0.5148303214701149,0.2483597928476744,0.0,0.12998323325098968,0.1,0.0031585693359375,0.0539402961730957,0.049556352,0.96918327,0.45950802617461556,0.0,0.0076855023517024825,0.0,200,0.07874846458435059,0.21212544283512627,0.19322422148107182,15200,0.4859170516175315,0.0
76,1.4581260681152344,0.2728680306378401,0.07227489078156495,0.3811937913557645,0.20157155683321495,0.0,0.14107467085113706,0.1,0.002838134765625,0.05463600158691406,0.0496278,0.7498294,0.440844026620938,0.0,0.005432248537794269,0.0,200,0.0296323299407959,0.8958169919009111,0.5814552292756486,15400,0.16855700095902024,0.0
77,1.419440746307373,0.5942541586874912,0.4401425469874773,1.1747924391317215,0.009272888132628464,0.0,0.13336766756330798,0.1,0.0028197765350341797,0.05450010299682617,0.049513254,1.2019339,0.45618503982759334,0.0,0.01181947931820549,0.0,200,0.0629878044128418,0.41359202361416475,0.4246750457991808,15600,1.2044388014510437,0.0
78,1.429724931716919,0.3240264669001939,0.21153295108095685,0.6416547070818956,0.12278187584230017,0.0,0.13252421542436604,0.1,0.002652406692504883,0.05300426483154297,0.04971547,1.2098932,0.4429691825348534,0.0,0.006474327954736035,0.0,200,0.02921581268310547,0.44506821866358803,0.4162490376034606,15800,1.0803975486060795,0.0
79,1.3964543342590332,0.4156958620114255,0.2514045924679128,0.7360535121285214,0.032976735482101595,0.0,0.13724613147954862,0.1,0.002740144729614258,0.05207109451293945,0.04958311,1.0083922,0.44024185048251063,0.0,0.00824741223627961,0.0,200,0.10922813415527344,0.2569578927544704,0.2566509428660384,16000,1.4921700371454503,0.0
80,1.471534252166748,0.45028403536510364,0.14272925500300118,0.6638211671920302,0.262963724065155,0.0,0.1377841010244798,0.1,0.002699136734008789,0.05065631866455078,0.04998703,0.95518875,0.44124606897076996,0.0,0.008990109355442472,0.0,200,0.050208330154418945,0.12027572603900527,0.12340904753875742,16200,0.9219377078831209,0.0
81,1.4442594051361084,0.9317888124322363,0.41086672925861284,1.5820720755088102,0.4503426406673788,0.0,0.1315110494050329,0.1,0.0026695728302001953,0.05181765556335449,0.04997559,1.3843222,0.49030034331691663,0.0,0.018631241115540206,0.0,200,0.0564875602722168,0.44250027219582977,0.39834608583513165,16400,1.16707444064139,0.0
82,1.4564919471740723,0.4362420513889583,0.27230671591968214,0.7180215719022389,0.08173561948040697,0.0,0.12480884212383137,0.1,0.0027649402618408203,0.052689552307128906,0.05023577,0.9438185,0.48489451412412077,0.0,0.00872467947619851,0.0,200,0.09603476524353027,0.30734813329145083,0.31954321521401385,16600,0.9704634311313715,0.0
83,1.4837450981140137,0.5648728441965143,0.20885841062074145,0.7818033171278737,0.2446709392724265,0.0,0.12735893830076472,0.1,0.0027170181274414062,0.05199146270751953,0.049415186,1.2268282,0.49289234713136015,0.0,0.01123935282148527,0.0,200,0.03402376174926758,0.16646455477172148,0.1605996156894755,16800,0.8292311646309612,0.0
84,1.5010566711425781,0.6051397863837432,0.2451706455912236,0.9792398073845949,0.374734260741609,0.0,0.1350168377152715,0.1,0.0027022361755371094,0.09928011894226074,0.0497399,1.6197973,0.5041170910565984,0.0,0.011968152514800266,0.0,200,0.02341294288635254,0.21323638986385277,0.20551923915784867,17000,0.8927574379091845,0.0
85,1.55350661277771,0.6006987463717862,0.29680439356016525,0.8628158669022706,0.10056797788198356,0.0,0.1269582374288086,0.1,0.0061151981353759766,0.061353445053100586,0.050108775,0.71139246,0.5137752565881172,0.0,0.011952148681289701,0.0,200,0.026340484619140625,0.24650734658433637,0.24363360146946408,17200,1.0422857366368956,0.0
86,1.5156545639038086,1.1363883823625955,0.5221366461047607,1.9226520664127467,0.4607528956446614,0.0,0.1338368574047651,0.1,0.0026340484619140625,0.08643698692321777,0.050228283,1.5085526,0.576036569165565,0.0,0.022475095935685148,0.0,200,0.030154943466186523,0.3863100619317257,0.31644213215365335,17400,1.1843562143031048,0.0
87,1.5474252700805664,1.0841362054993708,0.7867489038829898,2.298292782048641,0.19696218477510138,0.0,0.13066632163389882,0.1,0.002705812454223633,0.05155324935913086,0.049322482,1.807995,0.6268465327989456,0.0,0.02163945437397964,0.0,200,0.04780125617980957,0.45702109201478597,0.40459844442838677,17600,1.4065917877213787,0.0
88,1.5255417823791504,0.3221619884491487,0.19742210102518856,0.663117183957063,0.18727327525633605,0.0,0.12439754221562854,0.1,0.005623817443847656,0.050187110900878906,0.049529348,0.95795,0.596378078363966,0.0,0.006364224611763989,0.0,200,0.028310298919677734,3.461289274788141,2.5440448131661273,17800,1.125293131771425,0.0
89,1.6603062152862549,0.48831144092160944,0.35074176234906385,1.05445531268728,0.1308699108405122,0.0,0.1291334442254665,0.1,0.0025565624237060547,0.05356335639953613,0.050349027,1.0055039,0.5855714146197303,0.0,0.009678764231556532,0.0,200,0.0782010555267334,0.9199699541986626,0.4948213292088195,18000,2.038140061857134,0.0
90,1.4109599590301514,0.39978002674503793,0.2787354892069522,0.8154433996632199,0.08304273108567695,0.0,0.12902070553060066,0.1,0.0028908252716064453,0.054463863372802734,0.049551502,0.7820885,0.5669922758322611,0.0,0.007970061423970151,0.0,200,0.06764507293701172,0.4593287219081581,0.33839666520208606,18200,2.596807315464325,0.0
91,1.420208215713501,0.3974948800335834,0.3404523689119162,0.9848963725908648,0.15622256213418165,0.0,0.13467131187033174,0.1,0.002763986587524414,0.05165982246398926,0.049595043,0.9827473,0.5500425362523933,0.0,0.007850604997826237,0.0,200,0.04085588455200195,0.4814539487682018,0.46955470546979144,18400,1.0525097754981345,0.0
92,1.5363445281982422,0.1427121047767457,0.17698008591762573,0.44833250606859404,0.018580001436339717,0.0,0.12666854170618072,0.1,0.0026607513427734375,0.09602022171020508,0.049117412,0.8172866,0.5093094931048285,0.0,0.002853672022583706,0.0,200,0.022542238235473633,1.5160267101554743,0.9467172215990517,18600,1.113051101411736,0.0
93,1.5246901512145996,0.4804128837307262,0.24473736235695745,0.7431687146760524,0.1729250295581526,0.0,0.12786951978425226,0.1,0.002705812454223633,0.055538177490234375,0.049876455,0.92490786,0.5064198321674183,0.0,0.009595394091699426,0.0,200,0.02887558937072754,0.4173693132230148,0.410369347908645,18800,0.8554548779521517,0.0
94,1.4587607383728027,0.9437356498467324,0.5989280402635052,1.8541180437455385,0.1886225606249495,0.0,0.12374251905890588,0.1,0.002743244171142578,0.05102062225341797,0.049627934,1.5085156,0.5501514139353497,0.0,0.018812862691240814,0.0,200,0.028620004653930664,0.7074985612767805,0.612081591128406,19000,0.8381152449193842,0.0
95,1.4787602424621582,0.4122968163362895,0.12075780936015326,0.5563801322917049,0.26571584270688636,0.0,0.12104126303649768,0.1,0.002673625946044922,0.05038261413574219,0.04936045,0.78874946,0.5363659541754437,0.0,0.00818995333305534,0.0,200,0.021868228912353516,0.12768296821389563,0.11035900513428723,19200,1.3659219912500646,0.0
96,1.511183738708496,0.746429410656531,0.3112747925185409,1.1082831624787608,0.39045538462346296,0.0,0.11862055040101463,0.1,0.002609729766845703,0.05030536651611328,0.04982541,2.3052783,0.5573722998235525,0.0,0.014885397538354883,0.0,200,0.061103105545043945,0.35968401300457475,0.31178222095223235,19400,1.3622981197824287,0.0
97,1.4769303798675537,0.5631382983127953,0.3170000988852447,0.8867606952347935,0.1531463031423287,0.0,0.12204550413217563,0.1,0.0026369094848632812,0.055899858474731445,0.050066948,1.1703329,0.5579488996724769,0.0,0.011242571939297494,0.0,200,0.029057979583740234,0.30194674594085863,0.2906670331227202,19600,1.0928841513937062,0.0
98,1.5718908309936523,0.7965961648689059,0.4896994338943264,1.3093063889670953,0.22238163216606038,0.0,0.12475691766955994,0.1,0.0027997493743896484,0.08075714111328125,0.049506634,1.5823059,0.5818136261921197,0.0,0.0159153086749279,0.0,200,0.014981269836425781,0.39405585948040656,0.3576084955340433,19800,1.0327894077998339,0.0
99,1.5854957103729248,0.803115529538875,0.4434219154812587,1.4146644004961246,0.28759441632611404,0.0,0.1263120266228946,0.1,0.002725839614868164,0.06443214416503906,0.049455468,1.7608407,0.6039438165267953,0.0,0.01601954244517209,0.0,200,0.04033350944519043,0.3021991141006877,0.2734628077763257,20000,1.2248058926964183,0.0
100,1.5360357761383057,0.42752303486048504,0.284065625826696,0.8249885566619868,0.08321358240404214,0.0,0.1304575358920607,0.1,0.0026183128356933594,0.05726766586303711,0.05008669,1.06382,0.5863017383601643,0.0,0.008523160212373461,0.0,200,0.018626928329467773,0.7730832975007131,0.6643152568433603,20200,1.479707885153392,0.0
101,1.6417820453643799,0.5097265561169276,0.3112309980896808,0.8989837302912146,0.05094678988976318,0.0,0.12376334993484797,0.1,0.002593994140625,0.0510406494140625,0.049395744,1.1098113,0.5786442201358406,0.0,0.010177913532915476,0.0,200,0.028401851654052734,0.45900671382277347,0.35775082221095966,20400,0.9609880050845551,0.0
102,1.6222355365753174,0.4251711277890017,0.2677557732791805,0.8091224004846143,0.08254638923067266,0.0,0.13453964937451618,0.1,0.0030121803283691406,0.08102965354919434,0.049666487,1.1180065,0.5632969109011567,0.0,0.008498485952546701,0.0,200,0.017706632614135742,0.5139644998401116,0.3792306271073772,20600,0.7603741432632244,0.0
103,1.663987636566162,1.024451808008377,0.6992457401160035,1.748496789063353,0.1685880323642356,0.0,0.12645921872273233,0.1,0.0025987625122070312,0.049735069274902344,0.049834374,2.0444632,0.6094124006118788,0.0,0.020454045871327885,0.0,200,0.0223543643951416,0.5095557998377636,0.5122071865464902,20800,0.9145769187976804,0.0
104,1.6514151096343994,0.4649142025479101,0.35382659137882,0.9589327024078609,0.06657520991080852,0.0,0.12456086778725274,0.1,0.0025925636291503906,0.05342745780944824,0.04977561,2.1635423,0.594962580805482,0.0,0.009297955460295979,0.0,200,0.03343462944030762,0.4165660850676355,0.4213564509470477,21000,0.7778908069287617,0.0
105,1.6469712257385254,0.2504098243520644,0.10369426455682304,0.41757893553387243,0.1397048394371337,0.0,0.13734406003528532,0.1,0.002574443817138672,0.04920220375061035,0.049525194,0.7030188,0.5605073051601404,0.0,0.0049990547797212305,0.0,200,0.02274489402770996,1.4991684936620377,1.2670131590610398,21200,0.654435521156529,0.0
106,1.6946957111358643,0.605233958835714,0.34787049778444884,1.1311331957196118,0.2079549775594033,0.0,0.12264123018184848,0.1,0.0026865005493164062,0.05050945281982422,0.050248366,1.8650006,0.5649799705276977,0.0,0.0120980738565711,0.0,200,0.022618532180786133,0.30045589715175613,0.30796800399000757,21400,0.6843840050144206,0.0
107,1.5617427825927734,0.8480225867777444,0.6597623379759351,1.8991359693860588,0.28213914750252167,0.0,0.13292991515925395,0.1,0.0029931068420410156,0.05157470703125,0.049408354,1.599961,0.5932842321527024,0.0,0.016832963010755025,0.0,200,0.03194093704223633,0.5036021996014052,0.48897059994176506,21600,1.1460866428416507,0.0
108,1.5734143257141113,0.5275072638775096,0.1327137048271441,0.6960157233462198,0.32599395925189684,0.0,0.12751089277982716,0.1,0.0028328895568847656,0.05092930793762207,0.04997567,1.0660579,0.5867065353251831,0.0,0.010544781145659295,0.0,200,0.043334007263183594,0.09785547284576625,0.10436792807213732,21800,1.184419198984312,0.0
109,1.609205722808838,0.3437764031060896,0.10882052593717413,0.48577809984344933,0.23544529788393467,0.0,0.1260655436498146,0.1,0.002672433853149414,0.05157876014709473,0.05037911,0.90108335,0.5624135221032738,0.0,0.006829579717522828,0.0,200,0.028944015502929688,0.5182873774634462,0.49699476580039514,22000,1.1830437272097094,0.0
110,1.612140417098999,0.6651527312381985,0.37163965501446505,1.2516791738497128,0.26876615719001007,0.0,0.12404291096942946,0.1,0.002834320068359375,0.0730433464050293,0.049293876,1.7742566,0.5726874430167663,0.0,0.01328550235520023,0.0,200,0.028964996337890625,0.27962378428752105,0.27916395323453747,22200,1.2520662279913268,0.0
111,1.5140597820281982,0.6361843983733088,0.3659022769665597,1.199752114478046,0.1888921369930856,0.0,0.12599184152894163,0.1,0.0028510093688964844,0.08510875701904297,0.050540343,1.2592652,0.5790371385524206,0.0,0.012669812809581968,0.0,200,0.037841081619262695,0.2825682278389266,0.2785421521836531,22400,0.8745584723766203,0.0
112,1.5318431854248047,0.32682782980173486,0.32006234468350403,0.8755172063452299,0.07107882999181342,0.0,0.13054155692919348,0.1,0.0028667449951171875,0.08898806571960449,0.050266925,1.2165536,0.553816207677352,0.0,0.00647867274716336,0.0,200,0.03145456314086914,0.7313512814637716,0.701810516059577,22600,1.0104672096295564,0.0
113,1.591888666152954,0.8926790205992348,0.38537062825948254,1.3863613467273328,0.37218957721154433,0.0,0.1333789975148292,0.1,0.002848386764526367,0.05358743667602539,0.049948268,1.0446439,0.5877024889695402,0.0,0.017754653041100712,0.0,200,0.03321075439453125,0.3043971015617089,0.2910498487625151,22800,1.6597512043148306,0.0
114,1.5842819213867188,0.6651751479087452,0.463669483871491,1.4402956473461788,0.251578692091237,0.0,0.12414627190533799,0.1,0.002678394317626953,0.0742042064666748,0.048657786,2.038344,0.5954497548634607,0.0,0.01319905905578586,0.0,200,0.029408931732177734,0.3337268918759507,0.31990887950588465,23000,2.469531253346859,0.0
115,1.640803337097168,0.8683882431031752,0.154821866038861,1.0733372044149434,0.6457511076014191,0.0,0.1256716608792083,0.1,0.0027446746826171875,0.05317187309265137,0.05032972,1.2754825,0.6227436036874322,0.0,0.017299080668652662,0.0,200,0.018043994903564453,0.15704547451216488,0.11805713186235457,23200,2.7165550717980707,0.0
116,1.5459964275360107,0.7582479153786595,0.5989250802315895,1.5075062560128907,0.138173513760803,0.0,0.12235616735532769,0.1,0.002692699432373047,0.06366705894470215,0.051814415,1.371813,0.6362940348565549,0.0,0.015051817847688428,0.0,200,0.014915227890014648,0.4149110130264847,0.41535457274656573,23400,0.9208510708885581,0.0
117,1.5840811729431152,0.575658783575989,0.4088338345413962,1.2482705166032368,0.17977159398073683,0.0,0.12513617106947347,0.1,0.0028791427612304688,0.05180978775024414,0.05054338,1.0180026,0.6302305097284983,0.0,0.011232724273512636,0.0,200,0.028885841369628906,0.4120766693151556,0.40115652814537656,23600,0.7013690602692461,0.0
118,1.560067892074585,0.621978121026189,0.2522406016415432,0.918114517817443,0.22968758046082538,0.0,0.12358257634433202,0.1,0.0027070045471191406,0.054659128189086914,0.049136866,0.9658843,0.6294052708582674,0.0,0.01241312154280262,0.0,200,0.02901768684387207,0.21263952305784944,0.17925390793464013,23800,1.6692732533556747,0.0
119,1.5952801704406738,0.9145530795176154,0.5385540719215249,1.7627405261529763,0.4005462915627129,0.0,0.12157048483263717,0.1,0.0026755332946777344,0.053827762603759766,0.049487572,1.777323,0.6579200517242021,0.0,0.018254857278184048,0.0,200,0.02804088592529297,0.3503537690441745,0.34814030525796846,24000,0.19646180207845912,0.0
120,1.5711863040924072,0.623156221945475,0.4043281032972287,1.1654138797210338,0.07351883212700165,0.0,0.12530906004522566,0.1,0.002753734588623047,0.05147981643676758,0.049362283,1.0170865,0.6544436687463293,0.0,0.012445415962566582,0.0,200,0.02835536003112793,0.32567440007841064,0.3265246321639778,24200,0.17823621488412836,0.0
121,1.628211498260498,0.8449695671680216,0.42685758219260933,1.518217666625933,0.43654564567912446,0.0,0.12473553025522414,0.1,0.0027222633361816406,0.051358699798583984,0.05077161,1.5922643,0.6734962585884985,0.0,0.01674368344151333,0.0,200,0.03897857666015625,0.2592839508390396,0.246996587812821,24400,0.23593901737466239,0.0
122,1.67681884765625,0.9144430596458967,0.575726414577032,1.522348324997814,0.3360297498216774,0.0,0.13254297550631897,0.1,0.0027387142181396484,0.06261920928955078,0.050063275,1.1508213,0.6975909386942383,0.0,0.018229840873748102,0.0,200,0.02950310707092285,0.3180134294121855,0.3071248225720689,24600,0.4595351684450211,0.0
123,1.6435284614562988,0.7041787537674931,0.5174849726744273,1.3876647761230223,0.11999794985733153,0.0,0.12077853142884261,0.1,0.0029358863830566406,0.05359673500061035,0.05051763,1.2158461,0.6982497202015637,0.0,0.014079014935668235,0.0,200,0.01597309112548828,0.39876831609812585,0.3987251005536936,24800,0.3962291907420373,0.0
124,1.7160670757293701,0.42840740778591496,0.27585338893181593,0.8351676038988411,0.05993957278069904,0.0,0.12623871658144956,0.1,0.004638671875,0.05572795867919922,0.049998183,1.0080165,0.6712654889599988,0.0,0.008532343914477974,0.0,200,0.029242515563964844,0.7338176626277363,0.5781298386077892,25000,0.4425535618064984,0.0
125,1.6311144828796387,1.0015349192235392,0.5111788928902176,1.7729642507801096,0.34170181648104975,0.0,0.13275025963072673,0.1,0.002704620361328125,0.09144043922424316,0.050018188,1.3233497,0.7042924319863528,0.0,0.01968810844363548,0.0,200,0.024621963500976562,0.28095324571130625,0.2857999192492259,25200,2.1852521451427154,0.0
126,1.5858194828033447,0.7325189142962961,0.5552989766693612,1.6786684008534318,0.3099503576710268,0.0,0.1189385908186874,0.1,0.0030133724212646484,0.055121660232543945,0.049307927,2.6970437,0.7071150802173471,0.0,0.014638793598242758,0.0,200,0.020612716674804688,0.40344654303968064,0.39936616335648867,25400,1.4287254179604678,0.0
127,1.6258471012115479,0.88744244294291,0.6192372405435433,1.794897605337956,0.15606969180457556,0.0,0.12773146740614105,0.1,0.002917051315307617,0.06187009811401367,0.049679607,1.232478,0.7251478164899035,0.0,0.017062543030085853,0.0,200,0.046463966369628906,0.4086784617816714,0.3867748655065988,25600,1.572630574992169,0.0
128,1.632800579071045,0.935105365636111,0.1572456403258122,1.1990444253592238,0.7966658696197312,0.0,0.13297452128021992,0.1,0.0028350353240966797,0.053945302963256836,0.04960021,1.0485872,0.7461435714045243,0.0,0.01851960051861695,0.0,200,0.021420001983642578,0.0794200695515644,0.07627360979008188,25800,1.1731176922583708,0.0
129,1.596553087234497,0.7792462297285843,0.34629436962744153,1.3749083152844241,0.5144485064392299,0.0,0.12070519313374865,0.1,0.0027399063110351562,0.054169416427612305,0.04975655,2.125612,0.7494538372369303,0.0,0.015505962456447683,0.0,200,0.02071690559387207,0.23073569934443078,0.22750068438419982,26000,1.4077069188537614,0.0
130,1.6617944240570068,0.7922883130332865,0.3029542380793064,1.1248710427631807,0.48028360090411953,0.0,0.12480204272085478,0.1,0.0028791427612304688,0.0573575496673584,0.050609175,1.0094941,0.753737284816566,0.0,0.01578182593312427,0.0,200,0.03466320037841797,0.17861536979256892,0.15684611492730785,26200,1.4484820627622137,0.0
131,1.6153950691223145,0.6797194931928223,0.6870677609897102,1.8619592828626095,0.2056360110555006,0.0,0.12880570907813654,0.1,0.002867460250854492,0.053427696228027344,0.050631568,1.4486358,0.7463355056541916,0.0,0.013515532153137172,0.0,200,0.0317685604095459,0.5705755080080575,0.5438006427223846,26400,0.9400626074398456,0.0
132,1.5989084243774414,1.0485621913430303,0.7339490063880595,2.0005703590597275,0.22973364577891478,0.0,0.12948190840122548,0.1,0.0027418136596679688,0.05309915542602539,0.04928889,1.1258512,0.7765581742230756,0.0,0.020660762966890032,0.0,200,0.10152888298034668,0.3909205031207724,0.39033502661337366,26600,1.1010225742335942,0.0
133,1.5554225444793701,0.9338079246473694,0.41617890574115585,1.2793884724254174,0.22663372363545592,0.0,0.11833815167496127,0.1,0.002719879150390625,0.051339149475097656,0.050137263,0.8903002,0.792283149265505,0.0,0.018576567515293307,0.0,200,0.0190277099609375,0.24328090666388513,0.2212110113017266,26800,1.3185752992960915,0.0
134,1.5518527030944824,0.6860734578890898,0.6482664773455029,1.7797657110878253,0.14621115943717092,0.0,0.12527449992025394,0.1,0.0026569366455078125,0.04935264587402344,0.049604878,1.3777531,0.7816621801278636,0.0,0.01361660943549894,0.0,200,0.0382387638092041,0.47014799477624014,0.46723369411576926,27000,1.39183543344676,0.0
135,1.5448849201202393,0.3704430335614673,0.2708270817138201,0.6577694918455385,0.07283984366062671,0.0,0.13039288083915085,0.1,0.0026459693908691406,0.050017595291137695,0.049332023,0.818913,0.740540265471224,0.0,0.007292037419542775,0.0,200,0.09262824058532715,1.504749521291524,1.1256494275700282,27200,1.4169459327116198,0.0
136,1.56062650680542,1.0387201253920697,0.40018195775954274,1.4319524837923563,0.5339511804934428,0.0,0.12828001115047807,0.1,0.0025734901428222656,0.050664424896240234,0.04988161,1.1777792,0.7703582514633086,0.0,0.02069714084213591,0.0,200,0.028455734252929688,0.2168089908057691,0.2390253970587658,27400,0.6865934686709884,0.0
137,1.5898900032043457,0.765278616488388,0.4699945109026429,1.362950483451862,0.20251359812731265,0.0,0.1250511787184603,0.1,0.0026443004608154297,0.05206298828125,0.050119635,1.1641433,0.7698502879658166,0.0,0.015118844373420775,0.0,200,0.029121875762939453,0.28135421550263445,0.2804544893261902,27600,0.8038298062175534,0.0
138,1.7268669605255127,1.3063766848134257,0.1510368701521939,1.518717968751539,1.0929398994798696,0.0,0.1326775764978095,0.1,0.0027632713317871094,0.05788445472717285,0.04954948,0.8922331,0.8235029276505775,0.0,0.025880601881709483,0.0,200,0.020508766174316406,0.24548443766860714,0.20077847194522977,27800,1.057762163223402,0.0
139,1.645362138748169,0.928834607642272,0.47902734073522335,1.7465995480408574,0.5247008240836455,0.0,0.13288514689651618,0.1,0.005024909973144531,0.05835247039794922,0.04943247,1.75288,0.834036095649747,0.0,0.018150790343770058,0.0,200,0.021889209747314453,0.28965261184327606,0.268925093745791,28000,0.9586055920027445,0.0
140,1.6438169479370117,1.1088102512713287,0.5461420544087666,1.7565642932544514,0.2452255125810221,0.0,0.1316581953208415,0.1,0.0032274723052978516,0.06705236434936523,0.04993681,1.0226872,0.8615135112119052,0.0,0.022070965396989647,0.0,200,0.046975135803222656,0.27976673470123786,0.2568934129735344,28200,0.257199607138897,0.0
141,1.7354867458343506,0.4805198878107582,0.1815870886628988,0.7465431962389135,0.27981437394350145,0.0,0.12874928831388813,0.1,0.0026702880859375,0.054305315017700195,0.050124932,0.9661197,0.8234141488717905,0.0,0.009606100083018378,0.0,200,0.10291242599487305,1.3374455900289974,1.1835783323364848,28400,0.3312917072414932,0.0
142,1.696117639541626,0.6851156389245575,0.19266931772249032,1.0046813744275183,0.498692242319767,0.0,0.1323722144340405,0.1,0.002762317657470703,0.05126786231994629,0.049944896,0.84779584,0.8095842978770672,0.0,0.013650395709850298,0.0,200,0.04750514030456543,0.2858439838629673,0.15289374454795207,28600,0.24932411531287654,0.0
143,1.6240699291229248,1.1025920016025232,0.6445991624527,1.9228050421958733,0.17215098179432964,0.0,0.13134260394791308,0.1,0.0030090808868408203,0.05255556106567383,0.04988732,0.9010414,0.8388850682496128,0.0,0.0220401007446186,0.0,200,0.03299760818481445,0.30156964427803923,0.32025405396910495,28800,0.13993791445655138,0.0
144,1.5877139568328857,0.6718032780788417,0.22721002398079435,0.9633535190377958,0.36778517842974107,0.0,0.13093793054247418,0.1,0.0028510093688964844,0.051854610443115234,0.049804818,1.1794721,0.8221768892325357,0.0,0.013363901277867525,0.0,200,0.029506683349609375,0.16939559224109252,0.1513419034946481,29000,0.329451057897095,0.0
145,1.6553337574005127,0.6006341004852104,0.33682887648328014,1.126531427982842,0.19849395726810334,0.0,0.12994695752047639,0.1,0.005538463592529297,0.051645517349243164,0.049576934,1.4119787,0.8000226103578032,0.0,0.01200456658388354,0.0,200,0.030688762664794922,0.34748510586069065,0.31898357162819546,29200,0.4455702728703584,0.0
146,1.6099908351898193,0.7794263990391952,0.3270283700790735,1.0750690947235957,0.23643160694078622,0.0,0.12823533241283394,0.1,0.002938508987426758,0.06703972816467285,0.05030388,1.074154,0.7979629892259423,0.0,0.015493163956497325,0.0,200,0.025966644287109375,0.20076821384189902,0.20099452026328846,29400,0.46411861322100584,0.0
147,1.628248691558838,0.40386357612838325,0.42723111202244224,1.1284335143647937,0.025528024691362772,0.0,0.12253657012303093,0.1,0.0027697086334228516,0.06458187103271484,0.049708907,1.4811258,0.7585530479161865,0.0,0.008059542794631636,0.0,200,0.03951430320739746,0.9796054649014505,0.8482653540139733,29600,0.29685634538940875,0.0
148,1.6859397888183594,0.513629001397113,0.23409821560947755,0.8318794683875422,0.2580531642147687,0.0,0.12948354912279472,0.1,0.002778291702270508,0.05732464790344238,0.050088786,0.84089905,0.7340606432642792,0.0,0.010218276713364848,0.0,200,0.016019105911254883,0.24244775337269536,0.21133336954447074,29800,0.4225471461335724,0.0
149,1.6032955646514893,0.9739454677799491,0.11178483000999981,1.1242984318045162,0.8374959286225219,0.0,0.1381136159321237,0.1,0.0026214122772216797,0.05193328857421875,0.04993696,1.1124665,0.7580491257158462,0.0,0.01941316533565022,0.0,200,0.02335047721862793,0.21563547467609673,0.22189924496648988,30000,0.5545020854475229,0.0
150,1.7277464866638184,1.399398958020683,0.25680849710985076,1.8170625484243825,1.1434501555875534,0.0,0.1262744603387757,0.1,0.002751588821411133,0.05276751518249512,0.05034696,1.2750735,0.8221841089463299,0.0,0.02770924944723335,0.0,200,0.030939817428588867,0.4371015909750867,0.3728372598004471,30200,0.27657545057471056,0.0
151,1.6355061531066895,1.4931551453866023,0.5344460783670836,2.1398032943978587,0.8749722620105489,0.0,0.12341509020509105,0.1,0.0027060508728027344,0.05339670181274414,0.049886238,1.702023,0.8892812125903571,0.0,0.029742083653619595,0.0,200,0.02895832061767578,0.4152075346896015,0.3176926923729911,30400,0.15415696372641235,0.0
152,1.662428379058838,1.4711317906106562,0.3961899256871008,1.9211688103541351,0.9054790729046801,0.0,0.12587766163317698,0.1,0.002769947052001953,0.053964853286743164,0.049672876,1.1583676,0.9474662703923871,0.0,0.029175004037390026,0.0,200,0.02541184425354004,0.2726163890498317,0.15821755478489835,30600,0.3470797686184724,0.0
153,1.7405433654785156,0.7774777589779425,0.6711591579094648,1.903432292532564,0.21956729292953497,0.0,0.12489639730502398,0.1,0.002632617950439453,0.05151486396789551,0.05060637,2.3267746,0.9304674192509427,0.0,0.015353348077387318,0.0,200,0.03548884391784668,0.5336979573553646,0.6380489860519745,30800,0.4287210697724663,0.0
154,1.6926779747009277,0.6310566780171969,0.5263885935655672,1.5189424992869516,0.1426440366759117,0.0,0.12680734362042406,0.1,0.002700328826904297,0.054558515548706055,0.049518775,1.3255213,0.9005263451275681,0.0,0.012598486044887705,0.0,200,0.028597116470336914,1.1557559892367186,0.8909997185579293,31000,0.40847057735941944,0.0
155,1.7467844486236572,0.8047849069281567,0.5134450679267515,1.5776728469591539,0.13368093347114693,0.0,0.12183343269978049,0.1,0.0026106834411621094,0.05803704261779785,0.049539875,2.0715983,0.890952201307627,0.0,0.015881357763737787,0.0,200,0.01907658576965332,0.4133263842523535,0.30612977427365534,31200,0.6993438321955686,0.0
156,1.7112362384796143,0.8495939705969106,0.3633095481943528,1.435867752680548,0.49549726451508724,0.0,0.12336490314245491,0.1,0.0034723281860351562,0.05168962478637695,0.049503665,1.9751805,0.8868163782365553,0.0,0.01695364166175959,0.0,200,0.017465829849243164,0.1826006491527219,0.17820365656634315,31400,1.5512531797206588,0.0
157,1.6600990295410156,0.6347364957131365,0.5415089922306551,1.5363291097083025,0.09146988937302769,0.0,0.12756054850134588,0.1,0.0026216506958007812,0.05079364776611328,0.04984018,1.6989464,0.8616083899842134,0.0,0.01262581062925619,0.0,200,0.02167654037475586,0.4952670567516594,0.4537664211779685,31600,0.6570316792247679,0.0
158,1.6179051399230957,1.1423497916059935,0.6593300836424356,2.0487422886034525,0.3711449034975019,0.0,0.12257772047735004,0.1,0.0029511451721191406,0.05529046058654785,0.049266525,1.9629581,0.8896825301463914,0.0,0.02270031350231824,0.0,200,0.061017751693725586,0.3654766516616294,0.3710229989075791,31800,0.6410668965712636,0.0
159,1.648428201675415,1.2646992688282355,0.6347459677941673,2.0029944904445305,0.25283747044936805,0.0,0.12684149510228196,0.1,0.0027434825897216797,0.05112814903259277,0.050599426,1.2619233,0.9271842040145758,0.0,0.025122346503847526,0.0,200,0.04121041297912598,0.41400065175715745,0.38921550430606516,32000,0.9083980738672711,0.0
160,1.592583417892456,1.5835850777351932,0.6200480111626127,2.230535618433493,0.6371318879138524,0.0,0.12507913412517294,0.1,0.002761363983154297,0.05075263977050781,0.05021285,1.3159208,0.9928242913866375,0.0,0.03149420022279541,0.0,200,0.06419730186462402,0.4100147445388921,0.33086112065633533,32200,1.7644943002953861,0.0
161,1.696916103363037,1.5787830347190996,0.8133466737402228,2.841531047492661,0.5735980430219206,0.0,0.1306166491105468,0.1,0.0027778148651123047,0.0501556396484375,0.049823772,1.544402,1.0514201657198838,0.0,0.03107663114445385,0.0,200,0.024110794067382812,0.39116532722182257,0.29694182700122185,32400,0.8341855489005355,0.0
162,1.6923983097076416,0.7376599548267144,0.5582141112697383,1.6479865988361526,0.25676545629598263,0.0,0.12008974305898869,0.1,0.002749204635620117,0.05131936073303223,0.050153323,1.8560617,1.0200441446305668,0.0,0.014642958230672073,0.0,200,0.05869007110595703,0.5264588136107248,0.693556876243131,32600,2.9053555001427696,0.0
163,1.7757680416107178,1.0148060457792731,0.8438618324881413,2.1491068829686317,0.03172217063496138,0.0,0.13438509993317874,0.1,0.0026178359985351562,0.07354164123535156,0.050178412,0.822991,1.0195203347454376,0.0,0.02011740415398103,0.0,200,0.03226470947265625,0.47473271292341845,0.46263143625458075,32800,2.6528355159835075,0.0
164,1.6737852096557617,0.7183683524622597,0.27192674710358444,1.058721567514477,0.29881758820688675,0.0,0.1283878910999624,0.1,0.002813577651977539,0.05396270751953125,0.050014615,0.7161057,0.9894051365171198,0.0,0.014276987643517779,0.0,200,0.027370691299438477,0.6625981937825466,0.4240165605217534,33000,1.3313106705549593,0.0
165,1.7248740196228027,0.929088376479182,0.8703814920841082,2.4246246564262712,0.25259370198603265,0.0,0.12252113188124313,0.1,0.0051801204681396484,0.06224346160888672,0.04960367,1.7311667,0.9833734605133261,0.0,0.018389524769339267,0.0,200,0.0658562183380127,0.5036228344374855,0.4898837181027051,33200,4.162463760832443,0.0
166,1.696380853652954,0.9150674067227882,0.46819685187973653,1.6903481616337095,0.44017082623307074,0.0,0.12037890608502827,0.1,0.0027964115142822266,0.07396149635314941,0.04931099,1.9524266,0.9765428551342723,0.0,0.018236804815351802,0.0,200,0.03104567527770996,0.23163534286960905,0.2220677156802643,33400,0.6078171207270274,0.0
167,1.6642086505889893,0.6162851322421943,0.41076590256015033,1.180031601190583,0.12690891424179876,0.0,0.12648619941021264,0.1,0.002706289291381836,0.05742835998535156,0.049888656,0.94062227,0.9405170828450645,0.0,0.012268009497204167,0.0,200,0.0357508659362793,0.431543784009764,0.365553003880003,33600,3.4131025830081474,0.0
168,1.6821491718292236,0.9292116879908208,0.48835620155262754,1.4742211566389805,0.36085628414273535,0.0,0.12955389999037686,0.1,0.0026955604553222656,0.05103588104248047,0.049945757,0.93543464,0.9393865433596401,0.0,0.018420669961047614,0.0,200,0.08076190948486328,0.28067939012771104,0.2938343162805483,33800,3.007535900679837,0.0
169,1.714564323425293,0.812666596019668,0.6085657221542604,1.8139654460353285,0.1728559400977031,0.0,0.12522015257859473,0.1,0.002644062042236328,0.04885292053222656,0.05020971,1.5968515,0.9267145486256428,0.0,0.016206993361879245,0.0,200,0.02791452407836914,0.3897242475741559,0.390276560098816,34000,3.5497912452716567,0.0
170,1.7335550785064697,0.626281467881954,0.3699558543353771,1.107743300393452,0.07943272122338392,0.0,0.12636190101459938,0.1,0.0025908946990966797,0.04945874214172363,0.05033485,0.9160269,0.896671240551274,0.0,0.012414971743206823,0.0,200,0.01431727409362793,0.3334677662255702,0.32669091940280726,34200,3.1703527523532933,0.0
171,1.7918481826782227,1.1666480004656175,0.6063460075173869,1.9431489000181053,0.25382725286615987,0.0,0.12120329817371424,0.1,0.0025234222412109375,0.05050015449523926,0.049464226,1.0660268,0.9236689165427084,0.0,0.023012139445381812,0.0,200,0.09282827377319336,0.36883490931743745,0.35362876466766263,34400,3.111927312228999,0.0
