Iter | Sampling Pol | Evaluation Pol | Best (Sampled) 
   0 -304.64 -294.36 -100000000.00 
   1 -319.11 -287.51 -304.64 
   2 -312.88 -289.12 -304.64 
   3 -324.07 -282.41 -304.64 
   4 -310.71 -283.01 -304.64 
   5 -319.03 -281.27 -304.64 
   6 -320.46 -257.66 -304.64 
   7 -331.72 -265.44 -304.64 
   8 -301.89 -270.25 -304.64 
   9 -306.01 -273.43 -301.89 
  10 -306.22 -276.43 -301.89 
  11 -320.35 -278.08 -301.89 
  12 -296.35 -270.84 -301.89 
  13 -319.64 -269.24 -296.35 
  14 -301.56 -271.06 -296.35 
  15 -313.39 -271.92 -296.35 
  16 -307.50 -272.13 -296.35 
  17 -310.93 -268.42 -296.35 
  18 -307.77 -269.49 -296.35 
  19 -298.06 -265.76 -296.35 
  20 -302.88 -266.75 -296.35 
  21 -299.31 -268.95 -296.35 
  22 -322.18 -264.06 -296.35 
  23 -306.24 -268.90 -296.35 
  24 -310.06 -263.53 -296.35 
  25 -317.11 -271.52 -296.35 
  26 -307.51 -274.92 -296.35 
  27 -294.84 -285.02 -296.35 
  28 -311.74 -280.18 -294.84 
  29 -296.65 -279.41 -294.84 
  30 -295.85 -285.46 -294.84 
  31 -308.66 -287.21 -294.84 
  32 -304.83 -292.13 -294.84 
  33 -304.97 -297.68 -294.84 
  34 -298.46 -300.31 -294.84 
  35 -306.76 -302.67 -294.84 
  36 -315.95 -302.91 -294.84 
  37 -316.68 -297.80 -294.84 
  38 -308.10 -296.79 -294.84 
  39 -315.94 -298.88 -294.84 
  40 -306.94 -297.88 -294.84 
  41 -307.07 -286.45 -294.84 
  42 -321.78 -289.74 -294.84 
  43 -299.23 -278.99 -294.84 
  44 -312.22 -284.89 -294.84 
  45 -303.07 -288.24 -294.84 
  46 -313.39 -290.55 -294.84 
  47 -308.15 -288.52 -294.84 
  48 -298.45 -284.72 -294.84 
  49 -309.20 -272.30 -294.84 
  50 -307.35 -280.07 -294.84 
  51 -300.53 -291.76 -294.84 
  52 -306.55 -292.43 -294.84 
  53 -299.00 -276.24 -294.84 
  54 -292.97 -278.65 -294.84 
  55 -287.14 -278.94 -292.97 
  56 -312.05 -277.07 -287.14 
  57 -301.07 -279.34 -287.14 
  58 -309.41 -288.47 -287.14 
  59 -305.31 -289.25 -287.14 
  60 -306.38 -286.92 -287.14 
  61 -289.13 -291.74 -287.14 
  62 -296.71 -303.64 -287.14 
  63 -296.15 -289.78 -287.14 
  64 -308.14 -288.15 -287.14 
  65 -297.93 -290.80 -287.14 
  66 -305.04 -290.08 -287.14 
  67 -288.60 -298.40 -287.14 
  68 -298.74 -301.90 -287.14 
  69 -301.41 -299.48 -287.14 
  70 -305.96 -272.92 -287.14 
  71 -295.29 -279.30 -287.14 
  72 -300.48 -274.95 -287.14 
  73 -309.22 -280.30 -287.14 
  74 -312.83 -289.35 -287.14 
  75 -288.71 -280.31 -287.14 
  76 -296.28 -278.92 -287.14 
  77 -295.69 -264.91 -287.14 
  78 -313.31 -280.07 -287.14 
  79 -308.67 -273.23 -287.14 
  80 -277.47 -286.81 -287.14 
  81 -296.92 -293.29 -277.47 
  82 -294.54 -266.19 -277.47 
  83 -296.39 -277.09 -277.47 
  84 -302.53 -266.18 -277.47 
  85 -309.28 -276.38 -277.47 
  86 -299.46 -252.15 -277.47 
  87 -288.31 -255.48 -277.47 
  88 -289.85 -269.48 -277.47 
  89 -300.73 -249.25 -277.47 
  90 -295.13 -248.48 -277.47 
  91 -281.99 -250.31 -277.47 
  92 -280.66 -250.25 -277.47 
  93 -287.07 -287.99 -277.47 
  94 -276.50 -284.69 -277.47 
  95 -274.67 -282.86 -276.50 
  96 -275.92 -275.46 -274.67 
  97 -280.48 -283.42 -274.67 
  98 -289.42 -277.10 -274.67 
  99 -288.46 -279.47 -274.67 
 100 -278.52 -272.98 -274.67 
 101 -272.45 -245.45 -274.67 
 102 -276.23 -254.04 -272.45 
 103 -282.66 -249.78 -272.45 
 104 -294.23 -245.10 -272.45 
 105 -293.98 -245.28 -272.45 
 106 -299.60 -236.94 -272.45 
 107 -265.38 -246.65 -272.45 
 108 -273.49 -244.84 -265.38 
 109 -291.97 -243.09 -265.38 
 110 -275.30 -254.14 -265.38 
 111 -275.74 -258.05 -265.38 
 112 -265.94 -265.31 -265.38 
 113 -276.71 -263.98 -265.38 
 114 -274.93 -265.40 -265.38 
 115 -301.51 -259.72 -265.38 
 116 -269.47 -270.55 -265.38 
 117 -293.84 -268.45 -265.38 
 118 -265.55 -259.50 -265.38 
 119 -285.13 -257.07 -265.38 
 120 -279.32 -256.05 -265.38 
 121 -273.28 -264.89 -265.38 
 122 -285.93 -269.20 -265.38 
 123 -277.29 -271.73 -265.38 
 124 -274.89 -269.99 -265.38 
 125 -281.05 -267.58 -265.38 
 126 -277.48 -267.49 -265.38 
 127 -277.16 -267.74 -265.38 
 128 -277.97 -270.55 -265.38 
 129 -272.04 -267.42 -265.38 
 130 -280.88 -258.14 -265.38 
 131 -280.16 -260.19 -265.38 
 132 -280.51 -258.89 -265.38 
 133 -277.23 -260.02 -265.38 
 134 -281.76 -261.84 -265.38 
 135 -268.83 -261.79 -265.38 
 136 -272.88 -274.71 -265.38 
 137 -274.17 -278.14 -265.38 
 138 -272.67 -277.17 -265.38 
 139 -280.57 -265.39 -265.38 
 140 -279.22 -266.83 -265.38 
 141 -274.24 -268.11 -265.38 
 142 -271.76 -276.06 -265.38 
 143 -274.84 -268.60 -265.38 
 144 -269.21 -269.31 -265.38 
 145 -265.83 -279.46 -265.38 
 146 -277.33 -279.59 -265.38 
 147 -282.00 -279.63 -265.38 
 148 -278.32 -280.36 -265.38 
 149 -282.99 -282.80 -265.38 
 150 -291.20 -276.11 -265.38 
 151 -282.65 -266.76 -265.38 
 152 -288.35 -270.54 -265.38 
 153 -273.97 -278.76 -265.38 
 154 -284.15 -274.54 -265.38 
 155 -269.90 -271.01 -265.38 
 156 -286.93 -270.03 -265.38 
 157 -278.26 -268.94 -265.38 
 158 -281.78 -269.51 -265.38 
 159 -280.53 -270.37 -265.38 
 160 -277.96 -279.42 -265.38 
 161 -270.77 -291.38 -265.38 
 162 -280.45 -302.95 -265.38 
 163 -287.81 -301.59 -265.38 
 164 -285.62 -305.62 -265.38 
 165 -284.59 -285.73 -265.38 
 166 -292.05 -287.30 -265.38 
 167 -286.96 -285.04 -265.38 
 168 -292.66 -279.93 -265.38 
 169 -282.91 -287.23 -265.38 
 170 -272.04 -279.24 -265.38 
 171 -276.34 -277.06 -265.38 
 172 -283.14 -282.04 -265.38 
 173 -288.12 -283.56 -265.38 
 174 -298.22 -285.18 -265.38 
 175 -284.36 -282.67 -265.38 
 176 -282.93 -282.45 -265.38 
 177 -287.82 -287.85 -265.38 
 178 -287.78 -292.35 -265.38 
 179 -293.88 -293.90 -265.38 
 180 -292.39 -290.22 -265.38 
 181 -288.30 -284.81 -265.38 
 182 -291.33 -298.46 -265.38 
 183 -297.01 -298.16 -265.38 
 184 -284.79 -299.21 -265.38 
 185 -297.79 -298.99 -265.38 
 186 -298.67 -298.98 -265.38 
 187 -284.21 -295.40 -265.38 
 188 -285.04 -301.93 -265.38 
 189 -294.83 -301.77 -265.38 
 190 -283.46 -299.02 -265.38 
 191 -286.46 -297.68 -265.38 
 192 -288.66 -301.39 -265.38 
 193 -297.56 -299.58 -265.38 
 194 -292.64 -303.46 -265.38 
 195 -293.87 -312.15 -265.38 
 196 -309.45 -311.12 -265.38 
 197 -291.38 -313.70 -265.38 
 198 -285.96 -309.76 -265.38 
 199 -295.27 -312.20 -265.38 
 200 -291.23 -317.56 -265.38 
 201 -298.07 -312.48 -265.38 
 202 -300.23 -308.65 -265.38 
 203 -294.26 -306.60 -265.38 
 204 -315.86 -309.77 -265.38 
 205 -301.06 -302.45 -265.38 
 206 -296.50 -297.89 -265.38 
 207 -305.42 -302.09 -265.38 
 208 -295.83 -298.55 -265.38 
 209 -299.57 -317.85 -265.38 
 210 -302.15 -318.69 -265.38 
 211 -293.77 -308.09 -265.38 
 212 -305.36 -313.85 -265.38 
 213 -300.33 -300.84 -265.38 
 214 -300.61 -309.91 -265.38 
 215 -292.20 -307.77 -265.38 
 216 -306.45 -310.83 -265.38 
 217 -296.89 -310.44 -265.38 
 218 -295.64 -310.13 -265.38 
 219 -295.32 -298.50 -265.38 
 220 -300.00 -304.18 -265.38 
 221 -293.33 -297.31 -265.38 
 222 -294.94 -304.51 -265.38 
 223 -303.57 -307.27 -265.38 
 224 -296.81 -311.64 -265.38 
 225 -305.04 -311.02 -265.38 
 226 -305.22 -306.41 -265.38 
 227 -302.38 -304.74 -265.38 
 228 -306.32 -307.60 -265.38 
 229 -302.15 -311.78 -265.38 
 230 -297.49 -310.54 -265.38 
 231 -293.90 -310.19 -265.38 
 232 -304.74 -306.96 -265.38 
 233 -304.23 -302.79 -265.38 
 234 -297.68 -306.24 -265.38 
 235 -299.40 -307.88 -265.38 
 236 -303.81 -301.39 -265.38 
 237 -298.83 -298.17 -265.38 
 238 -293.03 -298.51 -265.38 
 239 -296.46 -301.03 -265.38 
 240 -306.13 -278.61 -265.38 
 241 -291.65 -283.09 -265.38 
 242 -298.33 -282.12 -265.38 
 243 -288.65 -281.93 -265.38 
 244 -285.42 -281.18 -265.38 
 245 -284.29 -277.70 -265.38 
 246 -288.43 -278.44 -265.38 
 247 -290.03 -275.72 -265.38 
 248 -291.71 -261.83 -265.38 
 249 -293.76 -277.99 -265.38 
 250 -292.60 -276.74 -265.38 
 251 -301.00 -264.30 -265.38 
 252 -291.07 -278.05 -265.38 
 253 -291.36 -277.87 -265.38 
 254 -283.24 -280.98 -265.38 
 255 -295.14 -283.26 -265.38 
 256 -289.55 -285.23 -265.38 
 257 -298.87 -286.03 -265.38 
 258 -296.53 -281.34 -265.38 
 259 -280.91 -266.13 -265.38 
 260 -305.36 -265.70 -265.38 
 261 -297.01 -266.98 -265.38 
 262 -293.88 -266.12 -265.38 
 263 -287.47 -261.00 -265.38 
 264 -296.39 -263.70 -265.38 
 265 -289.94 -267.76 -265.38 
 266 -304.86 -280.39 -265.38 
 267 -295.92 -281.52 -265.38 
 268 -304.94 -279.63 -265.38 
 269 -293.73 -278.61 -265.38 
 270 -305.83 -273.76 -265.38 
 271 -295.44 -269.43 -265.38 
 272 -299.65 -273.71 -265.38 
 273 -291.58 -278.31 -265.38 
 274 -291.36 -270.94 -265.38 
 275 -296.32 -271.08 -265.38 
 276 -290.60 -268.34 -265.38 
 277 -288.09 -268.18 -265.38 
 278 -286.93 -254.12 -265.38 
 279 -289.34 -259.00 -265.38 
 280 -281.02 -258.32 -265.38 
 281 -285.08 -256.60 -265.38 
 282 -281.12 -255.57 -265.38 
 283 -274.62 -252.60 -265.38 
 284 -275.32 -253.57 -265.38 
 285 -279.25 -248.88 -265.38 
 286 -272.87 -248.73 -265.38 
 287 -269.67 -247.74 -265.38 
 288 -276.59 -249.82 -265.38 
 289 -277.72 -248.46 -265.38 
 290 -279.05 -249.01 -265.38 
 291 -274.69 -247.41 -265.38 
 292 -272.68 -246.20 -265.38 
 293 -259.74 -247.81 -265.38 
 294 -268.50 -250.85 -259.74 
 295 -263.83 -252.44 -259.74 
 296 -259.45 -251.12 -259.74 
 297 -274.21 -248.08 -259.45 
 298 -256.79 -248.58 -259.45 
 299 -278.37 -250.51 -256.79 
 300 -261.98 -247.87 -256.79 
 301 -280.00 -246.64 -256.79 
 302 -264.57 -246.20 -256.79 
 303 -268.89 -244.54 -256.79 
 304 -262.67 -232.56 -256.79 
 305 -258.32 -231.25 -256.79 
 306 -257.97 -232.88 -256.79 
 307 -266.64 -235.19 -256.79 
 308 -279.08 -238.37 -256.79 
 309 -258.06 -239.01 -256.79 
 310 -259.07 -240.67 -256.79 
 311 -259.67 -241.35 -256.79 
 312 -251.00 -241.65 -256.79 
 313 -253.63 -241.02 -251.00 
 314 -232.63 -230.39 -251.00 
 315 -236.43 -230.72 -232.63 
 316 -249.18 -241.24 -232.63 
 317 -237.39 -233.04 -232.63 
 318 -256.17 -233.40 -232.63 
 319 -234.94 -242.35 -232.63 
 320 -231.85 -233.54 -232.63 
 321 -232.45 -242.84 -231.85 
 322 -237.06 -233.58 -231.85 
 323 -239.09 -235.31 -231.85 
 324 -239.23 -235.23 -231.85 
 325 -231.89 -234.42 -231.85 
 326 -234.16 -234.15 -231.85 
 327 -232.43 -236.42 -231.85 
 328 -233.55 -235.43 -231.85 
 329 -231.27 -237.31 -231.85 
 330 -239.73 -236.59 -231.27 
 331 -233.70 -237.23 -231.27 
 332 -234.42 -236.39 -231.27 
 333 -235.66 -234.69 -231.27 
 334 -221.76 -238.85 -231.27 
 335 -231.66 -233.71 -221.76 
 336 -227.97 -234.31 -221.76 
 337 -227.88 -236.29 -221.76 
 338 -224.01 -238.37 -221.76 
 339 -217.42 -236.89 -221.76 
 340 -218.85 -236.79 -217.42 
 341 -222.57 -233.70 -217.42 
 342 -224.91 -232.24 -217.42 
 343 -224.43 -231.42 -217.42 
 344 -226.80 -231.47 -217.42 
 345 -221.95 -232.85 -217.42 
 346 -225.60 -234.44 -217.42 
 347 -222.23 -244.35 -217.42 
 348 -220.07 -240.99 -217.42 
 349 -227.91 -227.75 -217.42 
 350 -228.50 -228.10 -217.42 
 351 -220.04 -233.22 -217.42 
 352 -229.38 -230.94 -217.42 
 353 -227.35 -232.44 -217.42 
 354 -223.96 -234.68 -217.42 
 355 -224.87 -233.96 -217.42 
 356 -216.92 -230.11 -217.42 
 357 -224.29 -228.90 -216.92 
 358 -218.16 -226.30 -216.92 
 359 -237.92 -222.67 -216.92 
 360 -233.20 -222.81 -216.92 
 361 -227.92 -227.54 -216.92 
 362 -221.95 -223.04 -216.92 
 363 -226.52 -223.84 -216.92 
 364 -228.43 -213.29 -216.92 
 365 -224.81 -214.64 -216.92 
 366 -219.57 -214.56 -216.92 
 367 -216.33 -215.67 -216.92 
 368 -219.68 -218.06 -216.33 
 369 -223.74 -215.69 -216.33 
 370 -215.40 -214.54 -216.33 
 371 -216.69 -217.22 -215.40 
 372 -217.89 -215.52 -215.40 
 373 -213.58 -218.46 -215.40 
 374 -216.72 -216.23 -213.58 
 375 -213.17 -213.93 -213.58 
 376 -225.46 -214.57 -213.17 
 377 -216.05 -218.34 -213.17 
 378 -214.51 -214.07 -213.17 
 379 -212.78 -215.55 -213.17 
 380 -206.97 -208.82 -212.78 
 381 -216.89 -211.84 -206.97 
 382 -208.49 -210.10 -206.97 
 383 -214.84 -207.06 -206.97 
 384 -210.60 -208.68 -206.97 
 385 -213.06 -205.21 -206.97 
 386 -202.13 -200.98 -206.97 
 387 -203.75 -198.65 -202.13 
 388 -213.80 -200.18 -202.13 
 389 -214.24 -200.84 -202.13 
 390 -210.36 -199.49 -202.13 
 391 -204.50 -195.49 -202.13 
 392 -200.69 -198.62 -202.13 
 393 -201.82 -198.36 -200.69 
 394 -204.97 -196.95 -200.69 
 395 -209.40 -195.40 -200.69 
 396 -211.02 -194.07 -200.69 
 397 -199.19 -190.66 -200.69 
 398 -199.24 -191.51 -199.19 
 399 -201.66 -192.04 -199.19 
 400 -197.82 -190.45 -199.19 
 401 -193.58 -189.66 -197.82 
 402 -201.48 -191.09 -193.58 
 403 -194.61 -192.80 -193.58 
 404 -201.01 -194.42 -193.58 
 405 -199.26 -195.11 -193.58 
 406 -196.27 -197.15 -193.58 
 407 -200.92 -197.23 -193.58 
 408 -194.58 -197.06 -193.58 
 409 -191.59 -197.36 -193.58 
 410 -199.04 -197.12 -191.59 
 411 -191.43 -196.15 -191.59 
 412 -192.56 -196.91 -191.43 
 413 -187.18 -196.89 -191.43 
 414 -188.45 -199.49 -187.18 
 415 -190.02 -200.86 -187.18 
 416 -187.93 -200.57 -187.18 
 417 -199.82 -200.59 -187.18 
 418 -184.69 -200.90 -187.18 
 419 -189.35 -200.65 -184.69 
 420 -197.29 -200.82 -184.69 
 421 -181.57 -200.16 -184.69 
 422 -195.04 -200.20 -181.57 
 423 -181.75 -199.85 -181.57 
 424 -193.33 -198.80 -181.57 
 425 -188.79 -198.92 -181.57 
 426 -185.88 -199.65 -181.57 
 427 -181.74 -197.37 -181.57 
 428 -184.96 -197.41 -181.57 
 429 -181.45 -197.61 -181.57 
 430 -187.45 -197.61 -181.45 
 431 -188.12 -198.28 -181.45 
 432 -183.17 -197.98 -181.45 
 433 -181.81 -199.10 -181.45 
 434 -183.51 -199.16 -181.45 
 435 -187.16 -198.60 -181.45 
 436 -179.55 -197.00 -181.45 
 437 -178.87 -196.76 -179.55 
 438 -179.29 -195.78 -178.87 
 439 -179.27 -195.91 -178.87 
 440 -180.90 -194.88 -178.87 
 441 -179.09 -196.00 -178.87 
 442 -181.52 -196.68 -178.87 
 443 -177.62 -195.86 -178.87 
 444 -178.94 -195.07 -177.62 
 445 -180.48 -196.16 -177.62 
 446 -179.12 -195.44 -177.62 
 447 -178.34 -196.11 -177.62 
 448 -177.59 -195.42 -177.62 
 449 -176.59 -195.33 -177.59 
 450 -179.72 -196.76 -176.59 
 451 -180.58 -197.23 -176.59 
 452 -176.81 -197.23 -176.59 
 453 -176.75 -196.76 -176.59 
 454 -177.45 -196.17 -176.59 
 455 -178.40 -195.48 -176.59 
 456 -178.36 -195.92 -176.59 
 457 -177.93 -195.53 -176.59 
 458 -179.43 -196.61 -176.59 
 459 -179.22 -197.28 -176.59 
 460 -177.12 -197.65 -176.59 
 461 -181.47 -198.53 -176.59 
 462 -185.13 -197.84 -176.59 
 463 -181.72 -198.86 -176.59 
 464 -178.20 -199.34 -176.59 
 465 -179.27 -199.15 -176.59 
 466 -180.46 -199.22 -176.59 
 467 -180.84 -199.09 -176.59 
 468 -183.72 -199.70 -176.59 
 469 -179.40 -199.10 -176.59 
 470 -177.57 -198.94 -176.59 
 471 -178.88 -199.23 -176.59 
 472 -181.95 -199.93 -176.59 
 473 -175.90 -199.54 -176.59 
 474 -177.70 -199.51 -175.90 
 475 -178.01 -199.50 -175.90 
 476 -177.78 -200.24 -175.90 
 477 -177.03 -199.87 -175.90 
 478 -178.39 -199.76 -175.90 
 479 -178.85 -199.57 -175.90 
 480 -179.62 -199.59 -175.90 
 481 -188.86 -199.19 -175.90 
 482 -176.55 -198.46 -175.90 
 483 -179.97 -197.91 -175.90 
 484 -177.46 -197.45 -175.90 
 485 -178.28 -196.60 -175.90 
 486 -177.36 -196.82 -175.90 
 487 -177.57 -196.21 -175.90 
 488 -179.02 -195.58 -175.90 
 489 -177.36 -194.43 -175.90 
 490 -182.87 -193.42 -175.90 
 491 -180.41 -193.51 -175.90 
 492 -182.89 -193.04 -175.90 
 493 -176.85 -192.95 -175.90 
 494 -179.43 -191.69 -175.90 
 495 -185.87 -193.07 -175.90 
 496 -177.76 -192.68 -175.90 
 497 -177.94 -191.12 -175.90 
 498 -176.93 -191.25 -175.90 
 499 -175.73 -190.62 -175.90 
