iteration,time_sampling,stoc_pol_mean,stoc_pol_std,stoc_pol_max,stoc_pol_min,rollout_success,alpha,delta,time_vpg,time_npg,kl_dist,surr_improvement,running_score,rwd_sparse,rwd_dense,success_percentage,num_samples,time_VF,VF_error_before,VF_error_after,env_samples,eval_score,eval_success
0,0.9230320453643799,3.5099278040066304,0.8716635131399814,4.029392047299199,2.000263025868283,0.0,0.09317674438718297,0.1,0.08465456962585449,0.7923712730407715,0.052890435,7.3967066,3.5099278040066304,0.0,0.06519243122337441,0.0,81,0.03617072105407715,0.9866631465013154,0.9866631465013154,81,4.342050044571628,0.0
1,0.8442306518554688,4.008513541104312,0.007992363496998204,4.0211647971271836,4.000348740642185,0.0,0.09298480940410547,0.1,0.0256044864654541,0.4435889720916748,0.05123811,3.964177,3.5597863777163985,0.0,0.07515997329966219,0.0,61,0.03598380088806152,0.9945052853886233,0.9945052853886233,142,3.9249845666548673,0.0
2,0.9181029796600342,3.257176094946844,1.3030940895290763,4.025300341585339,1.000213217947026,0.0,0.09177220461667061,0.1,0.02530646324157715,0.4398012161254883,0.049582157,4.381459,3.529525349439443,0.0,0.060141885221646055,0.0,56,0.03217124938964844,0.9911341385699737,0.9911341385699737,198,4.0064721274414765,0.0
3,0.9363794326782227,3.002091446972071,1.2250540677350528,4.004298686516345,1.002124471215005,0.0,0.0822342590407358,0.1,0.0014109611511230469,0.02150583267211914,0.049260825,2.605004,3.476781959192706,0.0,0.05003637702272638,0.0,36,0.035166263580322266,0.9966368819066674,0.9966368819066674,234,4.008050438873608,0.0
4,1.0369458198547363,3.255084756394072,0.8334157080630857,4.0107329082561005,2.0002634658663774,0.0,0.09432762983680085,0.1,0.022536277770996094,0.4439356327056885,0.051922042,2.4666374,3.4546122389128424,0.0,0.05508780613352059,0.0,51,0.030423879623413086,0.9896103145221833,0.9896103145221833,285,3.676375263683567,0.0
5,0.8873636722564697,2.258398613413958,1.9278421899093499,4.032795006535549,-0.9999408346423173,0.0,0.07637609284160674,0.1,0.0011298656463623047,0.020588397979736328,0.05011442,2.6542625,3.334990876362954,0.0,0.030136333803709094,0.0,28,0.05170464515686035,0.9998171605704268,0.9998171605704268,313,3.423130283240026,0.0
6,0.9592716693878174,3.002933624113066,1.733262686122837,4.008577113367189,0.000839300105682117,0.0,0.08492934048065211,0.1,0.022146224975585938,0.44187068939208984,0.049572647,7.6099515,3.3017851511379654,0.0,0.05505663567066765,0.0,48,0.035016775131225586,0.9908341464290362,0.9908341464290362,361,3.0078615812393927,0.0
7,0.9071722030639648,4.005417071535749,0.0037313034113488647,4.011052443865347,4.001043535937172,0.0,0.08816108038169126,0.1,0.02565288543701172,0.44776248931884766,0.050217725,3.604977,3.3721483431777437,0.0,0.07010604039540864,0.0,58,0.037652015686035156,0.9935943774769253,0.9935943774769253,419,3.3409018772095176,0.0
8,0.9445321559906006,3.5033569363226613,0.867759934617734,4.008765973468103,2.0003600924012277,0.0,0.09391059266318172,0.1,0.025547266006469727,0.44304633140563965,0.04931244,3.1833014,3.3852692024922355,0.0,0.06506489919219634,0.0,60,0.03785848617553711,0.9894031838827565,0.9894031838827565,479,3.9220027811163103,0.0
9,0.93361496925354,2.7531744317531373,1.301724813258742,4.007853168716905,1.000444847531303,0.0,0.07723837704320789,0.1,0.0013718605041503906,0.02026200294494629,0.049541984,6.5463505,3.3220597254183257,0.0,0.045054740859749386,0.0,44,0.030384540557861328,0.9916979210376374,0.9916979210376374,523,3.342439059590873,0.0
10,1.0529894828796387,2.5072826429443094,1.506788088841767,4.026419222883225,0.00013613560856073903,0.0,0.08685320299676647,0.1,0.025177001953125,0.4053769111633301,0.051833864,3.6999543,3.240582017170924,0.0,0.035140461281896136,0.0,49,0.03182506561279297,0.9859544416275526,0.9859544416275526,572,3.2545341229861613,0.0
11,0.9735417366027832,4.016585664226703,0.021987504022958244,4.054146239744059,4.000611411319363,0.0,0.0997513444230333,0.1,0.06403660774230957,0.7651667594909668,0.04904035,2.426449,3.318182381876502,0.0,0.08033136079908057,0.0,71,0.03214287757873535,0.9903887950907335,0.9903887950907335,643,3.5940423172962723,0.0
12,0.9099197387695312,3.5109757052885686,0.8722511765680259,4.030485505671614,2.000288339223597,0.0,0.0965552889821748,0.1,0.05117630958557129,0.7213642597198486,0.049118347,5.0854707,3.3374617142177088,0.0,0.06520070741791978,0.0,65,0.03269004821777344,0.9886521323061764,0.9886521323061764,708,3.5927244846192927,0.0
13,1.1757533550262451,4.007611893843038,0.010217673372397658,4.025288718863774,4.000923487713031,0.0,0.10248082262734505,0.1,0.0014379024505615234,0.02874159812927246,0.051442284,4.56176,3.404476732180242,0.0,0.0801465658619695,0.0,83,0.002089262008666992,0.9879467614576045,0.9879467614576045,791,4.1864907777462115,0.0
14,0.9726550579071045,3.7734670593222988,0.4469343638488069,4.067323193670698,3.0003235056497592,0.0,0.10180082287450207,0.1,0.059905052185058594,0.7700424194335938,0.04964823,3.0324905,3.4413757648944476,0.0,0.07033815729487673,0.0,88,0.03538179397583008,0.9863062496864682,0.9863062496864682,879,4.1794173698301265,0.0
15,1.0074448585510254,2.2539862169912572,2.0496547856582112,4.013611672817751,-0.9999340997779056,0.0,0.08548246708089376,0.1,0.0012407302856445312,0.02166295051574707,0.04882369,5.18067,3.322636810104129,0.0,0.03507750296706638,0.0,47,0.04790234565734863,0.9884855985117827,0.9884855985117827,926,4.013868582467951,0.0
16,1.0178275108337402,2.5059728378537436,1.5057647245875914,4.014871761084421,1.000179646817826,0.0,0.0811243149193033,0.1,0.02708578109741211,0.4453732967376709,0.04906359,19.771418,3.2409704128790904,0.0,0.04009680893541054,0.0,48,0.03283977508544922,0.9880066381795314,0.9880066381795314,974,2.84420987442716,0.0
17,1.03314208984375,3.514117502396715,0.8737866276369723,4.037965884997222,2.000814923658412,0.0,0.10675365374556917,0.1,0.061661720275878906,0.8157215118408203,0.048880234,3.2642074,3.2682851218308526,0.0,0.06526982474303575,0.0,86,0.03620505332946777,0.9840379302165478,0.9840379302165478,1060,3.76101389024601,0.0
18,0.9310741424560547,2.503025318149811,1.4987377206428985,4.003035784314339,1.00132588282343,0.0,0.07852941311735236,0.1,0.0014154911041259766,0.020995140075683594,0.05045551,3.7708821,3.1917591414627484,0.0,0.040056030600127045,0.0,28,0.0316462516784668,1.0008144632222002,1.0008144632222002,1088,3.840149227623149,0.0
19,0.8727414608001709,4.004013355026274,0.00259479971093862,4.008282677734983,4.001706244866959,0.0,0.09613844939755084,0.1,0.06137537956237793,0.7981796264648438,0.04913524,2.8107393,3.272984562819101,0.0,0.0800758901772377,0.0,65,0.03795456886291504,0.9893061051553084,0.9893061051553084,1153,3.509782035513135,0.0
20,1.0224802494049072,2.5056172757395254,1.6632231214199686,4.019091417460767,0.00013241260184870818,0.0,0.0869981147378379,0.1,0.02236485481262207,0.4403197765350342,0.05216251,37.5458,3.1962478341111438,0.0,0.04011120708258192,0.0,60,0.030726194381713867,0.9848106977624747,0.9848106977624747,1213,3.5950902702576655,0.0
21,0.9566681385040283,2.254424746305176,2.0473610837092253,4.004317627170059,-0.9999337297012816,0.0,0.08288733940211997,0.1,0.0014400482177734375,0.02258157730102539,0.050753742,1.8719515,3.102065525330547,0.0,0.03508541827776223,0.0,34,0.059911251068115234,0.9926190548994827,0.9926190548994827,1247,3.264279817671864,0.0
22,0.9914591312408447,1.2611925830606452,1.657886343958235,4.044306416514923,0.00012613807296690815,0.0,0.07574342829148355,0.1,0.0011873245239257812,0.020017385482788086,0.04901121,11.050803,2.917978231103557,0.0,0.010188575618289196,0.0,28,0.034946441650390625,0.9845839235304628,0.9845839235304628,1275,3.51712740320214,0.0
23,1.0223524570465088,2.751957089529604,1.3004034266156075,4.004413385888187,1.0002123158784706,0.0,0.0875280751310606,0.1,0.027420520782470703,0.4430241584777832,0.050670575,4.2722383,2.9013761169461616,0.0,0.04503695803521801,0.0,49,0.03664803504943848,0.9889304922476161,0.9889304922476161,1324,3.5126371744012865,0.0
24,1.0416991710662842,2.7546822009736465,2.1677322407493214,4.012366703143236,-0.9999330162154694,0.0,0.09159403775713403,0.1,0.04647564888000488,0.43509483337402344,0.048127793,2.639981,2.8867067253489105,0.0,0.045091154276031914,0.0,51,0.03215336799621582,0.9921381176745094,0.9921381176745094,1375,3.265797323636528,0.0
25,0.9361987113952637,3.504807752167059,0.8685893613176209,4.013964062017228,2.0003900269251496,0.0,0.09478469149421458,0.1,0.0014069080352783203,0.021394014358520508,0.050469026,2.074572,2.9485168280307255,0.0,0.06508762817025984,0.0,45,0.0349581241607666,0.9938241516279229,0.9938241516279229,1420,3.591391321543968,0.0
26,0.9396350383758545,3.7578347517957837,0.4342557963943906,4.020553958370526,3.005792282811928,0.0,0.10447750932857737,0.1,0.03006577491760254,0.43828749656677246,0.05049672,1.6420178,3.0294486204072317,0.0,0.07015342887681435,0.0,62,0.03291773796081543,0.9915302539912008,0.9915302539912008,1482,4.023198216181307,0.0
27,0.9519901275634766,3.0041260877656093,1.7343576843050645,4.0099837418205375,0.00013577622566107728,0.0,0.09888777230294345,0.1,0.032239675521850586,0.4478263854980469,0.0513142,3.012684,3.0269163671430697,0.0,0.055081622645453514,0.0,61,0.030843496322631836,0.986899168498395,0.986899168498395,1543,3.2635042171424953,0.0
28,0.9122734069824219,3.502567839171243,0.8672763350402497,4.005313047669231,2.000404150323842,0.0,0.08485998271706792,0.1,0.001323699951171875,0.02215743064880371,0.050178483,2.466391,3.0744815143458872,0.0,0.06504399834621405,0.0,44,0.03967785835266113,0.9950785406949508,0.9950785406949508,1587,4.018446026499465,0.0
29,1.0367789268493652,4.0145916159222725,0.009436624219194986,4.028696890716699,4.002313587793564,0.0,0.12011761195148021,0.1,0.05720186233520508,0.8059120178222656,0.050815195,2.3836346,3.1684925245035256,0.0,0.08027694751215379,0.0,114,0.05743908882141113,0.9832208782018855,0.9832208782018855,1701,3.516354033985108,0.0
30,1.0820093154907227,4.061483564410542,1.429999616876222,6.038907535912092,2.0002046629996526,0.0,0.1076278967243971,0.1,0.060910701751708984,0.798189640045166,0.048887864,10.761577,3.2577916284942274,0.0,0.06618146903852,0.0,110,0.061750173568725586,0.9951684101970497,0.9951684101970497,1811,4.014744150630105,0.0
31,0.9584877490997314,4.00858830003303,0.007947919757136138,4.0217427703462825,4.001203204798339,0.0,0.09889645601459497,0.1,0.026286602020263672,0.44226717948913574,0.049654465,2.8685148,3.3328712956481077,0.0,0.07515373233729934,0.0,62,0.02807784080505371,0.9912054985978828,0.9912054985978828,1873,3.597461352020497,0.0
32,0.9414393901824951,4.00343326909632,0.002060025584889604,4.005991416958001,4.00123741331736,0.0,0.09708317133070853,0.1,0.025954723358154297,0.42526865005493164,0.050706465,3.5500271,3.399927492992929,0.0,0.08006197118302014,0.0,57,0.03192877769470215,0.9923170401216136,0.9923170401216136,1930,4.350669872205365,0.0
33,0.9756357669830322,3.2541607684749683,1.3012586637435608,4.006862413365704,1.0003162100497505,0.0,0.09770033471674185,0.1,0.001190185546875,0.020378828048706055,0.050742056,2.5593133,3.385350820541133,0.0,0.060079260098711285,0.0,47,0.030321121215820312,0.9917860226875901,0.9917860226875901,1977,3.931330316568676,0.0
34,1.0879898071289062,4.040327871439182,1.4636381250321373,6.139460136332844,2.0005258985659307,0.0,0.10051480293975673,0.1,0.06410908699035645,0.7315878868103027,0.0489034,4.2290072,3.4508485256309385,0.0,0.06578224975551439,0.0,95,0.03206944465637207,0.9994687061538562,0.9994687061538562,2072,4.096449316648094,0.0
35,1.1406209468841553,2.284590029691964,2.076380045684049,4.1347425581886315,-0.9999313209271115,0.0,0.08474086200817661,0.1,0.0352632999420166,0.44632601737976074,0.04861481,7.079396,3.334222676037041,0.0,0.030670354364354464,0.0,51,0.03161883354187012,0.9863582380907641,0.9863582380907641,2123,3.7592043417715466,0.0
36,0.9264311790466309,3.2520571309937125,1.3000811978692848,4.004764639171873,1.0002518007843852,0.0,0.08623254972591335,0.1,0.0014233589172363281,0.020743370056152344,0.05006756,2.22282,3.326006121532708,0.0,0.06004022874092643,0.0,37,0.03518795967102051,0.9979430860509156,0.9979430860509156,2160,4.179786114330771,0.0
37,0.9853122234344482,3.7564289104967807,0.43644089112295975,4.015337064321318,3.0005369271904914,0.0,0.09327655228274351,0.1,0.02178049087524414,0.4455687999725342,0.04872788,2.5344777,3.3690484004291155,0.0,0.07011491560903096,0.0,55,0.03504371643066406,0.9925711647485846,0.9925711647485846,2215,4.013725850336983,0.0
38,1.0592119693756104,4.015394517530441,0.01078943681253615,4.029925961254656,4.004222858571487,0.0,0.10970971480461573,0.1,0.059635162353515625,0.792539119720459,0.050082386,4.1802697,3.433683012139248,0.0,0.08027748438704684,0.0,83,0.03575706481933594,0.9859299339907364,0.9859299339907364,2298,3.595183846993414,0.0
39,1.133169412612915,4.544616523304486,0.8872531694866418,6.080117544384619,4.002673115648943,0.0,0.11190287174700014,0.1,0.06128883361816406,0.7865402698516846,0.04894212,3.2457519,3.544776363255772,0.0,0.08087574955460866,0.0,123,0.06328248977661133,0.9942221133030552,0.9942221133030552,2421,3.7621681060153236,0.0
40,1.1653711795806885,3.768233329322588,0.44396925098939755,4.067343330303325,3.000626810774604,0.0,0.10589569124058784,0.1,0.06032705307006836,0.7957596778869629,0.049364503,3.1298811,3.567122059862453,0.0,0.07032215245031725,0.0,79,0.0358586311340332,0.9865199209594484,0.9865199209594484,2500,3.5909750661832303,0.0
41,0.9761805534362793,4.0062419029809515,0.008143722778450923,4.020330201873836,4.000983406003096,0.0,0.0974560646415664,0.1,0.022669553756713867,0.44772863388061523,0.04974623,2.484294,3.611034044174303,0.0,0.08011907325886493,0.0,61,0.03114938735961914,0.9910095648199564,0.9910095648199564,2561,3.7549948606674035,0.0
42,0.9703969955444336,3.509096191990274,0.8711712462187002,4.022437220950132,2.000239738756406,0.0,0.10371808052948317,0.1,0.030137062072753906,0.44051337242126465,0.049392495,1.9221265,3.6008402589559,0.0,0.06516728603260129,0.0,61,0.03566384315490723,0.9896843608943904,0.9896843608943904,2622,3.6799386542912145,0.0
43,1.0185728073120117,3.7673942180419644,0.4433843162915231,4.058905711492443,3.0003897316165506,0.0,0.10616721056606997,0.1,0.06359553337097168,0.7953970432281494,0.048678327,2.1345527,3.617495654864507,0.0,0.0703407130484705,0.0,66,0.03795957565307617,0.9896826324001752,0.9896826324001752,2688,3.925697475083625,0.0
44,0.991107702255249,4.009056895600245,0.01034140240388511,4.026633670909584,4.001226026312763,0.0,0.09411084982302885,0.1,0.026147127151489258,0.4403204917907715,0.049534075,2.6909728,3.656651778938081,0.0,0.08014072794778924,0.0,60,0.031438350677490234,0.991355453520512,0.991355453520512,2748,4.180302693004248,0.0
45,1.03861665725708,4.013863807820404,0.0127436777217478,4.035485369546732,4.002881525642577,0.0,0.10981203251288107,0.1,0.05678534507751465,0.7947354316711426,0.050495625,1.938437,3.6923729818263133,0.0,0.08026837977731467,0.0,89,0.036149024963378906,0.9863785584848149,0.9863785584848149,2837,4.101114491817588,0.0
46,1.0283715724945068,3.0091091200675892,1.7372464257007407,4.019803061543515,0.00012911919346647593,0.0,0.10111390099027313,0.1,0.0633690357208252,0.7867319583892822,0.049911115,4.9607434,3.6240465956504413,0.0,0.05516439285669998,0.0,87,0.03221940994262695,0.9827088939558478,0.9827088939558478,2924,3.01028139383874,0.0
47,1.1030387878417969,3.2549084992463153,1.3017447147142094,4.014629914105198,1.0002378159437648,0.0,0.09487782325603113,0.1,0.02141571044921875,0.43097567558288574,0.04910198,2.4947367,3.5871327860100286,0.0,0.060086278250604225,0.0,49,0.03198051452636719,0.9906727868674241,0.9906727868674241,2973,3.4353027610906164,0.0
48,1.1063637733459473,3.254193127547931,1.3013324577864298,4.014015614545612,1.0002372656452347,0.0,0.09202541851835343,0.1,0.025011301040649414,0.4044928550720215,0.04908672,3.5042489,3.553838820163819,0.0,0.055079186762159074,0.0,64,0.0280911922454834,0.9895448337851183,0.9895448337851183,3037,4.031371217721363,0.0
49,0.9096767902374268,2.7529578495257563,1.3008166847098201,4.005537721664245,1.0001913307013381,0.0,0.08669328471425063,0.1,0.001336812973022461,0.02132439613342285,0.051070325,6.341559,3.4737507231000126,0.0,0.04505578514775321,0.0,43,0.03052544593811035,0.9901408413442809,0.9901408413442809,3080,3.438450856090425,0.0
50,0.8698117733001709,4.005784273977014,0.0076539579721465025,4.0190249184531535,4.000843534656914,0.0,0.09394818041543501,0.1,0.020857810974121094,0.3939065933227539,0.05058203,2.1614099,3.526954078187713,0.0,0.0801042970734927,0.0,52,0.03190326690673828,0.9955555466891627,0.9955555466891627,3132,2.840865930761552,0.0
51,1.148604393005371,4.075202335800366,0.12283540869391697,4.287900729413137,4.000960541992465,0.0,0.09843887901248395,0.1,0.06446623802185059,0.7997617721557617,0.0491198,3.452463,3.5817789039489782,0.0,0.08149107573780463,0.0,76,0.03189349174499512,0.9904427902043232,0.9904427902043232,3208,3.8613861310725883,0.0
52,0.9984345436096191,2.756959097009855,1.3052961608012426,4.024501494065811,1.0002788360755837,0.0,0.07911080938870207,0.1,0.0012936592102050781,0.02094244956970215,0.050825834,2.0416143,3.499296923255066,0.0,0.040115056251304855,0.0,31,0.03554487228393555,0.996933229084116,0.996933229084116,3239,3.5354523184353983,0.0
53,1.072350263595581,4.025447778761312,0.0315822869176704,4.079684388518695,4.002532223910519,0.0,0.1098871034445737,0.1,0.057145118713378906,0.8004379272460938,0.05020799,2.1707628,3.5519120088056906,0.0,0.08038060545292425,0.0,77,0.03887343406677246,0.9877051907147624,0.9877051907147624,3316,3.276071143045685,0.0
54,1.0871837139129639,2.7604461216319285,2.1711109985168817,4.0384492943028905,-0.9999380157731328,0.0,0.10162940984241266,0.1,0.03055715560913086,0.444488525390625,0.049709227,2.0472388,3.4727654200883142,0.0,0.04517671403511872,0.0,53,0.03544139862060547,0.9908950466148041,0.9908950466148041,3369,3.181360973387367,0.0
55,1.1167519092559814,4.080962569557124,0.10099715743026857,4.2507781149550965,4.003769345466344,0.0,0.1131787471895674,0.1,0.056566476821899414,0.80515456199646,0.04944635,3.948707,3.533585135035195,0.0,0.08139991835059965,0.0,116,0.0660257339477539,0.9852703755847911,0.9852703755847911,3485,2.52419463251703,0.0
56,1.069042444229126,4.003881870403121,0.0015652037741213695,4.006453706677597,4.00224311480086,0.0,0.08981653453035868,0.1,0.0226285457611084,0.4413917064666748,0.050433084,3.0232372,3.5806148085719878,0.0,0.08007463671385731,0.0,50,0.03268885612487793,0.9965973221896568,0.9965973221896568,3535,3.1905990957682664,0.0
57,1.060096263885498,4.058367306724377,0.07606620158062824,4.187961418255806,4.003118299699157,0.0,0.10590982756479601,0.1,0.06151247024536133,0.7550094127655029,0.05001444,4.1968284,3.628390058387227,0.0,0.08106293001855974,0.0,103,0.06167769432067871,0.9852530087570178,0.9852530087570178,3638,3.1989176750241834,0.0
58,1.0389397144317627,2.2504106009242983,1.7856153960671612,4.00089971626974,0.00014357808001874695,0.0,0.07150986546139697,0.1,0.001107931137084961,0.022562742233276367,0.049694043,3.6479611,3.4905921126409343,0.0,0.030007782332591826,0.0,21,0.0796964168548584,1.0060816287919696,1.0060816287919696,3659,3.9557983461509476,0.0
59,1.0938403606414795,4.014669679954377,0.014273699589312988,4.038182009350422,4.001995153354306,0.0,0.1128387398021755,0.1,0.06141948699951172,0.8097567558288574,0.049895104,2.3273284,3.5429998693722786,0.0,0.08026137473078958,0.0,91,0.03625011444091797,0.9865598654601138,0.9865598654601138,3750,2.81288136210638,0.0
60,1.078141689300537,4.0225457371915185,0.018744552219721263,4.043799246164947,4.0005466843677375,0.0,0.099803442260399,0.1,0.062077999114990234,0.8025226593017578,0.050625857,3.404033,3.590954456154203,0.0,0.08039714362628828,0.0,85,0.036171913146972656,0.9866124925710622,0.9866124925710622,3835,3.853877304556649,0.0
61,0.8992266654968262,4.0157229893540585,0.02248028518751709,4.054416618173386,4.000570891814901,0.0,0.09125786992519526,0.1,0.027781248092651367,0.46587681770324707,0.04892498,3.2095988,3.633431309474189,0.0,0.07526761341130324,0.0,58,0.03596973419189453,0.9946923316295186,0.9946923316295186,3893,4.214258083511685,0.0
62,1.0357789993286133,3.521999890360025,0.8792522243724363,4.085104847136366,2.0002430719491384,0.0,0.09035360749770253,0.1,0.02726268768310547,0.45690345764160156,0.049165234,3.7564647,3.6222881675627727,0.0,0.0653874362547552,0.0,60,0.03582191467285156,0.9926139975889957,0.9926139975889957,3953,3.590388123921008,0.0
63,1.1489994525909424,4.804961946486176,1.3149368810920168,6.097378836285918,3.000403379785369,0.0,0.11841021775384268,0.1,0.062006473541259766,0.8068146705627441,0.04977699,2.6810791,3.740555545455113,0.0,0.07096934265388263,0.0,140,0.24522900581359863,1.0015490694885651,0.9946995357870929,4093,3.8563057904677263,0.0
64,1.0183444023132324,4.007015496392468,0.007471410788757946,4.019860323993431,4.001314145969335,0.0,0.09589922437437462,0.1,0.03076028823852539,0.44693541526794434,0.04942633,3.935535,3.767201540548849,0.0,0.08012327109329188,0.0,64,0.034348487854003906,0.9891093028410048,0.9891093028410048,4157,3.294493382970114,0.0
65,1.3389463424682617,4.589642517962751,0.9801922687725775,6.286877154511116,4.001760799284874,0.0,0.1080978396438108,0.1,0.061834096908569336,0.7957899570465088,0.04893646,2.9516475,3.849445638290239,0.0,0.08177699719140595,0.0,118,0.0747678279876709,0.9886134388551809,0.9886134388551809,4275,4.195996336618882,0.0
66,1.1570448875427246,3.3329221278997587,1.3514650941697552,4.293370434464748,1.000198193896391,0.0,0.1013525719400961,0.1,0.05711960792541504,0.8045501708984375,0.049681485,2.958251,3.7977932872511913,0.0,0.06164889310540272,0.0,83,0.03634500503540039,0.9763576871529231,0.9763576871529231,4358,2.6705143025614286,0.0
67,1.0894217491149902,4.013893782660728,0.013009156818068603,4.029970392855883,4.000945270740243,0.0,0.0972361251204579,0.1,0.030173540115356445,0.44707560539245605,0.050838657,2.1454759,3.8194033367921447,0.0,0.08020783253373545,0.0,63,0.037491798400878906,0.9849503955440414,0.9849503955440414,4421,3.4389327744410116,0.0
68,0.9717509746551514,3.759698089873603,0.4384693221071904,4.020758327527112,3.000309551438499,0.0,0.08906047039731098,0.1,0.026417016983032227,0.4453258514404297,0.048771773,3.3814697,3.8134328121002907,0.0,0.07016314182444028,0.0,60,0.035958290100097656,0.9835597069247939,0.9835597069247939,4481,4.372894582271389,0.0
69,0.9679579734802246,4.006565815864823,0.00451984642466709,4.0125128711014515,4.002112617966398,0.0,0.10586322066226925,0.1,0.05786633491516113,0.8023245334625244,0.04954641,2.2865927,3.832746112476744,0.0,0.08011211925850219,0.0,69,0.03754472732543945,0.9869595308275672,0.9869595308275672,4550,3.4393496044224103,0.0
70,0.8947832584381104,3.0028649979079667,1.7336132863887999,4.008142026526868,0.00016231345987383072,0.0,0.08192653603205814,0.1,0.0012996196746826172,0.021163225173950195,0.04921176,3.6912115,3.7497580010198663,0.0,0.055050807938424956,0.0,30,0.0350954532623291,1.001978290479073,1.001978290479073,4580,3.8486421544199523,0.0
71,1.124319314956665,4.074288443620835,0.0751449247110539,4.195772036825172,4.008946683473634,0.0,0.11802660401910221,0.1,0.06177854537963867,0.8134183883666992,0.049023684,2.1819227,3.7822110452799635,0.0,0.08142968194352596,0.0,114,0.06276297569274902,0.9728276865511333,0.9728276865511333,4694,3.6702040091297463,0.0
72,1.161355972290039,4.422971607649092,0.7283759203055101,5.684553464016115,4.00080956865245,0.0,0.10715113372014115,0.1,0.06012606620788574,0.7843787670135498,0.049742177,4.015274,3.8462871015168765,0.0,0.08773864796118658,0.0,78,0.03351402282714844,0.9948187583522153,0.9948187583522153,4772,3.8680596122475777,0.0
73,1.133216142654419,3.8035496985189314,1.8384682808684472,6.161762923118383,1.0002523295972783,0.0,0.1015143988593976,0.1,0.06384086608886719,0.788701057434082,0.049156178,5.1340413,3.842013361217082,0.0,0.0609350739008787,0.0,96,0.030771255493164062,0.9949550668903624,0.9949550668903624,4868,3.09520317572555,0.0
74,1.104318618774414,4.0273948960675945,0.037848178355687406,4.092786478697557,4.001628554293832,0.0,0.09930970608523497,0.1,0.025433778762817383,0.44119715690612793,0.050684445,2.363661,3.8605515147021334,0.0,0.0804334850020477,0.0,64,0.032330989837646484,0.9899749803935658,0.9899749803935658,4932,3.532237458681145,0.0
75,1.0937175750732422,3.5839547669520746,0.9180887230379098,4.235069341747679,2.000231526453499,0.0,0.10015492126322376,0.1,0.05898427963256836,0.769862174987793,0.05013524,22.462849,3.832891839927128,0.0,0.0665382681099691,0.0,97,0.03206801414489746,0.9752250686076199,0.9752250686076199,5029,3.935530389364164,0.0
76,1.103710412979126,4.004646610060255,0.001827059504741348,4.006765427840497,4.001731550687621,0.0,0.0958219077419757,0.1,0.025676250457763672,0.44893550872802734,0.04961502,2.3739202,3.8500673169404407,0.0,0.08008173539082518,0.0,57,0.03428292274475098,0.9906767993469752,0.9906767993469752,5086,3.1815277222177305,0.0
77,1.0972294807434082,2.759871951986514,2.1707622496978645,4.034299614502181,-0.9999315702812772,0.0,0.09224006518087058,0.1,0.027383804321289062,0.4544665813446045,0.04922954,3.0341034,3.7410477804450477,0.0,0.050168495448715454,0.0,58,0.035048484802246094,0.9811806947928029,0.9811806947928029,5144,3.5192801894288386,0.0
78,1.0236380100250244,4.062565076361553,0.09985863724740882,4.235419483438817,4.000530564590234,0.0,0.09786103696910517,0.1,0.06054425239562988,0.7989201545715332,0.04969524,2.415838,3.773199510036698,0.0,0.07623836146511148,0.0,72,0.03770947456359863,0.9828171183166867,0.9828171183166867,5216,3.593615994935362,0.0
79,1.0608129501342773,4.60619070925265,0.8909974421955891,6.136873986862689,4.003201036710591,0.0,0.11311430770193168,0.1,0.061007022857666016,0.803098201751709,0.049269088,2.2424636,3.8564986299582937,0.0,0.08202817406205098,0.0,106,0.06823205947875977,0.993560966096097,0.993560966096097,5322,3.9298148463667837,0.0
80,0.9990372657775879,3.7665948302602237,0.44267744374613044,4.053300467513088,3.000583827308899,0.0,0.10224886007803606,0.1,0.057935237884521484,0.8058748245239258,0.05139067,7.900379,3.8475082499884867,0.0,0.07032783477890597,0.0,79,0.0353543758392334,0.9772243614549176,0.9772243614549176,5401,3.862064193941429,0.0
81,1.0710327625274658,3.020797393746449,1.7441730485891727,4.071088362704383,0.00015675358592104338,0.0,0.09315226737246897,0.1,0.02729034423828125,0.4478771686553955,0.049782105,2.4910085,3.764837164364283,0.0,0.0553151863341705,0.0,56,0.03118896484375,0.9865324974716354,0.9865324974716354,5457,4.280582444681667,0.0
82,1.230642557144165,3.5389719082745708,0.8887322710762949,4.097638798331348,2.000420207858849,0.0,0.12343753182385038,0.1,0.05613851547241211,0.7998132705688477,0.049355064,4.557061,3.742250638755312,0.0,0.06576702624401456,0.0,132,0.24274539947509766,0.9649257401798804,0.9378806743762728,5589,4.026793099362375,0.0
83,1.0240318775177002,2.777254800689999,2.1808777653961844,4.063712196404575,-0.9999314334150613,0.0,0.09383359429585968,0.1,0.06437516212463379,0.8056910037994385,0.04992446,3.9321976,3.645751054948781,0.0,0.0454921978504393,0.0,68,0.033614158630371094,0.9572988780288428,0.9572988780288428,5657,3.5135301279658004,0.0
84,1.144397497177124,2.5375069655651012,1.6922384990327626,4.106483990531032,0.00015698475419467783,0.0,0.10982485262923951,0.1,0.056716203689575195,0.8010432720184326,0.049941566,6.5591707,3.5349266460104127,0.0,0.04072720975326144,0.0,91,0.03767251968383789,0.9440127305939564,0.9440127305939564,5748,3.4240428648333143,0.0
85,1.0929770469665527,3.0044529376104663,1.734524520589296,4.006882115057949,0.00016855720280561926,0.0,0.0875992521488374,0.1,0.030199766159057617,0.44376611709594727,0.04954793,5.949311,3.481879275170418,0.0,0.055079612243492934,0.0,59,0.03365516662597656,0.9643438464140017,0.9643438464140017,5807,3.966540615918023,0.0
86,1.0444469451904297,3.5035967775571635,0.8676185544292104,4.005960173863263,2.00083826093032,0.0,0.08581674662432978,0.1,0.0012431144714355469,0.020655393600463867,0.049993694,3.2118883,3.484051025409093,0.0,0.06506566212664833,0.0,44,0.03054213523864746,0.9860688921779757,0.9860688921779757,5851,3.8651637081910475,0.0
87,1.0142052173614502,1.0033357823051656,2.1258591651785177,4.01277986455957,-0.999933594956758,0.0,0.08414037674284774,0.1,0.0010285377502441406,0.020908117294311523,0.051382653,5.7819076,3.2359795010987003,0.0,0.005066453315191521,0.0,41,0.04448580741882324,0.9483167047697332,0.9483167047697332,5892,3.525747992904627,0.0
88,1.1392343044281006,4.060197548241772,0.06346999101986214,4.159810324380825,4.003651275994922,0.0,0.09890057039301109,0.1,0.05639386177062988,0.7979130744934082,0.049938645,3.6270006,3.3184013058130075,0.0,0.08103356679330133,0.0,88,0.03849315643310547,0.9649415688194376,0.9649415688194376,5980,3.091935303595734,0.0
89,1.191399335861206,4.634476023802882,1.0873109860226529,6.517738171361909,4.002162486443069,0.0,0.11561626686895153,0.1,0.0645132064819336,0.7939367294311523,0.05021753,1.7534004,3.450008777611995,0.0,0.0826765188437889,0.0,92,0.03365182876586914,1.004689233584844,1.004689233584844,6072,3.5921389169068356,0.0
90,1.0828523635864258,4.048539433561965,0.07816009083098227,4.183910130188313,4.002620346202439,0.0,0.10480807552320914,0.1,0.06357383728027344,0.7381913661956787,0.049506478,3.0801568,3.509861843206992,0.0,0.08082164804950046,0.0,71,0.03603959083557129,0.9673643207939351,0.9673643207939351,6143,4.348064306967197,0.0
91,1.1046979427337646,3.521596877456584,2.2025081804053874,6.078659263969925,0.00015200452646868534,0.0,0.09654444396203889,0.1,0.0597689151763916,0.7219760417938232,0.05013132,3.4425476,3.5110353466319517,0.0,0.05541058968021732,0.0,75,0.026073455810546875,1.0100416605797593,1.0100416605797593,6218,3.6730269765672503,0.0
92,1.0285780429840088,3.009273689727747,1.737343265538423,4.02776132461819,0.00015261404092736797,0.0,0.10751640119061207,0.1,0.060686349868774414,0.7871499061584473,0.049893595,2.749943,3.460859180941531,0.0,0.055183507272650575,0.0,65,0.03677487373352051,0.9609968031807625,0.9609968031807625,6283,3.0077180385719564,0.0
93,1.0249431133270264,3.898547221530409,1.8652481905469687,6.19125310401683,1.0006115215371112,0.0,0.11172881675708704,0.1,0.059877872467041016,0.7963042259216309,0.050043564,2.680059,3.504627985000419,0.0,0.0628941993465707,0.0,107,0.07015872001647949,0.9848385166302257,0.9848385166302257,6390,4.0634335493848575,0.0
94,1.1086130142211914,4.0057206111072325,0.004806273549960505,4.0138250123152694,4.001340633637911,0.0,0.10145858587880215,0.1,0.060300588607788086,0.7965297698974609,0.048745353,2.3635411,3.5547372476111008,0.0,0.08009707899668615,0.0,68,0.03618478775024414,0.9679794062125961,0.9679794062125961,6458,2.7603290337918787,0.0
95,1.1639792919158936,4.1850310545668785,0.2064985204958885,4.504954707336175,4.001247759407993,0.0,0.11805584982584487,0.1,0.0639805793762207,0.7983174324035645,0.050139714,2.3252692,3.6177666283066783,0.0,0.08339384641218167,0.0,111,0.06336307525634766,0.9534675389525399,0.9534675389525399,6569,3.4806096613107296,0.0
96,1.0566864013671875,4.041209865574114,0.06449220203296066,4.152880896266195,4.0021519613997745,0.0,0.1002100870789467,0.1,0.06407284736633301,0.7930269241333008,0.048715785,3.4222624,3.6601109520334223,0.0,0.08072373572518715,0.0,88,0.027620553970336914,0.9593828464687084,0.9593828464687084,6657,4.065697000986277,0.0
97,1.0746510028839111,4.033709926913522,0.05252387485758978,4.124597004906826,4.001249384504004,0.0,0.09544464769359992,0.1,0.0257723331451416,0.44150567054748535,0.049621284,2.5389588,3.697470849521433,0.0,0.08050004637713952,0.0,60,0.03707385063171387,0.9797240586096251,0.9797240586096251,6717,3.6744189977654256,0.0
98,1.174574851989746,3.2934985993942503,2.6318656858997795,6.168884095552118,-0.9999373727076444,0.0,0.1020389869510137,0.1,0.06189918518066406,0.8024759292602539,0.049980752,27.730186,3.6570736245087145,0.0,0.0508677092006677,0.0,82,0.03632164001464844,0.9937536057651021,0.9937536057651021,6799,3.92017951124136,0.0
99,1.0800230503082275,4.273137028161631,1.1169153935327292,6.071222338047691,3.0009668064297763,0.0,0.09478577567924466,0.1,0.06628537178039551,0.8003945350646973,0.048504688,5.085051,3.7186799648740063,0.0,0.07045524526716881,0.0,94,0.03670001029968262,0.9890553686878935,0.9890553686878935,6893,3.121579192398942,0.0
100,1.1020944118499756,4.010388035829708,0.013297761201197146,4.033224171132036,4.0008718641385315,0.0,0.09307599889476799,0.1,0.06457686424255371,0.7994289398193359,0.04709096,8.8256035,3.747850771969577,0.0,0.08017699194468862,0.0,77,0.03107762336730957,0.9683896514706828,0.9683896514706828,6970,3.614173964610856,0.0
101,1.0814704895019531,3.253511386360449,0.831860285691917,4.010461271355722,2.000457181136696,0.0,0.09369987340595605,0.1,0.0012447834014892578,0.020991086959838867,0.050308783,1.2837907,3.6984168334086642,0.0,0.055065634180605894,0.0,40,0.030666351318359375,0.9822369823422742,0.9822369823422742,7010,4.041299731287935,0.0
102,1.0879998207092285,4.02910247264707,0.045746268356597695,4.108330993039219,4.0017493859070425,0.0,0.10425003818639693,0.1,0.06012463569641113,0.7814888954162598,0.050734483,2.2795334,3.731485397332505,0.0,0.08053240974305441,0.0,69,0.03309488296508789,0.9711759626129457,0.9711759626129457,7079,3.605489809196666,0.0
103,1.0545668601989746,4.002301532311307,0.001345032946289319,4.004276589201128,4.000532786747181,0.0,0.08995267045098496,0.1,0.0014727115631103516,0.020921707153320312,0.050523676,2.2460508,3.758567010830385,0.0,0.08004039816207897,0.0,40,0.03132891654968262,1.0001865952748565,1.0001865952748565,7119,3.5164026587178867,0.0
104,1.0848894119262695,3.7552389621892157,0.4357335818352888,4.009859424800219,3.0005431975631884,0.0,0.09406144918194617,0.1,0.026192188262939453,0.44641852378845215,0.04962145,2.610706,3.758234205966268,0.0,0.07009537573147231,0.0,57,0.03150749206542969,0.975537439431997,0.975537439431997,7176,3.53731218691872,0.0
105,0.9687709808349609,3.2590628233475747,1.304116260438232,4.028250735946755,1.000333410088428,0.0,0.08947274247722105,0.1,0.025493621826171875,0.4469296932220459,0.049571536,3.6501374,3.7083170677043986,0.0,0.060173230376562185,0.0,50,0.03551530838012695,0.9763752487057382,0.9763752487057382,7226,3.0314367743430934,0.0
106,1.2573130130767822,4.569530581300377,0.9299887769724836,6.179551450385739,4.006215390084361,0.0,0.12334229531095163,0.1,0.05949091911315918,0.7851459980010986,0.052884884,6.764636,3.7944384190639964,0.0,0.08132407133420662,0.0,129,0.23887181282043457,0.9725533097621731,0.9595371392313365,7355,3.521552566238984,0.0
107,1.1758403778076172,4.550583357977394,0.8556886516177321,6.029320121978592,4.0078994042563645,0.0,0.1270422868491749,0.1,0.05690932273864746,0.7991366386413574,0.05119334,1.7422493,3.8700529129553365,0.0,0.08092666613056462,0.0,127,0.07109308242797852,0.9610021198209947,0.9610021198209947,7482,3.2759528469480745,0.0
108,1.0728764533996582,2.771029334912755,2.1772257486399655,4.051267618795894,-0.9999355644631975,0.0,0.09874092522124718,0.1,0.06742501258850098,0.7899007797241211,0.049096223,6.0969553,3.7601505551510783,0.0,0.05038515339331123,0.0,77,0.032068490982055664,0.930861120365393,0.930861120365393,7559,3.2061126207694124,0.0
109,1.1865980625152588,3.7646585435883644,0.44092779652213615,4.040800138961145,3.0013291045710346,0.0,0.10138056835138343,0.1,0.05070686340332031,0.7064464092254639,0.049670026,4.766268,3.760601353994807,0.0,0.07027340345145919,0.0,79,0.03226137161254883,0.9441201198020328,0.9441201198020328,7638,3.70371002733762,0.0
110,1.048527717590332,4.004023444971978,0.001989849643210848,4.006751377570246,4.001338476597754,0.0,0.09930183288851538,0.1,0.020816802978515625,0.40970325469970703,0.050226107,2.2639194,3.784943563092524,0.0,0.08007494892218772,0.0,55,0.02766251564025879,0.9693785673130332,0.9693785673130332,7693,2.7971872701792715,0.0
111,1.0663495063781738,2.504468688948981,2.06468983217545,4.014709764880777,-0.9999338440232923,0.0,0.08550671961225671,0.1,0.0012824535369873047,0.021740198135375977,0.049460597,2.804476,3.6568960756781697,0.0,0.04007323422778589,0.0,36,0.07070279121398926,0.9715522470511253,0.9715522470511253,7729,4.204392584655964,0.0
112,1.1703250408172607,2.8525199035347972,1.71962110688942,4.289640513928614,0.00014572544533586473,0.0,0.12003129260107173,0.1,0.06225299835205078,0.8094022274017334,0.04949001,4.1079125,3.5764584584638324,0.0,0.04703141733628913,0.0,98,0.039156436920166016,0.9193937890066187,0.9193937890066187,7827,3.9545586053624597,0.0
113,1.7340033054351807,4.512306973225026,0.8814521056288478,6.039021387782438,4.001280105620303,0.0,0.10858278211529847,0.1,0.056856632232666016,0.7981152534484863,0.05004891,2.9142928,3.6700433099399516,0.0,0.08023702328127279,0.0,86,0.035650014877319336,1.001276351614898,1.001276351614898,7913,3.2939533990082026,0.0
114,1.5124375820159912,3.5340985540755763,0.8870169894322676,4.128914167929567,2.0002991027465815,0.0,0.09156132355612483,0.1,0.030269622802734375,0.44910550117492676,0.048658606,3.4024897,3.6564488343535144,0.0,0.0655940799902528,0.0,61,0.0357515811920166,0.9510720488118196,0.9510720488118196,7974,3.6899342499756447,0.0
115,1.754004955291748,5.219914633646205,1.2282927939386223,6.666228313146809,4.001984722004811,0.0,0.10971389597875307,0.1,0.06466078758239746,0.8025588989257812,0.051340476,9.946312,3.8127954142827836,0.0,0.08424118963048532,0.0,117,0.0625147819519043,1.0548464239498807,1.0548464239498807,8091,3.2720187255505646,0.0
116,1.6205534934997559,4.090039180486615,0.14989977854298867,4.349650614226125,4.001128346349231,0.0,0.09791454660861305,0.1,0.059294700622558594,0.772139310836792,0.04947524,2.6445498,3.8405197909031665,0.0,0.08167574771041405,0.0,69,0.033026695251464844,0.9571369621013769,0.9571369621013769,8160,3.846370809913998,0.0
117,1.676302433013916,2.7659694286430714,2.174257684040249,4.029188857656944,-0.9999338644827276,0.0,0.10276801347125009,0.1,0.0617060661315918,0.7913615703582764,0.0497377,4.1875515,3.733064754677157,0.0,0.050286528403166164,0.0,68,0.031722068786621094,0.9366245161326976,0.9366245161326976,8228,3.675970598231306,0.0
118,1.8066661357879639,4.222021987606889,0.30037696885921356,4.7311121828169265,4.00102970485619,0.0,0.10872173132610057,0.1,0.05982828140258789,0.7860798835754395,0.049018744,5.553767,3.78196047797013,0.0,0.08430903705999364,0.0,90,0.03298187255859375,0.9519052578125982,0.9519052578125982,8318,3.011782545144681,0.0
119,1.8601162433624268,4.01085628772429,0.008943809038462201,4.025149806829228,4.0017466483763435,0.0,0.10281271668100718,0.1,0.05940055847167969,0.7865321636199951,0.050231,1.7913457,3.804850058945546,0.0,0.08020948827511387,0.0,70,0.03179192543029785,0.956837866815177,0.956837866815177,8388,2.8489268132177927,0.0
120,1.5825159549713135,4.005748744790362,0.0052075180008929805,4.014524234550968,4.001423399328415,0.0,0.09532777259363082,0.1,0.0012135505676269531,0.020328283309936523,0.049700484,1.7320828,3.8249399275300275,0.0,0.08008871063619424,0.0,44,0.03008556365966797,0.989411579160558,0.989411579160558,8432,3.5931973750351873,0.0
121,1.662468433380127,4.018701145260286,0.014892071022752676,4.0386630652774205,4.001034005217003,0.0,0.11043657515349853,0.1,0.05557584762573242,0.779116153717041,0.05040679,2.6759813,3.8443160493030533,0.0,0.08036560202863713,0.0,101,0.0714571475982666,0.9362097401685194,0.9362097401685194,8533,3.090970159650729,0.0
122,1.8777284622192383,4.015101015081079,0.018136303908396777,4.0465137911752755,4.004519415646457,0.0,0.10160595821903233,0.1,0.026140928268432617,0.44521236419677734,0.049879767,2.3662157,3.861394545880856,0.0,0.07527717808953348,0.0,53,0.03743624687194824,0.9777195786254097,0.9777195786254097,8586,3.590580929252725,0.0
123,1.6694841384887695,4.005054461562274,0.0035426250545670694,4.011118431554132,4.00245641041045,0.0,0.09820790646872425,0.1,0.027108430862426758,0.44113683700561523,0.049844205,2.4697382,3.875760537448998,0.0,0.08008965450116431,0.0,57,0.033272743225097656,0.9620846788884632,0.9620846788884632,8643,3.7623747915061405,0.0
124,1.6633234024047852,2.753349943886456,2.1669606431301847,4.006472637553134,-0.9999348646512558,0.0,0.1024026215406676,0.1,0.0599820613861084,0.7967901229858398,0.049824726,2.8542423,3.7635194780927437,0.0,0.05006396399121965,0.0,76,0.030786991119384766,0.9305779513058027,0.9305779513058027,8719,3.8428044195624147,0.0
125,1.667001485824585,3.7563100657414252,0.4363773592698394,4.016158884581179,3.000537963719748,0.0,0.08839605296797565,0.1,0.021788597106933594,0.4373965263366699,0.049817804,3.1108015,3.762798536857612,0.0,0.07011080526710789,0.0,49,0.0370175838470459,0.9735246824881703,0.9735246824881703,8768,3.8429005029618275,0.0
126,1.7217721939086914,1.2566335081081572,1.6501925026960105,4.025987859092004,0.00014703908168356428,0.0,0.08027080489187656,0.1,0.0016715526580810547,0.02096247673034668,0.049571246,5.275164,3.5121820339826666,0.0,0.010124057834012426,0.0,32,0.03593897819519043,0.9373173298415607,0.9373173298415607,8800,3.9345125949019066,0.0
127,1.6083216667175293,2.502762996243586,2.0632426145247607,4.006189227237051,-0.9999308097956823,0.0,0.08509828730376175,0.1,0.0049402713775634766,0.022599220275878906,0.049491983,2.109881,3.4112401302087587,0.0,0.0400506267444654,0.0,30,0.04850196838378906,0.9869488151775092,0.9869488151775092,8830,3.592328672448401,0.0
128,1.5810580253601074,2.780060253634176,2.1825540246321187,4.080188823813269,-0.9999288961646895,0.0,0.09399068692564573,0.1,0.07551217079162598,0.8062236309051514,0.048949085,4.1996465,3.3481221425513006,0.0,0.05049620823305954,0.0,65,0.03562164306640625,0.9463517720859272,0.9463517720859272,8895,4.012865570523379,0.0
129,1.6895935535430908,4.022499184751665,0.021815759670783683,4.0586413526168865,4.000984140231208,0.0,0.11210374184193139,0.1,0.060535430908203125,0.8087379932403564,0.04815904,4.0909677,3.415559846771337,0.0,0.08043403738958131,0.0,101,0.04444551467895508,0.936800208978127,0.936800208978127,8996,3.1799575425154383,0.0
130,1.6296427249908447,4.003639999310342,0.0011637691365360364,4.005104527361308,4.002363407259473,0.0,0.08618767443002176,0.1,0.0013763904571533203,0.022004127502441406,0.049370788,3.1898086,3.474367862025238,0.0,0.080062850346277,0.0,46,0.03600430488586426,0.9872089270413337,0.9872089270413337,9042,3.5076901794597006,0.0
131,1.7491552829742432,3.501821644254294,0.8665269319406687,4.002784593103059,2.0009533925642264,0.0,0.08569283392928316,0.1,0.001268625259399414,0.021456480026245117,0.0504791,1.932487,3.4771132402481437,0.0,0.06503152906540757,0.0,36,0.032088279724121094,1.0017976637762467,1.0017976637762467,9078,3.5990105214828483,0.0
132,1.7501897811889648,4.020252526588182,0.016289432499687048,4.047442208465667,4.005023572702707,0.0,0.10215916780362251,0.1,0.062050580978393555,0.517531156539917,0.0493963,2.5337312,3.5314271688821477,0.0,0.08038758045949657,0.0,77,0.02082514762878418,0.9471937199293403,0.9471937199293403,9155,3.2609394841529067,0.0
133,1.6387393474578857,4.023874226858471,0.0381859170833714,4.090006737580459,4.000895979985786,0.0,0.09874791273086302,0.1,0.025382041931152344,0.4347548484802246,0.04956159,1.6533109,3.5806718746797803,0.0,0.07539815657673803,0.0,59,0.03199577331542969,0.9684401360900113,0.9684401360900113,9214,3.0127449266490935,0.0
134,1.5734963417053223,3.020136831996443,1.7436417710567529,4.068621342886104,0.00039274089698304593,0.0,0.0987891058126984,0.1,0.025469541549682617,0.4469890594482422,0.05017416,2.2605636,3.5246183704114467,0.0,0.05535020456314162,0.0,60,0.031763315200805664,0.9527080062772164,0.9527080062772164,9274,3.263131029671694,0.0
135,2.1905765533447266,3.5124766385206154,0.8719942945260676,4.018728158868874,2.00214802304491,0.0,0.10842236911104185,0.1,0.06099963188171387,0.7870590686798096,0.049161706,2.735656,3.5234041972223635,0.0,0.06523121878304511,0.0,70,0.03638005256652832,0.9429356605643864,0.9429356605643864,9344,2.675809995156099,0.0
136,1.7314059734344482,4.278890868741634,0.47410538203282954,5.100039753759397,4.002098748505131,0.0,0.1022290880482064,0.1,0.05647134780883789,0.7970390319824219,0.05048626,3.382361,3.5989528643742905,0.0,0.08535187990255122,0.0,84,0.0377047061920166,0.9635701860029504,0.9635701860029504,9428,3.678483374424563,0.0
137,1.6911098957061768,4.003844951734533,0.00292011883327779,4.006967288334095,4.000880236402324,0.0,0.1031580151290098,0.1,0.010125398635864258,0.4229898452758789,0.049303785,2.4935317,3.6394420731103145,0.0,0.08007159329062716,0.0,63,0.023164749145507812,0.9638151550938925,0.9638151550938925,9491,3.5854029005523604,0.0
138,1.549224853515625,4.002405808822857,0.0011306844569794726,4.003930004601312,4.001202767609093,0.0,0.09314068337798642,0.1,0.0014247894287109375,0.021721363067626953,0.04988918,2.427609,3.675738446681569,0.0,0.08004231151600387,0.0,46,0.03637361526489258,0.9835814038487198,0.9835814038487198,9537,3.5022298831146794,0.0
139,1.7024741172790527,5.058172537318619,1.8164046737157702,8.204258190085087,4.004248403149943,0.0,0.11051849618689165,0.1,0.06062197685241699,0.7968499660491943,0.05006848,1.352094,3.813981855745274,0.0,0.09605680117430111,0.0,99,0.034838199615478516,1.0180022037007095,1.0180022037007095,9636,4.002820123337016,0.0
140,1.6611435413360596,2.0094774774808215,1.8805958622652539,4.035566601331075,-0.9999351392825377,0.0,0.08085271731880923,0.1,0.001085519790649414,0.021410226821899414,0.049806606,5.3292513,3.633531417918829,0.0,0.02515389733903369,0.0,35,0.07282733917236328,0.9602802999082034,0.9602802999082034,9671,4.002023039426132,0.0
141,1.6527760028839111,4.0207408818526496,0.019368722346613996,4.053082459541017,4.005736011580355,0.0,0.09790160393751018,0.1,0.02650904655456543,0.4372975826263428,0.04973822,2.4276428,3.6722523643122114,0.0,0.07539892752818664,0.0,59,0.03726625442504883,0.9640514370202152,0.9640514370202152,9730,2.9188784522756426,0.0
142,1.6425161361694336,4.270551176273389,1.1193391373841368,6.075064597208261,3.000728003418943,0.0,0.10740614357867709,0.1,0.06301236152648926,0.8022325038909912,0.049659263,6.185988,3.7320822455083293,0.0,0.06538591068862355,0.0,87,0.03634905815124512,1.0014470709896033,1.0014470709896033,9817,3.252404931183331,0.0
143,1.7122461795806885,3.5327090348864365,0.8856464961079263,4.122054609028447,2.0010024305099585,0.0,0.10209623066274064,0.1,0.06530356407165527,0.7992293834686279,0.04960085,2.2879298,3.71214492444614,0.0,0.06559739030879191,0.0,76,0.033565521240234375,0.9416949379240553,0.9416949379240553,9893,4.006039069168164,0.0
144,1.848961353302002,4.011318870370841,1.4230030149472164,6.026851027948051,2.0020160633481447,0.0,0.10356440630714361,0.1,0.0632467269897461,0.8021845817565918,0.048954286,4.321762,3.74206231903861,0.0,0.06520737083720261,0.0,77,0.03603315353393555,1.0143406593236688,1.0143406593236688,9970,3.670223874267053,0.0
145,1.7119357585906982,4.059425945725431,0.09120752528994322,4.2172787404671785,4.001282071077878,0.0,0.10800359288161246,0.1,0.06159162521362305,0.7971029281616211,0.049740344,2.4326143,3.773798681707292,0.0,0.08113869852100017,0.0,93,0.03595376014709473,0.9414571319091104,0.9414571319091104,10063,3.8358328489762905,0.0
146,1.6526925563812256,4.510221201948439,0.8712166838202373,6.019161521343155,4.001008784484701,0.0,0.10348745232295695,0.1,0.060347557067871094,0.7657907009124756,0.049927503,2.6519425,3.847440933731407,0.0,0.07519675498157889,0.0,89,0.030778169631958008,1.0001915282404743,1.0001915282404743,10152,3.2671298786887455,0.0
147,1.6536619663238525,3.768774211732068,0.44386140899604104,4.056311328850644,3.0007139058646892,0.0,0.10732127210473108,0.1,0.057050228118896484,0.7202615737915039,0.050735664,2.0267599,3.839574261531473,0.0,0.07035819252002343,0.0,76,0.03233480453491211,0.942621610158751,0.942621610158751,10228,3.347475127610219,0.0
148,1.5497524738311768,4.010131114032224,0.012742573420134578,4.031949459356492,4.00115652696085,0.0,0.10132801162222922,0.1,0.06143379211425781,0.7963709831237793,0.050426226,2.1223152,3.8566299467815486,0.0,0.07520043591732826,0.0,65,0.036142587661743164,0.9563789827859949,0.9563789827859949,10293,3.264470368385409,0.0
149,1.5933778285980225,4.042293671097343,0.03783406306973774,4.104241417799044,4.009456585811409,0.0,0.12225235240634888,0.1,0.06502079963684082,0.7768611907958984,0.04879233,2.7630079,3.875196319213128,0.0,0.08083047202826296,0.0,123,0.06817364692687988,0.9283427781847211,0.9283427781847211,10416,3.135691074639889,0.0
150,1.5855603218078613,3.7556977759773957,0.43429989328147905,4.012425231566203,3.003495161339571,0.0,0.09327758940411537,0.1,0.05083942413330078,0.4511399269104004,0.050696924,2.243164,3.8632464648895546,0.0,0.07010179706228631,0.0,52,0.036623477935791016,0.9661806121451586,0.9661806121451586,10468,4.040158187545166,0.0
151,1.5980894565582275,3.7647072161044,0.4411890770192892,4.025782849849831,3.0006223940627144,0.0,0.09885446062376915,0.1,0.05727028846740723,0.7944211959838867,0.049469117,3.157448,3.8533925400110394,0.0,0.0702456045451572,0.0,77,0.033507347106933594,0.9372187861781611,0.9372187861781611,10545,4.032211429499262,0.0
152,1.6033246517181396,4.008717334852536,0.006754102679213431,4.019696031942157,4.002520090958862,0.0,0.1008822979830889,0.1,0.0014750957489013672,0.027982234954833984,0.049871556,1.9161724,3.8689250194951894,0.0,0.08013283141127654,0.0,56,0.0017437934875488281,0.9691839623675104,0.9691839623675104,10601,4.020833581116656,0.0
153,1.9867546558380127,2.762583534354521,1.310765870987718,4.042794126099801,1.0004694092279571,0.0,0.09376487373361686,0.1,0.0014560222625732422,0.028632640838623047,0.049964465,4.077588,3.7582908709811225,0.0,0.0452326106794322,0.0,51,0.0016117095947265625,0.9461861868011087,0.9461861868011087,10652,3.7793406305724364,0.0
154,1.4494976997375488,4.07292666279792,0.10125013556719781,4.247001337334321,4.002656658983639,0.0,0.1209531157221008,0.1,0.0014934539794921875,0.031125783920288086,0.049500555,1.9365082,3.7897544501628024,0.0,0.08145260434523569,0.0,105,0.044998884201049805,0.9337663756874501,0.9337663756874501,10757,4.0525602584258245,0.0
155,1.757988691329956,4.525267954960027,0.9019565422727898,6.087491943374414,4.000768275720168,0.0,0.11256778107620223,0.1,0.05771017074584961,0.8097567558288574,0.05036285,2.026462,3.8633058006425247,0.0,0.08049278177904529,0.0,90,0.036783695220947266,0.9937050219449455,0.9937050219449455,10847,4.2025808435376035,0.0
156,1.680429220199585,3.506704432847097,0.8697363996504411,4.018507117163769,2.000316793942699,0.0,0.09266153700475704,0.1,0.027155160903930664,0.46283435821533203,0.050019525,3.464457,3.8276456638629823,0.0,0.060126755625934294,0.0,55,0.035683393478393555,0.9566281720993549,0.9566281720993549,10902,3.613835630161134,0.0
157,1.563105821609497,4.06755388794591,0.10600673780405258,4.2511128824152085,4.0030448901119335,0.0,0.11095285473983572,0.1,0.055938005447387695,0.7986810207366943,0.05019724,4.684673,3.8516364862712753,0.0,0.08124253394772915,0.0,90,0.03603672981262207,0.9428398809584396,0.9428398809584396,10992,4.9705898655043566,0.0
158,1.686119556427002,4.047754865633022,0.042077785763918345,4.099908834413245,4.004612549629549,0.0,0.1151096671165842,0.1,0.05589437484741211,0.8003969192504883,0.048742507,2.9637012,3.87124832420745,0.0,0.08087674134260488,0.0,115,0.06711745262145996,0.9277661095617449,0.9277661095617449,11107,5.315801878828921,0.0
159,1.6631827354431152,4.010485453885947,0.007368329361677565,4.021274906908827,4.001775480156748,0.0,0.11897711204930453,0.1,0.061707496643066406,0.8037259578704834,0.049780767,1.7907535,3.8851720371752996,0.0,0.08020448956000029,0.0,96,0.03624677658081055,0.9356746777858538,0.9356746777858538,11203,4.88841643686963,0.0
160,1.6991055011749268,4.131212635692002,0.20412257480384965,4.484264871710241,4.004383046670237,0.0,0.11473436168184754,0.1,0.06145143508911133,0.8038809299468994,0.05002575,1.7420651,3.90977609702697,0.0,0.08243604797118208,0.0,93,0.036400556564331055,0.9467209237062795,0.9467209237062795,11296,3.59965361736088,0.0
161,1.6732368469238281,3.5141288823247834,0.8741863703522074,4.050454867819895,2.0003685350461,0.0,0.09502209112211919,0.1,0.001252889633178711,0.020940065383911133,0.050227705,1.9536431,3.8702113755567513,0.0,0.06523443583490247,0.0,45,0.04024767875671387,0.9766274067209707,0.9766274067209707,11341,4.134776554757339,0.0
