iteration,time_sampling,stoc_pol_mean,stoc_pol_std,stoc_pol_max,stoc_pol_min,rollout_success,alpha,delta,time_vpg,time_npg,kl_dist,surr_improvement,running_score,rwd_sparse,rwd_dense,success_percentage,num_samples,time_VF,VF_error_before,VF_error_after,env_samples,eval_score,eval_success
0,1.1124260425567627,0.0376065238379679,0.013356742122574086,0.053678809035128706,0.017464358163622743,0.0,0.13953597636838552,0.1,0.050598859786987305,0.052525997161865234,0.049069513,1.5795462,0.0376065238379679,0.0,0.0007447442766212399,0.0,200,0.035986900329589844,4.638173238330871,1.3246369260484228,200,0.03999656760428769,0.0
1,1.1853666305541992,0.03736737142232439,0.007358576330976039,0.04780410638167926,0.028030025599680167,0.0,0.1407232600687309,0.1,0.0030007362365722656,0.05560803413391113,0.057158012,1.5035067,0.03758260859640355,0.0,0.0007330634954265569,0.0,200,0.04391026496887207,1.5372846898654227,0.27810635987588894,400,0.03846230328185062,0.0
2,1.2841014862060547,0.027232720449231845,0.006251197339407484,0.037296578344883445,0.020188888303597007,0.0,0.15984457734400195,0.1,0.005425691604614258,0.05446147918701172,0.05218727,1.065285,0.03654761978168638,0.0,0.0005463112949541833,0.0,200,0.1256570816040039,0.7549607556058697,0.8489217295381101,600,0.031118813933533163,0.0
3,1.2530884742736816,0.04952303631124142,0.03533855025537427,0.10727734354750698,0.012063186678894854,0.0,0.147856501498323,0.1,0.006085872650146484,0.21327733993530273,0.051129635,1.0524974,0.03784516143464189,0.0,0.0009850898902446716,0.0,200,0.022675037384033203,0.9834742968241745,0.6278249612404502,800,0.04090091559051217,0.0
4,1.2295055389404297,0.06336886702212054,0.029294031936492586,0.10608523011485761,0.024001874165668947,0.0,0.1516960129732258,0.1,0.004848957061767578,0.07534551620483398,0.048701696,1.0177647,0.04039753199338975,0.0,0.0012634166945349752,0.0,200,0.13624858856201172,0.5780927488984897,0.36980655572497195,1000,0.04219189349478516,0.0
5,1.2194514274597168,0.04586249051268473,0.01326303693551813,0.06627934741114566,0.02948186403036505,0.0,0.14120426476010714,0.1,0.06990909576416016,0.05617260932922363,0.05119648,1.1935279,0.04094402784531925,0.0,0.000906524519630942,0.0,200,0.02451348304748535,0.5155810543185287,0.6170949208425371,1200,0.05376382760371733,0.0
6,1.2227396965026855,0.057972382438404774,0.04185227736942312,0.12497642898470894,0.019031518828391415,0.0,0.15480630457344033,0.1,0.00524139404296875,0.1691877841949463,0.050847694,1.113422,0.04264686330462781,0.0,0.0011548883877253808,0.0,200,0.14597129821777344,0.5252913112525807,0.47394949823370247,1400,0.09299938921072987,0.0
7,1.1506249904632568,0.028678967348064605,0.01399676180326025,0.04719582057985653,0.012177339682323554,0.0,0.1463419995817747,0.1,0.0046672821044921875,0.2924036979675293,0.04984539,0.95284003,0.04125007370897149,0.0,0.0005740058030554776,0.0,200,0.14001131057739258,0.8303469399043787,0.31342282897054446,1600,0.13120616197211488,0.0
8,1.2313244342803955,0.09485680857470694,0.12795114383107073,0.316168666597476,0.012536873292922376,0.0,0.14089781318129468,0.1,0.0030164718627929688,0.052983760833740234,0.052035995,1.8691901,0.04661074719554504,0.0,0.0018878610006901758,0.0,200,0.03556704521179199,0.8517660079931888,0.7917523715276025,1800,0.1951462698136849,0.0
9,1.2021605968475342,0.07123014929349274,0.03747390314898631,0.11325196084190853,0.025975096708733856,0.0,0.15066454809801447,0.1,0.0346074104309082,0.054769277572631836,0.05335903,0.9800172,0.049072687405339814,0.0,0.0014168221717135655,0.0,200,0.05083823204040527,0.428686439748717,0.3408757342733735,2000,0.21178635060754217,0.0
10,1.186840295791626,0.12144060074295251,0.15312004639360122,0.3841773635341703,0.011184910619227427,0.0,0.14118604388199507,0.1,0.004889011383056641,0.06448745727539062,0.049260873,1.7452323,0.05630947873910108,0.0,0.002425471252649241,0.0,200,0.0674140453338623,0.7259360113345356,0.6758476354114007,2200,0.19849100752207813,0.0
11,1.2499804496765137,0.10112968002569761,0.0692321950644758,0.17040110091725966,0.016433547339274428,0.0,0.13619379266395595,0.1,0.007540225982666016,0.08455252647399902,0.04873438,1.374804,0.06079149886776074,0.0,0.002016341681188385,0.0,200,0.1430671215057373,0.4392688271715115,0.45661572222339203,2400,0.2304857317995158,0.0
12,1.1850652694702148,0.06462309935581538,0.028458546372939486,0.11065075793934359,0.03265399510061417,0.0,0.14643570839728295,0.1,0.004866600036621094,0.30129027366638184,0.05004559,1.2098439,0.061174658916566205,0.0,0.0012787281197189967,0.0,200,0.022267580032348633,1.4577724823849136,0.3047961354756571,2600,0.3414565469006174,0.0
13,1.246079921722412,0.1485464103958805,0.20667888599389816,0.5051927970341406,0.013429437884028731,0.0,0.1350253884748997,0.1,0.08212852478027344,0.054534196853637695,0.050857514,1.8392917,0.06991183406449764,0.0,0.0029639956710289053,0.0,200,0.1438913345336914,0.791882224005017,0.7879971299511321,2800,0.34911920434754573,0.0
14,1.1831331253051758,0.20166932951194208,0.24127134425296562,0.6193826450726653,0.05512142739419774,0.0,0.13471642977443032,0.1,0.08526253700256348,0.0561678409576416,0.049687397,2.0617738,0.08308758360924208,0.0,0.0040437466827128584,0.0,200,0.03667593002319336,0.7840309006382612,0.6868105389385025,3000,0.4089960206380457,0.0
15,1.2878928184509277,0.05746575505148627,0.009145409448468554,0.06771837511241013,0.04535042061295427,0.0,0.13086801125022773,0.1,0.0031456947326660156,0.053421974182128906,0.05041577,1.5913635,0.0805254007534665,0.0,0.0011328547257134925,0.0,200,0.02271294593811035,2.685823061830326,3.478728314656301,3200,0.35623102832606496,0.0
16,1.2389988899230957,0.09080258686063694,0.03539610687842068,0.14867094636726466,0.055907069992992366,0.0,0.1359053910506236,0.1,0.004813432693481445,0.05306363105773926,0.04941211,0.9726424,0.08155311936418355,0.0,0.001797694311348381,0.0,200,0.14245104789733887,0.4622059055568022,0.23387082256016098,3400,0.676842302418711,0.0
17,1.1890809535980225,0.10120950022892505,0.06354957157884547,0.2104719316114688,0.054444265849920126,0.0,0.1428293248255403,0.1,0.005151271820068359,0.05279207229614258,0.050452195,1.2648871,0.0835187574506577,0.0,0.002006829918680536,0.0,200,0.1309347152709961,0.36353246307060844,0.3731940346165361,3600,0.7094531080945501,0.0
18,1.3373868465423584,0.3174765204090826,0.19266054655249548,0.5245269216454663,0.022277837875255904,0.0,0.1353804624025314,0.1,0.006943464279174805,0.06703042984008789,0.051028494,1.1672004,0.1069145337465002,0.0,0.00634743005482897,0.0,200,0.020514965057373047,0.698098925505797,0.5758904639066569,3800,0.5515436604361884,0.0
19,1.2958354949951172,0.27222258899148866,0.26050289798930737,0.6799053429383322,0.03425010886233134,0.0,0.13886559870435725,0.1,0.08401727676391602,0.14111542701721191,0.05161708,1.2734135,0.12344533927099904,0.0,0.005423277021111883,0.0,200,0.061113595962524414,0.6452904654455275,0.5133047453829913,4000,0.6005185576374957,0.0
20,1.2849411964416504,0.11790408559412476,0.05926886476380787,0.17343825916922054,0.029140738605773923,0.0,0.1327814660665614,0.1,0.03584742546081543,0.053971052169799805,0.049522463,1.7990001,0.12289121390331162,0.0,0.002366132078598853,0.0,200,0.03785300254821777,1.0158313809995692,1.3961019901649634,4200,0.5931393674275447,0.0
21,1.233227252960205,0.1837231691567111,0.09169056951757262,0.26037199490429824,0.02836823303016369,0.0,0.1385224904238494,0.1,0.004568338394165039,0.053179264068603516,0.05076934,1.099448,0.12897440942865157,0.0,0.003667284980409681,0.0,200,0.1434180736541748,0.46355094823796433,0.3204147171593901,4400,0.6139259223390222,0.0
22,1.260401725769043,0.23449860812247866,0.1683876516987988,0.4266102141110002,0.04103825850633328,0.0,0.136953567274036,0.1,0.003101825714111328,0.052851200103759766,0.050419703,1.117537,0.13952682929803428,0.0,0.004694649272364421,0.0,200,0.02700328826904297,0.4287378162846457,0.43503038382204023,4600,0.5252644515952701,0.0
23,1.31428861618042,0.17861707589282422,0.06518905302632741,0.2468394647421533,0.07106236905527544,0.0,0.1377301624793487,0.1,0.08373546600341797,0.055538177490234375,0.051269885,0.9992444,0.1434358539575133,0.0,0.0035401315528670314,0.0,200,0.026091337203979492,0.22005497191726892,0.21762239154013574,4800,0.5486413522188631,0.0
24,1.401440143585205,0.3238468147629779,0.15378833770443992,0.5046718127818024,0.08573359100410474,0.0,0.13433771288557342,0.1,0.005076885223388672,0.062185049057006836,0.05117767,1.2859449,0.16147695003805979,0.0,0.006426993846659592,0.0,200,0.01728534698486328,0.4842592550760224,0.4161330530469104,5000,0.4677488396362988,0.0
25,1.2943129539489746,0.10840422265549737,0.03455829239571576,0.13850806193227555,0.04974265740171591,0.0,0.13607006258141238,0.1,0.0050165653228759766,0.06822586059570312,0.049780194,1.3732288,0.15616967729980355,0.0,0.002163586968622978,0.0,200,0.03589773178100586,0.8595798623100955,1.0862604133681444,5200,0.5842169451651481,0.0
26,1.1977169513702393,0.10322726583361289,0.06649666744268394,0.1976808995729808,0.035572489286848745,0.0,0.1365950032036821,0.1,0.0843043327331543,0.05647397041320801,0.048903156,0.8476658,0.15087543615318447,0.0,0.0020592602416799636,0.0,200,0.1354203224182129,1.1447832705834573,0.7891059884856362,5400,0.7155178905956213,0.0
27,1.4376769065856934,0.1877359191320499,0.2261336686867213,0.5788791072087026,0.0408297037358662,0.0,0.12696318981155413,0.1,0.0856165885925293,0.05651092529296875,0.04965733,3.0875888,0.154561484451071,0.0,0.003744360823115268,0.0,200,0.08290910720825195,0.6395356399032912,0.6481831516124028,5600,0.7951541365698515,0.0
28,1.2147204875946045,0.11514965050913598,0.06430133105733388,0.18288336905789065,0.03767247242090315,0.0,0.13150111046534171,0.1,0.0034596920013427734,0.07229018211364746,0.049850687,1.2686701,0.15062030105687751,0.0,0.0023000650046056076,0.0,200,0.0482785701751709,0.422548253741827,0.3371558372953371,5800,0.7714682455219929,0.0
29,1.2857463359832764,0.16514404341345687,0.1146669884088972,0.3340553265558855,0.05432665372397338,0.0,0.12825709249984946,0.1,0.0031087398529052734,0.054581403732299805,0.049960732,1.9064754,0.15207267529253546,0.0,0.003304538235910369,0.0,200,0.02258753776550293,0.39999284244559163,0.41181842830812965,6000,0.7660545763341317,0.0
30,1.2379543781280518,0.2215128518275704,0.16001216251555303,0.4724397265316067,0.06259976039762281,0.0,0.14315140730465345,0.1,0.08447885513305664,0.18523597717285156,0.05046276,1.1380333,0.15901669294603896,0.0,0.004437817777483611,0.0,200,0.14176440238952637,0.4960869635990832,0.4681710861222522,6200,0.9430286172954996,0.0
31,1.223454475402832,0.23418390532287728,0.17045509065184639,0.4894231098974649,0.05206729745415874,0.0,0.14022516279527925,0.1,0.0029418468475341797,0.05562782287597656,0.048470274,1.2444649,0.16653341418372278,0.0,0.004686651407560598,0.0,200,0.04479336738586426,0.5228201481187714,0.4592549660294992,6400,0.8553080449771056,0.0
32,1.2512364387512207,0.23101225450843915,0.10662329030435692,0.41567483697089674,0.16805366530565669,0.0,0.13439812077566463,0.1,0.019916296005249023,0.2055978775024414,0.04933909,1.3993394,0.17298129821619443,0.0,0.004571455666025888,0.0,200,0.13785743713378906,0.31225092539220634,0.27659595384155905,6600,0.9569928808302306,0.0
33,1.2710671424865723,0.2774865238948661,0.11589894899976061,0.4630594278505916,0.1520295637817786,0.0,0.13603882706896459,0.1,0.08394289016723633,0.05457472801208496,0.050235678,1.2039139,0.18343182078406162,0.0,0.005563585234945881,0.0,200,0.03949737548828125,0.24655746670199094,0.21045001195237906,6800,0.9217616971964953,0.0
34,1.326927661895752,0.1376196957300342,0.06953932039431832,0.20864680231371868,0.049807810703687755,0.0,0.13648324407523668,0.1,0.003412008285522461,0.054534912109375,0.0493285,0.98049563,0.1788506082786589,0.0,0.0027246982724215196,0.0,200,0.05918622016906738,1.1849492696414547,0.8382999921355881,7000,0.4907674506746429,0.0
35,1.2670085430145264,0.3126815527485564,0.1851771546269848,0.6062694257624475,0.12363452629847038,0.0,0.13344566679503808,0.1,0.0029976367950439453,0.05526447296142578,0.05043791,1.3761717,0.19223370272564866,0.0,0.006222231919186664,0.0,200,0.11784672737121582,0.3706782325435318,0.3741856080793091,7200,0.7227995617277886,0.0
36,1.3524394035339355,0.32869999533903277,0.3855095827968302,0.9908190681741437,0.045967562279036214,0.0,0.1214213082438242,0.1,0.0031023025512695312,0.05460762977600098,0.04888203,2.1311026,0.20588033198698708,0.0,0.006474307103049435,0.0,200,0.027837514877319336,0.6731365112495088,0.6374569817318415,7400,0.5951068381457492,0.0
37,1.2550005912780762,0.11598508200532645,0.046178897404193224,0.19052049626301237,0.06576322244857566,0.0,0.12979555707582402,0.1,0.08352136611938477,0.16680097579956055,0.049840506,0.85702974,0.19689080698882103,0.0,0.0023005975331554396,0.0,200,0.05776524543762207,2.1043746459778356,1.7533534775456556,7600,0.5569889284188242,0.0
38,1.3775379657745361,0.27372139849840826,0.1304546561826366,0.4872530810246223,0.15370507988316318,0.0,0.13459903951327315,0.1,0.0051097869873046875,0.10846757888793945,0.050102297,1.6160034,0.20457386613977976,0.0,0.005475137471171296,0.0,200,0.14896821975708008,0.26500953895373097,0.2638580821024508,7800,0.5146345289589512,0.0
39,1.2784552574157715,0.2418564330390447,0.14370616710065479,0.38725977161358754,0.043979888432677715,0.0,0.12752230747193027,0.1,0.005060911178588867,0.0585176944732666,0.049251433,2.144555,0.20830212282970625,0.0,0.004857545818885926,0.0,200,0.029008150100708008,0.29493219467884046,0.29496696368599934,8000,0.7848083374199359,0.0
40,1.3226902484893799,0.3218710089121206,0.17861179144048958,0.5484236439285233,0.05378703959930168,0.0,0.13129447132516175,0.1,0.004893302917480469,0.06872940063476562,0.050240096,1.2059976,0.2196590114379477,0.0,0.006425879660775161,0.0,200,0.14598631858825684,0.35172746123118565,0.3243033652868992,8200,0.7455461327139311,0.0
41,1.360579252243042,0.5079253361276294,0.25299028790263517,0.8719485328237108,0.17092775097334784,0.0,0.1320852877964666,0.1,0.034583330154418945,0.0570216178894043,0.05055419,1.6349878,0.24848564390691585,0.0,0.010059104618146453,0.0,200,0.049310922622680664,0.4644259951131291,0.333859270054544,8400,0.728897188145385,0.0
42,1.3827424049377441,0.5184391454637125,0.22322471074078384,0.7720308704799769,0.2833720313913776,0.0,0.137416621812207,0.1,0.0046231746673583984,0.11256527900695801,0.04957144,1.0283645,0.2754809940625955,0.0,0.010305884326505968,0.0,200,0.11071586608886719,0.3178024647548655,0.23032509826526693,8600,0.4970485636268996,0.0
43,1.3373889923095703,0.5678416818219874,0.21827897275259758,0.9223697829394252,0.3384091904362293,0.0,0.1289094158386852,0.1,0.004749774932861328,0.17307782173156738,0.04979147,1.2877768,0.3047170628385347,0.0,0.011240795334723247,0.0,200,0.12176918983459473,0.21693926639883546,0.2200650034945725,8800,0.621742407078398,0.0
44,1.2260677814483643,0.4240504818336717,0.2892076810407672,0.8659098556656476,0.05964163836676688,0.0,0.12352715573404927,0.1,0.003520965576171875,0.05611824989318848,0.049916267,2.3790329,0.3166504047380484,0.0,0.008493509505640259,0.0,200,0.03317570686340332,0.6142961820399426,0.4343000247399426,9000,0.835976013233509,0.0
45,1.2337908744812012,0.27106247695780467,0.1791266571392824,0.5593673037207727,0.09269164864915795,0.0,0.1308497930996326,0.1,0.003246784210205078,0.05355572700500488,0.049779862,0.9472785,0.31209161196002405,0.0,0.005332080494023348,0.0,200,0.023025035858154297,0.8129999532423579,0.40021327901057,9200,0.9133898424525212,0.0
46,1.2197728157043457,0.3144330652575559,0.25348418641737075,0.7313453340175441,0.04721558240987488,0.0,0.13942092527707664,0.1,0.0029609203338623047,0.05356550216674805,0.050591625,1.0843985,0.31232575728977724,0.0,0.006289306517447856,0.0,200,0.03122091293334961,0.5174755159078626,0.5407394542018092,9400,0.8166817658823176,0.0
47,1.2549018859863281,0.37908091306022607,0.19230404077498742,0.6527246012466122,0.11010150811538369,0.0,0.1260829440464898,0.1,0.0031828880310058594,0.05346179008483887,0.049329985,1.7075653,0.31900127286682217,0.0,0.007565936121310075,0.0,200,0.07876086235046387,0.4190857732193666,0.3394208389558235,9600,0.9253847277047765,0.0
48,1.3041603565216064,0.425821541287448,0.19926975039801198,0.7226416098168077,0.16154060689662852,0.0,0.13259280608848883,0.1,0.0027894973754882812,0.05249190330505371,0.050249886,1.8949862,0.32968329970888477,0.0,0.008509155094151715,0.0,200,0.034279584884643555,0.3162860844009534,0.25684152970264856,9800,0.9894160880143255,0.0
49,1.2296504974365234,0.26422975578355545,0.08127649920666478,0.34554946604500414,0.15297743434045083,0.0,0.12886139291582022,0.1,0.0757303237915039,0.07534265518188477,0.049861442,0.97598374,0.32313794531635187,0.0,0.005267717614967936,0.0,200,0.030090808868408203,0.2014116511328678,0.27941368719966464,10000,1.009792185772136,0.0
50,1.2982242107391357,0.20952612043186603,0.1408484792717873,0.4381870568104835,0.06309995670734608,0.0,0.12597189075885587,0.1,0.08396005630493164,0.09016060829162598,0.04988194,1.0332538,0.3117767628279033,0.0,0.004166318317848419,0.0,200,0.0588071346282959,0.7170751370493644,0.604993707342096,10200,0.9804698579757832,0.0
51,1.3233909606933594,0.32904528419322954,0.02960278120002027,0.36478519525260333,0.2855368200234493,0.0,0.12975524513803785,0.1,0.005027294158935547,0.24837589263916016,0.050239757,1.0182242,0.3135036149644359,0.0,0.006563690043911812,0.0,200,0.023719310760498047,0.08042335462589746,0.08783311869146286,10400,1.1912364915330191,0.0
52,1.2856342792510986,0.21153205193998204,0.08112118348408723,0.2749172193602228,0.07477997377374442,0.0,0.12668885929479895,0.1,0.0046465396881103516,0.1331644058227539,0.050592933,1.378406,0.3033064586619905,0.0,0.004206411457908539,0.0,200,0.036824941635131836,0.3646481209494162,0.25750319788557846,10600,1.2933366114303166,0.0
53,1.3376750946044922,0.3584621065320697,0.31631664062628034,0.8970293505392475,0.08910196403322136,0.0,0.13443120494686775,0.1,0.004815816879272461,0.05853533744812012,0.049698543,1.8729602,0.30882202344899845,0.0,0.0071414664414747985,0.0,200,0.13248753547668457,0.5146026104329712,0.5205100741506408,10800,1.1576614803765108,0.0
54,1.2811691761016846,0.5409192570371836,0.1271860091455063,0.7513665818451474,0.4286874938350692,0.0,0.120966639316651,0.1,0.006856679916381836,0.09045290946960449,0.04831449,2.1388984,0.33203174680781694,0.0,0.010775398284227468,0.0,200,0.028910398483276367,0.37927333669250085,0.30200157152801943,11000,1.1610046820751616,0.0
55,1.2860586643218994,0.349208120712156,0.1420153662360368,0.5557734472898045,0.16439727470154855,0.0,0.13150466718647036,0.1,0.003229856491088867,0.05703449249267578,0.050119687,1.522305,0.33374938419825084,0.0,0.0069585880886803295,0.0,200,0.02756476402282715,0.192730086281131,0.17088117939730618,11200,1.3437776083707114,0.0
56,1.3028333187103271,0.19418603895401515,0.055143406957298524,0.2542927562855054,0.10447572315094532,0.0,0.11773942990745245,0.1,0.004823446273803711,0.13589048385620117,0.0501896,0.79759616,0.31979304967382727,0.0,0.0038411105770523846,0.0,200,0.14346790313720703,0.7133212423856061,0.7259939886092683,11400,1.3706335450867566,0.0
57,1.3620479106903076,0.3425112310646054,0.2116169525272946,0.5963305697905056,0.046017655081374946,0.0,0.12667096456926086,0.1,0.0032029151916503906,0.053202152252197266,0.050384466,0.98498833,0.3220648678129051,0.0,0.006837556301381326,0.0,200,0.14298415184020996,0.31312891736666787,0.3038130724096249,11600,1.2511491166855238,0.0
58,1.369072437286377,0.2319664653092925,0.09718556085606675,0.37315421639878377,0.11762967165646675,0.0,0.1275402291353387,0.1,0.08313179016113281,0.17527318000793457,0.050181095,1.3045754,0.31305502756254383,0.0,0.004638457354999919,0.0,200,0.13015174865722656,0.34155773203117296,0.26195569232900046,11800,1.3701833974866025,0.0
59,1.4077763557434082,0.3714551672443579,0.15602814147108646,0.5892874432014835,0.14975613306169971,0.0,0.12802669835082522,0.1,0.07328915596008301,0.053585052490234375,0.050014686,1.467884,0.31889504153072523,0.0,0.007392003759696038,0.0,200,0.11942410469055176,0.2328121080685246,0.2403177003123245,12000,1.3141516634118384,0.0
60,1.316171407699585,0.22585217982862543,0.08543496722693789,0.3220248302761378,0.13832703153757642,0.0,0.12565941131302,0.1,0.01759171485900879,0.054193735122680664,0.049713887,0.95137805,0.3095907553605153,0.0,0.004510301888371935,0.0,200,0.14307737350463867,0.26753320853114443,0.22923271868124542,12200,1.291774600034277,0.0
61,1.2497057914733887,0.39494864932868423,0.26550502305207974,0.8482232261117091,0.19580135566690796,0.0,0.12386304077306393,0.1,0.08187246322631836,0.061532020568847656,0.048628654,2.7630475,0.31812654475733215,0.0,0.007849256507608158,0.0,200,0.026735305786132812,0.4428216249851519,0.4252019174441784,12400,1.0364079121887915,0.0
62,1.4068150520324707,0.4588702899854826,0.25178493243328826,0.7151433019870619,0.10488786923218212,0.0,0.12900054033274153,0.1,0.002917051315307617,0.05475330352783203,0.049828194,1.1373912,0.33220091928014717,0.0,0.00917271318306378,0.0,200,0.024443864822387695,0.376200144412045,0.33297953544631437,12600,1.0031546587112452,0.0
63,1.3748810291290283,0.30320520426226855,0.08888158483434701,0.40393980151996395,0.18336275985322642,0.0,0.13064067558417788,0.1,0.003228902816772461,0.16144537925720215,0.049485154,1.1142079,0.3293013477783593,0.0,0.005961884945605275,0.0,200,0.04143333435058594,0.13347987849891646,0.1523068243790698,12800,0.8768788743448916,0.0
64,1.4100735187530518,0.3966028068751102,0.1652974903080248,0.676450737529998,0.27343960394524686,0.0,0.12786781504241748,0.1,0.004956483840942383,0.07877087593078613,0.049396362,1.5513364,0.3360314936880344,0.0,0.007816939900626759,0.0,200,0.13746404647827148,0.17747739377890492,0.16785044476375907,13000,1.0077998260201986,0.0
65,1.2858633995056152,0.503980097569761,0.2730645798287345,0.8118946855850526,0.10940435094146854,0.0,0.1263717973374874,0.1,0.0031714439392089844,0.059334516525268555,0.050737042,1.2862463,0.3528263540762071,0.0,0.010068158804984286,0.0,200,0.10342741012573242,0.32515248739158026,0.3072069720469061,13200,1.1629779688507789,0.0
66,1.28523850440979,0.5043070995479528,0.2410942698062957,0.7993588803550237,0.20866939719892746,0.0,0.1287458996250704,0.1,0.05305075645446777,0.25914669036865234,0.04890072,1.0801204,0.3679744286233817,0.0,0.010030100085373141,0.0,200,0.13595986366271973,0.2596827245232076,0.2437043614038697,13400,1.2592631220022155,0.0
67,1.290503978729248,0.2688955342812861,0.14604546829758583,0.4548890993969811,0.08174628405592792,0.0,0.13335945614325215,0.1,0.003076314926147461,0.05601620674133301,0.04951854,1.0879965,0.35806653918917214,0.0,0.005350550269440853,0.0,200,0.07553791999816895,0.7211716140350487,0.5240071021964438,13600,1.1688532069471864,0.0
68,1.4404480457305908,0.39422821577583617,0.10521932509097859,0.513165092710531,0.22439530339688182,0.0,0.127353747403374,0.1,0.003361940383911133,0.06122016906738281,0.04988886,1.270634,0.36168270684783854,0.0,0.007877793091864996,0.0,200,0.12435054779052734,0.14373342802534045,0.13413403007197003,13800,0.9815386802965017,0.0
69,1.2413907051086426,0.49199183347346265,0.16864225178700748,0.7201513672102291,0.2753485542847282,0.0,0.1235419299701042,0.1,0.08381462097167969,0.09206008911132812,0.049575176,6.424088,0.37471361951040094,0.0,0.009748245892147797,0.0,200,0.03836822509765625,0.22602183177873902,0.2182348754852538,14000,1.087200205597257,0.0
70,1.2766308784484863,0.29751571148067846,0.3133903560991625,0.8248654353489148,0.023345771897120685,0.0,0.12061698255390799,0.1,0.0035483837127685547,0.05592489242553711,0.050226964,1.9448334,0.36699382870742875,0.0,0.005908015589430292,0.0,200,0.05301237106323242,0.5984633889708395,0.6006063570485795,14200,0.9242877796302785,0.0
71,1.342207431793213,0.6301775863153192,0.35141009617804675,1.2243317810186682,0.31480629958800954,0.0,0.12425138714534549,0.1,0.08468484878540039,0.3560447692871094,0.049343757,2.000019,0.3933122044682178,0.0,0.012174023243447999,0.0,200,0.03623390197753906,0.3712028799695318,0.30536900753034185,14400,1.206492459694387,0.0
72,1.341102123260498,0.5210352299616207,0.21111990375437123,0.862824643116018,0.33949396652675645,0.0,0.13099754178531217,0.1,0.06704306602478027,0.05643272399902344,0.049931973,1.1222317,0.4060845070175581,0.0,0.010368922566588201,0.0,200,0.06376194953918457,0.19928462333167546,0.21682742043871872,14600,1.0046156201882628,0.0
73,1.3356785774230957,0.5090280726494416,0.1378950409817489,0.6692504973428324,0.3040990146643043,0.0,0.12666425842442272,0.1,0.004835605621337891,0.05980086326599121,0.04968297,1.0169753,0.4163788635807465,0.0,0.010189016643008355,0.0,200,0.038645267486572266,0.13954221936045438,0.1435081216780811,14800,1.1704234489432832,0.0
74,1.357933759689331,0.4888618583082394,0.2278390645975932,0.7933312287214476,0.18375897493130236,0.0,0.12477300829135202,0.1,0.0034704208374023438,0.056313514709472656,0.049631964,1.6319854,0.4236271630534958,0.0,0.00973939543605618,0.0,200,0.13481855392456055,0.24867857499143098,0.201944226789778,15000,0.24682804279774337,0.0
75,1.369551420211792,0.4200359982167027,0.03779275183436054,0.4557106775529897,0.36231673697905703,0.0,0.12768514057740285,0.1,0.0049588680267333984,0.0666508674621582,0.04981903,1.0241692,0.42326804656981654,0.0,0.008393638256426632,0.0,200,0.028242111206054688,0.17388629931373373,0.09380727428777032,15200,1.0876715942236304,0.0
76,1.2824881076812744,0.5275037267894802,0.2782101237404922,0.9458092227666332,0.18948901375470886,0.0,0.13084763520697137,0.1,0.003017425537109375,0.11832809448242188,0.050835382,2.82291,0.43369161459178296,0.0,0.010415421247451984,0.0,200,0.14452433586120605,0.355171369756582,0.3606451613265668,15400,1.446334230474544,0.0
77,1.3837482929229736,0.3642660335292771,0.2535945339668157,0.7231832872826068,0.045099502856605404,0.0,0.12568866196304207,0.1,0.004553556442260742,0.05711174011230469,0.04989951,1.3632797,0.42674905648553235,0.0,0.007292283753084966,0.0,200,0.13802075386047363,0.38078322274453325,0.3720422616816067,15600,0.9070767919780899,0.0
78,1.3728971481323242,0.3979220254979483,0.1682145658289008,0.539936511827959,0.12569285399260238,0.0,0.13316033078422101,0.1,0.08416414260864258,0.22702670097351074,0.050112195,0.9887019,0.4238663533867739,0.0,0.007802751017431773,0.0,200,0.11765313148498535,0.22053673372630217,0.2162031920864366,15800,1.6276385293862548,0.0
79,1.443972110748291,0.5424371509925623,0.2538041865066653,0.8606341236587571,0.20500365976996365,0.0,0.1329360590716409,0.1,0.003125905990600586,0.05914950370788574,0.049643654,1.1874539,0.4357234331473528,0.0,0.010678484071508891,0.0,200,0.14948320388793945,0.26438805726550546,0.24416174473377442,16000,1.4179980586853773,0.0
80,1.6963582038879395,0.2581989438826068,0.12660772649043311,0.4700545935649113,0.14839763583107785,0.0,0.131989578796341,0.1,0.013011932373046875,0.0649878978729248,0.049528204,1.0326461,0.4179709842208782,0.0,0.0051067342179744735,0.0,200,0.12654852867126465,0.41704619921960445,0.40143270667707387,16200,1.0547033467015778,0.0
81,1.329357385635376,0.3832722424224574,0.1290383310910482,0.5090727900386397,0.19676275471576726,0.0,0.12085475585398027,0.1,0.0034520626068115234,0.05741477012634277,0.049345322,1.4583381,0.4145011100410362,0.0,0.0075854735831788955,0.0,200,0.11764264106750488,0.15559302877650014,0.14865705273092525,16400,1.2083718571806576,0.0
82,1.3165795803070068,0.46729297663203595,0.3245738760996778,0.9170091518191082,0.04306570780277206,0.0,0.11955041025889643,0.1,0.0030393600463867188,0.05612826347351074,0.049685787,2.1168385,0.41978029670013617,0.0,0.009341834345669129,0.0,200,0.06784701347351074,0.3873251121703832,0.38689653391770906,16600,0.891152854762017,0.0
83,1.375929832458496,0.6562085361117169,0.249894137479719,0.8814524294350143,0.25689014403693106,0.0,0.12082738440232751,0.1,0.005261659622192383,0.0556638240814209,0.049825396,1.117113,0.44342312064129424,0.0,0.013042961204110637,0.0,200,0.12967848777770996,0.3333003725761306,0.274722584824102,16800,1.007362408669578,0.0
84,1.2815296649932861,0.7262951587173494,0.6379566032110293,1.8140611900196657,0.23288124662284218,0.0,0.12083990245089138,0.1,0.003416776657104492,0.06341695785522461,0.05014424,2.487716,0.47171032444889976,0.0,0.014374403136463442,0.0,200,0.06600570678710938,0.5809040268326117,0.5135989199234352,17000,1.1711201778092561,0.0
85,1.2887029647827148,0.46701347551256356,0.27415623914861204,0.819201958706354,0.049854345758440236,0.0,0.12539251603447277,0.1,0.004904270172119141,0.3862333297729492,0.04964124,0.73382616,0.4712406395552662,0.0,0.00915079361080745,0.0,200,0.038454532623291016,0.3869783188892108,0.44220415705340943,17200,1.1229825537208658,0.0
86,1.3198246955871582,0.42097035160463153,0.37005563496897376,1.0594011299076818,0.15700750368019975,0.0,0.12489952818237775,0.1,0.0029478073120117188,0.06217551231384277,0.04983929,1.8730507,0.46621361076020273,0.0,0.008368129296818197,0.0,200,0.13280653953552246,0.7161958654670544,0.5550224546251917,17400,1.7710479076724746,0.0
87,1.3413498401641846,0.4770824491197375,0.2456706393288783,0.8670018290688289,0.2305232090981012,0.0,0.1295942061215809,0.1,0.0032553672790527344,0.05590224266052246,0.04960631,1.4114398,0.4673004945961562,0.0,0.009413433402003017,0.0,200,0.03119039535522461,0.29054203358978,0.2837891798751408,17600,1.4577808901804736,0.0
88,1.3429927825927734,0.4478887902107542,0.15438902029572796,0.6750642384254627,0.2429851646444196,0.0,0.12275559132751311,0.1,0.032936811447143555,0.05545473098754883,0.050224394,1.4220096,0.465359324157616,0.0,0.008844037167449798,0.0,200,0.038489580154418945,0.15355974796673752,0.16768006354069584,17800,1.2875326364899895,0.0
89,1.3283915519714355,0.4000484249527725,0.22210456330872266,0.6779320625948678,0.05661744454496584,0.0,0.12010733698955285,0.1,0.08435893058776855,0.38976263999938965,0.050911225,1.7733835,0.45882823423713165,0.0,0.007880720413651574,0.0,200,0.04156327247619629,0.3114556753895827,0.30341154115429325,18000,1.086414345312821,0.0
90,1.3346459865570068,0.38588193131735443,0.24180764680529604,0.7623301868224267,0.13496490820415352,0.0,0.12776907641715077,0.1,0.08433699607849121,0.05428171157836914,0.049348794,1.3742015,0.45153360394515396,0.0,0.007701231771840405,0.0,200,0.14269232749938965,0.3120382294068648,0.3139400156370546,18200,1.4313374080939576,0.0
91,1.32533597946167,0.13426658179135625,0.11950718236041409,0.33585460428265224,0.040320468054768785,0.0,0.12573260706661954,0.1,0.08631634712219238,0.18004345893859863,0.04996238,0.80231446,0.4198069017297742,0.0,0.002674740220634652,0.0,200,0.1295313835144043,2.2223058305405776,1.6268301622758374,18400,1.5829509923169163,0.0
92,1.3756184577941895,0.27013739722642016,0.22162500567575932,0.5089387491013154,0.028693805012798237,0.0,0.12419316235827729,0.1,0.03823089599609375,0.16115760803222656,0.05016308,1.4740214,0.40483995127943884,0.0,0.005353587112733948,0.0,200,0.020192623138427734,0.5215923133474349,0.5152970048460035,18600,1.5201846517849855,0.0
93,1.4304542541503906,0.34204434292291547,0.22973469215508885,0.6961907850015825,0.05298522421704216,0.0,0.12751565800396944,0.1,0.002963542938232422,0.06316184997558594,0.049784664,1.5093342,0.3985603904437865,0.0,0.006801378698008096,0.0,200,0.0383148193359375,0.3654368439820835,0.3703660190896394,18800,1.738511710632647,0.0
94,1.2904975414276123,0.7556291500365742,0.40745763660537004,1.4610555750050465,0.5087475898495274,0.0,0.12063737931219842,0.1,0.0035390853881835938,0.061223506927490234,0.050417002,1.8554317,0.4342672664030653,0.0,0.014662482380227887,0.0,200,0.08939385414123535,0.618471203330837,0.5282261509814626,19000,1.7992732581598687,0.0
95,1.3135347366333008,0.667573622367007,0.5195644370840534,1.5561833888147412,0.25622230956922426,0.0,0.11426645126571493,0.1,0.0049304962158203125,0.0644984245300293,0.05000551,3.9154837,0.4575979019994595,0.0,0.013241929559511267,0.0,200,0.03356194496154785,0.6031230246424056,0.5165067869247266,19200,2.141202574363698,0.0
96,1.3233349323272705,0.8604041902329791,0.10315356146557639,1.0273651553119008,0.7671628534960813,0.0,0.1234234315348607,0.1,0.00298309326171875,0.05373358726501465,0.049756397,0.9707148,0.49787853082281147,0.0,0.0170489031140674,0.0,200,0.13952040672302246,0.31829558604587305,0.1902769344882555,19400,0.8684691706651804,0.0
97,1.3914985656738281,0.4196066709474334,0.12754627127319637,0.5893176765023924,0.29042991711313837,0.0,0.12247020077582894,0.1,0.0030405521392822266,0.0538179874420166,0.05033557,1.3201872,0.4900513448352737,0.0,0.008330553433211516,0.0,200,0.13262367248535156,0.40759379227034465,0.6276383754053821,19600,1.5424950098844892,0.0
98,1.3374130725860596,0.4844704309965605,0.2886725625393262,0.8925720344544545,0.16626917513826409,0.0,0.12678014237054874,0.1,0.04349231719970703,0.05472302436828613,0.05028999,1.5209632,0.4894932534514024,0.0,0.009687748856625449,0.0,200,0.1434342861175537,0.500399924383342,0.4213983212592682,19800,1.5705523137881598,0.0
99,1.3328635692596436,0.4662062400049232,0.16621314375409393,0.743573185899225,0.3102981009245305,0.0,0.12002989489562758,0.1,0.0029289722442626953,0.05445075035095215,0.050055295,1.4955815,0.48716455210675447,0.0,0.00929106991877417,0.0,200,0.03188323974609375,0.3851329030331846,0.22701037629995013,20000,1.9565842658576518,0.0
100,1.4219303131103516,0.36704111703764664,0.19646903296268078,0.6723356779612052,0.12371141341876252,0.0,0.13541729099018637,0.1,0.0056552886962890625,0.08117818832397461,0.050127864,1.1929249,0.4751522085998437,0.0,0.007316484728478843,0.0,200,0.029839754104614258,0.4705256816700455,0.2883489487479242,20200,2.1056244033422318,0.0
101,1.4114952087402344,0.3493975349948307,0.21734531252149691,0.5457077687951435,0.018121967329081636,0.0,0.11935030653076978,0.1,0.0836184024810791,0.05529952049255371,0.050162688,1.1518886,0.4625767412393424,0.0,0.006978551732324391,0.0,200,0.0484163761138916,0.41253626187904485,0.33088504937998287,20400,1.3833666196086032,0.0
102,1.3610403537750244,0.4409202178491942,0.27302844134185833,0.7871013550671846,0.16745547327531285,0.0,0.13219319385401362,0.1,0.08375120162963867,0.05567193031311035,0.05015462,1.3587309,0.4604110889003276,0.0,0.008723772279543785,0.0,200,0.02721261978149414,0.3584487595343822,0.38747471751337376,20600,1.0356714018460245,0.0
103,1.4399144649505615,0.6098660775030101,0.2931279072325281,0.960694076639759,0.2566989712023675,0.0,0.12658265388728826,0.1,0.00500035285949707,0.0725712776184082,0.04990165,1.1783086,0.47535658776059586,0.0,0.01212570057501689,0.0,200,0.047991037368774414,0.42454862103519525,0.3960720862532976,20800,0.8404599332315471,0.0
104,1.4082801342010498,0.5055886822346805,0.08725572380801495,0.5845830331055373,0.36727836476936415,0.0,0.1253275194555767,0.1,0.0030579566955566406,0.0683290958404541,0.049980048,1.1003637,0.47837979720800433,0.0,0.01002031449865608,0.0,200,0.14606285095214844,0.18437169119713653,0.13510665806626793,21000,1.0814258950785594,0.0
105,1.4638803005218506,0.49229168934596457,0.43176660564386476,1.099327551285414,0.05438644807243441,0.0,0.12425207316836534,0.1,0.08372640609741211,0.09038400650024414,0.04971407,1.8409275,0.4797709864218003,0.0,0.009635380570321966,0.0,200,0.0865786075592041,0.5087131200984352,0.48776565591909693,21200,1.6433758403462486,0.0
106,1.3573243618011475,0.6168142779893057,0.11230507279730105,0.7533526938133227,0.4910682335957554,0.0,0.11774026267590051,0.1,0.08487224578857422,0.1567678451538086,0.04902401,1.5906352,0.49347531557855084,0.0,0.012312675282147495,0.0,200,0.0416257381439209,0.18392002222001885,0.1353044627560102,21400,1.446360037176739,0.0
107,1.385124683380127,0.6776856955164625,0.05062675681526896,0.7598091722421957,0.6213742929743722,0.0,0.11990779467521254,0.1,0.002893686294555664,0.15056371688842773,0.049437694,1.6268301,0.511896353572342,0.0,0.013400604949128906,0.0,200,0.05246686935424805,0.1438596697366097,0.08820107850221591,21600,1.841856782635224,0.0
108,1.3422203063964844,0.6453738434956927,0.18154526624195755,0.8855003668031308,0.4132232750495939,0.0,0.13343026442558817,0.1,0.0027625560760498047,0.08737015724182129,0.050021574,0.98132,0.525244102564677,0.0,0.01271398220410186,0.0,200,0.0246427059173584,0.12981628354802222,0.12079429183419561,21800,0.7837815503305771,0.0
109,1.4247088432312012,0.392805217640471,0.12931999896619198,0.5354200194057773,0.19507713531801532,0.0,0.12575293269284177,0.1,0.08327078819274902,0.08605575561523438,0.049028445,1.4527769,0.5120002140722564,0.0,0.007739948235972318,0.0,200,0.08787989616394043,0.5659829635321993,0.5049410105595626,22000,0.6172402094473116,0.0
110,1.4082615375518799,0.449703867548358,0.240687727978838,0.6782892128663763,0.04710955179077461,0.0,0.12871391870135837,0.1,0.0029234886169433594,0.10154914855957031,0.049812354,0.98899454,0.5057705794198666,0.0,0.008979066190256494,0.0,200,0.03360271453857422,0.3613951634560535,0.2791014241509528,22200,0.5821838151013263,0.0
111,1.4203085899353027,0.6691487788801966,0.3491837496751356,1.0964267769162492,0.27150947439730055,0.0,0.12475181164553589,0.1,0.0029931068420410156,0.0697329044342041,0.049427982,1.4141546,0.5221083993658996,0.0,0.013143137539011716,0.0,200,0.06251668930053711,0.3329540464823183,0.3418173514165635,22400,0.0685943312509462,0.0
112,1.3843169212341309,0.5094922150343343,0.23083097603400593,0.75466111571263,0.14356042132437744,0.0,0.12866179737351208,0.1,0.08392715454101562,0.055413007736206055,0.049483363,1.102066,0.5208467809327431,0.0,0.01016184904037456,0.0,200,0.0799257755279541,0.21738218636611964,0.21559278508148338,22600,0.4288680454027696,0.0
113,1.3417530059814453,0.3500554717937273,0.13597576938204142,0.5806860693526716,0.24773770041226456,0.0,0.1251508806394486,0.1,0.003201723098754883,0.05550098419189453,0.049788155,1.3749985,0.5037676500188415,0.0,0.006964876517783814,0.0,200,0.13186955451965332,0.38558945512219045,0.32868365820640016,22800,0.32373521457526466,0.0
114,1.343461036682129,0.8894800749424734,0.4504998735167536,1.5760542489708753,0.4391909351718654,0.0,0.12137823713573323,0.1,0.0030972957611083984,0.05691933631896973,0.05006835,1.9693233,0.5423388925112047,0.0,0.017603874534715958,0.0,200,0.05422520637512207,0.40731817652768015,0.3760432317167193,23000,0.2196251184767176,0.0
115,1.4006118774414062,0.509880099401216,0.19364037846441776,0.76640818952919,0.2966100847196914,0.0,0.12024008550872796,0.1,0.0029153823852539062,0.054700613021850586,0.050099537,1.8323703,0.5390930132002059,0.0,0.010153719835325125,0.0,200,0.14595866203308105,0.16273897624126601,0.17804741791922557,23200,0.27400498654940825,0.0
116,1.456343173980713,0.575883730768953,0.15002279632092758,0.7316081807766789,0.36970090083685836,0.0,0.11989714198097351,0.1,0.0029625892639160156,0.05363106727600098,0.04975215,1.6436011,0.5427720849570806,0.0,0.011072759114928351,0.0,200,0.1236867904663086,0.13898379256507584,0.13646757199235848,23400,0.4033197350013314,0.0
117,1.4287903308868408,0.6037571469352105,0.21548103495293242,0.8198903306182075,0.25385672672695947,0.0,0.13207512472363453,0.1,0.0028324127197265625,0.05311179161071777,0.05044445,0.9696176,0.5488705911548937,0.0,0.011993751436388261,0.0,200,0.06857514381408691,0.17621549251945454,0.17363819425722654,23600,0.4966040246247543,0.0
118,1.3494668006896973,0.5577693040779786,0.18691688625047315,0.6968083179219133,0.24092737588766686,0.0,0.13006184495374906,0.1,0.0030019283294677734,0.053365468978881836,0.049872722,0.7387349,0.5497604624472022,0.0,0.011093989866910035,0.0,200,0.07101082801818848,0.1454888287079539,0.14003590704557223,23800,0.28834030624746004,0.0
119,1.398890733718872,0.5547427287823385,0.22093747864431545,0.8378319912994425,0.26843288041447827,0.0,0.12270351288512381,0.1,0.06595516204833984,0.0548863410949707,0.049864933,1.1223545,0.5502586890807158,0.0,0.010864547295204027,0.0,200,0.1340012550354004,0.19218454005668045,0.18648197110224402,24000,0.8282989628314467,0.0
120,1.36460542678833,0.31190952257719723,0.19360733517029782,0.5982849171509813,0.07596605382083227,0.0,0.11963731632997235,0.1,0.0030028820037841797,0.05377531051635742,0.050274923,2.5109699,0.526423772430364,0.0,0.00620030927591976,0.0,200,0.14032387733459473,0.8832893574473563,0.6387628208049112,24200,1.0226117830450006,0.0
121,1.44740629196167,0.30600720842930074,0.22480615103296933,0.6947823681354337,0.1610228879339229,0.0,0.11961215077243577,0.1,0.0031473636627197266,0.05973339080810547,0.04992718,1.2025796,0.5043821160302576,0.0,0.00606753998716315,0.0,200,0.07389187812805176,0.7779269168899978,0.5443630932872904,24400,0.8810927310605657,0.0
122,1.3996403217315674,0.4091983348028786,0.2543714995297913,0.8288728588970412,0.1434416293564284,0.0,0.1228254697353841,0.1,0.002994537353515625,0.05370950698852539,0.04946027,1.5479867,0.49486373790751975,0.0,0.008137697564313139,0.0,200,0.09116125106811523,0.31881696295289264,0.3117625356790611,24600,1.5860346801813734,0.0
123,1.3646354675292969,0.4898388593296404,0.19906512502211876,0.7888401919834138,0.298668746885036,0.0,0.12019012389020386,0.1,0.0029287338256835938,0.05539107322692871,0.049698487,1.4872577,0.4943612500497318,0.0,0.009765097817826491,0.0,200,0.0952000617980957,0.19909556859183553,0.21466436473086128,24800,0.8681540435961569,0.0
124,1.3704719543457031,0.4710401501040461,0.27991739397112353,0.8394223362560315,0.051195406368362555,0.0,0.11619879197023783,0.1,0.014178991317749023,0.055422067642211914,0.050493415,2.891932,0.49202914005516324,0.0,0.00933167019740136,0.0,200,0.06279683113098145,0.3959978565945441,0.37155267579673096,25000,0.7911934172659963,0.0
125,1.3942503929138184,0.39645509021051195,0.23181506718238312,0.6677802956761514,0.040547755615375575,0.0,0.1244105649752376,0.1,0.006848573684692383,0.06174921989440918,0.050045155,0.92841357,0.4824717350706981,0.0,0.007881441281612911,0.0,200,0.04253244400024414,0.322366692178913,0.31233759701071717,25200,0.7284058653885589,0.0
126,1.4027912616729736,0.44100088877912114,0.20562889506073398,0.7632743444426394,0.25790290417576656,0.0,0.1163188125394294,0.1,0.0813603401184082,0.054615020751953125,0.050127316,2.13767,0.47832465044154043,0.0,0.008732322436956244,0.0,200,0.041973114013671875,0.2089208974974885,0.20432843747879872,25400,0.8837904861880498,0.0
127,1.547640085220337,0.5803614864008052,0.3408441290091168,0.9687603330718818,0.06440619234772804,0.0,0.12722619880495492,0.1,0.003341197967529297,0.055129289627075195,0.0495256,1.031511,0.48852833403746687,0.0,0.011147864338410404,0.0,200,0.13248443603515625,0.3633879481135573,0.3441866005793518,25600,0.7340283401746261,0.0
128,1.4647853374481201,0.6616957867754549,0.2557762355496006,0.9727475592859188,0.384424759299466,0.0,0.12162240290268245,0.1,0.0033807754516601562,0.05392265319824219,0.049570635,1.3906952,0.5058450793112657,0.0,0.013197336318021117,0.0,200,0.11949849128723145,0.24458972710153418,0.20844524758569938,25800,0.5631087128289695,0.0
129,1.5097198486328125,0.6216573092362017,0.3132820206897517,1.1223284471903834,0.26063305786012225,0.0,0.11987619831930897,0.1,0.004721641540527344,0.22509455680847168,0.04995775,1.9883786,0.5174263023037593,0.0,0.012305309953547169,0.0,200,0.11058855056762695,0.2775860015729305,0.2526468692372996,26000,0.16514085685686694,0.0
130,1.3424789905548096,0.6234068981687684,0.22381087071154204,0.9880641596153443,0.3969194215245265,0.0,0.12381375353736122,0.1,0.004723787307739258,0.32778024673461914,0.049987182,1.7720239,0.5280243618902603,0.0,0.012326664104501804,0.0,200,0.03178119659423828,0.1906440325237829,0.17966031332732443,26200,0.1525083546883631,0.0
131,1.339205265045166,0.4719899074420509,0.24021596280496754,0.7706117271374712,0.12699644876887894,0.0,0.12333043698818096,0.1,0.08413815498352051,0.07033777236938477,0.049928907,0.94471055,0.5224209164454393,0.0,0.009275871271276485,0.0,200,0.029597997665405273,0.3088120083648459,0.27340950649930207,26400,0.3817384287699656,0.0
132,1.4169540405273438,0.5383259459726207,0.14756884054586464,0.7455669943983578,0.3361647391899779,0.0,0.12206566732978937,0.1,0.08227753639221191,0.10241818428039551,0.049376488,1.0889199,0.5240114193981574,0.0,0.010718035869488598,0.0,200,0.08075094223022461,0.13395190872951623,0.11464438067576813,26600,1.5187874040426959,0.0
133,1.4802496433258057,0.8175574959954979,0.48547920548736223,1.3198567237839391,0.0632001641318542,0.0,0.11965531662711056,0.1,0.0068111419677734375,0.05916476249694824,0.04982935,1.3786472,0.5533660270578915,0.0,0.016132677415218274,0.0,200,0.0754234790802002,0.39289783504801046,0.37731187317151954,26800,0.49924645885074087,0.0
134,1.38509202003479,0.7982078358676593,0.3325442535503345,1.3506348149279916,0.5218789555212031,0.0,0.11438176185407978,0.1,0.003082752227783203,0.054051876068115234,0.049490616,8.298632,0.5778502079388683,0.0,0.01573349366092567,0.0,200,0.13986587524414062,0.2691781176273637,0.2220191305051478,27000,0.8117887899751058,0.0
135,1.4198284149169922,0.22312554184154643,0.0827871332884877,0.3301891121837392,0.09798588473260013,0.0,0.12046735358438222,0.1,0.002955913543701172,0.0551152229309082,0.0495841,1.2869774,0.5423777413291362,0.0,0.004384373486071567,0.0,200,0.040535926818847656,3.720615462235718,3.1434728097716205,27200,1.0699398632895651,0.0
136,1.394791841506958,0.6585186992806117,0.3152218334515866,1.1241301154302459,0.23859207614220415,0.0,0.12504896416821912,0.1,0.00496673583984375,0.19965648651123047,0.04898996,1.2437147,0.5539918371242838,0.0,0.012920479483528464,0.0,200,0.06090950965881348,0.21456777533427374,0.22923690156437262,27400,1.0153366064190295,0.0
137,1.3812410831451416,0.594429030421654,0.37000910141002674,1.159604514279806,0.15958595233893036,0.0,0.13084090583134633,0.1,0.0049877166748046875,0.06644725799560547,0.05012958,1.4061245,0.5580355564540208,0.0,0.01175148057294224,0.0,200,0.02673935890197754,0.31647140366137816,0.32058926087875733,27600,0.3279318534986975,0.0
138,1.3985059261322021,0.6669415263121543,0.21906147668548004,0.9433724593761368,0.42489973705014267,0.0,0.12368460940667332,0.1,0.003008127212524414,0.0537571907043457,0.049838964,1.1573232,0.5689261534398342,0.0,0.013255828990138035,0.0,200,0.01706528663635254,0.1760431031468327,0.17591183501171914,27800,1.1894878031600773,0.0
139,1.4138672351837158,0.8790008159537925,0.27277775419114786,1.1475796818315844,0.5178038042790087,0.0,0.12296966380166138,0.1,0.004805564880371094,0.057418107986450195,0.049335193,1.4296677,0.5999336196912302,0.0,0.016744479769875698,0.0,200,0.0447392463684082,0.29108148048466814,0.23650625812888196,28000,1.624529084570238,0.0
140,1.5109806060791016,0.7050140055472712,0.24760895986552997,1.0044108089050165,0.33535569045400004,0.0,0.12332562485366405,0.1,0.0034117698669433594,0.06648087501525879,0.04969309,1.7545843,0.6104416582768343,0.0,0.013917557653952086,0.0,200,0.14084196090698242,0.17390472140379254,0.15908723144485992,28200,1.2269088055198603,0.0
141,1.3910009860992432,0.41272253799050174,0.19044215899361355,0.7113337399321042,0.19306639259787636,0.0,0.12265033933643654,0.1,0.08191943168640137,0.05505204200744629,0.049710277,1.8716843,0.590669746248201,0.0,0.008130953337559416,0.0,200,0.1456615924835205,0.7140988814692716,0.6567841969712913,28400,1.9992976502627398,0.0
142,1.480905532836914,0.5702212730521627,0.4525001815580756,1.3051804463895202,0.1082493050469009,0.0,0.12372021322116344,0.1,0.058013200759887695,0.05340123176574707,0.049415283,1.8896505,0.5886248989285972,0.0,0.011283263311547463,0.0,200,0.12050223350524902,0.4663873244762194,0.4392450055039587,28600,0.9442636077098628,0.0
143,1.6222608089447021,0.7503251989104569,0.3024941428408357,1.2235138887030697,0.4795379704713799,0.0,0.12057888666945567,0.1,0.003108978271484375,0.05309128761291504,0.04976477,1.8421319,0.6047949289267831,0.0,0.014870902350689974,0.0,200,0.06444621086120605,0.2400771751472343,0.2481240274359234,28800,0.7744077534757051,0.0
144,1.510141372680664,0.6565061968377792,0.25899445147638617,0.9995615521184666,0.40015664960804354,0.0,0.1269417011574504,0.1,0.0031630992889404297,0.054886579513549805,0.049690876,1.2719418,0.6099660557178828,0.0,0.013028626129241574,0.0,200,0.1290760040283203,0.19412537835357016,0.19085721800828637,29000,1.038326558373918,0.0
145,1.4942264556884766,0.5699434297355767,0.29348429654935704,1.0080100775499663,0.23629132777497003,0.0,0.13027630816064448,0.1,0.003131389617919922,0.05516195297241211,0.049993172,1.2758588,0.6059637931196522,0.0,0.011108622918191938,0.0,200,0.09569311141967773,0.23149729410566267,0.2276903116531419,29200,0.8937636656976613,0.0
146,1.5426604747772217,0.45004945981632005,0.2401176997349309,0.7342289471422131,0.08587665939427384,0.0,0.123339535071499,0.1,0.06260156631469727,0.0547332763671875,0.049784046,1.1858568,0.590372359789319,0.0,0.008956053218443729,0.0,200,0.02461719512939453,0.3879954759254238,0.337752646799224,29400,0.7372469915267893,0.0
147,1.3808019161224365,0.4650314458984814,0.19821892963670826,0.6386664308037864,0.15350793726299816,0.0,0.12445713975695764,0.1,0.002897977828979492,0.05492424964904785,0.049864493,1.0617323,0.5778382684002353,0.0,0.009162339437343438,0.0,200,0.0726006031036377,0.2447935817430151,0.22339348788364963,29600,0.7508811607733138,0.0
148,1.4041457176208496,0.6328689946118223,0.4693188078661189,1.1920036840442472,0.08340001221421764,0.0,0.1202559958350828,0.1,0.002979755401611328,0.05508065223693848,0.05014309,1.1068135,0.5833413410213941,0.0,0.01260409027319262,0.0,200,0.03549647331237793,0.43446766423147065,0.4393786383426856,29800,0.8515590087270124,0.0
149,1.367204189300537,0.6205630696932809,0.28898846008925977,1.0977478375946765,0.3518451575435826,0.0,0.12453264134859589,0.1,0.007284641265869141,0.06647348403930664,0.050089315,1.7045714,0.5870635138885828,0.0,0.012125928878764717,0.0,200,0.03639554977416992,0.26194613628919583,0.2551280751199572,30000,0.7888783756026632,0.0
150,1.3982183933258057,0.49794309074135934,0.2649314496218241,0.9459579898920706,0.26709644841550567,0.0,0.12449796495807616,0.1,0.0637505054473877,0.06227588653564453,0.04944531,2.1459985,0.5781514715738605,0.0,0.009879077590122342,0.0,200,0.03262042999267578,0.288528067103458,0.2850749257678306,30200,0.8603995160909835,0.0
151,1.3932223320007324,0.6356143934461983,0.22199279718965234,0.8393028740925285,0.2780505087101658,0.0,0.12594467098685871,0.1,0.005064487457275391,0.16146087646484375,0.050056025,1.4776757,0.5838977637610943,0.0,0.012056399242104242,0.0,200,0.03293323516845703,0.18406637579451143,0.16838970412365956,30400,0.6752100407852722,0.0
152,1.5649073123931885,0.5606378044211113,0.2510206290800819,0.7552263180288359,0.12928959359448805,0.0,0.12478102582810931,0.1,0.004969596862792969,0.06283712387084961,0.050239347,0.88443804,0.581571767827096,0.0,0.011161618694410718,0.0,200,0.03938174247741699,0.21190328796278948,0.21401338317211555,30600,0.8768730181191856,0.0
153,1.3797454833984375,0.6909928626210559,0.19926850744105096,0.9473034032850346,0.3876646678882349,0.0,0.13004579134249297,0.1,0.0028657913208007812,0.06879377365112305,0.049393296,1.0007054,0.592513877306492,0.0,0.013654705559334943,0.0,200,0.036454200744628906,0.14821012097142283,0.14003102344028343,30800,0.6068385164635931,0.0
154,1.4336791038513184,0.5889450414430435,0.05434542424917141,0.6824441001826934,0.5498610739644949,0.0,0.12036114683056547,0.1,0.08405208587646484,0.08508515357971191,0.049821988,1.1730199,0.5921569937201471,0.0,0.011626777828520613,0.0,200,0.01914048194885254,0.05831909929604936,0.0566307969831269,31000,0.7236598910364759,0.0
155,1.3849444389343262,0.9286881502277682,0.4460897261053263,1.6446312681237722,0.4691947642674773,0.0,0.12166297371447582,0.1,0.0029213428497314453,0.0553743839263916,0.05056587,1.7899163,0.6258101093709092,0.0,0.018415688747154192,0.0,200,0.11528778076171875,0.3447175015359031,0.30494840737466145,31200,0.6448507369461564,0.0
156,1.468170166015625,0.6424180131949757,0.263780998335722,0.9895515430124733,0.3821757217903894,0.0,0.12213529868116776,0.1,0.002882242202758789,0.056722402572631836,0.049121574,1.0913414,0.6274708997533158,0.0,0.01265341458141657,0.0,200,0.03485274314880371,0.16490841862366948,0.18062547844695553,31400,0.4115428711010433,0.0
157,1.5212483406066895,0.3735111511899269,0.1916489097617464,0.6815649150467062,0.20368224687240458,0.0,0.12278631589173268,0.1,0.030460596084594727,0.053818464279174805,0.050420314,1.2806734,0.602074924896977,0.0,0.0073042409895822625,0.0,200,0.09825277328491211,1.0434563129232166,0.8018132344958386,31600,0.5053197100929785,0.0
158,1.4930052757263184,0.9108077524344413,0.5126072064647866,1.4373460056151794,0.32661358643849797,0.0,0.12629854174350055,0.1,0.002856731414794922,0.05591869354248047,0.049655557,1.3555925,0.6329482076507235,0.0,0.01749107826234989,0.0,200,0.038223981857299805,0.32516856469444877,0.33429513952504514,31800,0.348182880801914,0.0
159,1.542776346206665,0.5424581404625359,0.3615110109497194,1.0743798924092822,0.08960516402027426,0.0,0.12024615373654725,0.1,0.08423662185668945,0.09609079360961914,0.04980912,1.3037852,0.6238992009319048,0.0,0.01066750888456343,0.0,200,0.025550365447998047,0.4240224606713225,0.40657372408247167,32000,0.5125960481986866,0.0
160,1.4277994632720947,1.5752943772273438,0.40636405296441386,1.9919826356897594,1.1253476182608013,0.0,0.12555018961993467,0.1,0.0031511783599853516,0.08337044715881348,0.049563013,1.0716971,0.7190387185614487,0.0,0.03067599194026507,0.0,200,0.1509418487548828,0.43523033077657547,0.34255799844465185,32200,0.5805146416221684,0.0
161,1.447411060333252,0.5302690254850825,0.044610924107553886,0.5953371709993885,0.47681225760155216,0.0,0.12920076770671313,0.1,0.013725519180297852,0.053542137145996094,0.04921949,1.1657573,0.7001617492538121,0.0,0.010543238614466884,0.0,200,0.049065351486206055,0.39491959278463096,0.6933328302675169,32400,0.5535602731174406,0.0
162,1.3518083095550537,0.4735984226893945,0.04960475738365607,0.5064083297013491,0.3878260822301222,0.0,0.12198817753873933,0.1,0.05281233787536621,0.10672616958618164,0.049771935,4.8281264,0.6775054165973704,0.0,0.009074017851680704,0.0,200,0.03983497619628906,0.8440902014354906,0.5346071526580407,32600,0.8182413784376069,0.0
163,1.450584888458252,0.6861325310215247,0.15972412700372382,0.9254926264253304,0.5380203452532831,0.0,0.12286611150825164,0.1,0.0029795169830322266,0.052969932556152344,0.04938744,2.0608342,0.6783681280397859,0.0,0.013557590714790296,0.0,200,0.024528026580810547,0.1838203733744818,0.13468515904542822,32800,0.590289100341541,0.0
164,1.5566911697387695,1.603401925195793,0.6467977794064245,2.348933095898114,0.654016344487431,0.0,0.12370180949027729,0.1,0.07036066055297852,0.09050655364990234,0.050133556,1.0770671,0.7708715077553866,0.0,0.031263061957177644,0.0,200,0.08589982986450195,0.4523266163727341,0.4087722068661542,33000,0.4018786871935496,0.0
165,1.4771411418914795,0.6709752891634138,0.32779593548182195,1.2178252892284298,0.3763047377684061,0.0,0.12007022119658244,0.1,0.08456969261169434,0.08243727684020996,0.04983912,1.9789478,0.7608818858961893,0.0,0.013252144128120093,0.0,200,0.03753161430358887,0.28807734008679065,0.3559755857644267,33200,0.34114886710017905,0.0
166,1.384634017944336,0.8500564480457058,0.36080283797736995,1.46925935407588,0.6001727021439389,0.0,0.11598577042267051,0.1,0.003155231475830078,0.05415773391723633,0.049217645,2.1408393,0.769799342111141,0.0,0.01675414182737324,0.0,200,0.04038047790527344,0.18969607487902465,0.18891438183399614,33400,1.0287492169387469,0.0
167,1.3805651664733887,0.5436147372026613,0.39899125145052017,1.209619962955538,0.20759967578668176,0.0,0.12285427504246459,0.1,0.012735366821289062,0.05403757095336914,0.050198097,1.618134,0.7471808816202931,0.0,0.010637724742373938,0.0,200,0.04956245422363281,0.5963393438853153,0.5237929247341738,33600,0.7472368876302347,0.0
168,1.4122202396392822,0.5628115436202087,0.5932768106982328,1.5861902655976752,0.13441565853307505,0.0,0.12110650386861786,0.1,0.08464717864990234,0.08275294303894043,0.049607057,1.9736683,0.7287439478202846,0.0,0.011029653104065253,0.0,200,0.034451961517333984,0.6460301176787557,0.5774574779833686,33800,0.8708491956505239,0.0
169,1.4250576496124268,0.7993822057031055,0.4930967896758892,1.3184025084629152,0.09953216502587794,0.0,0.12296882146987223,0.1,0.002908468246459961,0.05394315719604492,0.050009534,1.4993372,0.7358077736085668,0.0,0.015642761648193507,0.0,200,0.04875755310058594,0.2951172206283359,0.31008294212328563,34000,0.7621456152908577,0.0
170,1.4417054653167725,0.48854621270913406,0.23277264402138925,0.8406940109256117,0.2082432568942109,0.0,0.12532900726197824,0.1,0.00878286361694336,0.05741596221923828,0.04951208,1.0720422,0.7110816175186235,0.0,0.00969677775898711,0.0,200,0.038263559341430664,0.3149247425738883,0.24864050698364912,34200,0.8826673492639463,0.0
171,1.4228506088256836,1.1374202548289967,0.5368776299345459,1.9809779283798554,0.6519735687758064,0.0,0.1257288255400521,0.1,0.08447813987731934,0.0535430908203125,0.0504109,1.2802641,0.7537154812496609,0.0,0.02251797037167714,0.0,200,0.12651920318603516,0.3840978264311705,0.3662618790309812,34400,0.6331376858130953,0.0
172,1.411179780960083,0.4453399620385323,0.0984464611888289,0.5560322060158575,0.28642054613457685,0.0,0.12220289119996101,0.1,0.004721879959106445,0.1840362548828125,0.04973872,1.7520871,0.7228779293285481,0.0,0.008868621965875746,0.0,200,0.03996896743774414,0.2826618775893071,0.32589917928666473,34600,0.721233625412309,0.0
173,1.4657394886016846,1.0827094008336287,0.3518140697723656,1.3478455005494154,0.47913749735083955,0.0,0.11610706072206402,0.1,0.06914544105529785,0.10738801956176758,0.049998347,1.0305531,0.7588610764790562,0.0,0.020865045525288842,0.0,200,0.046510934829711914,0.2735830518721739,0.2402550218805994,34800,0.8287332051440041,0.0
174,1.5493457317352295,0.36192088742107875,0.15842135418383926,0.562270061573833,0.1504888162373451,0.0,0.12453446480094514,0.1,0.0032608509063720703,0.1024932861328125,0.05013134,1.5963916,0.7191670575732585,0.0,0.007030356411592853,0.0,200,0.14181733131408691,0.9060467288888898,0.9712800292866298,35000,2.128262728112993,0.0
175,1.5097541809082031,0.6127336873254237,0.39776411626461244,1.249410602357706,0.1576754442568692,0.0,0.1260722984671963,0.1,0.016169309616088867,0.054860591888427734,0.05021262,1.38809,0.7085237205484751,0.0,0.011982497086446999,0.0,200,0.14219093322753906,0.3645423441944128,0.35617797932968565,35200,1.0970023765613275,0.0
176,1.465214729309082,1.260464325052258,0.5294537005494977,2.0993175857496977,0.6711235163381013,0.0,0.11162271690541951,0.1,0.08452725410461426,0.055585384368896484,0.050200332,2.0069673,0.7637177809988535,0.0,0.024745519603781303,0.0,200,0.02533578872680664,0.3582112019247518,0.33115619729238815,35400,1.2808166494093627,0.0
177,1.4630627632141113,0.6243574612340488,0.42124098783009556,1.161649045590809,0.16168315712240897,0.0,0.11551983860496588,0.1,0.03724312782287598,0.05554652214050293,0.049660236,2.3023486,0.7497817490223729,0.0,0.012186271252852085,0.0,200,0.05619096755981445,0.37863502444613356,0.39912178642323387,35600,0.5471850627878759,0.0
178,1.4976437091827393,1.0680966141224095,0.3909797681467322,1.4653286038868678,0.6035022406034342,0.0,0.1267116797670466,0.1,0.005264997482299805,0.062258243560791016,0.049833845,1.0298357,0.7816132355323766,0.0,0.020722282076818862,0.0,200,0.036993980407714844,0.2247262384234006,0.20273569150625767,35800,0.9897755433096181,0.0
179,1.4505343437194824,0.8991926069978314,0.3387504662475711,1.384906352546818,0.4609395263041489,0.0,0.11358635325791122,0.1,0.0031540393829345703,0.05863761901855469,0.05018349,9.032286,0.7933711726789221,0.0,0.017777652005791088,0.0,200,0.054277658462524414,0.20531812331753752,0.2036305880732518,36000,0.939381093929773,0.0
