iteration,time_sampling,stoc_pol_mean,stoc_pol_std,stoc_pol_max,stoc_pol_min,rollout_success,alpha,delta,time_vpg,time_npg,kl_dist,surr_improvement,running_score,rwd_sparse,rwd_dense,success_percentage,num_samples,time_VF,VF_error_before,VF_error_after,env_samples,eval_score,eval_success
0,1.317518711090088,0.04146412727439479,0.015107121728372936,0.06413618965217871,0.021670795228113576,0.0,0.13725047091954215,0.1,0.020428180694580078,0.07662034034729004,0.048497777,1.9402362,0.04146412727439479,0.0,0.0008224484360162846,0.0,200,0.0402219295501709,4.155379261849256,1.1406778384709149,200,0.04305293177049591,0.0
1,1.2518978118896484,0.03713199599444439,0.011673861963451087,0.05312595262392286,0.02238223822477549,0.0,0.14185768209450517,0.1,0.0027191638946533203,0.05850028991699219,0.05490094,1.3411016,0.04103091414639975,0.0,0.0007233540954744188,0.0,200,0.03138446807861328,1.5530000498289105,0.31372116832968944,400,0.0434428684050111,0.0
2,1.2279527187347412,0.025700619324887902,0.010909835637904318,0.040581662263279035,0.010966824652829697,0.0,0.16083619240180863,0.1,0.002667665481567383,0.050391197204589844,0.052107114,0.9768093,0.03949788466424857,0.0,0.000508365627142587,0.0,200,0.02889418601989746,1.2059473299973253,0.9366598905906154,600,0.03377452573988889,0.0
3,1.2825219631195068,0.052474517943092464,0.03958990580118126,0.11908248569364502,0.015082577747733476,0.0,0.1506842358305267,0.1,0.0025975704193115234,0.051364898681640625,0.05319319,1.2926291,0.04079554799213296,0.0,0.0010439607274645598,0.0,200,0.03024744987487793,1.0047690958901434,0.6942401820088175,800,0.042961183538956615,0.0
4,1.2857251167297363,0.06609779056550072,0.028731108446231075,0.10621945684864609,0.02645268056521901,0.0,0.15193543084545225,0.1,0.0024895668029785156,0.04987025260925293,0.04945491,0.9254257,0.04332577224946974,0.0,0.0013150745353041745,0.0,200,0.04190206527709961,0.6167646726234236,0.34833521675087187,1000,0.052457853649383046,0.0
5,1.2910499572753906,0.05707515363034517,0.0241007680730617,0.08507030227638677,0.032540853346515804,0.0,0.1450674813135288,0.1,0.002568960189819336,0.05009603500366211,0.0514022,1.0455616,0.04470071038755728,0.0,0.0011376756504434254,0.0,200,0.013442277908325195,0.343180005460523,0.5058851557710352,1200,0.0640599739427717,0.0
6,1.2862460613250732,0.0647888014138096,0.04468095963347556,0.12577363944610903,0.020528161419553086,0.0,0.15232819627659497,0.1,0.002509593963623047,0.05385398864746094,0.04999849,1.0302951,0.04670951949018252,0.0,0.0013037730050012037,0.0,200,0.03293967247009277,0.5223672591349187,0.4638612430098011,1400,0.09945310388081312,0.0
7,1.294217586517334,0.0480323970226092,0.04224184896841346,0.1185723027384249,0.01506103380738372,0.0,0.15315268070361676,0.1,0.0025734901428222656,0.04996824264526367,0.050135154,1.0715072,0.04684180724342518,0.0,0.0009550214061202811,0.0,200,0.02018594741821289,0.595736100982639,0.5239844186383277,1600,0.10256060395946913,0.0
8,1.3307366371154785,0.12414354980618113,0.1762061548711959,0.429028994151782,0.009846365831538844,0.0,0.1459968963124259,0.1,0.0025451183319091797,0.0498499870300293,0.052333303,1.5834306,0.05457198149970077,0.0,0.0024730827878004197,0.0,200,0.11642813682556152,0.8317513170726559,0.7711624464565967,1800,0.16862217232754795,0.0
9,1.2298007011413574,0.09480767408972718,0.05820160511677382,0.1780489923245645,0.03682103948998436,0.0,0.14527103397667118,0.1,0.0027015209197998047,0.0501861572265625,0.05274384,1.3778696,0.058595550758703416,0.0,0.0018925476474634755,0.0,200,0.09720063209533691,0.4612167527937454,0.4124293090306676,2000,0.11080343282786288,0.0
10,1.255009412765503,0.11381370803691962,0.13737533974881652,0.34908470600865027,0.008753706950920894,0.0,0.1397518748638598,0.1,0.002847909927368164,0.051151275634765625,0.049164325,1.9017098,0.06411736648652504,0.0,0.0022695102697753667,0.0,200,0.05926704406738281,0.6661634522564619,0.6667415342219312,2200,0.08984017352717877,0.0
11,1.3080711364746094,0.14953912723539609,0.09953833456587978,0.2905707392788648,0.018980209786430325,0.0,0.13716129312098366,0.1,0.002583026885986328,0.05079913139343262,0.0486792,1.7160181,0.07265954256141215,0.0,0.0029151825628088166,0.0,200,0.043912410736083984,0.4036870550052524,0.3793669912283067,2400,0.1230679185001234,0.0
12,1.2822191715240479,0.07812236069835944,0.05530788955502358,0.17236478455199666,0.03057121914761228,0.0,0.15258791819373602,0.1,0.0027284622192382812,0.053220510482788086,0.049132027,1.2132777,0.07320582437510688,0.0,0.0015697073017646491,0.0,200,0.028955936431884766,1.146279939795666,0.49361257258481306,2600,0.1207531153396289,0.0
13,1.3273634910583496,0.09184254016930352,0.10706117551927631,0.2750104626646728,0.016536614140135138,0.0,0.13995676364010495,0.1,0.0026874542236328125,0.05074763298034668,0.04974472,1.6783822,0.07506949595452654,0.0,0.001832592887830174,0.0,200,0.05611991882324219,0.6691477530047885,0.6926918464296326,2800,0.1578236712704951,0.0
14,1.3209505081176758,0.2913472344548897,0.36824721017783085,0.9284944825484516,0.051300834822205335,0.0,0.1316025576477478,0.1,0.0026166439056396484,0.07241559028625488,0.050324578,3.035677,0.09669726980456285,0.0,0.005834366393452632,0.0,200,0.054583072662353516,0.8835996479013758,0.7859051641699488,3000,0.1779331295042872,0.0
15,1.3168797492980957,0.0579158392159103,0.012622044036617161,0.0709060658566381,0.037701540416068206,0.0,0.13084820671765413,0.1,0.0025565624237060547,0.05636477470397949,0.049499154,1.6733489,0.09281912674569759,0.0,0.001151713359819573,0.0,200,0.02011275291442871,1.740294243522805,4.372144674037054,3200,0.24933278187686417,0.0
16,1.3701801300048828,0.09049316369514722,0.0488846809809427,0.17391589804745747,0.0495622072041859,0.0,0.14212765270758584,0.1,0.0025663375854492188,0.04866528511047363,0.049025536,1.1438043,0.09258653044064256,0.0,0.0017791822834570337,0.0,200,0.02924346923828125,0.6581095882200175,0.49516769896641477,3400,0.46197274554994266,0.0
17,1.3471927642822266,0.09991812145871838,0.04808501791568897,0.17765583266775364,0.04870946762717935,0.0,0.1432078194399606,0.1,0.0027272701263427734,0.05005979537963867,0.04969388,0.9388545,0.09331968954245015,0.0,0.001993678892606907,0.0,200,0.028995275497436523,0.44892106567868995,0.3126046034132285,3600,0.37958739988856244,0.0
18,1.331026554107666,0.2707318196281697,0.20062415780030501,0.5678479817913172,0.022046403683964946,0.0,0.13106173757572712,0.1,0.002387523651123047,0.05056118965148926,0.048601054,1.514336,0.1110609025510221,0.0,0.005409433334462794,0.0,200,0.09240126609802246,0.6193976707185177,0.5738626961280513,3800,0.4536777961369211,0.0
19,1.3276262283325195,0.2478131846349484,0.2077352898267882,0.543253764309619,0.04226189437268317,0.0,0.1367659115695831,0.1,0.0025854110717773438,0.049054861068725586,0.051354207,1.1770769,0.12473613075941474,0.0,0.004937125615489835,0.0,200,0.09466314315795898,0.5884563443325268,0.4853032708307671,4000,0.37006438730134006,0.0
20,1.3757126331329346,0.12174247758814327,0.09141542087761192,0.2728027422157814,0.033546369416485464,0.0,0.13964842975311884,0.1,0.002629518508911133,0.06061506271362305,0.050476428,1.4234926,0.1244367654422876,0.0,0.002434673784452086,0.0,200,0.0211946964263916,0.6498001670011412,0.8710667496278134,4200,0.5844112943159666,0.0
21,1.3844184875488281,0.10081443381209261,0.05738047444931816,0.18321987164148273,0.026820677555191557,0.0,0.13597681614074256,0.1,0.0028226375579833984,0.053086042404174805,0.049766168,1.1544244,0.1220745322792681,0.0,0.0020085979602420096,0.0,200,0.0416719913482666,1.8565375290505355,0.969303030671964,4400,0.47306031481154215,0.0
22,1.429046392440796,0.26857615754395364,0.2385969237374366,0.622771080365019,0.023548157496350048,0.0,0.14069457950975225,0.1,0.0025527477264404297,0.05136680603027344,0.05108198,1.3589014,0.13672469480573665,0.0,0.005368548510049237,0.0,200,0.01945948600769043,0.574933321700753,0.6061587433284439,4600,0.5507890753629309,0.0
23,1.3363666534423828,0.18371538198302215,0.09605597982868143,0.28508751052277487,0.025548080612795253,0.0,0.14434927336054465,0.1,0.00295257568359375,0.06122946739196777,0.05027011,0.8110616,0.1414237635234652,0.0,0.0036475795693546808,0.0,200,0.03068685531616211,0.32013068518947424,0.3198827679051736,4800,1.0114575772957737,0.0
24,1.3160395622253418,0.3515890715567159,0.2912812149743558,0.8295621102405359,0.0678191210189934,0.0,0.1305190481563995,0.1,0.002739429473876953,0.05220484733581543,0.04981134,2.1546075,0.16244029432679027,0.0,0.006986564383705996,0.0,200,0.032913923263549805,0.6650083236988542,0.591351810961463,5000,0.9638104161159639,0.0
25,1.328395128250122,0.11737187864898804,0.04665511286011116,0.17797492852461758,0.06560044255069179,0.0,0.1337050888272821,0.1,0.002637147903442383,0.0661768913269043,0.049051512,1.2438686,0.15793345275901005,0.0,0.002314095055753872,0.0,200,0.0225067138671875,0.6140427324682943,0.9493329797815625,5200,0.5799278235736005,0.0
26,1.3920187950134277,0.13285423897366608,0.1590574959762194,0.40767076333052465,0.02687739817938278,0.0,0.13370559602394075,0.1,0.00264739990234375,0.05796241760253906,0.049432345,2.3473399,0.15542553138047566,0.0,0.0026513124306464806,0.0,200,0.03343486785888672,0.8388321039183879,0.7458359673581354,5400,0.6446379859366224,0.0
27,1.4145982265472412,0.0939722167291445,0.08785773975142173,0.2457483459158206,0.033153349223813806,0.0,0.13111096332499161,0.1,0.002626657485961914,0.06116533279418945,0.05023953,2.2383816,0.14928019991534255,0.0,0.0018860337217263426,0.0,200,0.029654979705810547,1.1574322900025384,0.7413352901870062,5600,0.6347833686186769,0.0
28,1.4440321922302246,0.1264650853172963,0.08595491759525667,0.22283232162588162,0.034882109714313735,0.0,0.13135644613575906,0.1,0.002644062042236328,0.05419278144836426,0.050124746,1.312578,0.14699868845553793,0.0,0.002534884540166529,0.0,200,0.05806136131286621,0.4634530293929839,0.40868776903703513,5800,0.5273400257526103,0.0
29,1.3782525062561035,0.17582416848252386,0.16111603328291677,0.40326201119975497,0.01592925232360844,0.0,0.1368016913812626,0.1,0.0027420520782470703,0.05242156982421875,0.05007725,1.1795967,0.1498812364582365,0.0,0.0035046116860959543,0.0,200,0.029488563537597656,0.547828119964978,0.5594587049688926,6000,0.48029909944581567,0.0
30,1.405111312866211,0.30289084422484475,0.27084272242650365,0.751985337496788,0.025575588245485635,0.0,0.14167891112662587,0.1,0.0026421546936035156,0.05652785301208496,0.050210964,1.4441514,0.16518219723489735,0.0,0.006054340443699363,0.0,200,0.0626676082611084,0.6905818051057342,0.6264614448623729,6200,0.5781267310170252,0.0
31,1.4071509838104248,0.24061176002186993,0.23939316382880624,0.6506212858104373,0.048552962152648926,0.0,0.14486019403331066,0.1,0.0026292800903320312,0.05261111259460449,0.05070165,1.48644,0.1727251535135946,0.0,0.004761130823910156,0.0,200,0.016485214233398438,0.6367267093512782,0.5634483659706074,6400,0.5278371796989655,0.0
32,1.3889100551605225,0.205666139725632,0.10542677002086903,0.3847716487847412,0.11796497183632841,0.0,0.13805513649773574,0.1,0.004136085510253906,0.05848503112792969,0.04950986,1.2661077,0.17601925213479835,0.0,0.004110709406285372,0.0,200,0.02963852882385254,0.34245005203813966,0.37980484419936233,6600,0.7467638361447092,0.0
33,1.423391580581665,0.3880387950407814,0.20303673861687327,0.6744289517327406,0.11694861962532013,0.0,0.1374224314764229,0.1,0.0025873184204101562,0.05586695671081543,0.050802935,1.2399935,0.19722120642539667,0.0,0.007713273451285935,0.0,200,0.03656768798828125,0.40649083475578746,0.33699808971913575,6800,0.5581140272736492,0.0
34,1.3848350048065186,0.2895227950259716,0.2828370289633693,0.7487581766374385,0.04027590940132856,0.0,0.1354142242465937,0.1,0.00262451171875,0.04840803146362305,0.047855195,1.5764403,0.20645136528545416,0.0,0.005741953995514369,0.0,200,0.028102397918701172,0.5984000518361091,0.6070470812850066,7000,0.7698459610286066,0.0
35,1.384294033050537,0.2653306532865932,0.3160550087075412,0.8083788158192755,0.039398346844745635,0.0,0.12676089774888857,0.1,0.002519369125366211,0.04837489128112793,0.050070915,3.9303253,0.21233929408556806,0.0,0.005309756960801885,0.0,200,0.02617025375366211,0.6754275816535469,0.6452243279864979,7200,0.918952107981965,0.0
36,1.397306203842163,0.2496617912607499,0.2619058919212854,0.6939667807963552,0.04863003584846782,0.0,0.12393601777212727,0.1,0.0024178028106689453,0.05343961715698242,0.048936453,2.545514,0.21607154380308624,0.0,0.004905058593727517,0.0,200,0.03713655471801758,0.5752835020842344,0.5513566622892745,7400,0.7888768080596874,0.0
37,1.441995620727539,0.17920022674209485,0.18148823155377014,0.49345757939533896,0.06902852668309861,0.0,0.13458642516967095,0.1,0.002649068832397461,0.04951214790344238,0.04986533,1.2515875,0.2123844120969871,0.0,0.0034756497175042846,0.0,200,0.061662912368774414,0.684261792469651,0.5908971413654465,7600,1.0256508112101907,0.0
38,1.5105490684509277,0.20310578098893994,0.07754865947298219,0.2880839157994015,0.12057592256003376,0.0,0.1342608979593979,0.1,0.0025997161865234375,0.0512998104095459,0.050148774,0.87704575,0.2114565489861824,0.0,0.004055891758546632,0.0,200,0.028386592864990234,0.15729089400618101,0.18715071258096005,7800,0.724894410148008,0.0
39,1.4884207248687744,0.31429669285473916,0.23812146791988453,0.5706701894770733,0.036167537968607416,0.0,0.13781324696237712,0.1,0.0025489330291748047,0.05099034309387207,0.05016392,1.1905617,0.22174056337303807,0.0,0.006195434376449726,0.0,200,0.03491616249084473,0.5342512099381027,0.4742925644271781,8000,0.7577941701308178,0.0
40,1.3659615516662598,0.31894731856250946,0.24954654370157692,0.7474952034053712,0.14580321661065931,0.0,0.12798113916954096,0.1,0.002901315689086914,0.053107500076293945,0.050448295,2.2877233,0.23146123889198522,0.0,0.006173357448736825,0.0,200,0.05606484413146973,0.505548418590289,0.43352454501848964,8200,0.6050444627978236,0.0
41,1.337848424911499,0.2502573193551543,0.13849728328290256,0.4763126679222866,0.12961244560959032,0.0,0.13959575554211145,0.1,0.002672433853149414,0.05442070960998535,0.05054384,1.2487985,0.23334084693830215,0.0,0.004987600648281021,0.0,200,0.02151799201965332,0.3029391546941272,0.3393241806362343,8400,0.70520748855061,0.0
42,1.374741792678833,0.34203938151570573,0.19089458736776818,0.5705334283822086,0.15089119044191107,0.0,0.14066265831414632,0.1,0.0027320384979248047,0.05235123634338379,0.04973064,1.2036501,0.2442107003960425,0.0,0.006778397533108412,0.0,200,0.04675102233886719,0.3043076257192381,0.2796108605521765,8600,0.7175658268825056,0.0
43,1.4470024108886719,0.40734055287018245,0.18469885046215562,0.6846452948600238,0.1673466254237612,0.0,0.13277892654788484,0.1,0.002638101577758789,0.0755929946899414,0.049981713,1.1648033,0.2605236856434565,0.0,0.008040524793354138,0.0,200,0.026086091995239258,0.2741022327112452,0.2531614576657511,8800,0.9069905563966381,0.0
44,1.4267799854278564,0.4330171571386064,0.276554480655648,0.7701858877270177,0.11577543676418922,0.0,0.13293737533504668,0.1,0.002709627151489258,0.05175590515136719,0.04916542,1.2939165,0.2777730327929715,0.0,0.008646158555260427,0.0,200,0.0377507209777832,0.40917630198713434,0.38838852236378685,9000,0.586130123118568,0.0
45,1.4344310760498047,0.5090612276791875,0.43593159642367496,1.1259939253798197,0.05104922794203886,0.0,0.13039844702773287,0.1,0.0027587413787841797,0.05220317840576172,0.049994145,2.2134674,0.3009018522815931,0.0,0.010037654050819932,0.0,200,0.013498544692993164,0.4770924770976163,0.44568057287389584,9200,1.1123629151597927,0.0
46,1.4084663391113281,0.3807685204552136,0.33012256839216636,0.8798552633953531,0.03804790078768228,0.0,0.13414463017841055,0.1,0.002707242965698242,0.06285333633422852,0.04963499,1.2845373,0.30888851909895515,0.0,0.007609850630219871,0.0,200,0.028931856155395508,0.5273392552539163,0.5082088520341139,9400,1.3108866946497089,0.0
47,1.4421031475067139,0.47229029573889003,0.34666462747201576,1.0350470330806212,0.11556966462998386,0.0,0.12205247406670963,0.1,0.002787351608276367,0.05872058868408203,0.04888943,3.2152402,0.3252286967629487,0.0,0.009426462330289074,0.0,200,0.029919147491455078,0.43596465870169593,0.41799549457461,9600,0.8620149995233035,0.0
48,1.5048658847808838,0.234306197531677,0.0929588268703417,0.3221112027905931,0.0864664532806755,0.0,0.1367136469051827,0.1,0.0026869773864746094,0.05860161781311035,0.0492085,0.7764249,0.3161364468398215,0.0,0.004659559865032184,0.0,200,0.023029804229736328,1.043922395788355,0.35987898669007984,9800,1.2501235107266833,0.0
49,1.4675989151000977,0.511115235614514,0.30987682692340973,1.0366849786861494,0.2587959069871453,0.0,0.14217381073786758,0.1,0.004063844680786133,0.05454897880554199,0.04995005,1.2276831,0.3356343257172908,0.0,0.010106595469544257,0.0,200,0.021024227142333984,0.4262066804526746,0.4340931667357956,10000,1.146951356599559,0.0
50,1.4433965682983398,0.25275173663653194,0.13545923326644052,0.40672150620134345,0.04727357622927319,0.0,0.13098307871526402,0.1,0.002623319625854492,0.06526660919189453,0.04956808,0.9483906,0.3273460668092149,0.0,0.005000002839296773,0.0,200,0.0312807559967041,0.2930611074167453,0.2885138384609886,10200,1.3102088536550973,0.0
51,1.4253087043762207,0.3050916968828975,0.11392654662989483,0.4022513897497404,0.11788975156687252,0.0,0.13594544711130777,0.1,0.002553224563598633,0.049536943435668945,0.050611544,1.4804667,0.3251206298165832,0.0,0.006094448069982083,0.0,200,0.031089067459106445,0.17065315784266719,0.1669988125309836,10400,1.3317421204294249,0.0
52,1.4563965797424316,0.19700830473063596,0.08644220396935683,0.319861175659507,0.0820802990319161,0.0,0.12920710830769533,0.1,0.002591848373413086,0.04956507682800293,0.050492845,5.4409328,0.31230939730798846,0.0,0.0039402955685440095,0.0,200,0.03266167640686035,0.6899205515558985,0.45194316321866224,10600,1.1907060031525645,0.0
53,1.5100483894348145,0.3264390374456857,0.29787136091338795,0.8323969833597277,0.06320268106698443,0.0,0.12996682664069054,0.1,0.00261688232421875,0.056940317153930664,0.049609255,2.1906261,0.3137223613217582,0.0,0.006425750929307876,0.0,200,0.04683566093444824,0.46414597286217146,0.47506775272060153,10800,0.9557950307123507,0.0
54,1.4517784118652344,0.38479739203095087,0.1436932297091757,0.6037242613265664,0.2181824771462602,0.0,0.1295922031532242,0.1,0.0025599002838134766,0.04925131797790527,0.049887896,2.702085,0.32082986439267747,0.0,0.007668220962238875,0.0,200,0.013631582260131836,0.30160670444778553,0.26337787446507827,11000,1.1502133456990766,0.0
55,1.4539623260498047,0.27652254300616347,0.13299086152761364,0.3764390511293635,0.05133197696255204,0.0,0.13041627102649078,0.1,0.0025687217712402344,0.05011868476867676,0.04977651,0.7782124,0.3163991322540261,0.0,0.005454623502936253,0.0,200,0.06036257743835449,0.24518464211088414,0.24758823820146214,11200,1.3412256934101723,0.0
56,1.466768741607666,0.18631626105186774,0.10312198871266028,0.3188669652254271,0.05151230809312284,0.0,0.12938127089921236,0.1,0.0025038719177246094,0.049120187759399414,0.049738355,1.2007539,0.30339084513381026,0.0,0.0035897751635096844,0.0,200,0.042458295822143555,0.4701871715222209,0.41975715745071873,11400,0.9397070505739563,0.0
57,1.4680149555206299,0.4711452229160287,0.5482134642951395,1.3865508165873053,0.01836798966489728,0.0,0.13236308523361304,0.1,0.0025892257690429688,0.06174063682556152,0.049965218,1.9199774,0.3201662829120321,0.0,0.009342921403442063,0.0,200,0.024369478225708008,0.6439404537860841,0.6258708206652115,11600,0.7387240533563356,0.0
58,1.5217766761779785,0.2904659345155699,0.08630014620042535,0.43262785439521523,0.1995520353294043,0.0,0.12800099001148568,0.1,0.0026235580444335938,0.05074596405029297,0.05006877,1.4296144,0.31719624807238583,0.0,0.005800865316839363,0.0,200,0.0242156982421875,0.1499749631385223,0.169634991879497,11800,0.6229593196363135,0.0
59,1.5094552040100098,0.46230863663247623,0.2579083726172218,0.853439762728376,0.21420729778153766,0.0,0.1343612555638898,0.1,0.004317760467529297,0.056214332580566406,0.0501329,1.4427813,0.3317074869283949,0.0,0.009240616878017971,0.0,200,0.08787202835083008,0.3386208633961562,0.3133814417471614,12000,0.47658214172306884,0.0
60,1.4746253490447998,0.18332738172135524,0.08494704211916984,0.2537445725030875,0.039296702124692974,0.0,0.12805049486395492,0.1,0.002915620803833008,0.06464815139770508,0.04948844,0.85586095,0.316869476407691,0.0,0.003662103064569264,0.0,200,0.026792526245117188,1.5838749834955022,1.0798774692486215,12200,0.35263083884027563,0.0
61,1.4430997371673584,0.5350077243666922,0.41611363088300624,1.2538814889728125,0.25165676198289855,0.0,0.12819924927384432,0.1,0.0029473304748535156,0.05334830284118652,0.048844796,2.5763047,0.33868330120359114,0.0,0.010496771737762492,0.0,200,0.0938105583190918,0.5013277561413859,0.48977806686723485,12400,0.42033816796192536,0.0
62,1.4516499042510986,0.4378214244308982,0.16767129419966012,0.6420795874215749,0.2571999604105484,0.0,0.13931405461280635,0.1,0.0028035640716552734,0.05268096923828125,0.05002298,1.0846925,0.34859711352632183,0.0,0.008747964366794444,0.0,200,0.014498472213745117,0.2230863127376589,0.20262824891657005,12600,0.4298175299418851,0.0
63,1.461428165435791,0.23122480864559639,0.0977689180238803,0.3864313506414446,0.11585931163755943,0.0,0.13602729182260814,0.1,0.0027511119842529297,0.054921627044677734,0.049820878,0.820491,0.3368598830382493,0.0,0.004518036839370875,0.0,200,0.09288477897644043,0.5649378464414773,0.5015141466137867,12800,0.4500323277267848,0.0
64,1.4611024856567383,0.22691780576056642,0.1801231323383656,0.5346994413622698,0.07676718157174045,0.0,0.13489742030102117,0.1,0.0027151107788085938,0.053949594497680664,0.049786348,1.1864479,0.32586567531048105,0.0,0.004511583043274346,0.0,200,0.052954673767089844,0.7366316139131729,0.49371238483954855,13000,0.36924733793392067,0.0
65,1.4092769622802734,0.24733764565120073,0.14624082139511865,0.39422422188004824,0.05822769517043919,0.0,0.1322738116089046,0.1,0.002628326416015625,0.0512082576751709,0.05100173,0.82968897,0.318012872344553,0.0,0.004939191813822894,0.0,200,0.055155038833618164,0.2915267690575206,0.26683662461442403,13200,0.3997066163942972,0.0
66,1.4007337093353271,0.616075655480779,0.28785316565453983,1.1064267522095264,0.395377144624367,0.0,0.13056564280792246,0.1,0.002574443817138672,0.04924201965332031,0.049371436,1.9449205,0.3478191506581756,0.0,0.012265247260720617,0.0,200,0.02835988998413086,0.5177939096860196,0.4825721130119601,13400,0.24203280824244053,0.0
67,1.4304416179656982,0.48864949704589333,0.39451942794776446,0.9235221963154477,0.08299455903988309,0.0,0.12425374711222367,0.1,0.0026955604553222656,0.04921317100524902,0.050152674,1.7705265,0.36190218529694734,0.0,0.0097680697194448,0.0,200,0.0963284969329834,0.5623194665585097,0.4945837653167915,13600,0.24175914100776488,0.0
68,1.4384729862213135,0.34154678668758154,0.12321439740722552,0.5134438467864303,0.1760725221413881,0.0,0.12987488357715982,0.1,0.0025463104248046875,0.048891305923461914,0.050753213,1.2900211,0.35986664543601077,0.0,0.006829745018012928,0.0,200,0.02841043472290039,0.20202619630340823,0.26335514053614856,13800,0.22711199014575675,0.0
69,1.4981374740600586,0.7565729380052607,0.43133576400012424,1.1905636459852853,0.0842785783866549,0.0,0.12746363526874346,0.1,0.0026886463165283203,0.051221370697021484,0.051414527,1.2436261,0.39953727469293576,0.0,0.015009023682508326,0.0,200,0.032056331634521484,0.4585999997453419,0.36221452364485834,14000,0.15699044581037777,0.0
70,1.549515962600708,0.4921018243770783,0.48156829121401235,1.2968590524679775,0.02247141136303772,0.0,0.12965018148450394,0.1,0.0026297569274902344,0.0549771785736084,0.049200874,1.8145623,0.4087937296613501,0.0,0.009587470483636501,0.0,200,0.08941531181335449,0.5356452495818308,0.5831362443214411,14200,0.11537374459301512,0.0
71,1.556746006011963,0.6009013652678583,0.24560750248043742,0.9664029079544463,0.3688405644218332,0.0,0.12358384986201124,0.1,0.002683877944946289,0.05054974555969238,0.050155304,1.5155585,0.42800449322200096,0.0,0.011787832093485358,0.0,200,0.05227923393249512,0.20268753029389272,0.20546839449611237,14400,0.11183382047172508,0.0
72,1.5944221019744873,0.7151560071254943,0.22489761510136277,1.0677452878100473,0.45145372041736326,0.0,0.12427936323119233,0.1,0.002645254135131836,0.05122518539428711,0.049517594,1.5579598,0.4567196446123503,0.0,0.01399506760057194,0.0,200,0.08924484252929688,0.16473504087225999,0.14429810186483125,14600,0.11477692467573038,0.0
73,1.5885376930236816,0.8592537491888684,0.3337755464392479,1.2985601854320072,0.4622088250930867,0.0,0.12738757351529562,0.1,0.0026617050170898438,0.050789833068847656,0.05009907,1.344171,0.49697305507000217,0.0,0.01687889062386564,0.0,200,0.0497593879699707,0.2104791127312602,0.18659113636114313,14800,0.13169110110107018,0.0
74,1.5436897277832031,0.3485759199797517,0.15327942466743136,0.5880843352447803,0.16460745282406533,0.0,0.13032854349062178,0.1,0.002665996551513672,0.05173015594482422,0.050234694,1.1038947,0.48213334156097715,0.0,0.006964878280160795,0.0,200,0.0349581241607666,1.2332715667043332,0.6701930077490412,15000,0.1198797110865832,0.0
75,1.5424392223358154,0.5777291663661014,0.26843781919603604,1.0300235449359465,0.3522003678878625,0.0,0.1308459420837646,0.1,0.002615213394165039,0.05177617073059082,0.048389282,1.2972703,0.4916929240414896,0.0,0.011417814962931733,0.0,200,0.028254032135009766,0.2624863168621499,0.26942975743726383,15200,0.16278134360899169,0.0
76,1.5717546939849854,0.5483885203831813,0.34747586139584125,1.0934579769308994,0.12686779248326152,0.0,0.1355974274579405,0.1,0.002619028091430664,0.05251455307006836,0.04974855,1.728461,0.4973624836756588,0.0,0.010532262972137229,0.0,200,0.025853872299194336,0.420358762708395,0.41042762006997674,15400,0.10454912020970804,0.0
77,1.4556608200073242,0.5847498500843857,0.4260836267669992,1.131804040332443,0.022759412065715932,0.0,0.1368966891238402,0.1,0.003096342086791992,0.05484604835510254,0.050454635,1.0708814,0.5061012203165315,0.0,0.01160242069405146,0.0,200,0.02657461166381836,0.4540143338407968,0.43442474483607435,15600,0.13789868269326264,0.0
78,1.4371602535247803,0.35328048877418083,0.166761392096727,0.6074881673142217,0.1650047585497012,0.0,0.13152578573900608,0.1,0.002709627151489258,0.05483841896057129,0.049592547,1.2651669,0.4908191471622964,0.0,0.007004300566800862,0.0,200,0.02979755401611328,0.45031394923963225,0.4449644985893321,15800,0.09869601117711363,0.0
79,1.4824249744415283,0.6590388086403146,0.060777815233546494,0.7591022618660193,0.6087349331842558,0.0,0.13091912143205758,0.1,0.002844572067260742,0.05520772933959961,0.050095085,1.0042071,0.5076411133100982,0.0,0.013052051671843628,0.0,200,0.024775266647338867,0.13041613103534702,0.12447149157326069,16000,0.12656210576751376,0.0
80,1.449429988861084,0.6980561070075306,0.2950596876197032,0.9516225536391578,0.19954626326673314,0.0,0.13724711151595081,0.1,0.0028676986694335938,0.05498790740966797,0.050734516,0.9160051,0.5266826126798414,0.0,0.01372019090381859,0.0,200,0.03060150146484375,0.2923736936733581,0.2533818597211503,16200,0.11694448304404625,0.0
81,1.4624536037445068,1.170973001726391,0.6101120432599915,2.1430775243421603,0.4562433386335592,0.0,0.12963225940007947,0.1,0.002742290496826172,0.05340886116027832,0.04959257,1.7845732,0.5911116515844964,0.0,0.023099365116433315,0.0,200,0.03013300895690918,0.45879788247697656,0.336411016342982,16400,0.12580214109445412,0.0
82,1.4470267295837402,0.41452823986346776,0.2393037596799467,0.6797728842255573,0.09396311140276692,0.0,0.12821920682199886,0.1,0.002833843231201172,0.05336308479309082,0.0502838,1.3224024,0.5734533104123936,0.0,0.008287485002839785,0.0,200,0.02924323081970215,0.8603049161111749,1.0054455910709545,16600,0.2413738590631381,0.0
83,1.4508163928985596,0.4949511345459692,0.07091754709368774,0.5974880029939851,0.40785622410310823,0.0,0.1303171500626657,0.1,0.0027120113372802734,0.05073237419128418,0.049960166,0.8996056,0.5656030928257512,0.0,0.009827852000743518,0.0,200,0.028722286224365234,0.5089522544606102,0.16715113905698933,16800,0.28354239647127427,0.0
84,1.4484796524047852,0.6582616989164629,0.33052408052186116,1.1833396767218376,0.3229174552579571,0.0,0.12773794695003865,0.1,0.0026471614837646484,0.04890775680541992,0.0496309,1.8020831,0.5748689534348224,0.0,0.012939167321812309,0.0,200,0.041700124740600586,0.26038263588166655,0.28027523141590016,17000,0.32338124390649836,0.0
85,1.4925587177276611,0.8413368123097741,0.3961049696329799,1.2509713743894664,0.18651216980618493,0.0,0.13024655531564192,0.1,0.0027780532836914062,0.05399036407470703,0.049881104,0.7783106,0.6015157393223176,0.0,0.016550928629389023,0.0,200,0.040813446044921875,0.36494795642564576,0.35614617443748825,17200,0.19252878595279196,0.0
86,1.470372200012207,0.8736219440162992,0.2663025448473627,1.119187823670018,0.4260348943453117,0.0,0.13496580171010225,0.1,0.002940654754638672,0.04941082000732422,0.049990006,0.9542501,0.6287263597917159,0.0,0.017175483345326994,0.0,200,0.02875065803527832,0.2681989072837257,0.20602309873187707,17400,0.22093194736251254,0.0
87,1.48868727684021,0.7234113688689636,0.38788033869826466,1.2329054978054215,0.25561501776074863,0.0,0.133051837972365,0.1,0.002640247344970703,0.0519254207611084,0.049530152,1.194494,0.6381948606994406,0.0,0.014206108969516618,0.0,200,0.13329195976257324,0.2928854268630621,0.2879858340030919,17600,0.2504484822728125,0.0
88,1.4961671829223633,0.5589453027063482,0.400202589668872,0.9630015154340422,0.05383376514653724,0.0,0.12685827941423256,0.1,0.0025773048400878906,0.05188775062561035,0.049944893,1.216234,0.6302699049001315,0.0,0.010943332711655289,0.0,200,0.0196075439453125,0.41557114676114293,0.4214734935207197,17800,1.2078370245408028,0.0
89,1.5083823204040527,0.38482846603018606,0.17361930167423437,0.6035366310424156,0.16310795061656014,0.0,0.12718582945905008,0.1,0.0025959014892578125,0.052010536193847656,0.04951596,0.8989579,0.6057257610131369,0.0,0.007651397678383293,0.0,200,0.03624272346496582,1.3636865841208188,0.7888603561337435,18000,1.021558685790758,0.0
90,1.5214979648590088,0.734006378106419,0.4560011444940281,1.500733281277852,0.34053188984512783,0.0,0.1278062159554921,0.1,0.002658843994140625,0.052345991134643555,0.049272962,2.0362573,0.6185538227224651,0.0,0.014513589016183742,0.0,200,0.0345616340637207,0.3092867714620868,0.331676678756896,18200,0.4764920983670979,0.0
91,1.574289321899414,0.4352379668938544,0.4792247839623285,1.2601513320812991,0.08267965055216529,0.0,0.12296763336814391,0.1,0.002602100372314453,0.05224919319152832,0.0506148,1.9138727,0.600222237139604,0.0,0.008633404226785508,0.0,200,0.028848886489868164,0.6281685897702528,0.5888504947820395,18400,0.22671707073508504,0.0
92,1.5442485809326172,0.22065436771487068,0.22880385331530212,0.6137825885066789,0.04278559901265012,0.0,0.13173773407191253,0.1,0.003293752670288086,0.049722909927368164,0.04996055,1.1521094,0.5622654501971307,0.0,0.0044044490779912215,0.0,200,0.012628555297851562,1.523519402538104,0.9457895022785823,18600,0.6323277737582979,0.0
93,1.4586141109466553,0.5811570032137556,0.19136196432202546,0.8703260779439059,0.3500640090247934,0.0,0.12486497615379409,0.1,0.002897500991821289,0.05277252197265625,0.05001973,1.0485072,0.5641546054987933,0.0,0.011455918170388976,0.0,200,0.038259029388427734,0.2526896488949128,0.29224068909608675,18800,0.277382200503664,0.0
94,1.4763591289520264,1.084378973052617,0.5429246215682098,1.9678467026465487,0.5320097115821986,0.0,0.12636881424379395,0.1,0.002779245376586914,0.053221702575683594,0.050310954,1.5412102,0.6161770422541757,0.0,0.021294758385394158,0.0,200,0.02977132797241211,0.5886542841869216,0.5179800212193385,19000,0.8064132638973228,0.0
95,1.5069849491119385,0.6059545048519985,0.16964911741234565,0.8964931366424717,0.48595598790150035,0.0,0.12751787272980827,0.1,0.0027914047241210938,0.05231809616088867,0.050829466,2.4043648,0.615154788513958,0.0,0.012118662132595031,0.0,200,0.029247045516967773,0.175424524397661,0.14378587778863247,19200,1.207134841554284,0.0
96,1.5656521320343018,1.2144352519961963,0.4193645013831663,1.7948920271844284,0.7246621393282313,0.0,0.12439825820049487,0.1,0.0028219223022460938,0.05361223220825195,0.049768582,2.1665292,0.6750828348621819,0.0,0.0241000037149807,0.0,200,0.020958662033081055,0.4064547751366802,0.2755436123461808,19400,1.5564159850186627,0.0
97,1.4986882209777832,0.6112839925788857,0.20099285910012205,0.8259001523756037,0.3787782479893632,0.0,0.11995670115001712,0.1,0.002803325653076172,0.053560733795166016,0.050038803,1.0820401,0.6687029506338523,0.0,0.012136269503116377,0.0,200,0.02984333038330078,0.23899610170302216,0.39716083094277255,19600,0.7299072203203113,0.0
98,1.5086696147918701,0.7426405180820297,0.3063358071233195,0.9713603814757663,0.22012931777783176,0.0,0.12426322034791276,0.1,0.0027108192443847656,0.05034685134887695,0.05009839,0.9941216,0.67609670737867,0.0,0.014796211921126623,0.0,200,0.05324101448059082,0.26671156112901634,0.23599460422551008,19800,1.5649985036502587,0.0
99,1.4971001148223877,0.669032657798629,0.28018245813019993,1.1212855009823661,0.3610359225324951,0.0,0.11890558978704238,0.1,0.0026412010192871094,0.050290822982788086,0.04970658,1.9840753,0.675390302420666,0.0,0.013226591891117169,0.0,200,0.02964186668395996,0.2774275074627306,0.2081301802232842,20000,1.704832935032201,0.0
100,1.517620325088501,0.7054818651787766,0.5354580928355064,1.3139701602798568,0.13011867933058527,0.0,0.13198685420127745,0.1,0.0027680397033691406,0.050995826721191406,0.04912056,0.9726297,0.6783994586964771,0.0,0.014007712167498318,0.0,200,0.016196012496948242,0.39734394645576143,0.3942753821741212,20200,1.7240224565491247,0.0
101,1.5441977977752686,0.6545411097933217,0.37587924126401145,1.0144289460804514,0.04318820006063613,0.0,0.1240733010498914,0.1,0.0026459693908691406,0.05072450637817383,0.049474444,0.97413015,0.6760136238061616,0.0,0.012921710244023448,0.0,200,0.028960704803466797,0.2881260679007697,0.2813217186293331,20400,1.038262083657428,0.0
102,1.5911471843719482,0.6454137186249935,0.47037653754407727,1.2275706799624768,0.12672553677125845,0.0,0.1259785590297786,0.1,0.002637624740600586,0.05681300163269043,0.05037073,1.7204503,0.6729536332880448,0.0,0.012798900639887801,0.0,200,0.031174898147583008,0.36323275289321955,0.36145172078601956,20600,1.0463844420172281,0.0
103,1.6284656524658203,0.8294881092066192,0.37603552160607207,1.2265945872989332,0.37152626999866273,0.0,0.12696833309632458,0.1,0.002703428268432617,0.05148768424987793,0.05017325,1.1814733,0.6886070808799023,0.0,0.016421201330057065,0.0,200,0.014440059661865234,0.2627575238790907,0.2498031152791252,20800,1.055717546892467,0.0
104,1.608199119567871,0.6501985392903445,0.34586635653052533,1.0811332566506464,0.2726694865335123,0.0,0.13102365603260088,0.1,0.002658843994140625,0.05043315887451172,0.05006245,1.1641828,0.6847662267209466,0.0,0.012994358250781515,0.0,200,0.015436172485351562,0.25828565499387,0.25593934708835847,21000,1.2457152389085737,0.0
105,1.598599910736084,0.641879666726942,0.3773246246380832,1.256954727251993,0.23125526065776703,0.0,0.13060818640409871,0.1,0.0027360916137695312,0.05102348327636719,0.04944532,1.3603114,0.6804775707215461,0.0,0.012679801096985972,0.0,200,0.02884531021118164,0.2782211881372235,0.27546195876786217,21200,0.9067135782418368,0.0
106,1.6096186637878418,0.7826753646378447,0.5280023428275522,1.6789885058505012,0.3242445013278364,0.0,0.12935086273310767,0.1,0.0026051998138427734,0.05095195770263672,0.05025407,1.9807427,0.690697350113176,0.0,0.015656907718572304,0.0,200,0.029258251190185547,0.36305727574088364,0.3577867200213427,21400,0.6341216298813488,0.0
107,1.5890967845916748,0.6968393912804802,0.10983366124188695,0.798622993101825,0.5128253701370059,0.0,0.1352281355512971,0.1,0.002637147903442383,0.04940652847290039,0.049908973,0.83006346,0.6913115542299064,0.0,0.013845135989029735,0.0,200,0.013567924499511719,0.06793535507524553,0.065713591070249,21600,0.9997062467200309,0.0
108,1.5715246200561523,0.666449935038262,0.290395808154713,1.1535763082996804,0.40891970868212724,0.0,0.12586141085933375,0.1,0.002559661865234375,0.0495305061340332,0.050325885,1.0485077,0.688825392310742,0.0,0.01329730599490767,0.0,200,0.024852275848388672,0.192317316649217,0.19027972146477476,21800,1.2508680573092865,0.0
109,1.6157219409942627,0.719256484752986,0.4819527951480823,1.4791101321214348,0.29209687940261175,0.0,0.12832293300023903,0.1,0.0025866031646728516,0.04936408996582031,0.04956915,1.1975067,0.6918685015549664,0.0,0.014091536775011987,0.0,200,0.03173327445983887,0.33047140368104344,0.3272612045185254,22000,1.225962744527289,0.0
110,1.47737717628479,0.573712460947819,0.34113970662074994,0.9483477341177271,0.18631885098734355,0.0,0.12639700810235407,0.1,0.0027980804443359375,0.051374197006225586,0.05002007,1.0441135,0.6800528974942517,0.0,0.011330853502243233,0.0,200,0.028912067413330078,0.3304364414488643,0.3200912125071908,22200,1.280821282820052,0.0
111,1.514805793762207,0.9088044333976832,0.34533346574631657,1.4018668909444993,0.5359200647059718,0.0,0.13341793617732536,0.1,0.002787351608276367,0.05057024955749512,0.050229732,0.9551741,0.7029280510845949,0.0,0.017952056244835403,0.0,200,0.03980278968811035,0.22628966632740782,0.2084600411071746,22400,0.5260701098247238,0.0
112,1.5084433555603027,0.5879049473461784,0.29987919239067734,0.9555704489743637,0.28995314927423027,0.0,0.12664241753878114,0.1,0.0026895999908447266,0.05066943168640137,0.049690656,0.90486854,0.6914257407107532,0.0,0.011664572497255807,0.0,200,0.029753684997558594,0.2541317724167101,0.26573392500054777,22600,0.5693174467490463,0.0
113,1.637005090713501,0.8958923288333582,0.2588535005584782,1.3196974874255356,0.6167496955047447,0.0,0.13339005308119156,0.1,0.0025827884674072266,0.05118823051452637,0.04951244,1.895357,0.7118723995230138,0.0,0.017879608529394797,0.0,200,0.04741263389587402,0.13666441229069026,0.12344679335717573,22800,0.2812111876235027,0.0
114,1.5539007186889648,1.3532948258409119,0.7578216029479025,2.6101008596172464,0.5801149570965617,0.0,0.12513510590178445,0.1,0.002691030502319336,0.050050973892211914,0.049180884,1.7935916,0.7760146421548036,0.0,0.026685863881465627,0.0,200,0.0177762508392334,0.43012080158125876,0.3463938570447391,23000,0.398944433043946,0.0
115,1.601736068725586,1.1172505050285968,0.38983235000370553,1.5726429086848452,0.5627999021061977,0.0,0.12274811221443133,0.1,0.002726316452026367,0.05029416084289551,0.05046315,1.3708829,0.810138228442183,0.0,0.02192499375896494,0.0,200,0.0721731185913086,0.1737454652679269,0.17677835342406323,23200,0.38592504817973977,0.0
116,1.5274052619934082,0.67295932103208,0.1747828353166731,0.8603136522221748,0.3901856428071989,0.0,0.1248751191524428,0.1,0.0027146339416503906,0.05117487907409668,0.048955303,1.2024846,0.7964203377011727,0.0,0.01320844290478259,0.0,200,0.03259563446044922,0.7988947040482571,0.5187831287829167,23400,0.9648394475535488,0.0
117,1.5613372325897217,0.6642364501070226,0.16285797984382702,0.9385467688709268,0.5127084192345249,0.0,0.13169878809643218,0.1,0.0025930404663085938,0.0504457950592041,0.050002478,0.8935286,0.7832019489417578,0.0,0.01327291624752493,0.0,200,0.030577898025512695,0.6754587708594333,0.18656790478059807,23600,0.7907652384004743,0.0
118,1.6069273948669434,0.8427377662624955,0.3321353891226815,1.3598990600861405,0.4335761377760577,0.0,0.12866085796193155,0.1,0.0026056766510009766,0.050061941146850586,0.050068464,1.50812,0.7891555306738316,0.0,0.016763088542568003,0.0,200,0.02851247787475586,0.20812852296986348,0.22477439783961126,23800,0.7810483098064287,0.0
119,1.6135175228118896,0.9093760609126924,0.4000120261540819,1.4261311718267071,0.3138680503723165,0.0,0.1345213287932296,0.1,0.0025641918182373047,0.049654483795166016,0.049756397,0.9984376,0.8011775836977176,0.0,0.017980466186863782,0.0,200,0.04067850112915039,0.2825787063901357,0.3107719025193185,24000,0.9207577069905151,0.0
120,1.6181769371032715,0.9044374450603448,0.5685839630796106,1.5536987179834139,0.16646333428377613,0.0,0.1277009612136725,0.1,0.002672910690307617,0.05453014373779297,0.049594183,1.262278,0.8115035698339803,0.0,0.017976149605733415,0.0,200,0.029888391494750977,0.38668583955969565,0.3618756188092163,24200,0.5165270137227916,0.0
121,1.6063945293426514,0.7505495765253258,0.4388522455021886,1.3040052813353764,0.1375691964205171,0.0,0.11927904416375017,0.1,0.002660512924194336,0.053147315979003906,0.05036461,1.2433436,0.8054081705031149,0.0,0.014913824585501043,0.0,200,0.014364480972290039,0.3144919003190077,0.3028844710219687,24400,0.4098210386554355,0.0
122,1.6983990669250488,0.6491280494318186,0.5301326595720857,1.5225912138375886,0.17577744476283766,0.0,0.13256470941687992,0.1,0.002729654312133789,0.0504610538482666,0.04976576,1.6108727,0.7897801583959853,0.0,0.012956620507545185,0.0,200,0.028406381607055664,0.44618963170486653,0.45051630011414623,24600,0.6206895170586683,0.0
123,1.6012930870056152,0.5366150977495298,0.2641215788412057,0.9035651188649498,0.23461459381155553,0.0,0.1185484414457196,0.1,0.002835988998413086,0.06597757339477539,0.049746767,1.2951626,0.7644636523313397,0.0,0.01069083115096578,0.0,200,0.06996560096740723,0.3629751548761947,0.34438298769698,24800,0.26416565859189084,0.0
124,1.6261587142944336,0.5799004126100814,0.1144747141705793,0.7259343408030822,0.41433509619513587,0.0,0.1237854846617961,0.1,0.0026619434356689453,0.04976463317871094,0.050411414,1.9935026,0.7460073283592139,0.0,0.011522326929131032,0.0,200,0.03770780563354492,0.12076118247075335,0.09908987115580574,25000,0.3241593825672448,0.0
125,1.6697824001312256,0.6206002705418856,0.3437646076471248,1.0890435097017923,0.11805471502182203,0.0,0.12255845242185319,0.1,0.002517223358154297,0.048821210861206055,0.050082672,1.3205835,0.7334666225774811,0.0,0.012176116789826826,0.0,200,0.02228522300720215,0.34975245904602176,0.3357965725093888,25200,0.6524971812876592,0.0
126,1.597465991973877,0.5228362986388472,0.2177290436536027,0.7581032645158661,0.18335159952612404,0.0,0.12686070831383597,0.1,0.002547740936279297,0.049471139907836914,0.049580775,0.8404645,0.7124035901836177,0.0,0.010441893712867622,0.0,200,0.05196833610534668,0.2291593736663125,0.19998894539935996,25400,0.7255222899511505,0.0
127,1.575847864151001,0.8014158292912953,0.3756207141708403,1.1703118294139572,0.2916697384236653,0.0,0.11856305775561495,0.1,0.0029709339141845703,0.05220651626586914,0.049135998,1.5636257,0.7213048140943854,0.0,0.015693573290110074,0.0,200,0.02908468246459961,0.28081345669036556,0.2811399279932006,25600,0.7848980787220178,0.0
128,1.574540138244629,0.5370158188293932,0.11030349198335121,0.7208217983500926,0.43246348086238634,0.0,0.1300718073700922,0.1,0.002833127975463867,0.05199170112609863,0.049802642,2.3592436,0.7028759145678861,0.0,0.01062098035456824,0.0,200,0.023194551467895508,0.14357136104849194,0.14561839470984675,25800,1.1653153574670436,0.0
129,1.5482022762298584,0.8314489233977072,0.5575256922875635,1.6503094557677747,0.27194013772448383,0.0,0.12510679549412426,0.1,0.0028159618377685547,0.051335811614990234,0.050058354,1.4661826,0.7157332154508682,0.0,0.01632305822241011,0.0,200,0.029421329498291016,0.3630248215180769,0.3511940232389405,26000,0.8703323492083536,0.0
130,1.5359904766082764,0.5790811974248257,0.206265285590201,0.889191072110132,0.33248903712928685,0.0,0.1296841135344478,0.1,0.002772808074951172,0.05279827117919922,0.05008988,0.8724369,0.702068013648264,0.0,0.011304415984777272,0.0,200,0.030733585357666016,0.15130980664207436,0.1551516859410817,26200,1.0021018845433491,0.0
131,1.586998462677002,0.6883641526803845,0.5904256667723302,1.6614905489064502,0.19029896128809737,0.0,0.1345180787747587,0.1,0.002724170684814453,0.05287814140319824,0.04952145,1.599019,0.700697627551476,0.0,0.013748074933050743,0.0,200,0.03476762771606445,0.4658167668118959,0.4631196351830771,26400,1.320762455414199,0.0
132,1.569502592086792,0.5780863860133215,0.2733740256011496,0.9856362130450241,0.2232093026491296,0.0,0.1158592526389741,0.1,0.002740621566772461,0.052184343338012695,0.049242295,2.0000265,0.6884365033976606,0.0,0.01153430579765763,0.0,200,0.03381609916687012,0.2665284724197633,0.2592426939762499,26600,1.2953045533343672,0.0
133,1.6473522186279297,0.8604507628414014,0.3262355720236031,1.3142108298994586,0.44612817730237364,0.0,0.12457036075130884,0.1,0.0026907920837402344,0.05264639854431152,0.04974983,1.5908444,0.7056379293420347,0.0,0.01709551915071308,0.0,200,0.04631853103637695,0.23331045425806063,0.22474000769828142,26800,1.3127611974413644,0.0
134,1.6131303310394287,0.5673055363200336,0.2572591291635386,0.8038349123001703,0.14712285846605258,0.0,0.12283925115195819,0.1,0.0026869773864746094,0.053540706634521484,0.050203104,1.0637623,0.6918046900398347,0.0,0.011186345848486256,0.0,200,0.0346074104309082,0.23028001037930224,0.23249768700180548,27000,1.1525464098003628,0.0
135,1.6257612705230713,0.7400317112550588,0.14139071539571665,0.918765346359636,0.5230660168766965,0.0,0.12097522419449906,0.1,0.0027022361755371094,0.05099034309387207,0.049990352,2.2211885,0.6966273921613572,0.0,0.014557596005749164,0.0,200,0.032015085220336914,0.07687729061404786,0.07331131004499176,27200,0.4829944342822441,0.0
136,1.6144635677337646,1.122000273712428,0.12114033328607966,1.2696011665563496,0.9440323673150075,0.0,0.12068622877343568,0.1,0.0026111602783203125,0.05052804946899414,0.050232396,1.1401479,0.7391646803164642,0.0,0.022122096810618795,0.0,200,0.040985107421875,0.21349293923906598,0.1615182822860577,27400,0.3445049323126114,0.0
137,1.5369932651519775,0.5832154170219513,0.3622959244344939,1.1701572110881615,0.2519099775365129,0.0,0.1247846946792026,0.1,0.0025658607482910156,0.048358917236328125,0.04971772,1.75445,0.723569753987013,0.0,0.01155048284130257,0.0,200,0.028631925582885742,0.41109531330767535,0.45591797672375683,27600,0.4903943297624978,0.0
138,1.651054859161377,0.9406690451161387,0.6344877971844205,1.9646375513451373,0.24891309333455966,0.0,0.13085075991290637,0.1,0.0026454925537109375,0.050092458724975586,0.049470898,1.6860983,0.7452796830999255,0.0,0.01852919574264906,0.0,200,0.05237436294555664,0.35123677266151826,0.34112958268921956,27800,0.5243893577765826,0.0
139,1.6453123092651367,0.5417310733874696,0.3336603434016933,1.0053875775264338,0.21698085788545896,0.0,0.1280929210856836,0.1,0.002623319625854492,0.051236867904663086,0.049748216,1.3940884,0.7249248221286799,0.0,0.010563176756354545,0.0,200,0.0181429386138916,0.5752120488246097,0.5211651329632254,28000,0.620137105386083,0.0
140,1.6264562606811523,1.0274947458549102,0.40080506744496397,1.4751922970692677,0.5739289591015646,0.0,0.1316170203533481,0.1,0.0027518272399902344,0.05193042755126953,0.049371958,1.1611807,0.755181814501303,0.0,0.020217499826921954,0.0,200,0.07144880294799805,0.19806303900250896,0.19647333110124024,28200,1.2538866638368553,0.0
141,1.7186572551727295,0.6157765532094871,0.46653736483530117,1.4179854189940708,0.2636289526114371,0.0,0.12061979831462646,0.1,0.002660989761352539,0.05379629135131836,0.049558934,1.8322003,0.7412412883721214,0.0,0.012032402006218747,0.0,200,0.0301358699798584,0.419473185115152,0.4101361729868479,28400,1.646103707346855,0.0
142,1.6587631702423096,0.5437618883239176,0.37189014792764846,1.180697982618891,0.24549641109426668,0.0,0.12576936914801823,0.1,0.0026013851165771484,0.05371665954589844,0.049804553,1.3730801,0.7214933483673012,0.0,0.010635201969260946,0.0,200,0.039487361907958984,0.46985954800699964,0.42062200082518597,28600,0.8451651282940359,0.0
143,1.6821262836456299,0.5901520149331476,0.26837840878686536,0.9150634012516691,0.24255155027897957,0.0,0.126537203106297,0.1,0.0027947425842285156,0.05432319641113281,0.05030984,0.9363935,0.7083592150238858,0.0,0.011591696540307759,0.0,200,0.030229568481445312,0.26209871070486374,0.22330193441879143,28800,0.8215230381108293,0.0
144,1.6019642353057861,0.8126273038152034,0.3178384807874569,1.2660938390852694,0.39365005246492746,0.0,0.12620999099712543,0.1,0.003087282180786133,0.05720663070678711,0.04913548,1.2386732,0.7187860239030175,0.0,0.015945810475299752,0.0,200,0.031033754348754883,0.17355603182452492,0.18598515822300712,29000,0.5065600140729994,0.0
145,1.6316015720367432,0.7132561954564325,0.5232893180149891,1.5948470654123652,0.28608161161320966,0.0,0.1335151598521108,0.1,0.002804279327392578,0.05510139465332031,0.04982821,1.31581,0.718233041058359,0.0,0.01423567513401175,0.0,200,0.03557014465332031,0.39683723811166105,0.39508670420799635,29200,0.357617426499947,0.0
146,1.6185438632965088,0.4003947135905676,0.22215274076509026,0.6913557371820657,0.15251766789649657,0.0,0.136344865314501,0.1,0.002766132354736328,0.05212998390197754,0.049823027,0.73336357,0.6864492083115797,0.0,0.007912877726156231,0.0,200,0.025605201721191406,0.5613027670619284,0.4870950614291178,29400,0.652781826859603,0.0
147,1.6149632930755615,0.5468531911769378,0.33814909111040997,0.8892488565322932,0.15817229297950428,0.0,0.1306398409986704,0.1,0.0027048587799072266,0.05229306221008301,0.050731696,0.87543225,0.6724896065981156,0.0,0.010896474996718525,0.0,200,0.03714895248413086,0.3244715522922972,0.31351767652328966,29600,0.5233877831177551,0.0
148,1.6336066722869873,0.6417300898615893,0.25102659355011747,1.039296619866762,0.3876631325484188,0.0,0.12776948917710798,0.1,0.002958059310913086,0.054468631744384766,0.050056767,1.2919236,0.669413654924463,0.0,0.01257063351177383,0.0,200,0.02984762191772461,0.21752801464966448,0.2158237356884791,29800,0.9373108983561371,0.0
149,1.6108934879302979,0.8626503107091532,0.44831184167283067,1.3086102018201033,0.22046369532857532,0.0,0.12456596883359715,0.1,0.002735614776611328,0.05440020561218262,0.049674764,1.3406935,0.688737320502932,0.0,0.017083292941018954,0.0,200,0.055699825286865234,0.35076548780676137,0.3263614090561601,30000,0.8738140304891321,0.0
150,1.6319410800933838,0.5596119965898878,0.3377012243824724,1.1066398543023301,0.2784987272586532,0.0,0.12570430128895854,0.1,0.002990245819091797,0.055962324142456055,0.049791116,2.0597775,0.6758247881116276,0.0,0.011114760990755212,0.0,200,0.053315162658691406,0.3057816252452984,0.3190973379334737,30200,0.7873946221433492,0.0
151,1.6511151790618896,1.1075561992531002,0.1398595301359282,1.258731752829629,0.9267720787759824,0.0,0.12700375772841438,0.1,0.0030989646911621094,0.05404853820800781,0.04907994,1.1658157,0.7189979292257749,0.0,0.021828182537349927,0.0,200,0.029590129852294922,0.2420521075086153,0.18905839370656563,30400,0.7553689582315589,0.0
152,1.738654375076294,1.2155063575841814,0.4887800609443401,1.8114098836848416,0.6547258541430684,0.0,0.12588381555845296,0.1,0.0028519630432128906,0.05270576477050781,0.049767457,1.1267241,0.7686487720616156,0.0,0.02402764060102561,0.0,200,0.029326200485229492,0.32412913245382613,0.24662693100789718,30600,0.622377073497152,0.0
153,1.6841976642608643,1.1306367739238328,0.5614968958857514,2.056689767532643,0.5839078502583855,0.0,0.12424212694659592,0.1,0.002721548080444336,0.0519871711730957,0.05026944,1.6871605,0.8048475722478374,0.0,0.022076240010163107,0.0,200,0.09250664710998535,0.29606303893817043,0.24499913344876859,30800,1.12580648092433,0.0
154,1.6453046798706055,0.6606397013024294,0.30924132962457895,1.0872983730198327,0.2545293433477721,0.0,0.12399086365389403,0.1,0.0027997493743896484,0.05267143249511719,0.050153125,1.3869519,0.7904267851532966,0.0,0.013112194387282802,0.0,200,0.02515578269958496,0.9504906330752606,0.6223808662942821,31000,0.8744879772662962,0.0
155,1.6215522289276123,0.7886298432272033,0.2868306477239816,1.1688152438135544,0.508249447919685,0.0,0.13332529776423546,0.1,0.0028581619262695312,0.053989410400390625,0.05018674,1.0740813,0.7902470909606872,0.0,0.015538242572142062,0.0,200,0.028981447219848633,0.2764065055329277,0.16180664632559702,31200,1.5114118892763788,0.0
156,1.733506679534912,0.9151812637882104,0.08995686933089052,1.0619519841625544,0.8394197747863579,0.0,0.13878260496898062,0.1,0.002777576446533203,0.0528264045715332,0.050189525,1.0308144,0.8027405082434396,0.0,0.01784205032896459,0.0,200,0.018167495727539062,0.07885527494789024,0.10846087572493725,31400,1.0950178250224398,0.0
157,1.6996545791625977,0.42469801609985725,0.19063684260482713,0.6150981239303551,0.11456309601974603,0.0,0.11803949490559441,0.1,0.0027244091033935547,0.056815385818481445,0.04999019,1.3026819,0.7649362590290814,0.0,0.008273866199968784,0.0,200,0.035039663314819336,0.7609906268289163,0.5183004855780056,31600,1.3352898983937573,0.0
158,1.6723651885986328,1.0528172234835835,0.3432181107124694,1.3418699897150093,0.4696700120185425,0.0,0.12457392808616759,0.1,0.0026807785034179688,0.051949501037597656,0.05022514,0.85406613,0.7937243554745317,0.0,0.020823511767370864,0.0,200,0.03321409225463867,0.25322626753194194,0.2558820472529051,31800,1.4814585443465542,0.0
159,1.685265302658081,0.7303146735119814,0.5720306541642194,1.6867280784679346,0.17699981957306024,0.0,0.12445229104234806,0.1,0.002616405487060547,0.05135631561279297,0.049708214,2.7460957,0.7873833872782767,0.0,0.014604191734717515,0.0,200,0.028428077697753906,0.42350239923492183,0.4186049832128628,32000,1.3116512663653046,0.0
160,1.7129807472229004,1.1846437682174118,0.37155181273578275,1.8063376402795157,0.8207905944965803,0.0,0.12494581737445075,0.1,0.00262451171875,0.04912257194519043,0.049410507,1.5094217,0.8271094253721902,0.0,0.023341122504069747,0.0,200,0.022697925567626953,0.280973869526437,0.23987288935315873,32200,1.3748122859167988,0.0
161,1.6319544315338135,0.8158901040108262,0.49332006985253357,1.4728238598781334,0.09123799941501716,0.0,0.12883219603679213,0.1,0.0025386810302734375,0.05310487747192383,0.04975827,1.0372678,0.8259874932360538,0.0,0.016034008783500094,0.0,200,0.03326869010925293,0.29734794306489054,0.2950480755879056,32400,1.3663305268164845,0.0
162,1.6703894138336182,1.1977924521315308,0.516168689589941,1.6992599616194115,0.48757999963151616,0.0,0.12533827791185784,0.1,0.0026803016662597656,0.04897665977478027,0.04966756,1.3081175,0.8631679891256016,0.0,0.02338996870316095,0.0,200,0.028286457061767578,0.24977302221493755,0.2116480082722817,32600,1.4229689846821394,0.0
163,1.599060297012329,0.8879635787554582,0.2179387168832206,1.2132118127493354,0.6725449337679114,0.0,0.12463964672459117,0.1,0.0028924942016601562,0.05205512046813965,0.05102725,0.8109888,0.8656475480885872,0.0,0.0175685551003051,0.0,200,0.09356451034545898,0.18539644970478164,0.21556455057231305,32800,1.214572713643316,0.0
164,1.6543405055999756,0.842681337624151,0.47238987734785737,1.570992829525296,0.3556781231672159,0.0,0.12673498333503871,0.1,0.002814054489135742,0.05214190483093262,0.049494907,1.3237282,0.8633509270421436,0.0,0.016453018647740538,0.0,200,0.06255459785461426,0.2863496358805485,0.26707788827214096,33000,1.1267193225136543,0.0
165,1.5767569541931152,0.6589006510196224,0.1943887203911224,0.9405489381934603,0.4038491697468891,0.0,0.1306532281909903,0.1,0.002913951873779297,0.051538705825805664,0.049611166,1.2129211,0.8429058994398915,0.0,0.012748013406703606,0.0,200,0.04208707809448242,0.42905828188845546,0.2453526415702792,33200,1.3809389243004275,0.0
166,1.634617805480957,1.127337303068607,0.5575732466618454,1.7017230137414145,0.2161418574876594,0.0,0.1257067544891141,0.1,0.0027108192443847656,0.05114483833312988,0.050007366,1.0125384,0.8713490398027631,0.0,0.022368839396447054,0.0,200,0.028809785842895508,0.25048336918276437,0.2674943929742411,33400,1.262556234991391,0.0
167,1.7003896236419678,0.8545065824921292,0.42623445278643945,1.293862268211403,0.3827835197777237,0.0,0.12753182123319504,0.1,0.0027794837951660156,0.05140542984008789,0.049945235,0.89545614,0.8696647940716997,0.0,0.016578950238761533,0.0,200,0.030233144760131836,0.21060453268479612,0.2093140239934252,33600,1.7301005746228295,0.0
168,1.6978871822357178,1.1286668440398688,0.8223369028666884,2.5232042821169918,0.4496857048867547,0.0,0.12444483294131255,0.1,0.002680063247680664,0.05170941352844238,0.049597405,2.087086,0.8955649990685166,0.0,0.02201639506867551,0.0,200,0.029938936233520508,0.43910894300776043,0.4095879787211854,33800,2.1646137358743736,0.0
169,1.6925973892211914,0.9930797858348298,0.3835552436116542,1.5983795130614205,0.6133305447520696,0.0,0.1271616145234147,0.1,0.0027785301208496094,0.05066514015197754,0.050026402,1.7321467,0.9053164777451479,0.0,0.019696262230264952,0.0,200,0.05217719078063965,0.1787637559806997,0.16131666565185207,34000,1.2516928751473408,0.0
170,1.6595983505249023,0.7347681316940565,0.28945500147111475,1.0454935069574876,0.3824961025790938,0.0,0.13069698057677542,0.1,0.0027391910552978516,0.05047011375427246,0.04973282,0.8857863,0.8882616431400389,0.0,0.014637446200587987,0.0,200,0.05310630798339844,0.23621635532673907,0.2485413355255119,34200,1.6178206496943346,0.0
171,1.7868895530700684,0.8888222960406444,0.3108204881199783,1.4072682241965104,0.5803591731131607,0.0,0.12353466579522368,0.1,0.002738475799560547,0.05061054229736328,0.050017223,1.1538817,0.8883177084300994,0.0,0.017506578841079957,0.0,200,0.018075942993164062,0.19237577518368035,0.17640077480932284,34400,1.6074956148451724,0.0
172,1.7989730834960938,0.6769417451426871,0.20905756028348496,0.9729634257655301,0.38430110455512795,0.0,0.12054415095555679,0.1,0.002716064453125,0.04993391036987305,0.049263466,1.6771016,0.8671801121013581,0.0,0.013502790419954124,0.0,200,0.04918479919433594,0.2745577673432052,0.1811937282079922,34600,1.1149548696626668,0.0
173,1.6697087287902832,0.6018300785656798,0.32762488613700363,0.9124133454990548,0.05054628686748702,0.0,0.123515666328642,0.1,0.002661466598510742,0.05053234100341797,0.050427884,0.8090257,0.8406451087477903,0.0,0.01192595020722463,0.0,200,0.02882528305053711,0.4311310492613021,0.2985423962455984,34800,1.347371969081089,0.0
174,1.6932954788208008,0.9223056622948415,0.3726589735577365,1.3085685412789756,0.38563608451054265,0.0,0.1261210666266122,0.1,0.002588033676147461,0.04977130889892578,0.049836606,1.0337899,0.8488111641024954,0.0,0.018006352234364864,0.0,200,0.09731054306030273,0.24210331185822462,0.26394806793997977,35000,1.0073459110190455,0.0
175,1.8241724967956543,0.5483765974505452,0.3888371719878265,1.1934246533626403,0.19858371737117872,0.0,0.12026634632628662,0.1,0.0025441646575927734,0.049718379974365234,0.04965535,1.5869622,0.8187677074373003,0.0,0.010873927807831276,0.0,200,0.04713726043701172,0.40399627253986736,0.3729444211485454,35200,1.1570275529162009,0.0
176,1.7036163806915283,1.0093878830713618,0.45863621420868544,1.5706042135927878,0.3273479906188809,0.0,0.11973150349594301,0.1,0.002568483352661133,0.05037736892700195,0.049807858,1.338179,0.8378297250007065,0.0,0.019726161434117165,0.0,200,0.09467887878417969,0.2939280903525178,0.2833877067735977,35400,1.2686911817130049,0.0
177,1.6501963138580322,0.7239732364296803,0.4300425542830777,1.3171754508997295,0.2101003672749204,0.0,0.1206160077525389,0.1,0.002956867218017578,0.05254793167114258,0.05022602,1.0739303,0.8264440761436039,0.0,0.014223242434015834,0.0,200,0.02894735336303711,0.2790223918866053,0.27336363643942185,35600,1.277713668680261,0.0
178,1.7331271171569824,0.5455973455225385,0.1736757451617271,0.7359099434281446,0.32698944909465777,0.0,0.12492200401512485,0.1,0.002817869186401367,0.05239439010620117,0.05042315,1.0977477,0.7983594030814973,0.0,0.010777868586039786,0.0,200,0.032973527908325195,0.18571774070717065,0.18873667825130935,35800,1.505969959600851,0.0
179,1.6753900051116943,1.2205393584148914,0.4027075126486704,1.6262188102574702,0.5891179625341876,0.0,0.12734085662978376,0.1,0.0026552677154541016,0.05136561393737793,0.049915165,1.1038996,0.8405773986148368,0.0,0.024232570785497416,0.0,200,0.04253363609313965,0.2412140279873662,0.2189631776208998,36000,1.1636337599087863,0.0
180,1.7868785858154297,0.7294653753121113,0.464200886196791,1.519055213827552,0.32667665390360723,0.0,0.12343064920311102,0.1,0.0028443336486816406,0.05072808265686035,0.050028432,2.6026883,0.8294661962845643,0.0,0.014401446649343938,0.0,200,0.029388427734375,0.3313775840955748,0.338706647747639,36200,1.4252200317133434,0.0
181,1.8265001773834229,1.0307534788364763,0.9088848819382233,2.489971623191137,0.22013602249747563,0.0,0.12009941050367205,0.1,0.0027952194213867188,0.05147194862365723,0.049160156,1.995727,0.8495949245397556,0.0,0.02040145229953431,0.0,200,0.028716325759887695,0.4794626411756857,0.4638903615372415,36400,1.93643764302848,0.0
182,1.7494945526123047,0.889952170700478,0.452736944935726,1.4553875541087853,0.29899646362307575,0.0,0.11803950666928092,0.1,0.0035877227783203125,0.05028820037841797,0.049793825,1.1980983,0.8536306491558279,0.0,0.017436295640858152,0.0,200,0.017183542251586914,0.2253841783008465,0.22754820838922674,36600,1.514881803566787,0.0
183,1.693305253982544,0.478956036292203,0.24574266508062204,0.7842633451091678,0.1497207530961663,0.0,0.12448632674046785,0.1,0.002766132354736328,0.05112504959106445,0.049726278,1.3085896,0.8161631878694654,0.0,0.0095505947736197,0.0,200,0.018984079360961914,1.0327808939656897,0.8254237731940869,36800,1.5124050762644687,0.0
184,1.7006962299346924,0.964288086807087,0.774084555100116,2.2660309027918855,0.2743133474251902,0.0,0.12483437181738147,0.1,0.002797365188598633,0.05035901069641113,0.049867276,1.7396365,0.8309756777632276,0.0,0.018920152439851422,0.0,200,0.03212332725524902,0.4046732156568606,0.41143497171682897,37000,0.9626451804476165,0.0
185,1.7102859020233154,0.6827483884507366,0.3997717265653807,1.0733663755299032,0.020526090166640205,0.0,0.12570465647313916,0.1,0.002753019332885742,0.05105090141296387,0.049842715,0.8400522,0.8161529488319785,0.0,0.013417605177525518,0.0,200,0.1000678539276123,0.29845450562078485,0.27443773858157133,37200,0.5465200984008246,0.0
186,1.6959803104400635,1.0649150765934625,0.4892455883775944,1.6351594123647646,0.5399458062949806,0.0,0.12726039508293843,0.1,0.0027723312377929688,0.05156397819519043,0.049643937,1.1303761,0.8410291616081269,0.0,0.02108680340445596,0.0,200,0.028739213943481445,0.2826071085018333,0.2796058299309316,37400,0.4372905362330919,0.0
187,1.75162672996521,0.9364302947614396,0.3673228939190484,1.3909468790717934,0.3704815429630377,0.0,0.11696194978002843,0.1,0.002676725387573242,0.05833792686462402,0.04993493,0.9326967,0.8505692749234582,0.0,0.018243065317903737,0.0,200,0.08823585510253906,0.21618219717613651,0.19915711366939598,37600,0.3207687953131928,0.0
188,1.7607133388519287,1.338792016077374,0.7285063530720357,2.138024415302125,0.3169638257195098,0.0,0.12714750778177888,0.1,0.002711057662963867,0.05065608024597168,0.049713325,1.0663983,0.8993915490388498,0.0,0.02653745422976395,0.0,200,0.06728696823120117,0.3544092803886731,0.30408117832608184,37800,0.6542915089192622,0.0
189,1.8003952503204346,1.0303598510271592,0.3024008441944216,1.4977141960061173,0.7357412622475149,0.0,0.12401309796198272,0.1,0.0026662349700927734,0.05074763298034668,0.049940456,1.2727917,0.9124883792376808,0.0,0.020487455019204688,0.0,200,0.022928237915039062,0.09815276930748985,0.1004230196426002,38000,0.7422102759159803,0.0
190,1.737417221069336,0.7411041236860885,0.47228072507451113,1.3492485164321517,0.02705814790465782,0.0,0.11909250604022606,0.1,0.0026521682739257812,0.05468344688415527,0.049841948,1.0600117,0.8953499536825216,0.0,0.014818927570766482,0.0,200,0.028886795043945312,0.490920364818358,0.4889877035310295,38200,0.37722312869900737,0.0
191,1.710857629776001,1.0658017631025762,0.37020009114608154,1.3928712538688357,0.4392029749984629,0.0,0.11997895527484931,0.1,0.0031256675720214844,0.05384469032287598,0.050450694,0.97295564,0.912395134624527,0.0,0.02100377258550335,0.0,200,0.021738052368164062,0.16344552372866855,0.15325530525221195,38400,0.5040191288641526,0.0
192,1.7202789783477783,0.656057736828326,0.47117210661368203,1.338413943009409,0.03302602825534476,0.0,0.12643228420472274,0.1,0.0029494762420654297,0.054026126861572266,0.050208464,1.7661988,0.8867613948449069,0.0,0.012895477307948894,0.0,200,0.04276108741760254,0.6096445004730525,0.47550203968688437,38600,0.34929261406511586,0.0
193,1.743743896484375,1.1939470103295513,0.6912932012233596,1.8827451401717106,0.20508031563738496,0.0,0.12583571154517298,0.1,0.0028111934661865234,0.05406451225280762,0.050585855,0.93745893,0.9174799563933713,0.0,0.023139426793910876,0.0,200,0.039951324462890625,0.35632457181641697,0.365706871784624,38800,0.5139815149684035,0.0
194,1.766932725906372,0.9025550657408067,0.3679456777072782,1.4179015953929055,0.45534389430081396,0.0,0.124636863094731,0.1,0.002806425094604492,0.05262589454650879,0.05010673,1.1437372,0.9159874673281149,0.0,0.017861369546696544,0.0,200,0.09509110450744629,0.16134554369776566,0.15534442082017588,39000,1.1296249729968417,0.0
195,1.7683138847351074,0.6107638889717868,0.5392403141989103,1.4621702371033818,0.07022928080468735,0.0,0.12169549742621245,0.1,0.0028295516967773438,0.053597211837768555,0.0494091,2.0319815,0.8854651094924821,0.0,0.01198684015174129,0.0,200,0.029454946517944336,0.5745624436936522,0.5506289046941855,39200,1.6757443338927782,0.0
196,1.705718994140625,0.4026343656866685,0.26532244657703047,0.6757210718627387,0.03130728769843067,0.0,0.11960847073286296,0.1,0.0027785301208496094,0.05333971977233887,0.049909625,1.2498276,0.8371820351119008,0.0,0.007927534940935522,0.0,200,0.0511937141418457,1.2530275871225065,0.9209236700101135,39400,1.257313785671555,0.0
197,1.7368555068969727,1.0002733941030901,0.1519706349086651,1.1608277144756065,0.7503819073115436,0.0,0.12213826990685583,0.1,0.003032207489013672,0.05127716064453125,0.049896628,1.3294327,0.8534911710110198,0.0,0.01959996162563502,0.0,200,0.03020024299621582,0.117537889973509,0.13926638934046875,39600,1.3758804463519663,0.0
198,1.7993133068084717,1.0759721546385017,0.21678888814940278,1.3726745846701651,0.8572103808236773,0.0,0.12324776987773842,0.1,0.0028848648071289062,0.0513148307800293,0.049738094,1.4819801,0.875739269373768,0.0,0.021209086311864477,0.0,200,0.06240224838256836,0.16003430463288493,0.14659722078124662,39800,1.9452857428008719,0.0
199,1.792724847793579,0.6577640578374765,0.5775697987924155,1.6496210097350814,0.21545906209864096,0.0,0.12718589813183545,0.1,0.003161191940307617,0.05112648010253906,0.049182802,1.6598983,0.8539417482201389,0.0,0.012982346630805724,0.0,200,0.026281356811523438,0.4473307302355007,0.45085802056638324,40000,1.3614781595101568,0.0
200,1.8187525272369385,1.3567629483153516,0.2632902042523035,1.582187882003573,0.9177591311377992,0.0,0.12870709634156885,0.1,0.0028090476989746094,0.05338931083679199,0.0502398,1.057507,0.9042238682296603,0.0,0.026480409452748696,0.0,200,0.0553133487701416,0.24237200031635023,0.19759088177534315,40200,0.9292665414973547,0.0
201,1.8077144622802734,0.9730208595048426,0.5129395903977604,1.4643452474632654,0.1655866943331603,0.0,0.1215884977378461,0.1,0.0027539730072021484,0.05323004722595215,0.049651507,1.6180174,0.9111035673571786,0.0,0.01928950909296878,0.0,200,0.01808786392211914,0.29770520966966835,0.2870199451928915,40400,0.8847238935485197,0.0
202,1.8135201930999756,0.8904020774126635,0.5000617428903534,1.6765361919499884,0.35561528488385297,0.0,0.1270492243487859,0.1,0.002754688262939453,0.05582022666931152,0.049446605,1.4765872,0.9090334183627271,0.0,0.01730131235049624,0.0,200,0.0525667667388916,0.29006340500572514,0.29814448077991274,40600,1.46326940506961,0.0
203,1.8169093132019043,0.6591723298898352,0.5465242183853641,1.5469059165940786,0.05349821156130718,0.0,0.1296813004448648,0.1,0.0026428699493408203,0.052271127700805664,0.04984976,1.0177135,0.884047309515438,0.0,0.012842346270368375,0.0,200,0.0281832218170166,0.5306547356721831,0.5123421414895603,40800,1.6145627027919875,0.0
204,1.8145277500152588,1.2620560116885562,0.664037440042704,2.047533602128488,0.208123776720427,0.0,0.12752849315252687,0.1,0.0027031898498535156,0.05251264572143555,0.05012102,0.9827286,0.9218481797327498,0.0,0.024693666556779695,0.0,200,0.05808734893798828,0.28255780236934164,0.2808134049581061,41000,1.6297361747314216,0.0
205,1.8283827304840088,0.9465419277681973,0.7142047752310123,1.8285128369150117,0.09525806783506971,0.0,0.1230592003183134,0.1,0.002729654312133789,0.05378603935241699,0.04951927,1.0877156,0.9243175545362946,0.0,0.018605525634264524,0.0,200,0.07573485374450684,0.3934995377678082,0.3910651158376625,41200,1.8799534623912377,0.0
206,1.807194471359253,0.9481683102677072,0.49451380455304,1.669400529376179,0.34512306979711427,0.0,0.12291950874613052,0.1,0.002786874771118164,0.052947282791137695,0.049808413,1.5257851,0.9267026301094359,0.0,0.01858697187009274,0.0,200,0.04038381576538086,0.26774723596123196,0.26428082007545467,41400,1.758434551553741,0.0
207,1.8030011653900146,0.7550970625418911,0.400046164285791,1.3854417694976464,0.33413483979792125,0.0,0.12107753912152706,0.1,0.0026831626892089844,0.058696746826171875,0.05007846,1.7222534,0.9095420733526813,0.0,0.014968864983083946,0.0,200,0.03034210205078125,0.32479011566666177,0.28920167627044624,41600,1.908226766234618,0.0
208,1.8943891525268555,0.9427193312320987,0.5069497162968262,1.4952319182706464,0.3232539922834173,0.0,0.12652985650994422,0.1,0.002788543701171875,0.05324411392211914,0.05035029,1.0354669,0.9128597991406231,0.0,0.01842247888364218,0.0,200,0.022254228591918945,0.2424132792918504,0.2455495490279796,41800,1.3368215880059564,0.0
209,1.9193947315216064,0.9101416784378991,0.34178359400401337,1.3285398383009877,0.41052124605520124,0.0,0.12786291553540122,0.1,0.0027654170989990234,0.054111480712890625,0.050106116,0.9886595,0.9125879870703507,0.0,0.01796740255300628,0.0,200,0.05257225036621094,0.14894694950437357,0.1481668124331437,42000,1.524898561102564,0.0
210,1.8884575366973877,1.0320089147550253,0.20196475449193466,1.3168610832804928,0.7503031152606473,0.0,0.12831974410355532,0.1,0.002687692642211914,0.05353188514709473,0.04991548,1.1677123,0.9245300798388183,0.0,0.02024278910104111,0.0,200,0.10188150405883789,0.1027855280421335,0.09398182340116412,42200,1.5672224941158948,0.0
211,1.8624184131622314,1.2868578999437739,0.5182472038480034,1.9456374256221716,0.508136282951381,0.0,0.12307889225111535,0.1,0.002702474594116211,0.05227255821228027,0.049977127,1.1396977,0.9607628618493139,0.0,0.02564092471753222,0.0,200,0.02989792823791504,0.2242792633250028,0.20601429691436213,42400,1.7213106065409278,0.0
212,1.8609910011291504,0.6703965636791834,0.30342822269429864,1.1715510046226205,0.3952397444846487,0.0,0.1237373152416511,0.1,0.0027005672454833984,0.05194544792175293,0.050658785,1.1972107,0.9317262320323009,0.0,0.013254263780015456,0.0,200,0.09521627426147461,0.5252792146350005,0.5201064496334339,42600,1.584560034158743,0.0
213,1.8470969200134277,1.071582687916601,0.6135209126163292,2.0117576474893633,0.38484468363706,0.0,0.12154088633665594,0.1,0.0026519298553466797,0.05267214775085449,0.050145723,2.137905,0.945711877620731,0.0,0.02101374414919422,0.0,200,0.04743695259094238,0.28724480818396353,0.2867922460766572,42800,1.5626300546035108,0.0
214,1.8083508014678955,0.88218711038482,0.7212972776050255,2.0429007505095256,0.1521941140908791,0.0,0.12363065080604929,0.1,0.0025892257690429688,0.05012941360473633,0.049540997,1.8485614,0.9393594008971399,0.0,0.01736360808191787,0.0,200,0.02977752685546875,0.4559880220684604,0.45166348852241595,43000,1.45441563796441,0.0
215,1.808891773223877,0.9658724812889494,0.6169541322334969,1.8760798980432287,0.1348297126322944,0.0,0.13223605880681105,0.1,0.002682209014892578,0.04954338073730469,0.04976033,1.124198,0.9420107089363209,0.0,0.01891917215191868,0.0,200,0.09631705284118652,0.33235731967886817,0.3267297017739515,43200,1.3165872440117907,0.0
216,1.7881393432617188,1.1374283524330813,0.5441278278033697,1.9009678371910144,0.544601184889328,0.0,0.1247698359782694,0.1,0.0026984214782714844,0.05000877380371094,0.050006848,1.4747502,0.961552473285997,0.0,0.022136181959757514,0.0,200,0.024074554443359375,0.2218864385586683,0.20989109426617136,43400,1.4354397190940187,0.0
217,1.8388104438781738,0.9663683577546505,0.19111253115386917,1.1547582066492665,0.6715450591105164,0.0,0.12500488414182448,0.1,0.002630949020385742,0.05130267143249512,0.049721807,0.8923447,0.9620340617328624,0.0,0.019225960324000993,0.0,200,0.029117345809936523,0.14456083437499775,0.1472429020949094,43600,1.229460471176172,0.0
218,1.8350021839141846,0.5724578156323682,0.442416926951981,1.3257422792592086,0.21125300701144473,0.0,0.12479463277625893,0.1,0.0025975704193115234,0.04962611198425293,0.049779523,1.3371375,0.923076437122813,0.0,0.011253466814382364,0.0,200,0.028688907623291016,0.778841054788802,0.6477095159382781,43800,1.3907009614239942,0.0
219,1.786588191986084,0.9086917298321906,0.5600555817192617,1.7293722563708345,0.14929190477573542,0.0,0.12009623043719889,0.1,0.0026154518127441406,0.04995560646057129,0.04942935,1.2576671,0.9216379663937507,0.0,0.017916009633417867,0.0,200,0.0265960693359375,0.29516284520804775,0.2795605194574166,44000,1.672283177397025,0.0
220,1.8846893310546875,0.6569075304648302,0.37305133629235726,1.2163156843782024,0.2636823386245875,0.0,0.12801913929186887,0.1,0.002659320831298828,0.04930853843688965,0.04990284,1.1297405,0.8951649228008587,0.0,0.012742340415407168,0.0,200,0.03991127014160156,0.33944899072987683,0.3100892931469948,44200,1.4814586178168108,0.0
221,1.8720707893371582,0.5423795463952428,0.5986884057032618,1.5335759200742443,0.0629385275601929,0.0,0.12018908903200803,0.1,0.002692699432373047,0.05024862289428711,0.049595427,1.4974074,0.8598863851602971,0.0,0.010600774571375737,0.0,200,0.09352660179138184,0.6919673991856522,0.6310252721558655,44400,1.923297139826369,0.0
222,1.9090487957000732,1.4775009025692072,0.3122618611245854,1.8862099715244256,1.0106226785719432,0.0,0.1241173872219152,0.1,0.0027179718017578125,0.050201416015625,0.049327396,1.3056625,0.9216478369011882,0.0,0.02905622043555931,0.0,200,0.02842545509338379,0.36502850184442737,0.2949365702105964,44600,2.0814224866463764,0.0
223,1.8386156558990479,0.8417417432865708,0.47003449263645497,1.3110508292465548,0.3254899554476789,0.0,0.12797364813997492,0.1,0.002692699432373047,0.05596804618835449,0.049544863,1.1269715,0.9136572275397266,0.0,0.016321783367614886,0.0,200,0.02937936782836914,0.30169165219765304,0.2732376216745997,44800,2.047662994800431,0.0
224,1.9074041843414307,0.5689624969964568,0.42779122259654556,1.2683733357766829,0.12680531984241436,0.0,0.12699147584992976,0.1,0.002683401107788086,0.050164222717285156,0.049784437,1.9606309,0.8791877544853997,0.0,0.011297546563698468,0.0,200,0.028960466384887695,0.571778817293277,0.6218671011509023,45000,1.980362374479894,0.0
225,1.8966469764709473,1.6996719282914972,0.41016909422711545,2.1531264324071064,1.0881022385737236,0.0,0.12075104381437346,0.1,0.002673625946044922,0.05063271522521973,0.0505921,0.86215055,0.9612361718660094,0.0,0.03342295945268478,0.0,200,0.0278017520904541,0.31865021542748095,0.2723785772541042,45200,2.141417864663024,0.0
226,1.8733978271484375,1.0000423496242914,0.5783301077520034,1.7653360433088943,0.24594615593485364,0.0,0.122023761103449,0.1,0.002716541290283203,0.050843000411987305,0.049388412,1.2744634,0.9651167896418377,0.0,0.01974269317177304,0.0,200,0.016359567642211914,0.25070032093732214,0.2547399059088172,45400,1.4114220511995121,0.0
227,1.8641688823699951,0.5817499053438001,0.29429725444345733,1.0727302104404082,0.28956852640633285,0.0,0.13111761622229995,0.1,0.002703428268432617,0.051232337951660156,0.049910814,0.92236906,0.9267801012120339,0.0,0.01149317605328843,0.0,200,0.03508758544921875,0.9895329242341624,0.8960953973772722,45600,1.4392500695106556,0.0
228,1.7843973636627197,0.5472186969940775,0.3833227254905386,1.1772304781627783,0.20693704017175807,0.0,0.12139123426045989,0.1,0.0031385421752929688,0.05404162406921387,0.050159387,1.3635603,0.8888239607902383,0.0,0.010827566413499738,0.0,200,0.03485465049743652,0.9710363017729173,0.6567265351838834,45800,1.7233085253444174,0.0
229,1.8467705249786377,0.7957067664773376,0.37841312927127085,1.264029813886739,0.28003115077437574,0.0,0.12354053637187613,0.1,0.002845287322998047,0.05706334114074707,0.049686205,1.1299927,0.8795122413589482,0.0,0.015331671339267121,0.0,200,0.029084444046020508,0.23474096542373077,0.22400551928274523,46000,1.1984865443732067,0.0
230,1.718367099761963,0.7941011376909751,0.5164722800167212,1.6036364114124437,0.17609058948385078,0.0,0.11945797036000459,0.1,0.002923727035522461,0.05219459533691406,0.05086183,2.228427,0.8709711309921508,0.0,0.01572231406569293,0.0,200,0.014915227890014648,0.31537391038913865,0.32583041966605264,46200,1.5095798959786766,0.0
231,1.7442567348480225,0.44325012875417835,0.29165208899381506,0.913392271729437,0.19741523040055364,0.0,0.12970129763405383,0.1,0.0026688575744628906,0.05300474166870117,0.050217234,1.0302838,0.8281990307683536,0.0,0.008831862060960538,0.0,200,0.021187782287597656,0.4492641560370473,0.34992917738029333,46400,1.5693182755666053,0.0
232,1.8164536952972412,1.3908910499845601,0.6858275462084151,1.805361835035658,0.2036449966504704,0.0,0.12424006483360735,0.1,0.0026483535766601562,0.05092954635620117,0.049938828,0.90862936,0.8844682326899743,0.0,0.027522905740763597,0.0,200,0.12427806854248047,0.47058670408617176,0.4391872581392988,46600,1.3683116330513423,0.0
233,1.7818481922149658,0.30314079382407266,0.07395042400104095,0.36905680584105316,0.17787763382824429,0.0,0.1177109940778457,0.1,0.0026955604553222656,0.051134347915649414,0.049443364,1.2924576,0.8263354888033841,0.0,0.005992191979383127,0.0,200,0.032700300216674805,1.7040975745572589,1.9605450718816257,46800,1.4341072654055005,0.0
234,1.8557446002960205,1.4236051990772136,0.4920015931775069,2.069231840215128,0.8123668430440576,0.0,0.1238186049372648,0.1,0.002634286880493164,0.051722049713134766,0.049469337,1.5654399,0.8860624598307671,0.0,0.02800716520496201,0.0,200,0.029221534729003906,0.35030632972074155,0.30917663304886683,47000,1.7345472882672055,0.0
235,1.7955541610717773,1.5624489692543226,0.2543795511979428,1.8497198390671183,1.164749974266789,0.0,0.12282883623231494,0.1,0.002765178680419922,0.05097556114196777,0.049991712,1.2260311,0.9537011107731228,0.0,0.03077927095188113,0.0,200,0.0410768985748291,0.2818183459709753,0.199337149645439,47200,1.9063716113856632,0.0
236,1.834315538406372,1.2146435420756703,0.5318101357265489,1.7965287728166208,0.6030225354459705,0.0,0.12577787443721825,0.1,0.0027756690979003906,0.05066561698913574,0.04958958,1.3884187,0.9797953539033776,0.0,0.024022974694443495,0.0,200,0.028883934020996094,0.2293575754931787,0.1833941355120793,47400,2.265267989278262,0.0
237,1.8110167980194092,1.2569565843334634,0.8605596746591234,2.487788938019204,0.22793116882428788,0.0,0.12572393091271014,0.1,0.0026106834411621094,0.049593210220336914,0.050337303,1.2714981,1.0075114769463862,0.0,0.02476197465378663,0.0,200,0.057234764099121094,0.3709114784427344,0.3551873617110735,47600,1.842544303313509,0.0
238,1.8488671779632568,0.9226211632356218,0.5889405569413975,1.566250498521912,0.2632344879487934,0.0,0.12569403066486373,0.1,0.0026133060455322266,0.05075573921203613,0.04985194,1.0493122,0.9990224455753098,0.0,0.018238665363941545,0.0,200,0.056609392166137695,0.40868394504196864,0.4210645940754562,47800,1.5169397745918232,0.0
239,1.8635799884796143,1.163560861383253,0.38298134099864095,1.539815467644201,0.5421953333162719,0.0,0.12161901454088897,0.1,0.0025703907012939453,0.0506291389465332,0.049821876,1.2323014,1.0154762871561043,0.0,0.02285977729006504,0.0,200,0.06920504570007324,0.16178109576055183,0.14533312429095094,48000,1.8721106091110968,0.0
240,1.891770839691162,1.0836928588716124,0.8448836466596977,2.374666845400595,0.06141211981327573,0.0,0.12579011122886563,0.1,0.002813100814819336,0.06203961372375488,0.04946745,1.3861074,1.0222979443276552,0.0,0.021323865032914335,0.0,200,0.04317331314086914,0.42826548575528134,0.4069003665628751,48200,1.7938356071788244,0.0
241,1.932480812072754,1.6503619100576292,0.5391716872648119,2.1732592081620856,0.8418911617919317,0.0,0.1249729761969072,0.1,0.002730131149291992,0.051108598709106445,0.049644895,1.0225587,1.0851043409006527,0.0,0.03243079070420667,0.0,200,0.10949397087097168,0.1948364540928057,0.18982009724959406,48400,1.4712673448308893,0.0
242,1.9199893474578857,1.2467768289307342,0.5234466400874114,1.7815420582346977,0.5186336973117396,0.0,0.12332074621055834,0.1,0.002691507339477539,0.05105257034301758,0.05015784,1.5114005,1.101271589703661,0.0,0.024613482459255993,0.0,200,0.054891347885131836,0.19291354504362054,0.18934706455554665,48600,1.6201902569742757,0.0
243,1.8367788791656494,1.1422653555396285,0.3513791630167937,1.5161294124903537,0.5675968549536974,0.0,0.12262826270509976,0.1,0.003079652786254883,0.054888248443603516,0.050009236,1.0057249,1.1053709662872577,0.0,0.02251185556678184,0.0,200,0.01847553253173828,0.1299190017229957,0.13063198547522867,48800,1.7074604577999664,0.0
244,1.78855299949646,1.0372479419414458,0.2537499945548676,1.2436083060019785,0.6057652067408702,0.0,0.12777611377574094,0.1,0.0029850006103515625,0.05246901512145996,0.049700364,1.0505363,1.0985586638526765,0.0,0.020387029089906906,0.0,200,0.07723593711853027,0.14242412144256433,0.12410082035943498,49000,1.288158863739151,0.0
245,1.8133749961853027,1.1166301385410866,0.5096898072116022,1.742679142774714,0.3863578671745479,0.0,0.12312141478846814,0.1,0.0028722286224365234,0.05100202560424805,0.050012384,1.6714329,1.1003658113215176,0.0,0.02167653628829361,0.0,200,0.046239614486694336,0.22125241888726863,0.21440554875236997,49200,2.1244364472055324,0.0
246,1.7889437675476074,1.2837211091016445,0.48316100526897543,1.8019855258866095,0.49886178835504574,0.0,0.11639222315291617,0.1,0.002782583236694336,0.050624847412109375,0.049470868,1.2571508,1.1187013410995303,0.0,0.02528675552408422,0.0,200,0.06641578674316406,0.1629503242537633,0.16430500680438537,49400,1.7886389840104104,0.0
247,1.832273006439209,1.2631398601864825,0.5014236716115658,1.9241617319058166,0.7202204016498357,0.0,0.12015783649402555,0.1,0.002846956253051758,0.052596092224121094,0.05000939,1.1912009,1.1331451930082255,0.0,0.02467026134778663,0.0,200,0.07368206977844238,0.1901936158244875,0.18306119359795575,49600,2.0890038186291577,0.0
248,1.8400979042053223,1.3165699385609806,0.8630785506836629,2.46838239943041,0.1799545510977335,0.0,0.12682167298904387,0.1,0.0027430057525634766,0.0528712272644043,0.04954573,1.1626256,1.151487667563501,0.0,0.025623052653187314,0.0,200,0.052431344985961914,0.33236945503269166,0.31885260513684116,49800,1.8781454024840347,0.0
249,1.8725531101226807,1.122988753921009,0.7255254019125092,1.9373789947786408,0.33202185877128676,0.0,0.12490508444349939,0.1,0.0027260780334472656,0.054186105728149414,0.04992432,0.9773227,1.148637776199252,0.0,0.022179328917747734,0.0,200,0.019524335861206055,0.3071260096014687,0.3108462717339076,50000,1.8763725945972294,0.0
250,1.812635898590088,1.2071425733756778,0.6934222095599202,2.1134739780642215,0.38756243031196547,0.0,0.12372796628199943,0.1,0.0027017593383789062,0.05299782752990723,0.050008863,1.1648806,1.1544882559168945,0.0,0.023585274598702223,0.0,200,0.02957296371459961,0.28348599079810194,0.28110970714718136,50200,1.7689019702067235,0.0
251,1.8363368511199951,0.8846736526707819,0.5042659129118947,1.5090112375645162,0.10242465306651839,0.0,0.12401240679541507,0.1,0.0028107166290283203,0.05327916145324707,0.050073434,1.088527,1.1275067955922833,0.0,0.017284016311132643,0.0,200,0.055901527404785156,0.43824202274458024,0.35176634321879363,50400,1.6943034121519442,0.0
252,1.8889927864074707,0.8763976539724858,0.15517017089396534,1.0838715234731815,0.6598746727390298,0.0,0.12879653393726836,0.1,0.002849578857421875,0.05680680274963379,0.04982528,1.1522168,1.1023958814303034,0.0,0.017172425739864786,0.0,200,0.02983260154724121,0.1477241075118878,0.07732578208914638,50600,1.8587095637370148,0.0
253,1.8908872604370117,1.290753836809717,0.37610488221387745,1.904454892447926,0.8832569181976037,0.0,0.1169456715330903,0.1,0.0028181076049804688,0.0539703369140625,0.04932221,3.0245981,1.1212316769682447,0.0,0.025259801782288496,0.0,200,0.029984235763549805,0.14137791518186904,0.15267919465349267,50800,1.404071352006861,0.0
254,1.9124736785888672,0.5800609849944323,0.2889797800407629,0.9326074228168351,0.13138084160549196,0.0,0.11954641004699469,0.1,0.002696514129638672,0.054631710052490234,0.049924072,1.409554,1.0671146077708635,0.0,0.011283825094185185,0.0,200,0.03323650360107422,0.5864932378544366,0.4984362214027505,51000,1.2533375316996291,0.0
255,1.8596904277801514,1.0358995223691534,0.8027575852809848,2.246027084654821,0.07054783281728919,0.0,0.12075705119041816,0.1,0.002756834030151367,0.05581474304199219,0.049872927,2.3572674,1.0639930992306925,0.0,0.020436457044737743,0.0,200,0.029169559478759766,0.3644621744725911,0.36347900485526957,51200,1.6084578089256645,0.0
256,1.894171953201294,0.6151565979890719,0.45688203149246787,1.3734223262260195,0.23464191803547618,0.0,0.12773105998311104,0.1,0.002629995346069336,0.052506446838378906,0.049491826,0.937284,1.0191094491065305,0.0,0.012012564424036448,0.0,200,0.029320240020751953,0.4810315485158601,0.46503179719159815,51400,1.4980655128086953,0.0
257,1.8483238220214844,0.6403433540823423,0.5607292035682626,1.5444065867085903,0.09484853491951932,0.0,0.12777089656944488,0.1,0.0026161670684814453,0.04965782165527344,0.049591884,1.4888054,0.9812328396041117,0.0,0.012573155649645057,0.0,200,0.026073932647705078,0.5436739768826915,0.511729308722081,51600,1.3988074199778913,0.0
258,1.8866157531738281,1.258853914426922,0.6859404839486481,2.042835293264422,0.26127477423719847,0.0,0.12167802965533629,0.1,0.0026786327362060547,0.05051088333129883,0.050152253,1.1282543,1.0089949470863928,0.0,0.02457370180926015,0.0,200,0.07146215438842773,0.3371534384497017,0.32092044258511215,51800,1.4316009468048616,0.0
259,1.846015214920044,1.4557246375814092,0.3057394475318244,1.8158592061997518,1.128075018528585,0.0,0.1280581596151495,0.1,0.0026388168334960938,0.05392909049987793,0.050128683,1.1442024,1.0536679161358946,0.0,0.028383805559061125,0.0,200,0.013937234878540039,0.2698003018761179,0.19296527157340762,52000,1.9060285662968017,0.0
260,1.8864166736602783,1.1231952918205024,0.5739386112492103,1.9070026542926592,0.4946652929572142,0.0,0.12688338802010554,0.1,0.0026710033416748047,0.05157279968261719,0.05018912,1.1765349,1.0606206537043554,0.0,0.021656688907433237,0.0,200,0.05164527893066406,0.22354921970796793,0.21542012972031496,52200,1.7532025355034841,0.0
261,1.8855454921722412,1.3799585278879607,0.6749056058633215,2.081279586905377,0.6678768504330057,0.0,0.12410491658584254,0.1,0.002964496612548828,0.05354762077331543,0.04978514,1.1503869,1.092554441122716,0.0,0.027036567594014953,0.0,200,0.04407978057861328,0.24212833385341037,0.22376153754084294,52400,1.8230737035930265,0.0
262,1.9932856559753418,1.569794210944877,0.8172134846525763,2.660909655299591,0.35603926465200364,0.0,0.12047032561860757,0.1,0.002871990203857422,0.053845882415771484,0.050009254,1.6455188,1.140278418104932,0.0,0.030564715292682003,0.0,200,0.024173259735107422,0.25049871569388055,0.21807300094368173,52600,1.5803948842792217,0.0
263,1.916924238204956,0.8002614415022091,0.262812505252528,1.2235012567639267,0.5012041354601137,0.0,0.12123716668500134,0.1,0.002707242965698242,0.054174184799194336,0.04954266,1.7152205,1.1062767204446597,0.0,0.015855068077693803,0.0,200,0.013936281204223633,0.742612653274466,0.5322921529874001,52800,1.4845497961671954,0.0
264,1.9313766956329346,0.7301138674012732,0.3232716524870729,1.1918415024670042,0.2810390707317985,0.0,0.13015191509973956,0.1,0.0026636123657226562,0.05344581604003906,0.0499055,0.83093023,1.068660435140321,0.0,0.014476445698337908,0.0,200,0.04822134971618652,0.9930597007552993,0.4837866091515338,53000,1.8240739451307773,0.0
265,1.9375379085540771,1.0439805233863502,0.630152106086086,2.0139737395980397,0.3088565079159892,0.0,0.11904263747139684,0.1,0.002727508544921875,0.05494093894958496,0.050178155,1.6379504,1.066192443964924,0.0,0.02039366167325815,0.0,200,0.01978588104248047,0.2991809015648184,0.3047524124939759,53200,1.2175784763082829,0.0
266,1.931166172027588,1.183429348362269,0.5998947380465642,2.1043649729883347,0.4266715621980707,0.0,0.11661058479886863,0.1,0.0034074783325195312,0.05476236343383789,0.049168997,1.581156,1.0779161344046584,0.0,0.023375467268000015,0.0,200,0.02150130271911621,0.24635576592340802,0.2608647557447365,53400,1.6379706851228193,0.0
267,1.8972346782684326,1.3559386584298223,0.6274767949580816,2.014311693885688,0.7128748703391297,0.0,0.12408922424176465,0.1,0.0026099681854248047,0.05326128005981445,0.04982972,1.2522105,1.1057183868071747,0.0,0.026716762308966198,0.0,200,0.031760454177856445,0.2973703227025709,0.2843180330827446,53600,1.3640624056412862,0.0
268,1.836148738861084,1.5785426690701077,0.7561236602486928,2.541877769447607,0.4959270748381045,0.0,0.13099116972761674,0.1,0.00266265869140625,0.05143904685974121,0.050448686,1.0541896,1.153000815033468,0.0,0.031103575784452227,0.0,200,0.0339961051940918,0.3412051668478969,0.2885686139992351,53800,1.453704393177272,0.0
269,1.905165195465088,1.2401801216907318,0.5898537210545141,1.6860953360705402,0.23223022676696053,0.0,0.12466048601683383,0.1,0.0026483535766601562,0.05094337463378906,0.049832582,0.7314422,1.1617187456991946,0.0,0.02409881968268991,0.0,200,0.1058809757232666,0.23425027914327426,0.19899407663049015,54000,1.2783174165068434,0.0
270,1.8224666118621826,0.5925702562173235,0.5876635964554636,1.5874748515199726,0.13915812465848956,0.0,0.12722939524899657,0.1,0.002680063247680664,0.050054311752319336,0.049727645,1.2367254,1.1048038967510077,0.0,0.011508638496950592,0.0,200,0.029281139373779297,1.0555364889662588,1.0748373770529043,54200,1.8045730581943544,0.0
271,1.8958988189697266,1.4829970064260551,0.7074425984734009,2.0740766991923927,0.2823717750463523,0.0,0.1248927418159152,0.1,0.0026984214782714844,0.05111289024353027,0.04946935,0.8803267,1.1426232077185123,0.0,0.028938734984893147,0.0,200,0.028451204299926758,0.24059316497966174,0.2370485645006984,54400,1.5321996006981866,0.0
272,1.9338769912719727,0.7347950393509896,0.4763614438068877,1.4478268941905732,0.28609889210774025,0.0,0.1289349038709942,0.1,0.002695322036743164,0.05286240577697754,0.050013572,0.8829341,1.1018403908817602,0.0,0.014350160505585982,0.0,200,0.06441831588745117,0.5562136759916253,0.5175720652987562,54600,1.8261866577817265,0.0
273,1.8765785694122314,1.596940493585016,0.7422861756293604,2.0511973487833353,0.31211245729960757,0.0,0.12131711116369998,0.1,0.0027277469635009766,0.056525468826293945,0.049614783,0.9014424,1.1513504011520859,0.0,0.031239518473350103,0.0,200,0.02905726432800293,0.26677524368110395,0.2631264464895033,54800,1.8395023659912224,0.0
274,1.9130041599273682,1.1677020233425284,0.38298573937841807,1.789144842997865,0.7884983199012128,0.0,0.12381767262772066,0.1,0.0027010440826416016,0.0556943416595459,0.049771957,1.3430512,1.1529855633711303,0.0,0.02274268547482683,0.0,200,0.016791343688964844,0.12008388147576665,0.12050322113080553,55000,1.3146434295034948,0.0
275,1.8929057121276855,2.0358455282119285,0.18828153330631167,2.284573853424213,1.843826289577796,0.0,0.12384023499855797,0.1,0.0026519298553466797,0.05237603187561035,0.04979959,0.8476812,1.2412715598552102,0.0,0.03944812938229994,0.0,200,0.02883124351501465,0.20718287822514936,0.15171515822398518,55200,1.625230869893448,0.0
276,1.8680994510650635,0.781005252847379,0.44665101265865403,1.329975630004633,0.12738110812555883,0.0,0.12654982233825884,0.1,0.002608776092529297,0.05262923240661621,0.049776234,1.7396628,1.1952449291544271,0.0,0.015271750650552977,0.0,200,0.018477678298950195,0.729674955316574,0.7896768372907784,55400,1.9086058388769949,0.0
277,1.9203360080718994,1.1430679058982345,0.8571281525423261,2.2854398806714267,0.10377498221229141,0.0,0.12241961745109539,0.1,0.0028090476989746094,0.05207371711730957,0.050024863,1.1473666,1.190027226828808,0.0,0.0224092654046877,0.0,200,0.02893233299255371,0.3935454035930562,0.365712745143199,55600,1.9298327576302647,0.0
278,1.930992603302002,1.198689841672119,0.2082065905972457,1.462171919856936,0.8811298919793521,0.0,0.12407073277961338,0.1,0.0027227401733398438,0.05227994918823242,0.050317165,0.80741304,1.190893488313139,0.0,0.023200922318695007,0.0,200,0.046399593353271484,0.07166759797188176,0.05415950387407563,55800,2.04703360352448,0.0
279,1.8904194831848145,0.633463323771721,0.309632516729651,1.083347497248523,0.3371337199810735,0.0,0.12055968514667781,0.1,0.0026612281799316406,0.05163908004760742,0.05041221,1.0555124,1.1351504718589973,0.0,0.012505358102131327,0.0,200,0.02889275550842285,1.0114067849044357,0.6092035443914535,56000,1.7543513777070407,0.0
280,1.8876440525054932,1.281840901815528,1.0414231297930494,2.6086590393707048,0.16671236558149588,0.0,0.12484269808829246,0.1,0.002752542495727539,0.0505375862121582,0.050326522,1.1929499,1.1498195148546504,0.0,0.025028122735464883,0.0,200,0.029215335845947266,0.43485332981180475,0.4546607893747747,56200,1.7776436974090384,0.0
281,1.902592658996582,1.2334502664568658,0.497583020275992,1.703168466394417,0.441546000906985,0.0,0.1281227914665831,0.1,0.00263214111328125,0.05208444595336914,0.049929906,0.7156948,1.158182590014872,0.0,0.02419397621594089,0.0,200,0.03292536735534668,0.18708495640373857,0.1804799596623145,56400,1.8166205471449732,0.0
282,1.931081771850586,1.4073856287409394,0.41639844915486607,2.0243447827860446,0.8705559747601148,0.0,0.12437105029012674,0.1,0.002664804458618164,0.05161118507385254,0.049681645,1.21697,1.1831028938874788,0.0,0.027297164232904878,0.0,200,0.013952493667602539,0.1835587189224217,0.1473421339387899,56600,1.3744105812859768,0.0
283,1.8913309574127197,1.9786191293013928,0.5146340054639975,2.4210214310268903,1.1168746416325948,0.0,0.12078337078861164,0.1,0.002727031707763672,0.050702571868896484,0.05000548,0.9195006,1.2626545174288704,0.0,0.038800827075962205,0.0,200,0.027784109115600586,0.28241163221613164,0.21085941424141047,56800,2.0014257457016904,0.0
284,1.8656549453735352,0.890447708725536,0.31970570892222183,1.4058595280695918,0.548900407963597,0.0,0.11283711960987457,0.1,0.0030426979064941406,0.052288055419921875,0.04964195,1.7021033,1.225433836558537,0.0,0.017544024275244745,0.0,200,0.029340267181396484,0.32627678252631154,0.45777009832400284,57000,1.8459880105304431,0.0
285,1.8617398738861084,1.3222649481775344,0.6666986165782844,2.2372523998197846,0.35394068213784136,0.0,0.12355164151223003,0.1,0.0031332969665527344,0.05328845977783203,0.050330278,1.1814426,1.235116947720437,0.0,0.02593471812338572,0.0,200,0.024406909942626953,0.2211953321203988,0.22109545270012126,57200,1.868351684314321,0.0
286,1.8516900539398193,0.9261820835316764,0.5186139120924489,1.743403865460086,0.43090208925764684,0.0,0.12375498469015529,0.1,0.0029366016387939453,0.05472898483276367,0.049468484,1.7466099,1.204223461301561,0.0,0.01838500686000033,0.0,200,0.02997756004333496,0.401576404737689,0.3505437954461245,57400,1.9226175966411139,0.0
287,1.865105390548706,1.3069394383839756,0.6988602643815631,2.358751968898445,0.3920559894302971,0.0,0.12351243172055128,0.1,0.002814054489135742,0.053023576736450195,0.049354397,1.4252768,1.2144950590098025,0.0,0.025532201408802736,0.0,200,0.029093265533447266,0.2666541285824478,0.2650555244960283,57600,1.8485280652416147,0.0
288,1.8890531063079834,1.2504969468178189,0.23965293809034097,1.6053101156159704,0.9412549169002564,0.0,0.1228076434030465,0.1,0.0027298927307128906,0.05282235145568848,0.049460363,1.6987926,1.2180952477906042,0.0,0.024452087472122783,0.0,200,0.037070512771606445,0.07332434920218432,0.07499924121807662,57800,1.8419553960729758,0.0
289,1.9065520763397217,0.9753218945778972,0.6671430655284543,2.028165075174444,0.3533834895113375,0.0,0.12421072171613433,0.1,0.002804994583129883,0.05280709266662598,0.05001809,1.2062273,1.1938179124693333,0.0,0.019228352049152013,0.0,200,0.029074668884277344,0.34460841030403344,0.32652881107788395,58000,1.6918745197958167,0.0
290,1.9296631813049316,1.5710920001658681,0.36952608283473054,2.142975772688669,1.2151025621884657,0.0,0.12376341321166605,0.1,0.0027151107788085938,0.05176067352294922,0.050046526,1.3500295,1.2315453212389869,0.0,0.030606539118839392,0.0,200,0.09249591827392578,0.16261270587082297,0.16038020924282004,58200,1.6734963086028376,0.0
291,1.8859975337982178,0.7341155374261386,0.49786973480111474,1.3491431005826058,0.19774195669917455,0.0,0.12531991228947054,0.1,0.002658367156982422,0.04997968673706055,0.04998061,1.2094636,1.181802342857702,0.0,0.014324740468937011,0.0,200,0.02872943878173828,0.5218938082627365,0.5041333751290652,58400,1.9069885882073319,0.0
292,1.9445514678955078,1.0513550421746156,0.7590723912137448,2.191143871277271,0.3231653528640036,0.0,0.1261893615319997,0.1,0.002609729766845703,0.04976248741149902,0.04969547,1.2766665,1.1687576127893935,0.0,0.020669797124146447,0.0,200,0.0656118392944336,0.3472003376502516,0.3408613420328017,58600,2.4716872328331863,0.0
293,1.8988189697265625,1.739821517907167,0.516052668334502,2.3269688282911423,1.0814314787731225,0.0,0.12923530005506464,0.1,0.0027039051055908203,0.05023527145385742,0.049545974,1.031233,1.225864003301171,0.0,0.034041338547876394,0.0,200,0.08332371711730957,0.20690100926668303,0.18612377899922905,58800,1.677204009401146,0.0
294,1.9492623805999756,1.552334640255818,0.5467429914170042,2.083714826860141,0.668537639460708,0.0,0.1242184805370485,0.1,0.002647876739501953,0.05241274833679199,0.04980038,1.0686604,1.2585110669966357,0.0,0.030305858157483816,0.0,200,0.023570537567138672,0.20764949285786294,0.1748762754244446,59000,1.4809719379721669,0.0
295,1.9463245868682861,1.1363294752993114,0.4703306474683475,1.8293701240921563,0.5411045527581689,0.0,0.12426091016070039,0.1,0.0026428699493408203,0.05502939224243164,0.049590524,1.2346067,1.2462929078269034,0.0,0.02237969848073907,0.0,200,0.04672050476074219,0.20706916668773495,0.23382580826396562,59200,1.6703932742393401,0.0
296,1.970668077468872,1.0458990284063128,0.3068538682105702,1.482335924145423,0.6147465313682994,0.0,0.12120974268246376,0.1,0.0027670860290527344,0.05088019371032715,0.049700342,1.2205455,1.2262535198848443,0.0,0.02045258471504434,0.0,200,0.09461259841918945,0.24931249218399248,0.22441161940871004,59400,1.6128499434611359,0.0
297,1.9503674507141113,1.2691747495895846,0.5758940206719734,2.2161623257970104,0.6718059044423427,0.0,0.12124499764205113,0.1,0.002664327621459961,0.0517277717590332,0.050140366,1.7320545,1.2305456428553185,0.0,0.024843344766610598,0.0,200,0.08446025848388672,0.19214789885513522,0.1921149904136073,59600,1.517492716585221,0.0
298,1.970668077468872,1.0424953048837848,0.6352423738567122,2.0245371440615623,0.3844810361084539,0.0,0.12472109152559147,0.1,0.002578258514404297,0.054534912109375,0.049567986,1.2307049,1.211740609058165,0.0,0.020289665547099073,0.0,200,0.0948190689086914,0.2841401134181454,0.27045123971146184,59800,1.409416719620728,0.0
299,2.8119494915008545,1.7270572852414419,0.40668867873283315,2.3852136263644708,1.3506820075374262,0.0,0.12668389046995682,0.1,0.0025675296783447266,0.05286288261413574,0.04927759,1.251604,1.2632722766764928,0.0,0.03365571184032359,0.0,200,0.026032209396362305,0.1903523066096013,0.1725745130095554,60000,1.551148406296717,0.0
300,1.9043333530426025,0.8138460398058164,0.5169622075356833,1.6653712103565963,0.3337612222061646,0.0,0.12439595424202911,0.1,0.002922534942626953,0.054370880126953125,0.049903024,1.8378155,1.2183296529894252,0.0,0.01595581300198211,0.0,200,0.06859445571899414,0.5226872339145877,0.5217291704887588,60200,2.3648262842079615,0.0
301,1.850174903869629,1.1842730047151766,0.4126917117689641,1.7305128791557762,0.6708751338727172,0.0,0.12516902709482441,0.1,0.0029740333557128906,0.05473685264587402,0.050022528,1.6773274,1.2149239881620004,0.0,0.02301951251584967,0.0,200,0.030138492584228516,0.17603628361094387,0.1686135156624754,60400,1.9475632455691116,0.0
302,1.8146131038665771,1.1628653685405794,0.6776899735479173,2.2799827735748512,0.4706276697001973,0.0,0.12090938182409706,0.1,0.0029456615447998047,0.05851626396179199,0.05037673,2.112377,1.2097181261998584,0.0,0.022955528628367503,0.0,200,0.01735544204711914,0.25330817888635343,0.2502642533667844,60600,2.0863052944527074,0.0
303,1.8047494888305664,1.0836386410444494,0.6963836263205245,2.1791253489582294,0.41156614104207984,0.0,0.11913511960731206,0.1,0.0028095245361328125,0.052367210388183594,0.049958993,1.6317983,1.1971101776843174,0.0,0.020888639959683604,0.0,200,0.029051780700683594,0.2924059349790498,0.2912459289718479,60800,2.0939761839827606,0.0
304,1.8635876178741455,0.7617924651468118,0.24562120687520797,1.1168235619540998,0.5061077764535311,0.0,0.11922588614188834,0.1,0.002742290496826172,0.052968502044677734,0.04965617,1.4241406,1.1535784064305667,0.0,0.015109810208204913,0.0,200,0.029459476470947266,0.41357895262592437,0.31485729771069954,61000,1.9385874977434723,0.0
305,1.8592958450317383,0.852051510465956,0.8619752657540902,2.3093041588382044,0.11010227051041484,0.0,0.11941821699721586,0.1,0.002877473831176758,0.05722856521606445,0.049586657,2.0887856,1.1234257168341057,0.0,0.016658930133557317,0.0,200,0.08913516998291016,0.521662382646696,0.4963193763212713,61200,2.30292389578482,0.0
306,1.8586320877075195,1.3075811488650577,0.6379575735350056,2.3181298134023276,0.5495718621133242,0.0,0.11754761779642663,0.1,0.0028884410858154297,0.051935434341430664,0.04971693,1.719648,1.141841260037201,0.0,0.02524694389813989,0.0,200,0.029047250747680664,0.3157824323111237,0.31081463561841927,61400,2.4032639750253364,0.0
307,1.8407435417175293,1.6086525764901267,0.9590173330282845,2.8839027215013693,0.31607299579254244,0.0,0.12162522532400924,0.1,0.0027604103088378906,0.053406715393066406,0.04937575,1.3749816,1.1885223916824936,0.0,0.03140888393641443,0.0,200,0.029120922088623047,0.3801365961261932,0.34729688312042156,61600,2.0429395863393514,0.0
308,1.847543716430664,1.7022687802751442,0.5171780502712587,2.2169572429905444,0.9460410600207025,0.0,0.12278805487518732,0.1,0.0027494430541992188,0.0511937141418457,0.049358606,2.0387063,1.2398970305417587,0.0,0.03310265439204628,0.0,200,0.028589248657226562,0.2560907665244603,0.19783069747727614,61800,1.857166097057996,0.0
309,1.8735318183898926,1.711669570823469,0.46592939691243535,2.1373155095521588,0.9460122324027589,0.0,0.12089062856978817,0.1,0.0027875900268554688,0.05133819580078125,0.050214414,0.9622048,1.2870742845699297,0.0,0.03353564788309052,0.0,200,0.0480191707611084,0.16851033456355932,0.12131363856226245,62000,1.6754389033966846,0.0
310,1.8923101425170898,1.2193009867866196,0.5025126254450382,2.0151407722774413,0.7479011463205927,0.0,0.12133720931846616,0.1,0.0027611255645751953,0.05170273780822754,0.0497857,1.3387951,1.2802969547915988,0.0,0.023901540502360014,0.0,200,0.027326583862304688,0.24636303562394368,0.2926982589718159,62200,1.120101737260763,0.0
311,1.9234793186187744,1.6937741310008454,0.18087750299021058,1.9439746111079819,1.504099288157914,0.0,0.1206377686000299,0.1,0.0027403831481933594,0.05480074882507324,0.05083299,1.3595384,1.3216446724125235,0.0,0.032873111976775116,0.0,200,0.03997230529785156,0.05193431121870344,0.04143551096716564,62400,1.4462875611088284,0.0
312,1.9111578464508057,1.6039840740667604,0.8082674881842107,2.521253541246325,0.4067512272984273,0.0,0.12495315195353755,0.1,0.0026998519897460938,0.05309915542602539,0.0496698,1.2315097,1.3498786125779472,0.0,0.031279442316764924,0.0,200,0.013965368270874023,0.23544665745122104,0.23336639115454733,62600,1.3433477050726141,0.0
313,1.9606404304504395,1.0793821705030378,0.9451198582950183,2.519875942591609,0.12263331865584892,0.0,0.12182676318578083,0.1,0.002703428268432617,0.050543785095214844,0.049764425,1.3260493,1.3228289683704564,0.0,0.02095657108521002,0.0,200,0.030039072036743164,0.6162905413360641,0.5703981481546204,62800,1.8872083760852887,0.0
314,1.832289695739746,1.5207692242560407,0.38552725959834133,2.0689533017329147,0.9973534953489198,0.0,0.11513171022559901,0.1,0.0030908584594726562,0.05370283126831055,0.049014725,1.629533,1.3426229939590149,0.0,0.02931230813806254,0.0,200,0.030852794647216797,0.10481349677474731,0.09421251782188773,63000,2.0152244976163107,0.0
315,1.8779456615447998,1.489546241100402,0.39720734205700164,1.8939088599335856,0.9096014093429836,0.0,0.12318224861862134,0.1,0.0029735565185546875,0.053229331970214844,0.04979495,1.168015,1.3573153186731535,0.0,0.029081275285668652,0.0,200,0.029914379119873047,0.08289959035501844,0.08740902162295926,63200,2.000925555467412,0.0
316,1.8283600807189941,1.1316101811817734,0.7020703779693183,2.037993715731679,0.31443067326436225,0.0,0.12342503634789516,0.1,0.0028657913208007812,0.05409812927246094,0.050097734,0.99663275,1.3347448049240154,0.0,0.022160162330719664,0.0,200,0.029366493225097656,0.2998048825412221,0.2855382850144168,63400,1.733543211852745,0.0
317,1.9271855354309082,0.9595898676312281,0.6132238264259715,1.7173227829284325,0.2268134996499727,0.0,0.12359617306648478,0.1,0.0027937889099121094,0.05417466163635254,0.04972873,1.024629,1.2972293111947366,0.0,0.01888799158361013,0.0,200,0.03012871742248535,0.440183194981168,0.37817240527115603,63600,1.834509957756822,0.0
318,1.9250195026397705,1.252934067560359,0.5752110607340083,2.082400347520551,0.4929807623996733,0.0,0.12086719400592474,0.1,0.002878427505493164,0.05474710464477539,0.049757242,1.188573,1.2927997868312988,0.0,0.02444882485625261,0.0,200,0.04177999496459961,0.1993177195489241,0.2056715472866096,63800,2.8254517996120323,0.0
319,1.8714025020599365,1.1542154780013683,0.33525449922739076,1.5368235442370608,0.7098721442243203,0.0,0.12428386679020649,0.1,0.0028684139251708984,0.05851316452026367,0.049859762,1.1065533,1.2789413559483058,0.0,0.022520444000711775,0.0,200,0.050791263580322266,0.10543945452708,0.09863824548442093,64000,3.022967635465181,0.0
320,1.8675236701965332,0.5668662378461262,0.3631418150456674,0.9402352483494457,0.19090006094038384,0.0,0.13068594257421323,0.1,0.0027418136596679688,0.05115151405334473,0.049553104,0.8475126,1.2077338441380878,0.0,0.011061299776130962,0.0,200,0.07690310478210449,1.0027887159764337,0.8198546268236858,64200,1.3889911733989295,0.0
321,1.8376193046569824,1.7887886282393242,0.34030724016608677,2.1594134330086616,1.2364044446970115,0.0,0.12153875036055216,0.1,0.0027878284454345703,0.05318880081176758,0.050301384,0.9356849,1.2658393225482114,0.0,0.03499841110947516,0.0,200,0.06006574630737305,0.22461368143918456,0.22296271218212727,64400,1.7008212507826237,0.0
322,1.9003937244415283,0.6396686427988081,0.07136987961213036,0.7560136990191489,0.5616207825034885,0.0,0.11384449474060052,0.1,0.0027053356170654297,0.05192136764526367,0.05034957,1.2429484,1.2032222545732711,0.0,0.012606458506198685,0.0,200,0.0962061882019043,0.5936430779661813,0.5665704155326743,64600,1.8648413225476137,0.0
323,1.8671817779541016,1.529505359454028,0.6053565280802315,2.355396806078852,0.9327962795348689,0.0,0.1189476378179938,0.1,0.002744436264038086,0.05319571495056152,0.050367594,1.5023665,1.235850565061347,0.0,0.029360728488530802,0.0,200,0.027628183364868164,0.25221139841753176,0.238482763997314,64800,1.3751376104051876,0.0
324,1.9247195720672607,0.9799854636643169,0.6225427750291488,1.9995518601799485,0.43962814820512836,0.0,0.12382584689353582,0.1,0.00283050537109375,0.053388118743896484,0.049652804,1.4763864,1.210264054921644,0.0,0.019176163690835538,0.0,200,0.030388593673706055,0.3137152459214078,0.31856817313132285,65000,2.467372498760763,0.0
325,1.9398670196533203,1.2222037097713898,0.5115210882726214,1.857043818325068,0.4377248536625263,0.0,0.12284572590989618,0.1,0.0027151107788085938,0.05551481246948242,0.049892716,1.1453176,1.2114580204066185,0.0,0.023799534003255397,0.0,200,0.05378246307373047,0.18659182948954678,0.17735065143435685,65200,1.5459223192196425,0.0
326,1.9068341255187988,0.9463350682213233,0.44784024945810963,1.3784722448061881,0.273716130549623,0.0,0.12326076969905328,0.1,0.0027229785919189453,0.053380727767944336,0.05000601,0.93200976,1.184945725188089,0.0,0.018596238197299785,0.0,200,0.03507351875305176,0.2245775063875679,0.22799841994427747,65400,2.5898935906324723,0.0
327,1.8686721324920654,0.8769610453498771,0.5505161103108273,1.7823089691232956,0.293167329581836,0.0,0.11956453641883187,0.1,0.0026023387908935547,0.05066800117492676,0.049248844,2.2011836,1.154147257204268,0.0,0.01743660156482578,0.0,200,0.04573988914489746,0.35911770902494655,0.33666051323114166,65600,1.6589087058925596,0.0
328,1.8963308334350586,1.6632117992594737,0.4968043256339296,2.462868428805781,1.1093204766265434,0.0,0.12565818608034557,0.1,0.0027348995208740234,0.05211639404296875,0.04990683,1.4106096,1.2050537114097886,0.0,0.032311892870131816,0.0,200,0.029732465744018555,0.21030069383718564,0.20247910112239548,65800,1.8837599894091224,0.0
329,1.8944973945617676,0.4912425411187442,0.21191270077211016,0.687410668218375,0.1692112156609265,0.0,0.12753555017987833,0.1,0.0027043819427490234,0.05025482177734375,0.04992546,0.95632917,1.133672594380684,0.0,0.009590360765509067,0.0,200,0.018537282943725586,1.650538900522006,1.5362139325327642,66000,1.6743204148406103,0.0
330,1.9022676944732666,1.719741108209748,0.24396220789175516,1.9763061325212108,1.447696400470927,0.0,0.13492158059195958,0.1,0.002635478973388672,0.05012154579162598,0.049993172,0.9068518,1.1922794457635906,0.0,0.03372234970400437,0.0,200,0.027611255645751953,0.170458538709666,0.16115961996407238,66200,1.344032173217274,0.0
331,2.007917642593384,0.6325844802983536,0.30131479760945296,1.069086575844243,0.22209424848440454,0.0,0.1282450418665815,0.1,0.002607583999633789,0.05180978775024414,0.049948927,1.469763,1.1363099492170667,0.0,0.012193433967346425,0.0,200,0.031100749969482422,0.6861389478599647,0.6750867171263992,66400,1.8506637959183694,0.0
332,2.464667320251465,0.9431166135370579,0.7298498506542771,2.192788665999429,0.3469587765067101,0.0,0.12121795051805212,0.1,0.002639293670654297,0.06319046020507812,0.04938352,2.8355775,1.1169906156490659,0.0,0.018265234811968,0.0,200,0.025173425674438477,0.42439901324105017,0.41192698239449077,66600,1.984652794889315,0.0
333,1.8612327575683594,1.7054855679494645,0.5851190233316637,2.2853125052233603,0.741672885171275,0.0,0.117884945738462,0.1,0.003312349319458008,0.05769157409667969,0.05006971,1.0069709,1.175840110879106,0.0,0.03339788402172757,0.0,200,0.024495601654052734,0.24975660338646533,0.24022859191168197,66800,1.9872310815342333,0.0
334,1.9072661399841309,1.641932167529944,0.7256532352002678,2.6552494221822607,0.9341475790148908,0.0,0.11964504549858636,0.1,0.002960681915283203,0.05636429786682129,0.049924593,1.8803813,1.2224493165441899,0.0,0.03171429281082976,0.0,200,0.03638648986816406,0.31085772725481686,0.27130372528153535,67000,1.9476494076154767,0.0
335,1.8532958030700684,1.452487400570163,0.2708251897320095,1.9159310720297125,1.2419381997015377,0.0,0.12406091198304305,0.1,0.0028498172760009766,0.055599212646484375,0.050107185,0.9194033,1.2454531249467873,0.0,0.028310092974232877,0.0,200,0.021845579147338867,0.10993375058531338,0.0897227302299123,67200,1.8847661249767906,0.0
336,1.8690190315246582,1.1338669673059865,0.366462810176058,1.7327342661380893,0.7366285776864184,0.0,0.12050071718117854,0.1,0.0029315948486328125,0.05490875244140625,0.050184824,1.4511087,1.2342945091827073,0.0,0.022205000811866445,0.0,200,0.032042741775512695,0.14749832771693439,0.17039292293423794,67400,1.739003911057252,0.0
337,1.912926197052002,1.417032168763876,0.8271558762390889,2.6792654131448566,0.3970684541161673,0.0,0.11721862925634433,0.1,0.002809286117553711,0.05312609672546387,0.049995337,2.0832443,1.2525682751408242,0.0,0.027557909107140885,0.0,200,0.03150749206542969,0.29112002729890446,0.28847396907067935,67600,1.9373499239900875,0.0
338,1.9620048999786377,1.2523870323621376,0.7550389680748156,2.3753522777689153,0.29233307969137495,0.0,0.11571942405694804,0.1,0.002805471420288086,0.0531764030456543,0.04958626,1.7836692,1.2525501508629555,0.0,0.0245153639856083,0.0,200,0.03240513801574707,0.332540801127766,0.3256982648230227,67800,2.241399419571655,0.0
339,1.9494681358337402,1.8436154282114647,0.8288545747885376,2.8289028062402797,0.5521796964457271,0.0,0.11895112076094275,0.1,0.0027887821197509766,0.052115440368652344,0.05032912,1.4412848,1.3116566785978065,0.0,0.03597791923674077,0.0,200,0.031235933303833008,0.22869513598479888,0.2199021042138711,68000,2.458848098069327,0.0
340,1.8747093677520752,0.5880893457574502,0.4810938978047527,1.2711859891217916,0.06925401821385692,0.0,0.12017100402710211,0.1,0.0027420520782470703,0.05422091484069824,0.049688358,2.5731387,1.239299945313771,0.0,0.011576173102814325,0.0,200,0.07742738723754883,1.8943318521238215,1.5383810539252676,68200,2.5881793276287484,0.0
341,1.9112377166748047,1.311101515230555,0.6270720282687069,2.2291000044721887,0.533538959085628,0.0,0.12036683841652343,0.1,0.0026836395263671875,0.05229902267456055,0.049327753,1.2413269,1.2464801023054495,0.0,0.025519456162850312,0.0,200,0.0939033031463623,0.2222971537866565,0.22312873963523835,68400,2.0699981629530892,0.0
342,1.9096086025238037,1.2996968473834563,0.6410249090668406,1.87459961330451,0.278850582695965,0.0,0.12226558445429872,0.1,0.0027794837951660156,0.05332374572753906,0.04987357,1.0204548,1.2518017768132501,0.0,0.02547848712480666,0.0,200,0.06457257270812988,0.20715998545553704,0.21131954912751225,68600,2.6049134119984245,0.0
343,1.8751811981201172,1.035176446099289,0.38850581707479687,1.5487929861396523,0.47194312685552486,0.0,0.1314241207730974,0.1,0.0027379989624023438,0.0528411865234375,0.04992745,0.954842,1.230139243741854,0.0,0.02023986392831514,0.0,200,0.03148770332336426,0.1901120307843299,0.18142504965787534,68800,2.2913334225760416,0.0
344,1.9424514770507812,1.4078844090156981,0.9732885613260691,2.5408718707346765,0.2250420081205969,0.0,0.1250070218325193,0.1,0.002677440643310547,0.05275154113769531,0.0496412,1.1368783,1.2479137602692383,0.0,0.027521430610169515,0.0,200,0.03192853927612305,0.349744008469778,0.346008027099595,69000,2.540411486732429,0.0
345,1.939868688583374,1.113301095139837,0.6904053119008936,1.9472354838534844,0.2697674394438535,0.0,0.12244096010915494,0.1,0.0027246475219726562,0.05253934860229492,0.04990916,0.9813312,1.2344524937562982,0.0,0.02176539102322178,0.0,200,0.07005691528320312,0.32859034335809795,0.32681759693091655,69200,2.567926773107645,0.0
346,1.9956011772155762,1.597017101888614,0.8082195183408811,2.251078491238771,0.21539805283037597,0.0,0.12337889830134387,0.1,0.003137826919555664,0.052902936935424805,0.049077496,0.7010797,1.2707089545695298,0.0,0.03083205257867136,0.0,200,0.03086256980895996,0.30052880323302217,0.27320039656344725,69400,2.180203907639332,0.0
347,2.05910587310791,1.1512807795446847,0.29244820753203216,1.4611472967952588,0.6713950507761381,0.0,0.11966671802237867,0.1,0.0027174949645996094,0.05174970626831055,0.050353166,1.0932792,1.2587661370670453,0.0,0.022705687112007603,0.0,200,0.0322108268737793,0.08713782072719164,0.10089257614941474,69600,1.9297665141480385,0.0
348,1.9969258308410645,1.1461057981894083,1.0362511153426806,2.76884510523846,0.20187071590204816,0.0,0.11911930341203156,0.1,0.0030164718627929688,0.054601430892944336,0.04972381,1.9731973,1.2475001031792816,0.0,0.02240140899205059,0.0,200,0.03273415565490723,0.48725257422905444,0.4862816443071721,69800,2.16230413315234,0.0
349,1.8834068775177002,1.3681842703394451,0.9809053073276877,2.40325950272776,0.17306465608220262,0.0,0.12289014426275932,0.1,0.002835988998413086,0.052546024322509766,0.0498285,1.0956442,1.259568519895298,0.0,0.02643012948210887,0.0,200,0.031156301498413086,0.35429444967783835,0.3486733746277644,70000,2.0313148826984566,0.0
350,1.8955316543579102,1.3286051551870206,0.9632643346910399,2.578340866678336,0.08942839180508308,0.0,0.12392472246015863,0.1,0.002796649932861328,0.05298185348510742,0.050066303,1.2841481,1.2664721834244703,0.0,0.025931051774996636,0.0,200,0.015848159790039062,0.32834058043246656,0.3241917935041031,70200,2.06048221419814,0.0
351,1.8732450008392334,1.4796568900210645,0.4517445124951367,1.949934229605944,0.9685154206196896,0.0,0.11917078154938193,0.1,0.0027701854705810547,0.05546998977661133,0.049800023,1.0454513,1.2877906540841297,0.0,0.028709352570902978,0.0,200,0.05487203598022461,0.14047413439208134,0.13563841226738138,70400,2.4641938329902557,0.0
352,1.8883798122406006,0.4446424721329757,0.22388016684303338,0.7029827141453937,0.1961973736730502,0.0,0.12584912473700754,0.1,0.0028810501098632812,0.05195164680480957,0.050512224,1.068596,1.2034758358890145,0.0,0.0086984210077613,0.0,200,0.032425880432128906,2.7699297980749495,2.1525776729664994,70600,2.30757212549184,0.0
353,1.8740556240081787,1.2160366494430164,0.6572391559915769,2.334276599492542,0.7018809502812831,0.0,0.11922012862557485,0.1,0.002907991409301758,0.0527646541595459,0.0494465,1.5355464,1.2047319172444149,0.0,0.023536130179411096,0.0,200,0.10139966011047363,0.24338334749329232,0.2514239360591717,70800,1.7144254057161505,0.0
354,1.984206199645996,1.4272097895897091,0.7849883334784812,2.4133315322251954,0.24329216493222944,0.0,0.12128132541741582,0.1,0.0027573108673095703,0.05215644836425781,0.050301295,1.0882485,1.2269797044789443,0.0,0.02767400346860775,0.0,200,0.03184652328491211,0.3143536749808452,0.3101547015092222,71000,2.0069260117835053,0.0
355,1.9364962577819824,1.3754084318286584,1.2299436358197033,2.694154039956404,0.1419822523895823,0.0,0.12410850788947486,0.1,0.0026476383209228516,0.052744150161743164,0.04982399,1.2753928,1.2418225772139158,0.0,0.026885489408618225,0.0,200,0.022504329681396484,0.4400712382413875,0.42278925555075036,71200,1.8672285979611118,0.0
356,1.926826000213623,1.3992135818497715,0.7385551490293821,2.639521584212022,0.7438406167158452,0.0,0.12338193434829328,0.1,0.002740621566772461,0.05280303955078125,0.049919438,1.6355823,1.2575616776775014,0.0,0.027319945361937555,0.0,200,0.03812551498413086,0.23459831738829842,0.21794998189261428,71400,2.8008860978144434,0.0
357,1.9115169048309326,1.1725951757170308,0.34374500323812957,1.7027205649182948,0.7419688073299544,0.0,0.12145718390722988,0.1,0.002722501754760742,0.05206894874572754,0.0499856,0.8404375,1.2490650274814543,0.0,0.022854158720314863,0.0,200,0.05591273307800293,0.1551656265825292,0.16508324519733913,71600,2.247960862101901,0.0
358,1.9428279399871826,0.9376828787911404,0.16231831458463122,1.2116087381044693,0.815569432652943,0.0,0.11395671423639535,0.1,0.002680540084838867,0.05143284797668457,0.050596822,0.9833467,1.217926812612423,0.0,0.018522666201254954,0.0,200,0.019325733184814453,0.24799775902674373,0.20723134923379388,71800,1.7651729143762003,0.0
359,1.922586441040039,1.3595064548976086,0.2894116443328267,1.8096397263045119,1.0689983426839857,0.0,0.12098568130546837,0.1,0.0027894973754882812,0.0504763126373291,0.049734525,2.4508722,1.2320847768409415,0.0,0.026663746692300597,0.0,200,0.07886314392089844,0.07610824684919831,0.07362188775473437,72000,1.5424752130346342,0.0
360,1.9535183906555176,1.0542241271198658,0.4498736480176694,1.644076377598673,0.4852742554618279,0.0,0.1217251531478707,0.1,0.002595663070678711,0.04977846145629883,0.04981612,0.9310968,1.214298711868834,0.0,0.02067589451063049,0.0,200,0.030782461166381836,0.23198400615660938,0.20340560820665515,72200,2.1316601583975925,0.0
361,1.9744725227355957,1.4360292711040517,0.5194890274781897,2.068127045792079,0.826236170594942,0.0,0.1218546082275667,0.1,0.002539396286010742,0.05056595802307129,0.049995735,1.1329262,1.2364717677923558,0.0,0.027889832629911297,0.0,200,0.13782930374145508,0.17206318071423599,0.17630156235284117,72400,2.111520630753979,0.0
