iteration,time_sampling,stoc_pol_mean,stoc_pol_std,stoc_pol_max,stoc_pol_min,rollout_success,alpha,delta,time_vpg,time_npg,kl_dist,surr_improvement,running_score,rwd_sparse,rwd_dense,success_percentage,num_samples,time_VF,VF_error_before,VF_error_after,env_samples,eval_score,eval_success
0,1.1706938743591309,0.031968328226534205,0.009363866547233228,0.04709576314057666,0.023201343672481663,0.0,0.14743565349093665,0.1,0.031903743743896484,0.059319257736206055,0.055346437,0.96108276,0.031968328226534205,0.0,0.0006323442363512599,0.0,200,0.12040543556213379,1.9441788687416752,0.5190784032903815,200,0.03116983987736326,0.0
1,1.1678621768951416,0.034301553260960196,0.0029989487290827815,0.03741264156540016,0.030993030423522888,0.0,0.1470951257379239,0.1,0.0030829906463623047,0.08254456520080566,0.051471606,0.7362352,0.032201650729976806,0.0,0.000671404400619446,0.0,200,0.03721261024475098,0.3808408195232956,0.24474753164814497,400,0.033149616361230115,0.0
2,1.1802573204040527,0.028142144821123587,0.010006893206366696,0.04529755028867441,0.02028371432049105,0.0,0.14495143902899868,0.1,0.0030291080474853516,0.05693221092224121,0.053386234,0.8954173,0.031795700139091485,0.0,0.0005593308504165725,0.0,200,0.025861740112304688,0.6445093658436426,0.31606788710462186,600,0.03137989330068532,0.0
3,1.192645788192749,0.028719643425244343,0.012253310162541279,0.04207990503090347,0.012464861039621708,0.0,0.1503012256302616,0.1,0.002956867218017578,0.05770683288574219,0.05259665,0.78039914,0.03148809446770677,0.0,0.0006153332060238434,0.0,200,0.06064438819885254,0.45589262693642185,0.3140285338241019,800,0.04090246081673391,0.0
4,1.1951212882995605,0.06296831279157236,0.02174075304367807,0.08919708291305325,0.03001308095648709,0.0,0.15144510087017118,0.1,0.002991199493408203,0.05662846565246582,0.05249889,0.89954257,0.034636116300093334,0.0,0.0012539607814601244,0.0,200,0.035346269607543945,0.5056186801211708,0.2905138298797142,1000,0.04406739460851703,0.0
5,1.179414987564087,0.06955168294806437,0.008675826256499805,0.07817391435777116,0.055318167410912875,0.0,0.14180956700115915,0.1,0.0029883384704589844,0.05785322189331055,0.049827725,0.6477618,0.03812767296489044,0.0,0.001378758118130194,0.0,200,0.04504752159118652,0.2301478010841406,0.2633855138266819,1200,0.04715209953446337,0.0
6,1.2380108833312988,0.03272235090650199,0.006455263650238565,0.04283077305362226,0.025469881625657182,0.0,0.153655852529153,0.1,0.0028693675994873047,0.054976463317871094,0.051665533,0.8774014,0.0375871407590516,0.0,0.0006544095844737966,0.0,200,0.04092884063720703,2.792949019916339,0.1880192135759927,1400,0.06021831490939245,0.0
7,1.2264070510864258,0.03533245519754555,0.026143426446658184,0.07842425653739396,0.014239126458826643,0.0,0.14567568141621387,0.1,0.0031757354736328125,0.056482553482055664,0.05014488,1.508193,0.03736167220290099,0.0,0.0007065960585519662,0.0,200,0.08322930335998535,0.4637549889825396,0.8260605088056481,1600,0.08371158127016042,0.0
8,1.2564587593078613,0.24174343914819468,0.33442985323593205,0.8184536042939086,0.018584711702558265,0.0,0.14223135890505825,0.1,0.0029931068420410156,0.057112932205200195,0.05038075,1.7387264,0.05779984889743037,0.0,0.004830037514455708,0.0,200,0.05962991714477539,0.9879576226694026,0.8692037585041774,1800,0.09885970944714191,0.0
9,1.5535752773284912,0.0839785960174006,0.06663707916122058,0.18775052492116232,0.016257431543205487,0.0,0.146061168797913,0.1,0.002893686294555664,0.057768821716308594,0.05070799,1.2937634,0.06041772360942739,0.0,0.001670759097132231,0.0,200,0.10309147834777832,0.4985691376500649,0.6308361968506315,2000,0.09105429442216088,0.0
10,1.1688916683197021,0.03747095675894015,0.01801670804368281,0.06281600903001937,0.01232026879307051,0.0,0.14778794528377368,0.1,0.0031576156616210938,0.07436084747314453,0.04898869,1.1513655,0.05812304692437867,0.0,0.0007607361530445165,0.0,200,0.03253293037414551,5.839568647681534,5.810521318906506,2200,0.06446165745113025,0.0
11,1.251516342163086,0.10972251176070388,0.09613568971575549,0.27227211427224896,0.03303771466872271,0.0,0.14223635327177103,0.1,0.010624170303344727,0.05531477928161621,0.049220476,1.3350723,0.06328299340801119,0.0,0.002181973839253838,0.0,200,0.017136096954345703,0.560053066767725,0.5507459612837139,2400,0.0726997667536218,0.0
12,1.2274103164672852,0.08243629186857766,0.05808551165173207,0.16718019297232528,0.027195897282656478,0.0,0.1425034726862788,0.1,0.002983570098876953,0.05497169494628906,0.049285125,1.0478809,0.06519832325406784,0.0,0.0016575729808341363,0.0,200,0.054184675216674805,0.5353884297749648,0.46781104449447997,2600,0.09946596287131511,0.0
13,1.2473037242889404,0.12464377709402466,0.14846469596365008,0.38144618701231525,0.029300549881870138,0.0,0.13993593759102302,0.1,0.004782915115356445,0.05516409873962402,0.047792472,1.5049045,0.07114286863806352,0.0,0.002476894207010547,0.0,200,0.01842355728149414,0.6885290095306371,0.6870206540415189,2800,0.11519772285735774,0.0
14,1.2511110305786133,0.3250506702439667,0.3420517214247427,0.9158581201637686,0.08703624926522638,0.0,0.13726511340270747,0.1,0.0030851364135742188,0.055417776107788086,0.04736339,1.6373796,0.09653364879865384,0.0,0.006502073339057036,0.0,200,0.07201838493347168,0.8119603888474323,0.7431925151419264,3000,0.1421365647612982,0.0
15,1.2369377613067627,0.04999143075851215,0.009176081045481902,0.05929852125981581,0.034966036442670934,0.0,0.1375912826154329,0.1,0.003123044967651367,0.06206941604614258,0.051548008,1.796194,0.09187942699463966,0.0,0.0010168627493580286,0.0,200,0.04531121253967285,3.6053693136864076,6.512049463911154,3200,0.11226324973909685,0.0
16,1.2584457397460938,0.07758387750667808,0.03553234842585202,0.13006523754060811,0.03992275660957163,0.0,0.13128608660018118,0.1,0.0029649734497070312,0.05556678771972656,0.050426807,1.6234355,0.09044987204584351,0.0,0.001496741902861316,0.0,200,0.1318984031677246,1.4379749628868308,1.1850022703171375,3400,0.14517606707127304,0.0
17,1.248063564300537,0.08787348250859581,0.04548733393057626,0.1542498463805287,0.027732320287567332,0.0,0.14028737280601855,0.1,0.004960775375366211,0.06439971923828125,0.050520364,0.9417836,0.09019223309211874,0.0,0.0017509981124401652,0.0,200,0.019976139068603516,0.7301934028825023,0.4433543101615326,3600,0.11912000640276016,0.0
18,1.2616932392120361,0.22312521677094993,0.07431137366638622,0.29929606057385955,0.10108061128569694,0.0,0.13875677596311287,0.1,0.003080606460571289,0.056180715560913086,0.050063886,0.99153113,0.10348553146000186,0.0,0.004465086400330944,0.0,200,0.0765678882598877,0.3646011571035296,0.373971455676741,3800,0.11733611106390424,0.0
19,1.2474935054779053,0.08550095393662854,0.08834419903248747,0.23801663208076704,0.02388509513767933,0.0,0.14062203321121336,0.1,0.0029494762420654297,0.05557084083557129,0.049931016,1.5428761,0.10168707370766454,0.0,0.0017053739427836175,0.0,200,0.025541067123413086,0.7253256150150461,0.6848927736359559,4000,0.13247962755523776,0.0
20,1.2812929153442383,0.16381101299663894,0.05481522995602447,0.2185531785097014,0.07243293470735289,0.0,0.13493679061036162,0.1,0.006515979766845703,0.2231605052947998,0.05016119,0.99211156,0.10789946763656198,0.0,0.003237711982487416,0.0,200,0.0581059455871582,0.30468415026183654,0.2980227268718467,4200,0.16098402227101796,0.0
21,1.2791144847869873,0.07247432179268552,0.03901207818705164,0.1306048136968226,0.022350170198357274,0.0,0.13342537122535753,0.1,0.003192901611328125,0.05660533905029297,0.05110649,1.6211364,0.10435695305217434,0.0,0.0014551380937784808,0.0,200,0.03735065460205078,0.721899181515076,0.6685316089402158,4400,0.14932956980673529,0.0
22,1.300377368927002,0.5112349675466602,0.48687254999131474,1.2142151329258344,0.04420905922761957,0.0,0.1362700293645309,0.1,0.002913236618041992,0.06036210060119629,0.05056171,1.2720717,0.14504475450162294,0.0,0.01021257443326204,0.0,200,0.021661758422851562,0.8199471546209092,0.7713909855572237,4600,0.20578049788998942,0.0
23,1.2842469215393066,0.0902605073924886,0.04280486954185563,0.14613226829036124,0.043296082638843894,0.0,0.1359194455572825,0.1,0.0033216476440429688,0.05518794059753418,0.050169807,1.854679,0.13956632979070951,0.0,0.0017983210524931004,0.0,200,0.03268885612487793,0.7474484656951593,1.2883032409799366,4800,0.20894978488195612,0.0
24,1.29593825340271,0.24054441042380953,0.1481999814565781,0.4545322618438317,0.03744743334184901,0.0,0.13273601676999386,0.1,0.0029625892639160156,0.059732675552368164,0.0515877,1.7391963,0.1496641378540195,0.0,0.0047990813182361165,0.0,200,0.06920337677001953,0.3926278486627665,0.3735638248390518,5000,0.17609430521695799,0.0
25,1.4165492057800293,0.06969165784226994,0.02315323543042049,0.10483400385081078,0.04725396737569777,0.0,0.14656719918062094,0.1,0.0028891563415527344,0.06968569755554199,0.050061893,0.93097544,0.14166688985284454,0.0,0.0013796189773529655,0.0,200,0.04457449913024902,4.266236714485198,3.3868459774791693,5200,0.1305530150831656,0.0
26,1.2031621932983398,0.0831076134564866,0.036721245032285126,0.13694561752682247,0.03539736233314354,0.0,0.13303057085813313,0.1,0.004922151565551758,0.05864858627319336,0.049588718,1.3420095,0.13581096221320874,0.0,0.0016614965530933274,0.0,200,0.04327535629272461,1.7274861979261398,0.8273624662542542,5400,0.1544720573663483,0.0
27,1.205880880355835,0.044828815046875164,0.01911375043650733,0.07392500635413611,0.02327086359484176,0.0,0.13151476963141984,0.1,0.0047228336334228516,0.05764150619506836,0.047765885,0.6755064,0.12671274749657538,0.0,0.0008823350430711549,0.0,200,0.07271075248718262,5.276369562769301,1.7402499086579377,5600,0.20052760005779913,0.0
28,1.2424726486206055,0.0671055074718297,0.052939233105087975,0.158250777166454,0.028130691780874406,0.0,0.12634799139916678,0.1,0.003046751022338867,0.057131052017211914,0.05028433,1.8361377,0.1207520234941008,0.0,0.001342553179211221,0.0,200,0.0434412956237793,0.6581385566984607,0.5664932656411823,5800,0.2261696306946055,0.0
29,1.3124678134918213,0.1328155040470459,0.13976432873607222,0.3687747567440562,0.01626024191673019,0.0,0.13569421958469682,0.1,0.004473209381103516,0.05552339553833008,0.048590537,1.5768073,0.12195837154939532,0.0,0.0026427689327715117,0.0,200,0.0389559268951416,0.791707989009695,0.7519499521255943,6000,0.33499076485107565,0.0
30,1.263864517211914,0.12537945336592093,0.11537765415321677,0.31527651288511765,0.03053098609116916,0.0,0.14165242072973186,0.1,0.0033576488494873047,0.06147289276123047,0.049514662,1.4765658,0.12230047973104788,0.0,0.0024969322542817856,0.0,200,0.12053990364074707,0.7091756569108234,0.6105331482918557,6200,0.3082909613835392,0.0
31,1.2631096839904785,0.18484358993454297,0.13518277865422568,0.3785806751217596,0.04877797269338376,0.0,0.14224573971393,0.1,0.00519871711730957,0.06455707550048828,0.049601983,1.0185802,0.1285547907513974,0.0,0.0036695730470779624,0.0,200,0.10855340957641602,0.6140218906122898,0.536708205443115,6400,0.5284811939880465,0.0
32,1.2752346992492676,0.09076116083650365,0.03599935409994477,0.14232890497147682,0.04289647503543647,0.0,0.1334538488173153,0.1,0.021179914474487305,0.05622720718383789,0.05034644,1.135084,0.12477542775990802,0.0,0.0018204243193133303,0.0,200,0.07533907890319824,0.3512857962034515,0.4945008436752664,6600,0.43833568694262,0.0
33,1.3030235767364502,0.2195091432768928,0.11732282288480697,0.3518139652554653,0.08229341649013866,0.0,0.13858293030493388,0.1,0.002953767776489258,0.05635476112365723,0.05061727,0.9236174,0.1342487993116065,0.0,0.004358730229479673,0.0,200,0.12137699127197266,0.4748712608920673,0.43880269881271616,6800,0.523589510141567,0.0
34,1.2763662338256836,0.08135314516546964,0.036703135995372484,0.1417121391414201,0.05000484605830382,0.0,0.13750182356587745,0.1,0.006859302520751953,0.0617365837097168,0.04945826,1.133428,0.12895923389699282,0.0,0.0016201788874204294,0.0,200,0.11275553703308105,0.7082828496333164,0.821126431971881,7000,0.4009338812334522,0.0
35,1.2909646034240723,0.18006491369328742,0.1330790891155157,0.35765848547802526,0.050977289533741775,0.0,0.13517609996755633,0.1,0.0030431747436523438,0.06072735786437988,0.049505424,1.2410002,0.1340698018766223,0.0,0.0035976186913464895,0.0,200,0.04326272010803223,0.48045963241273093,0.46946679015137266,7200,0.3619564463066989,0.0
36,1.2895910739898682,0.18332045459566126,0.14620997623851167,0.42148960371670097,0.04411355216962868,0.0,0.1345679983276886,0.1,0.003234386444091797,0.05457425117492676,0.049995836,1.2928585,0.13899486714852619,0.0,0.0036574118106143215,0.0,200,0.03579449653625488,0.49679247867066995,0.48253476375795684,7400,0.5171040595564681,0.0
37,1.355226993560791,0.07495700294756563,0.04420669632766472,0.14998893872081948,0.040898399441458996,0.0,0.12364121696359123,0.1,0.005332469940185547,0.10247516632080078,0.04940236,2.0470655,0.13259108072843015,0.0,0.0015208368814875009,0.0,200,0.05809926986694336,1.753116324908334,1.643066306318782,7600,0.807705767347847,0.0
38,1.310610055923462,0.21973954047070354,0.12199191208706389,0.38956644165545035,0.07542866372435453,0.0,0.13395528308504462,0.1,0.0028679370880126953,0.05991005897521973,0.05002426,1.2741337,0.14130592670265749,0.0,0.004382121965616728,0.0,200,0.04562067985534668,0.38869495695325523,0.38206908114766264,7800,1.0214049598753656,0.0
39,1.3621537685394287,0.1087987124819797,0.07000898788008385,0.19128137475946533,0.02716634340940881,0.0,0.1328063052165591,0.1,0.013927459716796875,0.0572209358215332,0.0497805,1.063832,0.1380552052805897,0.0,0.0021772573563324767,0.0,200,0.02157902717590332,0.46362488306459537,0.42884202330001253,8000,1.412696780935642,0.0
40,1.3085157871246338,0.1825540521683141,0.11110707307966113,0.3205814863224,0.02237269510859201,0.0,0.1334871817418657,0.1,0.0030317306518554688,0.05517983436584473,0.050000027,1.418626,0.14250508996936215,0.0,0.0036522378155636097,0.0,200,0.020560503005981445,0.35396017228430926,0.3456618070979822,8200,1.9542811627751107,0.0
41,1.3330278396606445,0.29580006260052444,0.15579169892364428,0.5498814181560543,0.12956587363186223,0.0,0.14082849468767247,0.1,0.005017995834350586,0.062024593353271484,0.050767943,1.2177657,0.15783458723247837,0.0,0.005853883555808293,0.0,200,0.15754961967468262,0.5085043466167454,0.45216333694109245,8400,1.5365889286579961,0.0
42,1.347991704940796,0.3327027486366233,0.23779090019779733,0.7435211276479469,0.1736088846590942,0.0,0.12592344295471528,0.1,0.003047466278076172,0.056838274002075195,0.048864145,2.0538008,0.17532140337289287,0.0,0.006641000380814672,0.0,200,0.12494969367980957,0.5461328618176654,0.4689180389234,8600,1.61162805886641,0.0
43,1.7476232051849365,0.5153510303203781,0.4997894394335413,1.3784817174248039,0.18109155067392946,0.0,0.13214467053192275,0.1,0.0029942989349365234,0.057137489318847656,0.050304707,2.3761387,0.2093243660676414,0.0,0.010296129913579456,0.0,200,0.050922393798828125,0.7004377624946095,0.6190854742131339,8800,1.9162169778786924,0.0
44,1.2398700714111328,0.4666639960205916,0.37981137603950904,1.1177561747083784,0.16247732924156247,0.0,0.15407783428942334,0.1,0.003180980682373047,0.05766034126281738,0.04962958,1.1075045,0.23505832906293644,0.0,0.009210263087747849,0.0,200,0.02594780921936035,0.5288472428488608,0.4751942897692563,9000,1.8222192109813744,0.0
45,1.2570717334747314,0.10842718325735942,0.07216623735402647,0.23064959927618542,0.043221957713259436,0.0,0.14118556077239197,0.1,0.0030155181884765625,0.07315182685852051,0.05117299,2.1160593,0.22239521448237876,0.0,0.0021500370104338288,0.0,200,0.06646299362182617,9.274838631798128,5.941325680454686,9200,1.3858459399027734,0.0
46,1.2886202335357666,0.13577855633430486,0.06972787008765594,0.21395149677927355,0.06630598104333126,0.0,0.13163341283495444,0.1,0.0028984546661376953,0.057711124420166016,0.04983336,1.5150735,0.21373354866757135,0.0,0.002714331746789608,0.0,200,0.042621612548828125,3.5506647534847575,0.8598862869107549,9400,1.2321057605178691,0.0
47,1.290055751800537,0.30335153853563307,0.3184997997939006,0.8525512581777351,0.0793754849083186,0.0,0.13259408439233938,0.1,0.0030601024627685547,0.05529308319091797,0.050066177,2.1203592,0.22269534765437754,0.0,0.005970351001820748,0.0,200,0.02220463752746582,0.5681966573153034,0.6339833667572508,9600,1.0039069245556778,0.0
48,1.3412773609161377,0.5033769214761656,0.26320418657430855,0.815050253592158,0.1746603565098421,0.0,0.12909020169459118,0.1,0.0030677318572998047,0.055999755859375,0.049615756,1.3884104,0.25076350503655637,0.0,0.010056833663445345,0.0,200,0.022855758666992188,0.5710565637249324,0.5180872704666062,9800,0.9720296141833287,0.0
49,1.3041372299194336,0.2327217184578969,0.13841001958906451,0.45126854888175594,0.086039127017782,0.0,0.1320444684345022,0.1,0.0029582977294921875,0.058175086975097656,0.049886655,1.2504814,0.24895932637869042,0.0,0.004606535067295837,0.0,200,0.13061261177062988,0.31970886803022064,0.31921621925494514,10000,0.7664449199945871,0.0
50,1.3142130374908447,0.20664610964524863,0.11344514154877347,0.33253994374517615,0.05334821551917742,0.0,0.1265427102700566,0.1,0.003116607666015625,0.06377243995666504,0.04972049,1.5449313,0.24472800470534622,0.0,0.0040965761309297325,0.0,200,0.018548011779785156,0.29958609527503954,0.30559164579621745,10200,0.930283201891482,0.0
51,1.3444416522979736,0.17115200635036992,0.08691578201756901,0.27777742325337335,0.08304369878247633,0.0,0.1294926699802791,0.1,0.003023386001586914,0.05843758583068848,0.04984226,1.3723807,0.2373704048698486,0.0,0.003437395645939294,0.0,200,0.0878911018371582,0.5447358776563722,0.5270555320524115,10400,0.9909292216143278,0.0
52,1.3042020797729492,0.16967339138702062,0.11195577305927713,0.279643925323201,0.02626113593173425,0.0,0.12807889788786775,0.1,0.0031032562255859375,0.0725860595703125,0.049664237,2.829881,0.2306007035215658,0.0,0.0033928218276442737,0.0,200,0.026597261428833008,0.4933211230893091,0.4291870859427922,10600,0.6482720210123497,0.0
53,1.3216865062713623,0.3323111148209995,0.3156650745585945,0.8650941966225358,0.05050883618932415,0.0,0.13608096584912935,0.1,0.0029497146606445312,0.056139469146728516,0.050085716,1.9834045,0.2407717446515092,0.0,0.006644801105268063,0.0,200,0.04238581657409668,0.5594193355551732,0.5612464677249039,10800,0.3921619474978472,0.0
54,1.3700289726257324,0.493346346100099,0.23024495535124473,0.8884591451664224,0.32997009198232535,0.0,0.12163131693329328,0.1,0.0028781890869140625,0.05437064170837402,0.04929098,4.780855,0.26602920479636816,0.0,0.009803653713904611,0.0,200,0.031041860580444336,0.46049745607867976,0.4154604870288036,11000,0.6670984724005983,0.0
55,1.3460347652435303,0.2063738465685087,0.08085758112218767,0.3018871637867505,0.11741522012425841,0.0,0.1317028674131627,0.1,0.0029206275939941406,0.13143014907836914,0.049785953,0.9609133,0.26006366897358224,0.0,0.004124845407211917,0.0,200,0.03422212600708008,0.21505072884814272,0.2675017685618564,11200,1.0896644254271237,0.0
56,1.3490033149719238,0.3574508583200956,0.3012994013054131,0.8002306056901676,0.06530226893614328,0.0,0.1185012683415936,0.1,0.0049135684967041016,0.20663142204284668,0.050244045,1.7479296,0.2698023879082336,0.0,0.0069685708446189055,0.0,200,0.05430436134338379,0.4489821055123218,0.434090809479591,11400,0.3182434676811055,0.0
57,1.3633344173431396,0.5429679592093982,0.8082649984559298,1.9424129082116846,0.04742043295027648,0.0,0.14016694186263154,0.1,0.002963542938232422,0.05733442306518555,0.051002894,1.7087052,0.29711894503835007,0.0,0.010799101686813342,0.0,200,0.019119977951049805,0.7665313592685121,0.7448730992187755,11600,0.3611013464891583,0.0
58,1.3552308082580566,0.2768482738831662,0.1474012607169296,0.46738179072695507,0.06253605136481975,0.0,0.12593640801598782,0.1,0.030229806900024414,0.05594515800476074,0.05031925,1.2076519,0.2950918779228317,0.0,0.00553230663621871,0.0,200,0.0226898193359375,0.2725397531495591,0.31797156269452753,11800,1.2488120016024895,0.0
59,1.3493173122406006,0.2655435058852746,0.13924753135836168,0.4167123770833909,0.07098714574272405,0.0,0.1302817961668679,0.1,0.0030324459075927734,0.056160688400268555,0.049828757,2.820166,0.292137040719076,0.0,0.005304927312919721,0.0,200,0.05120444297790527,0.4145508392278053,0.37177661388402883,12000,0.8477933189538233,0.0
60,1.3767669200897217,0.13159617641616347,0.09059609248424512,0.2761741062218828,0.03217506264128217,0.0,0.12872769382012753,0.1,0.0029876232147216797,0.056342363357543945,0.04971867,0.9967904,0.2760829542887847,0.0,0.0026244534550796863,0.0,200,0.03074193000793457,3.2994985747746646,2.0629740222096427,12200,0.9911446506819813,0.0
61,1.3511371612548828,0.33083299179839243,0.3067972756040699,0.855916836714811,0.09827414636403692,0.0,0.12644669405532563,0.1,0.036698341369628906,0.054589271545410156,0.04956499,1.8453445,0.2815579580397455,0.0,0.006554867469159512,0.0,200,0.02154994010925293,0.510458736516693,0.5299012617896461,12400,1.2493524011188246,0.0
62,1.3822693824768066,0.2674202569879322,0.12219889108593347,0.47608754495893973,0.1646291482336492,0.0,0.12693715115813836,0.1,0.003172636032104492,0.05763602256774902,0.049304843,1.2542766,0.2801441879345642,0.0,0.005320512868504374,0.0,200,0.0814359188079834,0.24974691677687205,0.24495715844534047,12600,1.6960460413010416,0.0
63,1.4018135070800781,0.2213673284928076,0.11344258776766399,0.3425183682931568,0.08051712610292164,0.0,0.13072957869580926,0.1,0.003015279769897461,0.054393768310546875,0.05031257,1.1195563,0.27426650199038854,0.0,0.004410161145363968,0.0,200,0.026042938232421875,0.25309615110732037,0.24296666661561708,12800,1.8883961397986744,0.0
64,1.323929786682129,0.4162750107446606,0.24482222021362235,0.6721428166776973,0.15443096043724508,0.0,0.13190047833556026,0.1,0.0052585601806640625,0.05780625343322754,0.049847316,1.6133637,0.28846735286581576,0.0,0.008207695092093499,0.0,200,0.043630361557006836,0.46808267962759253,0.43853151771489146,13000,0.788392719006866,0.0
65,1.3109791278839111,0.3371061252524595,0.07951823568509038,0.4450817669601627,0.22675405389144454,0.0,0.12390159236764944,0.1,0.004575490951538086,0.05690431594848633,0.049432084,2.3000207,0.29333123010448015,0.0,0.006730547771713506,0.0,200,0.05621147155761719,0.1450026740048917,0.13394077203823415,13200,0.8417340169238273,0.0
66,1.3187992572784424,0.4347861282132648,0.2426449996881067,0.8344235218951053,0.19028078434490125,0.0,0.1305686730551055,0.1,0.0032672882080078125,0.060118913650512695,0.04944747,1.4656,0.30747671991535863,0.0,0.008641931377734793,0.0,200,0.019334793090820312,0.3650018521098115,0.3387381221147545,13400,0.9375020940942638,0.0
67,1.3292055130004883,0.2735110543804037,0.24876041361071377,0.679440309941665,0.05704899998000308,0.0,0.1247483493495145,0.1,0.00455784797668457,0.055272817611694336,0.049104635,2.6812997,0.30408015336186317,0.0,0.005412777267921676,0.0,200,0.058672428131103516,0.46638302141733495,0.47385666531713844,13600,0.8928974386739114,0.0
68,1.3445134162902832,0.5063852903751735,0.40642507772444514,1.138069918939988,0.10747368401357543,0.0,0.13620726808903041,0.1,0.002968311309814453,0.07334709167480469,0.049530867,1.679965,0.3243106670631942,0.0,0.010126304940717718,0.0,200,0.06836533546447754,0.48539905714215564,0.45889853225851085,13800,1.2943719757370296,0.0
69,1.3570783138275146,0.4610430527533143,0.3211920989850531,0.943090747594161,0.046760179723599186,0.0,0.13040204190629953,0.1,0.003245830535888672,0.05658555030822754,0.050256405,1.778136,0.33798390563220626,0.0,0.009159635945267353,0.0,200,0.04855799674987793,0.3957601383677948,0.3648788856847179,14000,1.3315846396315945,0.0
70,1.3553428649902344,0.1927070125823678,0.047178416473449974,0.2671942537850253,0.13626243076587696,0.0,0.13111949727351568,0.1,0.005119800567626953,0.07946109771728516,0.050388623,0.9039318,0.32345621632722243,0.0,0.003677849704120292,0.0,200,0.07911944389343262,1.3796338998773316,1.2933121736135405,14200,0.3490980136902875,0.0
71,1.3535783290863037,0.3769666079158231,0.34918057001562114,0.9460859037864657,0.08526827589865713,0.0,0.12299538098395986,0.1,0.0031630992889404297,0.056928396224975586,0.049750034,2.396071,0.3288072554860825,0.0,0.007484580013345355,0.0,200,0.03558921813964844,0.5233776261989829,0.5065698610446322,14400,0.7306841099391637,0.0
72,1.3767211437225342,0.9106285453162937,0.818937301966629,2.3232763758744452,0.3703737508798899,0.0,0.12277557908479307,0.1,0.005474567413330078,0.08712553977966309,0.04954623,2.685753,0.38698938446910364,0.0,0.017597305238649157,0.0,200,0.0569150447845459,0.6937080654220168,0.6352989106193228,14600,0.4075072957849502,0.0
73,1.4231960773468018,0.96358357231526,0.715567293129956,2.1005116189479995,0.24432498741652273,0.0,0.12420667381550388,0.1,0.0030944347381591797,0.059273481369018555,0.05009327,1.719501,0.4446488032537193,0.0,0.01880160245461863,0.0,200,0.09564399719238281,0.5883328055645695,0.4796981545895323,14800,0.2694336291884201,0.0
74,1.3655188083648682,0.5483650306271828,0.6511825410086008,1.6510706022610682,0.04739173686811491,0.0,0.12309029131488583,0.1,0.008503198623657227,0.060494184494018555,0.050606254,4.586343,0.4550204259910656,0.0,0.010946716395320919,0.0,200,0.04352426528930664,0.6392069544895314,0.6897500211694696,15000,0.2708493623013478,0.0
75,1.4020466804504395,0.45938905311632955,0.1351250285741666,0.6009386542209401,0.2447276663380221,0.0,0.1396889574828071,0.1,0.0031762123107910156,0.05805468559265137,0.049495123,0.9203617,0.45545728870359203,0.0,0.009141312999508152,0.0,200,0.07679057121276855,0.6866223131150725,0.47998318611784213,15200,0.09433814359944194,0.0
76,1.370551586151123,0.3899301434620533,0.32729062072919396,0.954579767215838,0.15432408467212125,0.0,0.1304136479919809,0.1,0.005393028259277344,0.09029722213745117,0.050355542,1.5045851,0.4489045741794382,0.0,0.007759258003584331,0.0,200,0.04095029830932617,0.9095832440671751,0.6079029660370914,15400,0.12481040292063617,0.0
77,1.401221513748169,0.6860488741557966,0.5749567832660506,1.5515274828497558,0.033091603411802784,0.0,0.1333000872633539,0.1,0.003002166748046875,0.055356502532958984,0.04962861,1.3258876,0.4726190041770741,0.0,0.013641248239978266,0.0,200,0.07490897178649902,0.4916115142389819,0.5176573208739503,15600,0.11078454253022668,0.0
78,1.3964412212371826,0.4036985829805849,0.38057996244840536,1.0617731499787517,0.15472360443665628,0.0,0.121500544407755,0.1,0.005015134811401367,0.12044286727905273,0.050458837,3.11605,0.4657269620574252,0.0,0.008056655017841145,0.0,200,0.0687558650970459,0.579260894953197,0.5448443408505289,15800,0.06993205351378873,0.0
79,1.4011950492858887,0.5485732417776391,0.5632932059667095,1.472687436564964,0.05958626948384364,0.0,0.13055815565876155,0.1,0.004505157470703125,0.05763888359069824,0.049688768,1.6655667,0.4740115900294466,0.0,0.010961835390801887,0.0,200,0.07172107696533203,0.5800618310914197,0.5826179858829806,16000,0.06792490273767228,0.0
80,1.4108800888061523,0.5683588761616868,0.21663626796726476,0.8104565714875598,0.2840150972562851,0.0,0.13015769231290086,0.1,0.005347013473510742,0.059883832931518555,0.04980329,1.3015189,0.4834463186426706,0.0,0.011272569104836684,0.0,200,0.15790009498596191,0.23458198776647782,0.22618174246522563,16200,0.07232057328794704,0.0
81,1.368833065032959,0.8088529901354938,0.5447044683914661,1.6183490566680425,0.28911812519361224,0.0,0.12298306363801774,0.1,0.003284931182861328,0.05754709243774414,0.050250616,2.6236956,0.5159869857919529,0.0,0.016028309034805954,0.0,200,0.021997690200805664,0.48519057793499293,0.4453991422653786,16400,0.08999596903561881,0.0
82,1.3460822105407715,0.547559750003482,0.40742237949827553,1.1796808392272915,0.05767862843489491,0.0,0.12492723323272586,0.1,0.005125522613525391,0.056868553161621094,0.050268617,2.3913682,0.5191442622131058,0.0,0.010957332836934902,0.0,200,0.06078505516052246,0.4053184937387231,0.4003146588581038,16600,0.10572519786585623,0.0
83,1.3542726039886475,0.5346367934627284,0.2092422344251291,0.8039233243767004,0.26716244757966684,0.0,0.12468400684123272,0.1,0.0047910213470458984,0.058259010314941406,0.05016254,1.3488531,0.5206935153380681,0.0,0.010667435000789373,0.0,200,0.048766374588012695,0.18834846638308442,0.2021775841848169,16800,0.17921607515204108,0.0
84,1.331810474395752,0.2708578681212765,0.1281046182993719,0.45532019051017075,0.14467673464769845,0.0,0.12920478382653147,0.1,0.003588438034057617,0.059178829193115234,0.049438134,1.0609436,0.4957099506163889,0.0,0.005398208594993294,0.0,200,0.06234312057495117,1.3639715455474664,1.087196801541189,17000,0.1934936647771276,0.0
85,1.3430912494659424,0.3626452941794231,0.278187010299302,0.7730522182206203,0.06491523750744826,0.0,0.13385628920452003,0.1,0.00310516357421875,0.05551409721374512,0.049953397,0.91990685,0.48240348497269236,0.0,0.007223369455133201,0.0,200,0.06194257736206055,0.6363508857974954,0.5341673750031307,17200,0.13678060252543436,0.0
86,1.3801820278167725,0.6207901192340991,0.4493648571611185,1.0946467404299116,0.10708967353191627,0.0,0.13324769542376527,0.1,0.0033359527587890625,0.07197046279907227,0.050847817,0.92961997,0.49624214839883307,0.0,0.012207133115504101,0.0,200,0.04305744171142578,0.3901142722075518,0.404756232061764,17400,0.5262185581300528,0.0
87,1.3595504760742188,0.543407493461765,0.47256368017618544,1.3572580081932288,0.22208935859877135,0.0,0.12204487568308789,0.1,0.003353595733642578,0.05685234069824219,0.049930934,3.1051538,0.5009586829051262,0.0,0.010830511050476445,0.0,200,0.03200221061706543,0.4643816550299851,0.46413193850487106,17600,0.657532231791189,0.0
88,1.3650822639465332,0.29936106536697743,0.10710927325336732,0.4039611766913138,0.13751233188822917,0.0,0.11784612518810271,0.1,0.0030488967895507812,0.0626227855682373,0.04972765,2.9125276,0.4807989211513114,0.0,0.005921938002284804,0.0,200,0.02459859848022461,0.3499521650316767,0.3079586537252362,17800,0.5118220779986169,0.0
89,1.4054579734802246,0.6587959776070135,0.43287389013353095,1.312776143762392,0.1183814136446729,0.0,0.12919394476128013,0.1,0.0031769275665283203,0.06749629974365234,0.050386585,1.7427977,0.4985986267968816,0.0,0.013083216238450079,0.0,200,0.0357213020324707,0.41838313285170536,0.41212147950535183,18000,0.7664557332687426,0.0
90,1.3836371898651123,0.536027053575946,0.2931756262862131,0.9765226376680024,0.16765151159527383,0.0,0.1236862514972677,0.1,0.0031511783599853516,0.06253457069396973,0.04990797,2.1755152,0.5023414694747881,0.0,0.010701046146413842,0.0,200,0.038402557373046875,0.29735138853178855,0.2897253221965838,18200,1.3624004831920933,0.0
91,1.398629903793335,0.1964106167927643,0.052963209343278896,0.2831513777229363,0.14652127675983312,0.0,0.1328132307277253,0.1,0.09256792068481445,0.09535741806030273,0.050706137,0.84903145,0.4717483842065857,0.0,0.003873740716459088,0.0,200,0.05432868003845215,1.769201014848597,1.5537422422257214,18400,1.0835338591265413,0.0
92,1.3828606605529785,0.3622807992243252,0.23565278449099444,0.6024592086560916,0.04691653146380229,0.0,0.1312351814698697,0.1,0.003228425979614258,0.05948209762573242,0.04963757,0.80973524,0.4608016257083597,0.0,0.007150800891826183,0.0,200,0.02812981605529785,0.3508178705686217,0.33424072106046054,18600,0.8848287766266947,0.0
93,1.4403467178344727,0.8740806431809706,0.7907408787313774,2.0385314986374317,0.10529399951752201,0.0,0.1282745004958105,0.1,0.003116607666015625,0.05534076690673828,0.05026558,1.5521256,0.5021295274556208,0.0,0.017021780562415004,0.0,200,0.1122748851776123,0.6072150365642912,0.5866618187593662,18800,0.4876502021923567,0.0
94,1.4160916805267334,0.6949200367827923,0.29028238577771776,1.0247737622833315,0.3562943337962884,0.0,0.12708204987333624,0.1,0.017444849014282227,0.05636143684387207,0.049825907,1.3180547,0.521408578388338,0.0,0.013702626240440718,0.0,200,0.1618351936340332,0.32461887976012005,0.2628343652889514,19000,0.5538901671647787,0.0
95,1.40214204788208,0.7768190019519403,0.6171112608237939,1.5767731201549857,0.12467538997007667,0.0,0.12472735956672572,0.1,0.0030736923217773438,0.058637380599975586,0.049909666,1.4903592,0.5469496207446982,0.0,0.015350788573050224,0.0,200,0.051157474517822266,0.4729284394179884,0.43713403561942227,19200,0.7240770619996671,0.0
96,1.428222894668579,0.705180767866285,0.43308548088812365,1.444326208544205,0.37697437277262785,0.0,0.1214121629445511,0.1,0.0028772354125976562,0.05793452262878418,0.04895298,2.916752,0.5627727354568569,0.0,0.01411855210739674,0.0,200,0.024628639221191406,0.32140236514500414,0.31681369403139625,19400,0.4380930275211153,0.0
97,1.430211067199707,1.0361409850067669,0.47745651603162126,1.4122481758418475,0.24190163327097688,0.0,0.12196725674918801,0.1,0.002974987030029297,0.0655202865600586,0.04996957,1.0358932,0.6101095604118479,0.0,0.020560569345083355,0.0,200,0.026539087295532227,0.30136756803321385,0.25066100926664997,19600,0.9746962634893958,0.0
98,1.4296762943267822,0.8117058924093157,0.7285528450683928,2.0067503557919,0.20888102686663595,0.0,0.1254944037592707,0.1,0.0029129981994628906,0.05585980415344238,0.049751803,2.0811398,0.6302691936115947,0.0,0.01618458617258617,0.0,200,0.15546846389770508,0.4930361317027139,0.49697186116693187,19800,0.8603232679316717,0.0
99,1.3416216373443604,0.4981773295309634,0.09824149963973788,0.6497630082927931,0.39877287876237516,0.0,0.13847745453542795,0.1,0.003122091293334961,0.05703449249267578,0.050256323,0.9980904,0.6170600072035316,0.0,0.009897655859528611,0.0,200,0.04804396629333496,1.0027694344532245,0.5033715523831661,20000,1.273863445273498,0.0
100,1.4000914096832275,0.3887281050249227,0.13215398773520148,0.5881397938038563,0.2478188936651605,0.0,0.13385141759663716,0.1,0.010014533996582031,0.06470251083374023,0.05000957,0.9742633,0.5942268169856707,0.0,0.007763339091393525,0.0,200,0.12710142135620117,1.1287743126356535,0.47642586446839613,20200,1.3741115591088058,0.0
101,1.406517744064331,0.3040974368753234,0.12525829950471548,0.4698429547946964,0.1260860122554575,0.0,0.12581821384973663,0.1,0.003044605255126953,0.05760049819946289,0.049655274,0.9736666,0.565213878974636,0.0,0.006002341320280193,0.0,200,0.02602219581604004,1.1686453413166336,0.4787587313823125,20400,1.277152502501835,0.0
102,1.3867413997650146,0.40561355898481993,0.2992813452516471,0.9097192553851856,0.13068393425007033,0.0,0.1326488137809951,0.1,0.005568981170654297,0.05804777145385742,0.050151967,1.1226343,0.5492538469756544,0.0,0.008092199439598206,0.0,200,0.027041196823120117,0.43835419265668274,0.42564764489322804,20600,1.0101872496216984,0.0
103,1.369429588317871,0.6354858905757683,0.4708007692775322,1.2703156853784543,0.17608963034027517,0.0,0.12742458351510866,0.1,0.005076408386230469,0.062479257583618164,0.049620103,1.524559,0.5578770513356658,0.0,0.012530219337613594,0.0,200,0.026294946670532227,0.5780730324422244,0.557539610648002,20800,1.3502049132435217,0.0
104,1.3979616165161133,0.8068168419142118,0.8057281476899075,2.201946967420276,0.3141837543922939,0.0,0.1314907130486578,0.1,0.0030858516693115234,0.057489871978759766,0.049675323,2.0666,0.5827710303935204,0.0,0.016008203537099093,0.0,200,0.07167744636535645,0.700811534881693,0.6684181394851684,21000,1.8122513801921478,0.0
105,1.3822078704833984,0.4551716195842088,0.2835038543462915,0.8123351167498137,0.05461050704848117,0.0,0.12914684092931442,0.1,0.005448818206787109,0.07207322120666504,0.050081607,2.0276613,0.5700110893125893,0.0,0.009014190549810116,0.0,200,0.05403590202331543,0.34154399507476807,0.32761596746259725,21200,1.7855171450732845,0.0
106,1.40928316116333,0.6753240430955592,0.3020592983369142,1.0368728592618763,0.3397004619200824,0.0,0.13416352847337687,0.1,0.0050923824310302734,0.0666658878326416,0.05012774,1.0934539,0.5805423846908863,0.0,0.01347424037268314,0.0,200,0.052514076232910156,0.33436920646043344,0.29594860104412374,21400,1.9949014690107694,0.0
107,1.4503991603851318,0.9432110024703352,0.4767439422720627,1.7044225175875305,0.4163856825646769,0.0,0.12596026314148673,0.1,0.0037665367126464844,0.1562960147857666,0.04936121,2.1793656,0.6168092464688312,0.0,0.018690892251326238,0.0,200,0.10943984985351562,0.4535864596731019,0.39004443836389036,21600,2.324124116875121,0.0
108,1.3978848457336426,0.8155202989240444,0.44778511743523636,1.4493676396863393,0.2894181724260768,0.0,0.13544962880324432,0.1,0.003014802932739258,0.05691719055175781,0.04975007,1.0730835,0.6366803517143524,0.0,0.016215518247763933,0.0,200,0.018940448760986328,0.36448252071957604,0.3152055147819089,21800,1.8108292783991224,0.0
109,1.4151322841644287,0.3064821386935505,0.15993934757087658,0.5761175537458544,0.15922520795779968,0.0,0.12429820454888486,0.1,0.0052454471588134766,0.06242728233337402,0.049847007,1.4260201,0.6036605304122722,0.0,0.006071520739222598,0.0,200,0.02816319465637207,1.305767312714018,1.3407042228410242,22000,1.6491122850761926,0.0
110,1.4235501289367676,0.6837817842350777,0.385867331877138,1.270582247985267,0.24520372701638074,0.0,0.12591730701566226,0.1,0.004969358444213867,0.07236385345458984,0.048880205,1.6085552,0.6116726557945528,0.0,0.013577576851214638,0.0,200,0.03621244430541992,0.27930962597249054,0.27145276661554085,22200,1.6532434725752536,0.0
111,1.4348254203796387,0.5062262928769079,0.07548177714558463,0.6146705951532963,0.4204999029342509,0.0,0.12561738124142421,0.1,0.0030364990234375,0.0645594596862793,0.049912952,2.098655,0.6011280195027883,0.0,0.0099072044133857,0.0,200,0.04074907302856445,0.13952065657094512,0.10605966921823334,22400,1.6153834444206445,0.0
112,1.42421293258667,0.5997627553412405,0.38816625448640024,1.2283529561612019,0.2673930826190819,0.0,0.12202720073703949,0.1,0.005488395690917969,0.06225395202636719,0.049814597,2.1353848,0.6009914930866336,0.0,0.01170798177581556,0.0,200,0.05146050453186035,0.3001930230221123,0.2974613521137496,22600,1.2782013053409875,0.0
113,1.4195995330810547,0.36477153166809995,0.28541237110812445,0.8095745960126797,0.09132355306164719,0.0,0.12798367812244907,0.1,0.004652738571166992,0.05867266654968262,0.05011202,1.2551104,0.5773694969447802,0.0,0.007282477971741164,0.0,200,0.10443353652954102,0.6991666011477145,0.5903087678461092,22800,1.087707098466505,0.0
114,1.4876463413238525,0.8364977670635529,0.5159098100570368,1.6653961485364628,0.3967674370507996,0.0,0.12999652433267953,0.1,0.003551006317138672,0.0567936897277832,0.0494421,1.2912691,0.6032823239566576,0.0,0.016611076816885346,0.0,200,0.03801107406616211,0.43149898356358773,0.4311418017680174,23000,0.6732429254746802,0.0
115,1.4824411869049072,0.6941213991156547,0.5205722082549843,1.4933504056762261,0.09663245012136912,0.0,0.12376278948726749,0.1,0.0029916763305664062,0.05425572395324707,0.04948194,2.4859972,0.6123662314725573,0.0,0.013675150094252731,0.0,200,0.03923654556274414,0.4408694412032557,0.4253363111411362,23200,0.33033367282273884,0.0
116,1.4707121849060059,0.8848602122306883,0.5744426568126221,1.6483978898592409,0.2693070428734011,0.0,0.12362655574041831,0.1,0.004334449768066406,0.07609891891479492,0.05026589,1.574712,0.6396156295483704,0.0,0.017540751103388527,0.0,200,0.036902427673339844,0.43670752851398975,0.4013391108086312,23400,0.5917753937142056,0.0
117,1.4633793830871582,0.22480103126960266,0.1448790030194083,0.45104542242676704,0.08029291831147115,0.0,0.1245285020406947,0.1,0.005615711212158203,0.07085776329040527,0.050022956,1.2501767,0.5981341697204936,0.0,0.004406471387924451,0.0,200,0.09023642539978027,2.6703961711490978,2.6605102133013907,23600,0.36916562242091616,0.0
118,1.4703309535980225,0.7235073405906209,0.37578010317385463,1.0413359175305723,0.08335733827092506,0.0,0.13149457249005506,0.1,0.0032041072845458984,0.07149505615234375,0.049665894,0.81417,0.6106714868075064,0.0,0.01424308937496153,0.0,200,0.04300427436828613,0.2655003453871772,0.2693899124158822,23800,0.3348926913673293,0.0
119,1.3849141597747803,0.8100884118124202,0.32694497639991144,1.2757532488432446,0.45381605432389194,0.0,0.1301292552457793,0.1,0.01884007453918457,0.07406377792358398,0.050015155,1.3412617,0.6306131793079979,0.0,0.01593474693375546,0.0,200,0.0439603328704834,0.23547087884999365,0.2255473753800938,24000,0.41124183887129245,0.0
120,1.5049638748168945,0.5136212881700964,0.23259939710817965,0.7594463959505232,0.14291319290812957,0.0,0.12772346871586707,0.1,0.005461931228637695,0.24771904945373535,0.049301405,0.9431088,0.6189139901942078,0.0,0.01017979620592307,0.0,200,0.09074115753173828,0.22014063182601373,0.22365332988336897,24200,0.29599719712652806,0.0
121,1.4086778163909912,0.7346958118919563,0.40317771680514586,1.2305149966156275,0.18065896909325452,0.0,0.12213435610078224,0.1,0.005972623825073242,0.06534147262573242,0.049565386,1.3130156,0.6304921723639827,0.0,0.014423161263526725,0.0,200,0.04508090019226074,0.2924907256536486,0.2824485622535405,24400,0.5944200400404177,0.0
122,1.4467496871948242,0.7473922701322665,0.5385541229155855,1.4924415090004612,0.13032689527062438,0.0,0.12562841306633662,0.1,0.003098726272583008,0.059337615966796875,0.049055252,2.1891024,0.6421821821408111,0.0,0.014797424987342819,0.0,200,0.06784677505493164,0.3959082284196153,0.3855429745448117,24600,0.40567618395244415,0.0
123,1.4646735191345215,0.5420291631626907,0.3550803178161672,0.8995427767293799,0.11076778911490993,0.0,0.12472695246229691,0.1,0.009553909301757812,0.05528974533081055,0.050031412,1.0586339,0.632166880242999,0.0,0.010793288382357435,0.0,200,0.01907658576965332,0.4024645801125964,0.4044881589854896,24800,0.40188548911642114,0.0
124,1.4340989589691162,0.5953905874131873,0.40444904175373636,1.2525416279900083,0.22742436440659503,0.0,0.11548083250499543,0.1,0.00341033935546875,0.06554150581359863,0.050228562,3.2712526,0.6284892509600178,0.0,0.011725658034146373,0.0,200,0.04834437370300293,0.33298952779772806,0.3191100778872234,25000,0.15834586966363176,0.0
125,1.4411966800689697,0.7853573357611193,0.5201268568873868,1.5783667407477806,0.1622279589359715,0.0,0.12676430207791145,0.1,0.004930257797241211,0.05648016929626465,0.049873605,1.1543741,0.644176059440128,0.0,0.015429622218156547,0.0,200,0.05603170394897461,0.34099221461321083,0.3391162382833541,25200,0.2734148885218481,0.0
126,1.4804439544677734,0.4576721405815896,0.3112447603779098,0.9912001119294367,0.20721032058208907,0.0,0.12053941962966716,0.1,0.004501819610595703,0.055440664291381836,0.049763393,1.9894925,0.6255256675542742,0.0,0.00909178124679472,0.0,200,0.01647806167602539,0.5382187510672891,0.4934165078975178,25400,1.1100928238709589,0.0
127,1.4506475925445557,1.2661083232223531,0.662999811650622,1.9722730874150634,0.21367184352221993,0.0,0.12398328826473132,0.1,0.003146648406982422,0.06746912002563477,0.04967334,1.1554569,0.6895839331210821,0.0,0.024680143289786315,0.0,200,0.0393376350402832,0.4781044390244754,0.4416037133703906,25600,0.9583970146866995,0.0
128,1.4407832622528076,0.7275494983215072,0.2650113095675007,1.108984279742443,0.39589430026334116,0.0,0.13100782264092886,0.1,0.0548253059387207,0.06906676292419434,0.0498522,1.8336552,0.6933804896411246,0.0,0.014489497294365203,0.0,200,0.05978584289550781,0.14269697002741039,0.15000820592069125,25800,0.2194821409694032,0.0
129,1.4381563663482666,0.7336597987467799,0.5574608856789061,1.6378030242942503,0.11283169134485758,0.0,0.12624046251696927,0.1,0.005406618118286133,0.07065463066101074,0.05015321,1.8795836,0.6974084205516902,0.0,0.014523424314639526,0.0,200,0.07874608039855957,0.40716948025866184,0.4151212875789998,26000,0.4840831238530841,0.0
130,1.486330270767212,0.9515833995665499,0.3676784091425557,1.536425931663293,0.5331641131040257,0.0,0.12152867983020557,0.1,0.0030765533447265625,0.07136344909667969,0.0502686,2.346768,0.7228259184531762,0.0,0.018834314223126702,0.0,200,0.044527292251586914,0.18443582415431292,0.17680126843610075,26200,0.6097698591980892,0.0
131,1.468083381652832,1.037035401909288,0.5489264454186767,1.6396719493856557,0.3645987863485323,0.0,0.13058662536067017,0.1,0.005132436752319336,0.05866742134094238,0.049781747,1.5723891,0.7542468667987874,0.0,0.02037976080959193,0.0,200,0.022640466690063477,0.2757923662017333,0.2583877167162782,26400,0.5621934163022938,0.0
132,1.4655060768127441,0.739860461547742,0.7240443604506807,1.9903196238941985,0.27389323776058644,0.0,0.11990370094291379,0.1,0.002907991409301758,0.055277347564697266,0.04983789,1.8429586,0.7528082262736829,0.0,0.01432789851487933,0.0,200,0.038320064544677734,0.5420218155082618,0.5476254361552049,26600,1.482223832150208,0.0
133,1.4757318496704102,0.959589452850361,0.724180801132289,1.7207827706224756,0.21844650180780417,0.0,0.12362624040570415,0.1,0.0031044483184814453,0.061441898345947266,0.04951576,1.3896425,0.7734863489313508,0.0,0.019195175821529853,0.0,200,0.038079261779785156,0.3955600777681034,0.39025935538463086,26800,1.1929913304868414,0.0
134,1.4866766929626465,0.5885774866657548,0.4976690363611993,1.4064881636571127,0.09836303303389288,0.0,0.12475118211572601,0.1,0.003000497817993164,0.05598616600036621,0.050228357,1.3569663,0.7549954627047912,0.0,0.011432126405013246,0.0,200,0.05570197105407715,0.6155449428370094,0.5509968747184253,27000,0.4374780114989459,0.0
135,1.4196655750274658,0.6276445741093204,0.20916031267153648,0.9170946031329061,0.32755938488646735,0.0,0.12512987856520236,0.1,0.003358602523803711,0.05777096748352051,0.049670447,1.1022023,0.7422603738452442,0.0,0.01214651630312714,0.0,200,0.022839069366455078,0.26096167274346815,0.16176796101468063,27200,0.7817145269027469,0.0
136,1.414048194885254,0.6866740615355423,0.26685282989206355,1.049506480532727,0.3074125987538533,0.0,0.12680554489118734,0.1,0.0032072067260742188,0.06846880912780762,0.049624994,1.0072426,0.7367017426142741,0.0,0.013595023571283574,0.0,200,0.022778987884521484,0.1576389870714948,0.15859694314303835,27400,0.4106165054108353,0.0
137,1.4244389533996582,0.561381648430719,0.5224490825583932,1.4483160505765733,0.17361709041114096,0.0,0.12270735391744195,0.1,0.002960681915283203,0.05544400215148926,0.04934655,1.7847179,0.7191697331959186,0.0,0.010986251397481892,0.0,200,0.05281233787536621,0.48060275740961556,0.46636267064851394,27600,0.4021520869971899,0.0
138,1.5263524055480957,0.7402166267218908,0.4603771919188057,1.36802505739594,0.21935720442317946,0.0,0.12232435054559115,0.1,0.0031838417053222656,0.057520151138305664,0.049753036,1.1914389,0.7212744225485159,0.0,0.014705831278514948,0.0,200,0.06821584701538086,0.3244495694727568,0.325627153226131,27800,0.10623179044436604,0.0
139,1.4937293529510498,0.8211010171507866,0.5084052240261312,1.5981895571554874,0.2605790936958441,0.0,0.1241406384022336,0.1,0.0029489994049072266,0.05965447425842285,0.049955744,1.7008247,0.7312570820087431,0.0,0.016172558474057068,0.0,200,0.03109431266784668,0.37837675141324545,0.3504677824527835,28000,0.336181893462932,0.0
140,1.4455161094665527,0.9644767848076108,0.44734929658585354,1.4939294834181958,0.3101473206915655,0.0,0.1174470372108357,0.1,0.0029189586639404297,0.05510902404785156,0.04955815,1.274375,0.7545790522886299,0.0,0.01924023342370394,0.0,200,0.02812361717224121,0.32551223600122725,0.28920285637406185,28200,0.8026476715167407,0.0
141,1.4544131755828857,0.4892062716052818,0.44644513759240545,1.208819351327091,0.07140207071249208,0.0,0.12210963527643429,0.1,0.0051081180572509766,0.07280373573303223,0.049117237,2.0081496,0.728041774220295,0.0,0.009606373273458,0.0,200,0.04589033126831055,0.6400932482011712,0.6423525172150661,28400,1.2399328152852116,0.0
142,1.4930660724639893,0.19029793861530817,0.11587582458633977,0.3427787642718544,0.07159707046487153,0.0,0.12392095199299254,0.1,0.0063495635986328125,0.07603263854980469,0.04966538,1.1136808,0.6742673906597964,0.0,0.0037228641854398356,0.0,200,0.02077031135559082,5.7678843787956735,4.106660184047557,28600,1.346351743374485,0.0
143,1.479180097579956,0.5183324913933918,0.133256923986355,0.6932837191408953,0.3187766211512014,0.0,0.12744212842753924,0.1,0.002954721450805664,0.05501604080200195,0.049703326,1.3351617,0.6586739007331559,0.0,0.010277293065317045,0.0,200,0.0626680850982666,0.17361408120583835,0.11581132338773358,28800,1.6718017480107488,0.0
144,1.5143656730651855,0.6716193416236285,0.37348333380622317,1.198272490932974,0.2657418869224542,0.0,0.1275686898566282,0.1,0.003033876419067383,0.05919837951660156,0.050496742,1.4050583,0.6599684448222032,0.0,0.013351596655129215,0.0,200,0.03521919250488281,0.28827637536830275,0.3052989083874055,29000,2.0604739617760175,0.0
145,1.5208356380462646,0.7558308884716263,0.36751255840988195,1.3416292426737937,0.3285052355479433,0.0,0.1266049670411491,0.1,0.005263328552246094,0.06070089340209961,0.04929413,2.080084,0.6695546891871456,0.0,0.014976173141654836,0.0,200,0.03636741638183594,0.30445996074913523,0.3038019967359985,29200,1.8179891514511894,0.0
146,1.4934556484222412,0.7937449395449069,0.4291651197453773,1.2269901073683074,0.14916520518954857,0.0,0.11969174225138748,0.1,0.007131338119506836,0.0643472671508789,0.05023999,1.4002502,0.6819737142229217,0.0,0.01568862719810867,0.0,200,0.04142141342163086,0.3591764118917822,0.34210298055332555,29400,2.188682971348577,0.0
147,1.5292246341705322,0.5899400091266793,0.7079281292594174,1.8075727765521676,0.07539021522186151,0.0,0.12859260514260537,0.1,0.002886533737182617,0.06262326240539551,0.049849916,2.1438327,0.6727703437132975,0.0,0.011758403733366988,0.0,200,0.042990684509277344,0.6163396296517838,0.6129256122407797,29600,1.4944527657204498,0.0
148,1.4944756031036377,0.3852007592296133,0.2997181696124452,0.8697275568782338,0.05406677007218124,0.0,0.12381404315717023,0.1,0.0030508041381835938,0.057457923889160156,0.049700715,1.1223885,0.6440133852649291,0.0,0.007632897508507761,0.0,200,0.028528451919555664,0.5588273308947226,0.5684592497461589,29800,1.9345532664737963,0.0
149,1.5989747047424316,1.1480528288623209,0.5644871062863275,1.7954605654990468,0.32645541603347805,0.0,0.12636515783647612,0.1,0.002965211868286133,0.06902909278869629,0.049756344,1.0116569,0.6944173296246683,0.0,0.02276282523132374,0.0,200,0.026925325393676758,0.4342603811110787,0.4055674291530098,30000,1.0271135444844592,0.0
150,1.4837956428527832,0.5944368805633861,0.2660586979103695,1.0060588221429219,0.26878401211091996,0.0,0.11901320696595939,0.1,0.0029747486114501953,0.05466270446777344,0.049779102,3.0235794,0.6844192847185401,0.0,0.01169494362708281,0.0,200,0.022800683975219727,0.19954670854391857,0.20627939326728756,30200,1.4747154944082963,0.0
151,1.616692066192627,0.8644284317748985,0.3250855647636193,1.305700899986852,0.5383225584146178,0.0,0.12294469379841581,0.1,0.002975940704345703,0.056929826736450195,0.049760785,1.5176506,0.7024201994241759,0.0,0.017179848537473806,0.0,200,0.026863574981689453,0.21489579091979358,0.19886989265837746,30400,1.6634974242898866,0.0
152,1.5154681205749512,1.2155601681878307,0.7975545586104846,2.3056148766116245,0.31047710037204657,0.0,0.12515026841603574,0.1,0.005490541458129883,0.0585932731628418,0.04963103,1.6322076,0.7537341963005415,0.0,0.02412372647174999,0.0,200,0.04878711700439453,0.4318272427381819,0.38659518785348923,30600,1.6721470303502244,0.0
153,1.573129653930664,1.203931198798857,0.5994772064131224,2.1706526157273283,0.7024653293084094,0.0,0.12409226291562585,0.1,0.003107309341430664,0.057769060134887695,0.049817037,1.7043228,0.7987538965503731,0.0,0.02388326826579623,0.0,200,0.14295697212219238,0.2891480362456717,0.23699566668579056,30800,1.815555120305632,0.0
154,1.4904346466064453,0.5980799888811704,0.37240391512673965,1.2395541152544167,0.3205987885413054,0.0,0.12177012726770298,0.1,0.003481626510620117,0.07629060745239258,0.04878472,1.9516022,0.7786865057834529,0.0,0.01191866293573433,0.0,200,0.04976487159729004,0.8463571870171662,0.8148606235758127,31000,0.6038768371770655,0.0
155,1.5802733898162842,0.6912625776383633,0.4542106936465738,1.3530509274439737,0.128174164287655,0.0,0.11640362315641292,0.1,0.002999544143676758,0.05581974983215332,0.05012895,1.6117787,0.7699441129689439,0.0,0.013691565141487136,0.0,200,0.04354453086853027,0.5425414395669071,0.4209278474367684,31200,0.9410609685829968,0.0
156,1.5833911895751953,1.1544954104639675,0.26001095457848306,1.5153650999535175,0.785456218865689,0.0,0.12776055356954003,0.1,0.0030007362365722656,0.05787229537963867,0.050081998,1.1357743,0.8083992427184463,0.0,0.023057315163811584,0.0,200,0.03546619415283203,0.1191794842690015,0.13629606306641143,31400,0.8719183408323978,0.0
157,1.4730465412139893,1.0718399817989748,0.9241961491467148,2.384332456095282,0.0818726912161945,0.0,0.12756856611615913,0.1,0.0034494400024414062,0.05567121505737305,0.050295476,1.4339843,0.8347433166264993,0.0,0.021233220226271818,0.0,200,0.04457902908325195,0.46406273544414367,0.4571128375743876,31600,1.9125413025905598,0.0
158,1.5069100856781006,0.6894137633241594,0.6508296667638926,1.6868871187734775,0.10517886519912374,0.0,0.12433347035190008,0.1,0.011228561401367188,0.05614829063415527,0.04958734,1.4326221,0.8202103612962652,0.0,0.013636769300112372,0.0,200,0.039020538330078125,0.5354188252833658,0.5304734504818108,31800,2.082097003983724,0.0
159,1.5431127548217773,0.6548674824446143,0.38074489383676346,1.024899473948319,0.1441861012573858,0.0,0.12532332853817196,0.1,0.003184795379638672,0.05889248847961426,0.050061535,0.74270964,0.8036760734111001,0.0,0.013030695890761319,0.0,200,0.04757976531982422,0.3664501568917447,0.3259140839051697,32000,1.9212184065070848,0.0
160,1.585425853729248,1.164062975118321,0.8344481351509803,2.312004699546218,0.33619597678172636,0.0,0.12279083122272423,0.1,0.003353595733642578,0.05739927291870117,0.049434565,1.5663278,0.8397147635818222,0.0,0.02314289456185352,0.0,200,0.04736018180847168,0.4403157489183304,0.44142483594042115,32200,1.8635980637956981,0.0
161,1.6123194694519043,1.1177589195267599,0.4949442088019691,1.7807934183484975,0.394467174209838,0.0,0.13092855975612863,0.1,0.0034780502319335938,0.1329951286315918,0.04969582,1.781095,0.8675191791763159,0.0,0.02222432117201021,0.0,200,0.061864614486694336,0.23637403245897515,0.2139541798113675,32400,1.2661889421391492,0.0
162,1.5630791187286377,1.0547528546913731,0.8858056849746762,2.490183548809865,0.18059209371329155,0.0,0.12609928079331975,0.1,0.005105257034301758,0.06211662292480469,0.050103307,1.48148,0.8862425467278217,0.0,0.020943454390892055,0.0,200,0.048482656478881836,0.4236752823095325,0.40527332578584874,32600,1.926273872920067,0.0
163,1.5854315757751465,1.0362489335070078,0.6613201440885398,2.1810361380999796,0.6226548882183732,0.0,0.13308638226719416,0.1,0.00325775146484375,0.06054210662841797,0.049592752,2.1394634,0.9012431854057403,0.0,0.020566319999379832,0.0,200,0.06493711471557617,0.3230725072414607,0.3212645916301129,32800,1.6511360921458509,0.0
164,1.5856845378875732,1.3216496847394823,0.9435870308308786,2.8744617837871482,0.3373071395592969,0.0,0.12245385949510011,0.1,0.00563502311706543,0.09687542915344238,0.0491479,2.1825678,0.9432838353391145,0.0,0.02615916424916609,0.0,200,0.14050722122192383,0.4057390611560084,0.38564908811731774,33000,2.2115482898771197,0.0
165,1.5494253635406494,1.2758523202366971,0.4469519029640931,2.0121919738107477,0.8351403128702966,0.0,0.12357979094289166,0.1,0.0031054019927978516,0.0677804946899414,0.05028764,2.9992926,0.9765406838288728,0.0,0.02523836038383289,0.0,200,0.02229928970336914,0.1335297073126253,0.12062478665537911,33200,1.4863102182035426,0.0
166,1.4694771766662598,1.2534243616212783,0.48714416294388113,1.8503381993387,0.7532055077385622,0.0,0.12743776619201794,0.1,0.0032351016998291016,0.07158946990966797,0.049822524,1.1710646,1.0042290516081134,0.0,0.024720970726764838,0.0,200,0.04347348213195801,0.1854322314021998,0.18578409469164314,33400,1.3768404669213956,0.0
167,1.5796058177947998,0.7410053511474741,0.6232772469550655,1.8072575617419517,0.24937996513419772,0.0,0.125949848674046,0.1,0.031088590621948242,0.13352108001708984,0.05031964,1.2695543,0.9779066815620495,0.0,0.0143908553771439,0.0,200,0.06408548355102539,0.7898631308703082,0.6548059886093721,33600,1.4276070619099162,0.0
168,1.5544829368591309,0.40406724061653615,0.09525259922927176,0.5254326310471201,0.2930096018910443,0.0,0.1325785638383559,0.1,0.0032453536987304688,0.0597386360168457,0.05004404,0.8952425,0.9205227374674981,0.0,0.008050137984541178,0.0,200,0.06793832778930664,4.4098097322142245,1.7742229792638349,33800,2.4760541039178556,0.0
169,1.5796990394592285,1.2454710711013925,0.5098919463797933,1.919136944273062,0.7079467160678498,0.0,0.12435321196154515,0.1,0.007058143615722656,0.057353973388671875,0.049793877,1.326342,0.9530175708308876,0.0,0.024643683427404837,0.0,200,0.08432674407958984,0.23024875281552845,0.28994124487953565,34000,2.073199850650577,0.0
170,1.5534088611602783,1.4041880799036506,0.7262900183546473,1.9938035409827584,0.20411801907937185,0.0,0.12181680191170713,0.1,0.0062754154205322266,0.05914020538330078,0.049654722,1.1048435,0.9981346217381639,0.0,0.02767510237520882,0.0,200,0.03201937675476074,0.4129881078637518,0.3806682776625309,34200,2.370777482586113,0.0
171,1.5564353466033936,0.8490560872386981,0.5263709305266167,1.7508494778802162,0.4829410423650724,0.0,0.12851158070803795,0.1,0.1054694652557373,0.6441855430603027,0.05017941,1.5818156,0.9832267682882174,0.0,0.016823064909210664,0.0,200,0.043436527252197266,0.3125999251059893,0.3155584902941838,34400,2.0674475731081134,0.0
172,1.5425074100494385,0.730531881641042,0.24268065055648055,1.0367601102779649,0.4386373067336303,0.0,0.12234384456420229,0.1,0.0032439231872558594,0.055420875549316406,0.049934454,1.1383257,0.9579572796235,0.0,0.014594473387183927,0.0,200,0.049924612045288086,0.19107878029691608,0.19906663207160255,34600,2.357462082338421,0.0
173,1.5174410343170166,1.0330031590014037,0.32746521141666296,1.4417635989364785,0.6918322639918159,0.0,0.1275460018755691,0.1,0.0031816959381103516,0.06951141357421875,0.049402777,1.4290526,0.9654618675612903,0.0,0.02051276208616236,0.0,200,0.05473589897155762,0.14516512020608274,0.14205885421554018,34800,1.1247960683999858,0.0
174,1.5518991947174072,1.2193015420375137,0.553209484248408,1.808223312963812,0.32501503282245564,0.0,0.12990680232259844,0.1,0.003162384033203125,0.05547308921813965,0.05000308,1.0452145,0.9908458350089127,0.0,0.024288611849450338,0.0,200,0.040389060974121094,0.25694684952849745,0.23859968767434656,35000,2.1062218817487524,0.0
175,1.5978047847747803,1.2753233152816832,0.7957614882209875,2.482574509180698,0.3540054814634348,0.0,0.1254065168189837,0.1,0.04061436653137207,0.05846381187438965,0.049853884,1.2845618,1.0192935830361898,0.0,0.025105044038285926,0.0,200,0.03804802894592285,0.37691423429640863,0.35703815416844736,35200,0.8432383421998267,0.0
176,1.634943962097168,1.3174592829982572,0.9939085150538143,2.983030557927037,0.5479812297447442,0.0,0.1221915019935605,0.1,0.005205392837524414,0.06047344207763672,0.049512163,1.8617281,1.0491101530323965,0.0,0.026077936016418356,0.0,200,0.03162717819213867,0.4329431405296259,0.4089634037307191,35400,1.391071538166573,0.0
177,1.5908386707305908,0.9233724531388878,0.6757788227686984,2.002091697591995,0.15381692944248826,0.0,0.1269509977466398,0.1,0.003088712692260742,0.05550694465637207,0.05016237,1.6175063,1.0365363830430456,0.0,0.018114755838302698,0.0,200,0.06855344772338867,0.3956191506523088,0.4143490118037111,35600,2.0830634732697524,0.0
178,1.5906274318695068,0.7253077763238815,0.5069290070347265,1.586475393961243,0.2912205090991018,0.0,0.13076688718302673,0.1,0.009594917297363281,0.05756735801696777,0.050069436,1.0896858,1.0054135223711294,0.0,0.014402965297688025,0.0,200,0.07523393630981445,0.6089462386608295,0.5307194547914296,35800,2.2381721113635122,0.0
179,1.5869245529174805,1.5179298886939425,0.44668704419781574,2.009212801418418,0.8374894300481732,0.0,0.12430924049420965,0.1,0.005510568618774414,0.0616757869720459,0.04997551,1.2515393,1.0566651590034106,0.0,0.02972007643661339,0.0,200,0.03865623474121094,0.191848967192841,0.19414314097607438,36000,2.7581985956914323,0.0
180,1.5966479778289795,0.7937407935481564,0.3316359769146178,1.2630863014056732,0.3583661200059634,0.0,0.126996813023745,0.1,0.01602458953857422,0.05643320083618164,0.049866263,1.1981354,1.0303727224578851,0.0,0.015846908934884066,0.0,200,0.10312867164611816,0.3041352876166329,0.27246174526726535,36200,1.5063573359167932,0.0
181,1.540912389755249,0.5854604425195971,0.11401604259812148,0.7162295772586228,0.4023635826115286,0.0,0.12435067669884423,0.1,0.005509853363037109,0.060085296630859375,0.049414888,0.9837112,0.9858814944640564,0.0,0.011652156970763852,0.0,200,0.03554892539978027,0.7376020066216895,0.4149247564686532,36400,1.1718692964793451,0.0
182,1.6564967632293701,0.8197189204158808,0.47756838283419856,1.5012427111833015,0.3040078840593445,0.0,0.11536598003289497,0.1,0.00505518913269043,0.0713498592376709,0.04964627,1.7771082,0.9692652370592388,0.0,0.016198031304828595,0.0,200,0.04686689376831055,0.2982226607757206,0.29137392383974725,36600,1.6495756676817575,0.0
183,1.6059305667877197,0.8134749413514696,0.5039886839424007,1.383496666600332,0.2849928776575039,0.0,0.12046450263904913,0.1,0.00328826904296875,0.061599016189575195,0.050135005,1.3116516,0.9536862074884619,0.0,0.01619082909689588,0.0,200,0.07771158218383789,0.3125709668057101,0.315306486305281,36800,2.362028670781724,0.0
184,1.591249942779541,1.2006379048122802,0.57288318237882,1.7873599872684818,0.2509184677941019,0.0,0.1243281503889503,0.1,0.00460052490234375,0.05674624443054199,0.049791556,0.9522223,0.9783813772208437,0.0,0.023660370780439234,0.0,200,0.03854203224182129,0.3428747350740879,0.31935021101027755,37000,1.630299703807764,0.0
185,1.5857396125793457,0.5998358501566277,0.6097349266738056,1.638652944405957,0.09403339717824931,0.0,0.12076206851924216,0.1,0.0029790401458740234,0.055461883544921875,0.050062604,1.8607646,0.9405268245144222,0.0,0.011551194178023146,0.0,200,0.04529285430908203,0.5741790400454114,0.5778565790088172,37200,1.9284541478807489,0.0
186,1.613253116607666,1.2130804324882436,0.8568905025887708,2.4747115500275667,0.23415568251957963,0.0,0.12215896155711417,0.1,0.0034415721893310547,0.0625295639038086,0.0498359,2.0906794,0.9677821853118044,0.0,0.023742865719270742,0.0,200,0.09732317924499512,0.40313446708104084,0.382434414656932,37400,2.132598593525837,0.0
187,1.7332873344421387,0.7099018028237967,0.28399486466925866,1.0834258739552396,0.40575729224264045,0.0,0.12667877682660575,0.1,0.00789785385131836,0.18393683433532715,0.049977627,1.0210086,0.9419941470630037,0.0,0.013979083613899192,0.0,200,0.04971027374267578,0.23402158717710614,0.2619800542787191,37600,1.2549843920987733,0.0
188,1.6221706867218018,1.1312234489302895,0.31651019216423615,1.3950225462799544,0.5917777956681605,0.0,0.12118476002372927,0.1,0.002940654754638672,0.0669715404510498,0.04933941,0.94178236,0.9609170772497323,0.0,0.02253052763706651,0.0,200,0.05315351486206055,0.16617514715041487,0.1578089987419384,37800,1.4706540532027905,0.0
189,1.5121362209320068,1.2304889374829324,0.7921712490744998,2.5131309264405486,0.5033168724197017,0.0,0.11935022951779622,0.1,0.005059719085693359,0.06985688209533691,0.049451895,1.8076864,0.9878742632730524,0.0,0.024176217108759397,0.0,200,0.04795360565185547,0.3360671569809084,0.317119606561894,38000,1.7313861464468114,0.0
190,1.581085443496704,0.7939239672803284,0.1017841705465485,0.9673906171121789,0.7123272801764171,0.0,0.12402992142755079,0.1,0.003112316131591797,0.059003353118896484,0.049395747,1.0796803,0.9684792336737801,0.0,0.015698991295989083,0.0,200,0.0439610481262207,0.09604236248220727,0.11616436633724433,38200,1.1793151259049324,0.0
191,1.5324952602386475,1.2812713939977198,0.631657632328458,2.244005631887217,0.5684192848239142,0.0,0.1198966735248784,0.1,0.006777763366699219,0.07449817657470703,0.04920449,2.1629174,0.999758449706174,0.0,0.02540918289385236,0.0,200,0.02964639663696289,0.23814235305391007,0.22798520959135637,38400,0.9673271555247367,0.0
192,1.518312692642212,0.4513049005971468,0.3054134381106536,0.875762550925532,0.046414497207298934,0.0,0.12257882266184318,0.1,0.003349781036376953,0.057717323303222656,0.049785856,1.0286298,0.9449130947952713,0.0,0.008894869619848826,0.0,200,0.0653388500213623,1.754288133484251,1.4150411129590956,38600,1.1182967275350062,0.0
193,1.5005724430084229,1.4512582212237244,0.8519661237229836,2.6650963680430824,0.4180889018634835,0.0,0.12986615169065685,0.1,0.005052328109741211,0.06103062629699707,0.049985778,1.151188,0.9955476074381167,0.0,0.028799042400826886,0.0,200,0.03945183753967285,0.332303746423388,0.33863377058678984,38800,2.017779513684571,0.0
194,1.5281033515930176,1.1619030437623052,0.8579748639030333,2.0970644570826713,0.07380902548149477,0.0,0.12075462882120391,0.1,0.0030863285064697266,0.0661628246307373,0.050138388,1.2970117,1.0121831510705355,0.0,0.023132600376719714,0.0,200,0.04387211799621582,0.38681068345851066,0.37788745274442653,39000,1.5531532714887293,0.0
195,1.5691704750061035,1.0113933916230515,0.8374125156099524,1.8988809348845357,0.0965904099411855,0.0,0.12027635102328979,0.1,0.004621028900146484,0.09420228004455566,0.04990408,0.98034024,1.012104175125787,0.0,0.01984488508696843,0.0,200,0.052021026611328125,0.38876522854239925,0.3837451020067648,39200,1.2192877628222683,0.0
196,1.6253933906555176,1.206263442842118,0.28454880744456745,1.5201196049092058,0.8040347200672573,0.0,0.1212772509999726,0.1,0.0030486583709716797,0.09716987609863281,0.0497544,1.096605,1.0315201018974203,0.0,0.02340498934530606,0.0,200,0.12024617195129395,0.09993076747602138,0.08475413067892396,39400,1.3145790510966757,0.0
197,1.5980567932128906,0.7281595100574663,0.38457285565724525,1.2907410596083604,0.2044719336076539,0.0,0.11834402734979309,0.1,0.09900665283203125,0.07327032089233398,0.050015125,0.8743101,1.0011840427134249,0.0,0.014472579857503715,0.0,200,0.07758164405822754,0.46523964516036037,0.441635972683732,39600,1.3924044420703645,0.0
198,1.621246337890625,1.0525393291793248,0.5996872194003243,1.8140987903514318,0.31242595457430017,0.0,0.11883089969995844,0.1,0.003057241439819336,0.05588984489440918,0.04950494,1.415587,1.0063195713600148,0.0,0.02100090935833866,0.0,200,0.050963640213012695,0.255361958534803,0.25268442833269433,39800,1.8334794430994161,0.0
199,1.652468204498291,0.631233210415642,0.48297079782630553,1.456351809528798,0.22799209337494417,0.0,0.12574685482852607,0.1,0.004553556442260742,0.06713509559631348,0.050476823,1.2758657,0.9688109352655775,0.0,0.012503913247885473,0.0,200,0.038990020751953125,0.7320503205396452,0.615040347174423,40000,1.5804271185830066,0.0
200,1.536778450012207,1.1309444896056229,0.49931754945645707,1.8306884501164957,0.4199804879622859,0.0,0.12384517555809,0.1,0.005255699157714844,0.09044075012207031,0.04968797,1.6061869,0.9850242906995821,0.0,0.022535872246917492,0.0,200,0.05125236511230469,0.20783058318498052,0.22465508087089447,40200,1.3351239359758234,0.0
201,1.6440510749816895,0.5599224496414061,0.16781593084594668,0.7941593392678897,0.32678431736956326,0.0,0.1287531963232905,0.1,0.024140119552612305,0.06453680992126465,0.049421042,1.1186289,0.9425141065937644,0.0,0.01085650262171733,0.0,200,0.06442880630493164,0.35012387669206246,0.27813968320683513,40400,2.1762892897505086,0.0
202,1.6644692420959473,1.3242311951807204,0.6002650959483286,1.9763886832757906,0.3979791250249645,0.0,0.11340235489489128,0.1,0.004519939422607422,0.06708073616027832,0.049466893,1.2879341,0.98068581545246,0.0,0.02637441894843469,0.0,200,0.019873619079589844,0.29089260452189797,0.28245509451248446,40600,1.2571851686485658,0.0
203,1.5478687286376953,0.5021083280124804,0.3873995810102476,1.0791939224242917,0.14436499050282178,0.0,0.12108040418953499,0.1,0.005463361740112305,0.13431882858276367,0.050829474,1.6501224,0.9328280667084621,0.0,0.009986863487382026,0.0,200,0.0825507640838623,0.8531351839060726,0.8232498172937388,40800,1.7509701839631042,0.0
204,1.6022465229034424,1.483584665923958,0.7841916987843167,2.7249825882817764,0.7942576170949764,0.0,0.12277655865200722,0.1,0.0033960342407226562,0.05751395225524902,0.049987685,1.7514552,0.9879037266300117,0.0,0.028886934472421667,0.0,200,0.03023076057434082,0.38562231649968215,0.36564640977619506,41000,1.8839210641372788,0.0
205,1.6152293682098389,0.9119991932919231,0.5547339337178102,1.596816465697275,0.05710180997994243,0.0,0.11636752836955978,0.1,0.0054171085357666016,0.061952829360961914,0.049827673,1.0439081,0.9803132732962029,0.0,0.01810516995339745,0.0,200,0.039313316345214844,0.3102264571461997,0.30905174130707824,41200,1.9445425225327169,0.0
206,1.545149326324463,1.2610152708914204,0.8838907767987335,2.426509664395611,0.37325854320821344,0.0,0.11986388702534294,0.1,0.013113021850585938,0.08748531341552734,0.049988613,1.4686058,1.0083834730557246,0.0,0.02458574896541574,0.0,200,0.034852027893066406,0.3845913412251487,0.3618586714312593,41400,1.6674608129816155,0.0
207,1.5288033485412598,0.6878494693164905,0.5207005709514858,1.2409708834532105,0.04263230843520443,0.0,0.11914881674905368,0.1,0.005178928375244141,0.07494831085205078,0.05012308,1.1346132,0.9763300726818013,0.0,0.01348400286610283,0.0,200,0.05223250389099121,0.5117000734624262,0.5330494464036314,41600,1.7690443864154588,0.0
208,1.547356367111206,0.77584138087205,0.16756088723734705,0.9920454180926853,0.5615405663772561,0.0,0.12644553240988848,0.1,0.007294654846191406,0.07302975654602051,0.049413174,1.0147924,0.9562812035008261,0.0,0.015147608793956603,0.0,200,0.0339512825012207,0.2589522590613148,0.21584339882498682,41800,1.7618569431426547,0.0
209,1.5203273296356201,0.7306811447031732,0.5433536646212728,1.3065700176217498,0.06936794133982208,0.0,0.11970430319406186,0.1,0.005479097366333008,0.07576441764831543,0.04980784,1.2916621,0.9337211976210609,0.0,0.014428871787901094,0.0,200,0.041780948638916016,0.49880292269228327,0.4219810294122236,42000,0.9357598843037378,0.0
210,1.6244499683380127,1.647548322891133,1.1227257817328544,2.921904726084006,0.5054489828730713,0.0,0.12079282434100483,0.1,0.0031371116638183594,0.05750846862792969,0.050370008,1.2466056,1.005103910148068,0.0,0.031994044783806956,0.0,200,0.02584981918334961,0.4711656198354112,0.4574870000257571,42200,1.20028397054884,0.0
211,1.5808801651000977,0.9659395214934012,0.5566146186154213,1.8292032915618475,0.44303777507356157,0.0,0.12393148838500265,0.1,0.0053288936614990234,0.06158709526062012,0.049967546,2.0683196,1.0011874712826014,0.0,0.019203676476903075,0.0,200,0.04430890083312988,0.27844461579080265,0.28503605760183787,42400,1.4998954477756075,0.0
212,1.5426537990570068,0.8981045930834178,0.7516191680065744,2.192404953281501,0.3348472673011072,0.0,0.12430722083385835,0.1,0.005510807037353516,0.07574319839477539,0.050343562,1.6200943,0.9908791834626831,0.0,0.0171732995850458,0.0,200,0.02211618423461914,0.5063202630912257,0.5051407056560889,42600,1.293971713345423,0.0
213,1.522390604019165,0.6151667169200863,0.32958080964590153,1.1833376852169277,0.3753983986678881,0.0,0.12527362339349854,0.1,0.005027294158935547,0.06380724906921387,0.050222028,1.4495022,0.9533079368084234,0.0,0.01227833878412272,0.0,200,0.0524897575378418,0.5948510057279853,0.5062136499146316,42800,1.4360195927007273,0.0
214,1.5609736442565918,1.1271895030195123,0.7127776345033968,2.064255953583525,0.4119377770381588,0.0,0.1244913864340237,0.1,0.0029969215393066406,0.05558919906616211,0.049852505,1.7177136,0.9706960934295323,0.0,0.022003669915160416,0.0,200,0.023593664169311523,0.3624484599820458,0.3633121493702983,43000,1.3151007155766157,0.0
215,1.5258550643920898,1.8411790849419205,0.6129748757603665,2.7925901050633724,1.0955660677934753,0.0,0.1253830641607814,0.1,0.0032219886779785156,0.05736994743347168,0.05002879,1.9095966,1.0577443925807712,0.0,0.03575594563766085,0.0,200,0.045557260513305664,0.3496559574938929,0.30349400349972566,43200,1.4554858272801667,0.0
216,1.563549518585205,1.0407521568105915,0.8939590544166559,2.074987565559646,0.07955743878631069,0.0,0.11503700006904452,0.1,0.004631757736206055,0.05536842346191406,0.049626913,1.7889578,1.0560451690037533,0.0,0.020804324272324717,0.0,200,0.07241058349609375,0.4743495312148525,0.49283039824514635,43400,0.9658384844354416,0.0
217,1.5854651927947998,1.0293928907193794,0.4145995735961224,1.4502152697226671,0.3452586870327457,0.0,0.11827915502237249,0.1,0.012840032577514648,0.05638599395751953,0.05002821,1.3112745,1.053379941175316,0.0,0.020502705460081313,0.0,200,0.07053780555725098,0.2444045302027155,0.23493499730499817,43600,1.583403172108943,0.0
218,1.6053001880645752,0.8449180936248745,0.6231487244413678,1.741453020137108,0.14167158878106414,0.0,0.12073778961826469,0.1,0.005083322525024414,0.08045387268066406,0.049373947,1.2721177,1.032533756420272,0.0,0.016331922535689568,0.0,200,0.043669700622558594,0.4189085318639973,0.3787326796292908,43800,1.107184015610156,0.0
219,1.5603001117706299,1.032733185287381,0.45874477293378846,1.700532909754184,0.489322900537387,0.0,0.11796232636991835,0.1,0.005203962326049805,0.09437894821166992,0.050195742,2.1151645,1.0325536993069828,0.0,0.02037406200063816,0.0,200,0.0504910945892334,0.2281317473278368,0.21124901679317468,44000,1.7007024954063317,0.0
220,1.652789831161499,0.8965975424212862,0.4718868876686577,1.7021978318777882,0.5394399341060601,0.0,0.12065915591916701,0.1,0.0030744075775146484,0.07259130477905273,0.050043564,1.5992872,1.0189580836184131,0.0,0.017899287458408297,0.0,200,0.03409433364868164,0.24012352051385516,0.22948499275135167,44200,1.3247416186517003,0.0
221,1.6193912029266357,0.6267812878571377,0.29512938237407416,0.9906742284218863,0.32159309907948846,0.0,0.1241820614150982,0.1,0.005192995071411133,0.07128453254699707,0.050478287,0.8839791,0.9797404040422856,0.0,0.012438204880402788,0.0,200,0.039147377014160156,0.39918603888453025,0.29598808795956616,44400,1.5275241649098554,0.0
222,1.5672781467437744,1.1062106864877803,0.5319637354213285,1.7719434589451788,0.3105945462187831,0.0,0.12227809284155942,0.1,0.005003452301025391,0.08463883399963379,0.049603365,1.1354846,0.9923874322868351,0.0,0.02175978091357573,0.0,200,0.04723048210144043,0.2754612142489093,0.2750824541057522,44600,1.971175477630565,0.0
223,1.6388142108917236,0.5567757173496826,0.25534682587325275,0.9714696247351675,0.28417796500225795,0.0,0.11994538124585259,0.1,0.005670070648193359,0.1406397819519043,0.050334416,2.5737665,0.9488262607931198,0.0,0.010979000250503074,0.0,200,0.05110478401184082,0.49433099828330757,0.45630022873451026,44800,1.633227621522546,0.0
224,1.6029562950134277,1.3143018467306118,1.025338395382153,3.089599838219534,0.6821772727926555,0.0,0.12255005704405793,0.1,0.005023479461669922,0.06191539764404297,0.049549714,2.6069803,0.9853738193868691,0.0,0.025710600799520665,0.0,200,0.03143811225891113,0.47433595176376864,0.4580832263203733,45000,1.241400865310404,0.0
225,1.6362841129302979,1.4676767619020732,1.0363011925001078,2.5741976888164153,0.3107459763936183,0.0,0.12107001981444589,0.1,0.06273937225341797,0.05758404731750488,0.049479894,1.3177924,1.0336041136383896,0.0,0.028687022843424483,0.0,200,0.05252480506896973,0.4724975290245182,0.4203800851347679,45200,1.208680258588428,0.0
226,1.593888521194458,1.6021264688129109,0.6774682482259679,2.085344230972651,0.43497937405019704,0.0,0.11888606275094808,0.1,0.005606889724731445,0.05712389945983887,0.05011394,0.97046256,1.0904563491558417,0.0,0.03189380243263814,0.0,200,0.0916600227355957,0.3161884975783342,0.2560590049722873,45400,1.1067681389343929,0.0
227,1.656670331954956,0.7116528673211209,0.6136831780999652,1.598628898135024,0.07025966235919669,0.0,0.12470541862046103,0.1,0.0051152706146240234,0.05720925331115723,0.050144825,1.4879102,1.0525760009723695,0.0,0.014192189610461453,0.0,200,0.05644798278808594,0.6721434816497494,0.7561806265781679,45600,1.015398396934586,0.0
228,1.5966169834136963,1.0311467358661142,0.504833348663348,1.8533406958716725,0.4784695657705887,0.0,0.11964017427377384,0.1,0.0032196044921875,0.07007527351379395,0.049674913,1.3920281,1.0504330744617438,0.0,0.02029502913013017,0.0,200,0.11324191093444824,0.293262956250743,0.267145435832985,45800,1.7972839911600398,0.0
229,1.6030893325805664,0.5565531762084379,0.5156944462812186,1.3949832463161698,0.04172504231023883,0.0,0.12133887893652287,0.1,0.003168821334838867,0.06354689598083496,0.050275467,1.3632206,1.0010450846364132,0.0,0.011134861158455219,0.0,200,0.04228377342224121,1.3338623418618478,1.0160708471710937,46000,1.8087666733090455,0.0
230,1.5773684978485107,1.3916637905044547,0.4699570207206993,1.8656729128131064,0.8248938954292119,0.0,0.12229083180641942,0.1,0.005330562591552734,0.05671954154968262,0.05014108,1.245061,1.0401069552232174,0.0,0.027484502838369833,0.0,200,0.04664421081542969,0.17787133579013145,0.20345424792279773,46200,2.2530439000603706,0.0
231,1.6746330261230469,0.3681641881106617,0.21480793783673424,0.6734849420781002,0.08331147181751096,0.0,0.11647395457855216,0.1,0.0052013397216796875,0.06760668754577637,0.04969668,1.282461,0.9729126785119618,0.0,0.0073326883229737185,0.0,200,0.039932966232299805,2.505878900696475,1.8310012012432868,46400,2.0284429078918267,0.0
232,1.6609508991241455,1.3083270731393957,0.12325161031927152,1.5185642331006477,1.2176465807573955,0.0,0.11734501541630189,0.1,0.0048482418060302734,0.07387661933898926,0.049328458,1.4183408,1.0064541179747053,0.0,0.02541023574260625,0.0,200,0.04531359672546387,0.14187879507420553,0.16232831040830073,46600,1.8845963352201849,0.0
233,1.5708072185516357,0.8882768527779458,0.6226655114616814,1.5409889228057032,0.03559902692226305,0.0,0.1152338227597319,0.1,0.0055086612701416016,0.08862686157226562,0.0496037,1.1109264,0.9946363914550294,0.0,0.017540349999601294,0.0,200,0.07579302787780762,0.34060111332234266,0.3359838084128141,46800,1.924461390433871,0.0
234,1.677743673324585,1.1062772136499277,1.0306981805422415,2.8200991122244785,0.16473850812434918,0.0,0.12201263843600078,0.1,0.003296375274658203,0.08971571922302246,0.049909953,1.9785683,1.0058004736745192,0.0,0.021723943393840917,0.0,200,0.04607415199279785,0.5267849388530612,0.519674722737796,47000,1.625472684957131,0.0
235,1.6916801929473877,0.5883136271614832,0.24084500306945208,0.8365199586767281,0.34607076470135567,0.0,0.11784010488076083,0.1,0.0053195953369140625,0.1182408332824707,0.049671274,1.1820266,0.9640517890232156,0.0,0.011660656980639898,0.0,200,0.08402848243713379,0.3763593751650292,0.3812236100845908,47200,1.4537261144961073,0.0
236,1.7591164112091064,1.3824855052808975,0.5211977080131336,1.9819314593244262,0.6834914245524096,0.0,0.11130787885627615,0.1,0.007144927978515625,0.08654999732971191,0.049724847,1.7376136,1.0058951606489839,0.0,0.02740778971738691,0.0,200,0.11842584609985352,0.2721395180523254,0.2577379542466285,47400,1.561095991027013,0.0
237,1.68825364112854,1.485621230523211,0.42694974302429084,1.9639990830316048,1.0044422623099718,0.0,0.12050121778359636,0.1,0.003309965133666992,0.0631401538848877,0.049842548,1.2498065,1.0538677676364065,0.0,0.02943349695572802,0.0,200,0.04514718055725098,0.2651070388724184,0.2280213896968771,47600,1.5888764625539065,0.0
238,1.5235793590545654,0.62490286158919,0.2653833517120787,0.8227907414260068,0.16779457260936945,0.0,0.12037730073444612,0.1,0.005538225173950195,0.061109066009521484,0.050416913,0.85740626,1.010971277031685,0.0,0.012057814729893429,0.0,200,0.08145594596862793,0.5297168969387707,0.6027751560559312,47800,1.519213251035997,0.0
239,1.5527913570404053,0.7392888287251294,0.37796432136864344,1.17440295706398,0.16358838810005816,0.0,0.11743480664606278,0.1,0.005255460739135742,0.06540131568908691,0.049771722,1.3436682,0.9838030322010295,0.0,0.014689145357372344,0.0,200,0.0260312557220459,0.3218555744757269,0.3112043424101763,48000,1.3717927282165254,0.0
240,1.601625919342041,0.9447060096242677,0.5049974874855503,1.660774126813882,0.3203745579570867,0.0,0.12187120271935521,0.1,0.005192995071411133,0.07649040222167969,0.050067283,1.4187409,0.9798933299433533,0.0,0.018757218041560372,0.0,200,0.0695033073425293,0.28870854478455765,0.2823576086260263,48200,1.534854160279502,0.0
241,1.5997352600097656,0.8548589443452056,0.4749177227248304,1.311570471519873,0.06606324935318908,0.0,0.1129970771456828,0.1,0.006564140319824219,0.056594133377075195,0.049837485,0.951471,0.9673898913835386,0.0,0.01680993651637165,0.0,200,0.08936262130737305,0.3525593643008022,0.3157637421477835,48400,1.0313382466341234,0.0
242,1.607914686203003,0.7893042823862059,0.262545000665553,1.2248330297971897,0.5606625916399843,0.0,0.11660512608019258,0.1,0.0032842159271240234,0.05709123611450195,0.049903747,1.3806338,0.9495813304838053,0.0,0.015639576084693716,0.0,200,0.03940582275390625,0.1523785791476251,0.12311696368106997,48600,1.156221070782938,0.0
243,1.6104376316070557,1.3041758443931117,0.7000821405277106,2.0046569287310443,0.14510256513797926,0.0,0.1161920107988599,0.1,0.004502058029174805,0.05598783493041992,0.050619982,0.93615556,0.985040781874736,0.0,0.02536820415114939,0.0,200,0.08647942543029785,0.33939042522383617,0.3350541242294543,48800,1.2236361672217184,0.0
244,1.7116007804870605,0.8020171217079631,0.2924129792472736,1.2155204566101767,0.46490671660048455,0.0,0.11595306229281749,0.1,0.014089107513427734,0.0901186466217041,0.04948303,3.6753237,0.9667384158580588,0.0,0.015795905351895147,0.0,200,0.07229471206665039,0.17238216248904126,0.1771753234846139,49000,1.1032651930610193,0.0
245,1.6831393241882324,1.1781618349645995,0.40048729148263734,1.5638398943854597,0.5775368441695575,0.0,0.11383521581077982,0.1,0.0052449703216552734,0.06571149826049805,0.049781475,1.4739183,0.9878807577687129,0.0,0.02327650824256239,0.0,200,0.074554443359375,0.20851172430307482,0.19658164487845226,49200,1.0506528628280531,0.0
246,1.593327522277832,1.0763631479215288,0.9453969390045793,2.6964524146205195,0.3128446608736585,0.0,0.11493028029967443,0.1,0.003221273422241211,0.09284520149230957,0.049617365,2.2243707,0.9967289967839944,0.0,0.020904204255915076,0.0,200,0.05141568183898926,0.49841177083765376,0.47994897725301794,49400,0.9269609920834015,0.0
247,1.6939136981964111,1.2673790475630091,0.8375243796479083,2.4108765498437514,0.34129170320906327,0.0,0.11660334951578649,0.1,0.0073511600494384766,0.06439089775085449,0.05006696,1.5044986,1.0237940018618958,0.0,0.024888781072929553,0.0,200,0.05694270133972168,0.3479964936039504,0.33125427153595816,49600,1.1091191365564645,0.0
248,1.7015340328216553,0.35459130931872573,0.16321786954062809,0.5806151212993564,0.1365532578276327,0.0,0.12205857807465664,0.1,0.005055665969848633,0.0743093490600586,0.049950253,1.1225364,0.9568737326075789,0.0,0.00692527959182967,0.0,200,0.05693221092224121,4.465101741711541,3.832560925473278,49800,1.645066414302538,0.0
249,1.6917929649353027,1.0622248598812138,0.8199351835989854,2.082086189090229,0.029601200889011164,0.0,0.11903902181108726,0.1,0.005366086959838867,0.06496262550354004,0.049436193,1.2691864,0.9674088453349425,0.0,0.02067723396700466,0.0,200,0.029510021209716797,0.40786104626688374,0.4082296646927856,50000,0.9907150604997095,0.0
250,1.6734719276428223,1.153915626207391,0.6804641092885652,1.962617337989531,0.3711856561200259,0.0,0.11878116711719955,0.1,0.005426883697509766,0.05518674850463867,0.04976755,1.4755412,0.9860595234221874,0.0,0.02305393070147496,0.0,200,0.042800188064575195,0.29325482969050715,0.2967392326652653,50200,1.0895903416054746,0.0
251,1.6379284858703613,0.6236029183507573,0.3909669121614474,1.286580440634357,0.28921452536799486,0.0,0.12147863823930757,0.1,0.004857301712036133,0.05519700050354004,0.049729854,2.2114077,0.9498138629150444,0.0,0.012361670018543795,0.0,200,0.040227651596069336,0.5821321513695128,0.5239504725581305,50400,0.9936366280414884,0.0
252,1.7445447444915771,1.0544636423125586,0.4901941896217254,1.5698630549977477,0.5162663537030809,0.0,0.1193556126782861,0.1,0.004834413528442383,0.05611705780029297,0.049872898,1.6656599,0.9602788408547959,0.0,0.020526146122584236,0.0,200,0.0365147590637207,0.22181549518322355,0.22424465348289696,50600,0.7869542756721694,0.0
253,1.6660583019256592,0.9534611711915191,0.40702826643403633,1.4297406544866207,0.49397403459149647,0.0,0.1126598279593492,0.1,0.0037145614624023438,0.06521296501159668,0.04978553,1.7983645,0.9595970738884683,0.0,0.01894153792642254,0.0,200,0.04795432090759277,0.19151112971948425,0.1883335079877678,50800,0.8117305886280359,0.0
254,1.6259510517120361,0.5182505367558462,0.32837825915338353,1.0486535129675392,0.1483185476708811,0.0,0.11383966505236316,0.1,0.004865407943725586,0.07043170928955078,0.050222807,1.6291556,0.9154624201752061,0.0,0.010356617625464316,0.0,200,0.06780314445495605,0.5957897938582217,0.5562244746466084,51000,0.9880476294296243,0.0
255,1.699958086013794,1.374103299785919,0.45256080498710777,1.968991765455394,0.8343401735882909,0.0,0.11474931587040929,0.1,0.0031709671020507812,0.06122398376464844,0.050221335,1.9976778,0.9613265081362774,0.0,0.02692873500265392,0.0,200,0.05174136161804199,0.24490978478522257,0.23237847214666854,51200,0.777482515726168,0.0
256,1.6657936573028564,0.8105617831869311,0.5362930408954968,1.7390430941482566,0.4810138453698065,0.0,0.1174786489214196,0.1,0.0054318904876708984,0.0847022533416748,0.049802132,1.8547473,0.9462500356413428,0.0,0.015921490134073225,0.0,200,0.07798337936401367,0.3062997322281136,0.3055417120875441,51400,0.5910166926440584,0.0
257,1.7141327857971191,1.0658212958343503,0.7369619861678247,1.9271400265259948,0.15802846510538077,0.0,0.11912563074639428,0.1,0.005415916442871094,0.06721758842468262,0.04935002,2.0753126,0.9582071616606436,0.0,0.02100480081657215,0.0,200,0.060328006744384766,0.3626225043088593,0.3608240106807262,51600,0.6368688387798204,0.0
258,1.7102506160736084,0.6720905806844537,0.23251797255065484,0.8910481681769322,0.28045783993407153,0.0,0.11859907134176717,0.1,0.0030159950256347656,0.055295467376708984,0.049666427,0.99423134,0.9295955035630246,0.0,0.013135054308496982,0.0,200,0.03866696357727051,0.32240101581511543,0.3041992372137769,51800,0.7574478132762471,0.0
259,1.6819283962249756,1.4888229591054234,1.1694027074914193,3.236032211320904,0.27593642834433524,0.0,0.11997817703600874,0.1,0.01361393928527832,0.07538890838623047,0.05035591,1.7105849,0.9855182491172645,0.0,0.02918998703160093,0.0,200,0.0772848129272461,0.5137778107039882,0.5013074840388737,52000,0.7568337626500411,0.0
260,1.632028341293335,1.3466980868675011,0.2980536196385148,1.7123778596811938,1.0291785066151744,0.0,0.1212638695557618,0.1,0.004697322845458984,0.05796623229980469,0.050155845,2.5531945,1.021636232892288,0.0,0.02659415644125381,0.0,200,0.034276723861694336,0.1481129633339127,0.1199180592727648,52200,0.7729865043715187,0.0
261,1.6785612106323242,0.5325076919812857,0.28264160283026857,0.8278222532191937,0.20236694132810112,0.0,0.12236984381118751,0.1,0.002994537353515625,0.056053876876831055,0.049858168,1.160618,0.9727233788011879,0.0,0.010416174927087806,0.0,200,0.040303945541381836,1.0208385883484743,1.0573492225159764,52400,0.6510473900034813,0.0
262,1.6324331760406494,1.526995980923098,0.6039095665648311,2.0474492022969333,0.5371273317783519,0.0,0.11341299605226905,0.1,0.007963180541992188,0.07246160507202148,0.05039957,1.6236309,1.0281506390133788,0.0,0.030411851518335278,0.0,200,0.09388875961303711,0.24569368600083322,0.2383572369305722,52600,0.5438378410694029,0.0
263,1.6754534244537354,0.8856234164534528,0.5713434214956769,1.6649073446095888,0.06185296553047185,0.0,0.11339181753735979,0.1,0.0031495094299316406,0.056626081466674805,0.049917012,1.5810869,1.0138979167573863,0.0,0.017508640058002827,0.0,200,0.06430888175964355,0.303665433449622,0.3056821946741183,52800,0.39688590184377776,0.0
264,1.76243257522583,0.9024292573302091,0.16801174229474602,1.1084384031367205,0.6402998030282738,0.0,0.12026049067204256,0.1,0.005340099334716797,0.06176161766052246,0.048832532,3.3134196,1.0027510508146686,0.0,0.017372007709630127,0.0,200,0.05231308937072754,0.09618381588011388,0.09053147605828775,53000,0.45082746766338383,0.0
265,1.675121545791626,0.851248362757953,0.575023742782111,1.846822997037006,0.5039375592567943,0.0,0.11942911211543121,0.1,0.005558490753173828,0.05791521072387695,0.05013502,2.1763477,0.9876007820089971,0.0,0.01686523912233064,0.0,200,0.10617423057556152,0.48640485342726764,0.4341783303168429,53200,0.3935823241158308,0.0
266,1.669212818145752,1.3322031425351275,0.4874570058493285,1.8591958347119502,0.5858522225803706,0.0,0.11676190010623566,0.1,0.0048367977142333984,0.06298303604125977,0.049817476,1.1884953,1.02206101806161,0.0,0.02647300104764018,0.0,200,0.021236419677734375,0.18245089695696565,0.18893490519901487,53400,0.4839349546634825,0.0
267,1.721353530883789,0.7833799366250219,0.5059900396068439,1.3659023703269932,0.06621914686048615,0.0,0.11926261245545929,0.1,0.007671356201171875,0.06438612937927246,0.049838316,0.8054693,0.9981929099179513,0.0,0.015467389016414005,0.0,200,0.024056434631347656,0.35243547893406935,0.34400438401702765,53600,0.4746493731987967,0.0
268,1.6489272117614746,1.4735609956397022,0.36437725782461605,2.0195074903327375,1.0087240639800545,0.0,0.11800630786715169,0.1,0.007267951965332031,0.05808210372924805,0.049588993,2.2931433,1.0457297184901264,0.0,0.0293127262376518,0.0,200,0.03871011734008789,0.1718086148957401,0.1642504514537236,53800,0.7600002059889742,0.0
269,1.7897522449493408,1.1053038368882042,0.6976930443469568,2.0667055481536294,0.28873248241624855,0.0,0.12004968584028626,0.1,0.005221128463745117,0.05835700035095215,0.050638657,1.6404017,1.0516871303299342,0.0,0.02157021953757167,0.0,200,0.11757111549377441,0.3045072100771758,0.2924651179156587,54000,0.7950002357677013,0.0
270,1.6370067596435547,0.8464263564774989,0.6439011444363311,1.8664457253282751,0.08630059571174994,0.0,0.11351931106012987,0.1,0.005264997482299805,0.08221650123596191,0.05028365,1.8811135,1.0311610529446908,0.0,0.01685597973608092,0.0,200,0.043741703033447266,0.4028189840109115,0.40804104837193317,54200,0.6319028494617385,0.0
271,1.6905786991119385,1.5061513365725037,0.9098207408322935,2.829978947785905,0.28592867215028567,0.0,0.117088126603753,0.1,0.0030782222747802734,0.055039405822753906,0.049943976,1.9279555,1.0786600813074723,0.0,0.02967409729559135,0.0,200,0.0970909595489502,0.3473309892095732,0.33073148201198693,54400,0.7024768231499404,0.0
272,1.7322025299072266,0.9448750858424968,0.6836973364219697,2.075587509377329,0.24104324072204475,0.0,0.11849668622763804,0.1,0.01502537727355957,0.09476423263549805,0.049988948,1.8294963,1.0652815817609746,0.0,0.01862375505599558,0.0,200,0.04015779495239258,0.37313446451634685,0.3790025467877541,54600,0.6048901760286828,0.0
273,1.6616175174713135,0.826965792253183,0.168093506229684,1.0084514992703157,0.6433012959825265,0.0,0.11751620189698046,0.1,0.004879951477050781,0.056830644607543945,0.049487904,1.5643854,1.0414500028101956,0.0,0.016163904655666785,0.0,200,0.06386399269104004,0.16339924865647165,0.1500412297027465,54800,0.4930979882200319,0.0
274,1.741628646850586,0.7767752078785763,0.3394107948021153,1.1636717026705126,0.24952075702914203,0.0,0.1193848395715885,0.1,0.004737138748168945,0.05681920051574707,0.04963056,1.1308006,1.0149825233170338,0.0,0.015504905997817136,0.0,200,0.0420076847076416,0.4133212104826302,0.33757886915677626,55000,0.6705986591615088,0.0
275,1.6589689254760742,1.1320517028217887,0.8052594802721894,2.3092451921196804,0.2525689281510979,0.0,0.12001010137298482,0.1,0.021841764450073242,0.06593132019042969,0.04951888,1.3726524,1.0266894412675092,0.0,0.022093185152849852,0.0,200,0.03992176055908203,0.3441365563361014,0.34935866118947206,55200,0.6937949020950859,0.0
276,1.7341747283935547,1.1607914443329375,0.8012143737055182,2.029674592878968,0.11569470712011048,0.0,0.11950732524461255,0.1,0.003168344497680664,0.05819845199584961,0.049812775,1.1366798,1.040099641574052,0.0,0.022846315655520685,0.0,200,0.05118918418884277,0.3698643742396565,0.36359283471113246,55400,0.11051118031238634,0.0
277,1.857503890991211,1.387799778779989,0.7466329224129865,2.570864047880084,0.5020519556277706,0.0,0.11539815342009913,0.1,0.004575252532958984,0.05867624282836914,0.04992938,3.1180398,1.0748696552946457,0.0,0.027215468750544,0.0,200,0.053533077239990234,0.3040708147502126,0.2905988571569145,55600,0.6766416275958796,0.0
278,1.749969244003296,0.805974643129619,0.6066984294167329,1.8374427484554674,0.2755053212016528,0.0,0.12065011055915387,0.1,0.005549430847167969,0.08667945861816406,0.04982477,1.7343189,1.047980154078143,0.0,0.016001703679437186,0.0,200,0.04674530029296875,0.4113238895718386,0.42292407346860184,55800,0.8444713290852331,0.0
279,1.7612600326538086,1.6784077765811443,0.7158687954049849,2.2522301420734223,0.4624420616249625,0.0,0.11922333252996355,0.1,0.0051190853118896484,0.06069517135620117,0.049743444,0.91857564,1.111022916328443,0.0,0.03313074408688544,0.0,200,0.04915142059326172,0.28289977627902335,0.2638299606085961,56000,1.2120576756857482,0.0
280,1.7628686428070068,1.031853272075029,0.7337783754967898,2.2576610407616653,0.4359410033077963,0.0,0.11867935423058167,0.1,0.004648447036743164,0.06169724464416504,0.05019419,1.7382095,1.1031059519031017,0.0,0.0202722362423816,0.0,200,0.028859615325927734,0.3826804005747619,0.3896128646849082,56200,1.0906177505748311,0.0
281,1.7843785285949707,1.270462539093546,0.5362767185652675,1.894022829080416,0.4276876576624197,0.0,0.11734273870021612,0.1,0.003118276596069336,0.05623054504394531,0.049963392,1.27914,1.119841610622146,0.0,0.024987287918347444,0.0,200,0.04304099082946777,0.1810620504726341,0.17776793209589414,56400,1.3317736732975267,0.0
282,1.7848613262176514,0.9746805817300243,0.8982980762915583,2.496823853289125,0.2914424041773677,0.0,0.11423049527192833,0.1,0.05029487609863281,0.0727696418762207,0.050258886,3.0063047,1.105325507732934,0.0,0.019440992427432,0.0,200,0.06252646446228027,0.5089014623976033,0.4913150287224975,56600,1.2375556676247812,0.0
283,2.1271932125091553,1.0829313461386287,0.8471046304992467,2.2458251197534738,0.11919709489091315,0.0,0.1211866482510545,0.1,0.003031492233276367,0.05737566947937012,0.0503239,1.7243768,1.1030860915735035,0.0,0.021426047213470377,0.0,200,0.13018083572387695,0.41812737157394125,0.39532031256860667,56800,0.6828815872344753,0.0
284,1.6247186660766602,0.9303569832816921,0.3358152102471446,1.507687585703113,0.6988150401702035,0.0,0.11939887870613182,0.1,0.0063245296478271484,0.06361103057861328,0.049772404,1.6353053,1.0858131807443223,0.0,0.01841092435574425,0.0,200,0.03545379638671875,0.21475042408780384,0.15596345228068845,57000,0.2261329207220825,0.0
285,1.7468373775482178,0.7353059634870908,0.46579836353511445,1.3884919657045036,0.08676518726291069,0.0,0.11096619590653592,0.1,0.0055599212646484375,0.10449099540710449,0.049934134,1.372735,1.0507624590185993,0.0,0.014585552367602367,0.0,200,0.10897350311279297,0.4972839754334874,0.4311848384512529,57200,1.6221848277862143,0.0
286,1.6621453762054443,1.325371905445699,0.6686015369670387,2.0541658668600737,0.5595333955173067,0.0,0.11738939738799418,0.1,0.004914045333862305,0.05547285079956055,0.05016204,1.527941,1.0782234036613092,0.0,0.02630463280913754,0.0,200,0.05433845520019531,0.2966481996008275,0.30801770170121534,57400,0.8312256467354867,0.0
287,1.7182183265686035,0.7311924897009208,0.3385258941969663,1.0919240697452808,0.2705734675461775,0.0,0.11976056926861806,0.1,0.0052509307861328125,0.0696871280670166,0.049502272,1.1750298,1.0435203122652703,0.0,0.014314416436594039,0.0,200,0.08644962310791016,0.3038397235395479,0.2855252731122483,57600,1.017274668596543,0.0
288,1.7574636936187744,1.1047665077027187,0.6149205285646232,1.7036450409937633,0.27439637489378155,0.0,0.11718940634968501,0.1,0.005463600158691406,0.18369150161743164,0.04981421,1.4527025,1.049644931809015,0.0,0.0216508006399568,0.0,200,0.0953984260559082,0.2877337387641414,0.26924785034455,57800,0.5377627081322374,0.0
289,1.6459476947784424,1.9543489995124255,1.399547213975429,3.964178124511675,0.3421359779594177,0.0,0.11959497336271431,0.1,0.0033202171325683594,0.05773043632507324,0.04950856,1.3563343,1.140115338579356,0.0,0.03804784891461147,0.0,200,0.07540154457092285,0.5187699549091507,0.46102166076670176,58000,0.6255162781504158,0.0
290,1.7021911144256592,1.1738696120650323,0.6992005606119074,1.848876162412615,0.03811651224701255,0.0,0.11268210660640686,0.1,0.003103017807006836,0.06766295433044434,0.049185824,1.0068568,1.1434907659279239,0.0,0.023240214462844862,0.0,200,0.03729367256164551,0.28430627347265225,0.2928206929525242,58200,0.4693574418741784,0.0
291,1.6586205959320068,1.4963340091595851,0.8945796136494204,2.6277421649057926,0.40418417295037046,0.0,0.12478512087985474,0.1,0.003116607666015625,0.05513477325439453,0.049960855,1.2418244,1.17877509025109,0.0,0.02950424713660098,0.0,200,0.05478978157043457,0.28549035736474604,0.2760900931492966,58400,0.754587624394656,0.0
292,1.74831223487854,1.304936845863741,0.5391958443950235,1.8759697277705845,0.6731769954144713,0.0,0.1196186875560068,0.1,0.02097344398498535,0.10212254524230957,0.05080237,1.0055591,1.191391265812355,0.0,0.025509907606765154,0.0,200,0.08051729202270508,0.185293464638024,0.18164199907084827,58600,0.4610582892253791,0.0
293,1.7183706760406494,1.8369321248172894,0.6269756421140593,2.448595552706396,0.830508119601843,0.0,0.11619619605892283,0.1,0.0030527114868164062,0.05477643013000488,0.04990349,1.3312709,1.2559453517128487,0.0,0.036524786091552595,0.0,200,0.0294492244720459,0.17644177162767002,0.15894606079538573,58800,0.5750067861487014,0.0
294,1.756272554397583,1.515400736826488,0.7194785854694221,2.5405601381712146,0.7702988441480124,0.0,0.12290538159887629,0.1,0.0031728744506835938,0.05683708190917969,0.050628614,1.2430781,1.2818908902242128,0.0,0.029969749661735393,0.0,200,0.06172895431518555,0.20582629464636362,0.20187540625599612,59000,1.1667857948385814,0.0
295,1.7894577980041504,1.1566977159454785,0.5223798216692486,1.52931916143092,0.2612157542940835,0.0,0.12888906794288385,0.1,0.005177497863769531,0.06047368049621582,0.05008068,0.6326403,1.2693715727963393,0.0,0.02294279262134437,0.0,200,0.06108736991882324,0.3275247553308605,0.28976321807221683,59200,1.1120124195016585,0.0
296,1.7077763080596924,0.9904140702186292,0.48308093671761715,1.7185038710129903,0.4612280724789049,0.0,0.11577132642433151,0.1,0.003222227096557617,0.05511474609375,0.050771352,0.9815159,1.2414758225385683,0.0,0.019790848374212626,0.0,200,0.016633272171020508,0.4352032581374668,0.2851473793520542,59400,0.5695326785584011,0.0
297,1.7403984069824219,0.97982334112745,0.5885182116826467,1.9974875178383467,0.6075665030954704,0.0,0.12030099180401124,0.1,0.00508427619934082,0.07011747360229492,0.050039444,2.2814429,1.2153105743974566,0.0,0.019503389732536514,0.0,200,0.039125680923461914,0.3993135116000274,0.3245158074536738,59600,1.0308700945652103,0.0
298,1.7442567348480225,1.6360679032060066,0.9963055386006314,3.242862834311532,0.5407761998704399,0.0,0.11133902828385155,0.1,0.005482912063598633,0.056473493576049805,0.049211804,2.5412264,1.2573863072783116,0.0,0.032184988173598536,0.0,200,0.10969996452331543,0.3651023690508685,0.37782888996952724,59800,0.7942004685829726,0.0
299,1.7503011226654053,1.586813145973141,0.6226507540084938,2.558165051548474,0.8694044212682154,0.0,0.12492040981540002,0.1,0.010298728942871094,0.05977010726928711,0.050015483,1.2780945,1.2903289911477944,0.0,0.03123565408519947,0.0,200,0.10662531852722168,0.24144839832974424,0.20098666344358468,60000,1.5817452614311103,0.0
300,1.725222110748291,1.3399180395780492,0.7789663711973708,2.437448462764701,0.5903369962967198,0.0,0.12166541681155951,0.1,0.007609844207763672,0.06551861763000488,0.049895298,2.1218553,1.29528789599082,0.0,0.02670226013009711,0.0,200,0.04297065734863281,0.2765726231497443,0.2744283707282547,60200,1.4756097151064933,0.0
301,1.812009334564209,0.690599095783688,0.19143086678736773,0.8257125419556866,0.36147378863260404,0.0,0.12504915531423214,0.1,0.0050923824310302734,0.08116507530212402,0.049935274,1.3009225,1.234819015970107,0.0,0.01347722021452472,0.0,200,0.0421903133392334,0.8808284625429559,0.8150950339433162,60400,1.869360704516663,0.0
302,1.7702832221984863,1.9078493219752617,1.2622553757859325,3.9001207788226817,0.6797006674920286,0.0,0.11459151159344794,0.1,0.0030786991119384766,0.0597836971282959,0.050498504,1.8669947,1.3021220465706225,0.0,0.03703727013762137,0.0,200,0.023124217987060547,0.42734271021372333,0.41244416903243025,60600,1.0554330979092192,0.0
303,1.6333043575286865,1.7678531512282725,0.8491097166372485,3.0287827728307795,0.7020658643295593,0.0,0.12285760853845877,0.1,0.0946044921875,0.11592888832092285,0.050324384,1.6197659,1.3486951570363876,0.0,0.035016902974992235,0.0,200,0.07320070266723633,0.27828158600653563,0.25927941921119163,60800,1.3655995592375536,0.0
304,1.671032428741455,1.0972132649057385,0.46370337968874414,1.8191556981939965,0.5250860385305435,0.0,0.1174440593516842,0.1,0.0033321380615234375,0.05724358558654785,0.049108233,1.9284788,1.3235469678233227,0.0,0.021760499864633465,0.0,200,0.034398794174194336,0.3047777829234064,0.31118578811512654,61000,1.5521095227360162,0.0
305,1.694051742553711,1.1169498107407128,0.49270502889703716,1.9479714492038205,0.6654162866414278,0.0,0.11906110701108696,0.1,0.003262758255004883,0.09804344177246094,0.049756836,1.6891899,1.3028872521150618,0.0,0.022104065835727986,0.0,200,0.03810381889343262,0.20887390801285943,0.18702479941254016,61200,1.0196818716109184,0.0
306,1.7037465572357178,1.747120179946425,0.7740784634979122,2.413850426084535,0.46836789663429146,0.0,0.11923238808763748,0.1,0.0032501220703125,0.056130409240722656,0.050321564,1.1354234,1.3473105448981983,0.0,0.03402965559300582,0.0,200,0.0474390983581543,0.25943364517919265,0.25512150961853625,61400,1.0100846549108984,0.0
307,1.6585290431976318,1.2698605129443048,0.8019531285798763,2.3080955127583027,0.1706383674425494,0.0,0.11606379254507863,0.1,0.0031366348266601562,0.05542588233947754,0.049868025,1.3947989,1.3395655417028092,0.0,0.02485778380194044,0.0,200,0.033620595932006836,0.30856189444818677,0.3056325184115555,61600,1.379181219194044,0.0
308,1.6890134811401367,1.8385044956915424,0.4414242621830002,2.3180873755316744,1.1713581541372244,0.0,0.11948170073372276,0.1,0.0032389163970947266,0.05604815483093262,0.049837235,1.1642349,1.3894594371016824,0.0,0.03644906184742994,0.0,200,0.0664217472076416,0.1309424902419778,0.11993001435972181,61800,1.048476832927674,0.0
309,1.7273118495941162,1.5420599498486798,0.767471172159288,2.292278563226738,0.30329864833524006,0.0,0.11322354909130504,0.1,0.0065288543701171875,0.1020665168762207,0.049406987,2.193387,1.4047194883763823,0.0,0.030718680130502364,0.0,200,0.06635427474975586,0.2527757222170182,0.2477483704735183,62000,0.7804276760895167,0.0
310,1.7068767547607422,1.5286639549148417,0.6041854076207134,2.226244818900474,0.5662588609036606,0.0,0.11736482188711941,0.1,0.005201816558837891,0.08877897262573242,0.050315466,1.0449144,1.4171139350302282,0.0,0.02973691328898539,0.0,200,0.09185457229614258,0.15838653946242282,0.15454594426547422,62200,0.6870838770972741,0.0
311,1.6853363513946533,1.2567016411896281,0.9165234803241558,2.254685384873002,0.33707833474988014,0.0,0.12343811028546617,0.1,0.003275156021118164,0.06725120544433594,0.05000665,0.9362743,1.4010727056461683,0.0,0.024630936804346852,0.0,200,0.09081196784973145,0.3986152205337809,0.39592138657428677,62400,1.0554109898961836,0.0
312,1.7119760513305664,0.9497920341625239,0.6039581540539012,1.992802237146623,0.5274106053938111,0.0,0.11913511557587866,0.1,0.005362033843994141,0.06455731391906738,0.049774986,1.6807328,1.355944638497804,0.0,0.018710660898849728,0.0,200,0.06634140014648438,0.46919793663715686,0.4152611982392158,62600,0.6558125612426281,0.0
313,1.791616439819336,1.1272986960779836,0.7047823620207674,2.16261095185982,0.3560262789183585,0.0,0.11285806760334166,0.1,0.0031554698944091797,0.0555722713470459,0.049877033,1.3948709,1.333080044255822,0.0,0.02199518475118971,0.0,200,0.04612135887145996,0.37528651299166693,0.34409754444038293,62800,0.582971388932633,0.0
314,1.7209248542785645,1.1698290611754583,0.3513583021016568,1.556073807171459,0.6979053087529464,0.0,0.11458194839392395,0.1,0.0062408447265625,0.05559039115905762,0.050176863,1.2296748,1.3167549459477856,0.0,0.02307269867584119,0.0,200,0.04937863349914551,0.12656016848277377,0.10989314626172447,63000,0.6265257690324678,0.0
315,1.7732634544372559,1.1736044261867722,0.603974681631308,2.1570728470068796,0.531863629080309,0.0,0.11102993898560402,0.1,0.0052378177642822266,0.06818556785583496,0.0499378,2.7614496,1.3024398939716844,0.0,0.023210634987311407,0.0,200,0.09447884559631348,0.23200749713774013,0.23206836771707218,63200,0.5735160636506973,0.0
316,1.7775824069976807,1.6451119156043983,1.269146371725339,3.711897249888655,0.42203629424468986,0.0,0.12092063122199263,0.1,0.07233548164367676,0.08790874481201172,0.049577065,1.782951,1.3367070961349559,0.0,0.03234326823259634,0.0,200,0.07062602043151855,0.4428284671830829,0.4384116639607987,63400,0.6336335756709502,0.0
317,1.8263769149780273,1.000654242355541,0.7739499752893821,2.290959990387089,0.32130885138384474,0.0,0.11337003597224836,0.1,0.002878904342651367,0.058806419372558594,0.049666833,2.149485,1.3031018107570145,0.0,0.01964456739655217,0.0,200,0.05910944938659668,0.4274381499308167,0.42193068953458196,63600,0.9382478424628875,0.0
318,1.7034435272216797,1.6009298407371118,0.6088435903496762,2.224057946684091,0.6047905545087922,0.0,0.11877148694279493,0.1,0.011151552200317383,0.0565028190612793,0.05020146,1.2653952,1.332884613755024,0.0,0.031913695075382935,0.0,200,0.04277968406677246,0.20561534865181033,0.19839063715653632,63800,0.4864231874997538,0.0
319,1.6088776588439941,1.2044654477634569,0.44359198277921513,1.737358651058643,0.6001136971853059,0.0,0.1227501450220238,0.1,0.00545954704284668,0.09199953079223633,0.049648467,1.1979418,1.3200426971558674,0.0,0.02395792180700226,0.0,200,0.043729305267333984,0.11878630086568903,0.11755965656655953,64000,0.32741201536421527,0.0
320,1.6622869968414307,1.5787133906852586,1.0020443894321758,3.1988892475048405,0.4733959142285104,0.0,0.11801852192542549,0.1,0.005112171173095703,0.05704474449157715,0.050235983,1.4467617,1.3459097665088064,0.0,0.03120664534527797,0.0,200,0.047228336334228516,0.35956622697003715,0.34644755057576965,64200,0.40076349260369465,0.0
321,1.6552681922912598,1.5142872024392455,0.7564222376994982,2.8243920877793682,1.0712818056962634,0.0,0.12334071609130547,0.1,0.0032432079315185547,0.05545401573181152,0.049454737,1.840435,1.3627475101018505,0.0,0.03009957412171469,0.0,200,0.07300353050231934,0.2414902596177617,0.23279137410557513,64400,0.16900243226706765,0.0
322,1.664963722229004,1.590303044484822,0.6027982603323381,2.283695368938308,0.6446570039477358,0.0,0.11900090649993052,0.1,0.0502314567565918,0.1256866455078125,0.05006666,1.29812,1.3855030635401477,0.0,0.031691711847566584,0.0,200,0.05109238624572754,0.15490647013403425,0.1436299614811078,64600,0.15923117943722087,0.0
323,1.6649243831634521,2.234672219068337,0.5348233034261469,3.056701095217298,1.6835520983066614,0.0,0.11421967920821642,0.1,0.00513005256652832,0.05743217468261719,0.049678516,1.6886771,1.4704199790929666,0.0,0.0443453317052624,0.0,200,0.09526944160461426,0.21836410729584568,0.16985609751299863,64800,0.22016407602920987,0.0
324,1.7093355655670166,1.245460058221834,0.709323684797684,2.448613904228237,0.6108569170040541,0.0,0.11336580135345084,0.1,0.0031905174255371094,0.05670166015625,0.05010871,2.1157563,1.4479239870058533,0.0,0.024307404777360205,0.0,200,0.08613157272338867,0.3050755227130106,0.345299940279133,65000,0.21509399576972468,0.0
325,1.6519432067871094,1.3850158658610816,0.4793738513045282,1.987010128161492,0.6554882579307533,0.0,0.12084651217009444,0.1,0.005420207977294922,0.0672609806060791,0.04949093,0.85136855,1.4416331748913762,0.0,0.027524763844383036,0.0,200,0.11051034927368164,0.16683808053690752,0.14763767404489944,65200,1.2326434671278574,0.0
326,1.6597936153411865,1.849241129043789,0.9031736543113335,2.9719031913108704,0.5048522929325886,0.0,0.12235413658957583,0.1,0.003248929977416992,0.06277155876159668,0.0499651,1.1751238,1.4823939703066173,0.0,0.036648386390021916,0.0,200,0.06142878532409668,0.2272292723536902,0.2274916735234136,65400,2.7015441804104117,0.0
327,1.735135793685913,1.167105392606127,0.43431076516991546,1.7879989378802728,0.5759401814713621,0.0,0.11951110990794885,0.1,0.00526881217956543,0.13246870040893555,0.04980968,1.156116,1.4508651125365684,0.0,0.02274063015869086,0.0,200,0.06497049331665039,0.281817820947568,0.2457688789456427,65600,2.528841109948361,0.0
328,1.7594475746154785,1.2613981047770102,0.8905475641160641,2.6599243832296846,0.3462011188720606,0.0,0.12254813069524852,0.1,0.003351926803588867,0.07337546348571777,0.050025433,1.2077693,1.4319184117606125,0.0,0.02498349352098914,0.0,200,0.11855792999267578,0.3872322092503158,0.36165032221627536,65800,1.2476246560087523,0.0
329,1.6973025798797607,0.8165666703644381,0.6530262319653739,1.9088621240746888,0.20454095417826315,0.0,0.12450812921773863,0.1,0.004947185516357422,0.06180429458618164,0.049745798,1.2443974,1.370383237620995,0.0,0.01622665811043031,0.0,200,0.029683828353881836,0.7510621681526322,0.5542947595088705,66000,0.66195249892841,0.0
330,1.7017667293548584,2.1670576110395223,0.6580531727782984,3.152832496587218,1.3781164510209367,0.0,0.11952015793134484,0.1,0.00628209114074707,0.06832742691040039,0.04982598,1.2483643,1.4500506749628477,0.0,0.042841219893680574,0.0,200,0.03908538818359375,0.2844303499579966,0.2922186389964822,66200,0.8477560409195868,0.0
331,1.793398380279541,1.6976895706681558,1.1527807668114258,3.2907131221495685,0.5574634957938889,0.0,0.12189719971031049,0.1,0.0031747817993164062,0.05515933036804199,0.050413232,1.4586064,1.4748145645333786,0.0,0.033266556295262595,0.0,200,0.08918547630310059,0.4046613947210468,0.37766530568288037,66400,0.9947310358758026,0.0
332,1.7374775409698486,1.7280473524190993,0.992098054196771,2.849149814277909,0.13962808452892006,0.0,0.12159904182945025,0.1,0.004793643951416016,0.05606889724731445,0.049889527,1.0835297,1.5001378433219508,0.0,0.03444483701463247,0.0,200,0.09291720390319824,0.3328545005298432,0.32228484395816115,66600,0.8698097237417258,0.0
333,1.7179288864135742,1.1772913589629284,0.6973018606703113,2.2770100823951114,0.38816979246180533,0.0,0.11180958024932316,0.1,0.004681825637817383,0.05888199806213379,0.04947622,2.6857855,1.4678531948860485,0.0,0.023236022353790093,0.0,200,0.04604363441467285,0.33051354461033405,0.32624645250179696,66800,0.8371473550257945,0.0
334,1.7403016090393066,1.0435276182858193,0.5304580747943021,1.93982738303976,0.554789371711043,0.0,0.12041986840118327,0.1,0.003155231475830078,0.05653977394104004,0.04951684,1.3018918,1.4254206372260256,0.0,0.020636449746266376,0.0,200,0.023023366928100586,0.38915111105059064,0.3408066357632644,67000,3.1923036412578214,0.0
335,1.707505702972412,1.1500102770958627,0.6421974470732358,2.238158187478305,0.6121182779279907,0.0,0.11633127571308613,0.1,0.005243062973022461,0.0648345947265625,0.049759366,1.6763122,1.3978796012130095,0.0,0.022444701325870134,0.0,200,0.037351131439208984,0.29525416192993154,0.28712211628380596,67200,0.8519768776510405,0.0
336,1.7370715141296387,1.8303535506386373,0.8625921764208141,3.078913619015796,1.0255159824802142,0.0,0.11272812434438557,0.1,0.005299806594848633,0.060212135314941406,0.049756546,1.8660911,1.4411269961555722,0.0,0.03550711587169639,0.0,200,0.04996228218078613,0.3160399537991892,0.29884860740903557,67400,1.0575691879796074,0.0
337,1.7096314430236816,1.8787318527716526,0.39163377738814736,2.3356565792689086,1.2541390137711925,0.0,0.11934965800512448,0.1,0.005303621292114258,0.06786942481994629,0.049826838,1.1808803,1.4848874818171802,0.0,0.037373769773036254,0.0,200,0.03713417053222656,0.13400529979890133,0.10896147431776268,67600,0.8232406382977283,0.0
338,1.6835782527923584,0.9242957339575604,0.5486495136093549,1.6055213042372092,0.2958910275176672,0.0,0.11653953024776603,0.1,0.0032117366790771484,0.0579380989074707,0.050716266,1.154109,1.4288283070312182,0.0,0.01838888478139056,0.0,200,0.055585622787475586,0.4939410420904712,0.523318740631625,67800,0.45083990303715277,0.0
339,1.6982078552246094,1.1954101605972607,0.858139450831698,2.557897372595306,0.18731432603272813,0.0,0.11730766089918386,0.1,0.0030837059020996094,0.05576610565185547,0.049298387,2.1154518,1.4054864923878225,0.0,0.023869347098063376,0.0,200,0.045085906982421875,0.42126309511472465,0.39598372025982026,68000,0.34641743858982615,0.0
340,1.6894824504852295,1.0299734686218096,0.5222700415909031,1.7777337834384535,0.3527620271492092,0.0,0.11906810120845754,0.1,0.00553584098815918,0.08197164535522461,0.049830176,1.175589,1.3679351900112213,0.0,0.020341181555928928,0.0,200,0.04033613204956055,0.3774229609269848,0.31242133240871484,68200,0.8909690824421818,0.0
341,1.737299919128418,1.4400757916826037,0.230188132719787,1.7493337718417326,1.1186836547076804,0.0,0.12289421968387373,0.1,0.005259275436401367,0.08184432983398438,0.049906503,1.4341922,1.3751492501783598,0.0,0.02740289581879645,0.0,200,0.12482571601867676,0.0827399575886716,0.09436753473609796,68400,0.921058471388328,0.0
342,1.757706642150879,1.0150286519401166,0.7949420292765697,2.2454385156222414,0.0644440708905015,0.0,0.1196293437494791,0.1,0.005143880844116211,0.06654524803161621,0.050000805,1.5413622,1.3391371903545355,0.0,0.020115014073730293,0.0,200,0.03699851036071777,0.4326828963041398,0.41450547741408206,68600,1.3958395769789567,0.0
343,1.6968390941619873,1.8780981653467133,0.9277022417959678,2.9299370041884356,0.8175119649121377,0.0,0.11738269870603991,0.1,0.0031735897064208984,0.059191226959228516,0.050085463,1.3262614,1.3930332878537532,0.0,0.037163900277102764,0.0,200,0.04770803451538086,0.31559169287742017,0.3104339278177713,68800,0.5401338211230471,0.0
344,1.7049057483673096,1.5954294428992495,0.7719665999430553,2.391547936432941,0.33607721619273434,0.0,0.12267175010077129,0.1,0.003119230270385742,0.0569455623626709,0.050083622,1.0625328,1.413272903358303,0.0,0.03174752220185301,0.0,200,0.05938124656677246,0.2479910820959094,0.2272764214377096,69000,0.7388455006800229,0.0
345,1.689283847808838,1.318726759145989,0.5347133713161166,2.2257970392322974,0.8536966280620578,0.0,0.12151955731210332,0.1,0.005048274993896484,0.0629425048828125,0.049990598,1.8066483,1.4038182889370716,0.0,0.025757140247160724,0.0,200,0.030921459197998047,0.17460932613401098,0.1701031143600683,69200,1.2575562091563677,0.0
346,1.7061729431152344,1.7669451775596305,0.8586099318697562,2.5030266114986555,0.36292214579655674,0.0,0.12182778919356463,0.1,0.009212017059326172,0.05664324760437012,0.05050068,1.1534766,1.4401309777993276,0.0,0.03514467089232852,0.0,200,0.06484675407409668,0.23563611303678592,0.2192819585226608,69400,0.8819839093138482,0.0
347,1.76149582862854,2.014845285184396,0.7247235543515385,2.7121331042970187,0.7987847331846176,0.0,0.11893330800491948,0.1,0.0031516551971435547,0.08989167213439941,0.0497631,1.0552595,1.4976024085378346,0.0,0.03936222116505979,0.0,200,0.06702303886413574,0.20060346374725743,0.1643308100907145,69600,0.7626797669744324,0.0
348,1.730541706085205,1.5884161387170772,0.9327283721750457,2.764385985213762,0.38953498739899883,0.0,0.11334977037778433,0.1,0.00526738166809082,0.05960583686828613,0.050260447,1.3498594,1.5066837815557588,0.0,0.030620852621656487,0.0,200,0.04769301414489746,0.25827343832649097,0.2609793584287882,69800,0.7553840394082646,0.0
349,1.6839964389801025,1.6820469538761533,0.9676546385960616,2.754707344809991,0.3658765615377693,0.0,0.11768456063195974,0.1,0.00503087043762207,0.05887794494628906,0.049881384,1.7013948,1.5242200987877983,0.0,0.03351875291917531,0.0,200,0.04878997802734375,0.27769187877055823,0.27508517766935153,70000,0.8153812540981198,0.0
350,1.7145411968231201,1.715370328227564,0.8961629964392874,2.4195308150054142,0.1910819691155406,0.0,0.1173560387533121,0.1,0.0032300949096679688,0.057814598083496094,0.04984561,0.979068,1.5433351217317748,0.0,0.03396450445274961,0.0,200,0.04854702949523926,0.23138326352258437,0.2260510823076756,70200,1.1503649218352023,0.0
351,1.725496768951416,1.0531261135035397,0.536527799737843,1.7824973210578412,0.42235318398116034,0.0,0.11217388825567488,0.1,0.0056989192962646484,0.05698728561401367,0.050421953,2.1453757,1.4943142209089513,0.0,0.021013745497636044,0.0,200,0.03139019012451172,0.6234628664138411,0.45096083271567244,70400,1.09150812120741,0.0
352,1.7307155132293701,1.617387722803889,0.6555648300574127,2.5103126438261376,0.6941391746538307,0.0,0.11453045018085686,0.1,0.003216981887817383,0.06642794609069824,0.0496723,1.0038137,1.5066215710984452,0.0,0.031769032367248026,0.0,200,0.05401301383972168,0.15087940257403057,0.16215426417604414,70600,0.8834714202344404,0.0
353,1.743309497833252,1.301587451916239,0.3936759151929113,1.877746695812835,0.7745654081898975,0.0,0.1193927714797582,0.1,0.0029740333557128906,0.05646920204162598,0.049673777,1.306668,1.4861181591802246,0.0,0.02595635549136312,0.0,200,0.05492973327636719,0.12110330939202414,0.11357970793925361,70800,0.9411899541731014,0.0
354,1.7579634189605713,0.7549644171745679,0.3159322682152501,1.1689090851339388,0.3547103366471762,0.0,0.1147136472589156,0.1,0.004593610763549805,0.05521440505981445,0.04978855,0.8220563,1.413002784979659,0.0,0.01474055888243717,0.0,200,0.01963353157043457,0.7550688668848615,0.5456515553382472,71000,1.0585321741700013,0.0
355,1.7603237628936768,1.7682999510307615,1.2820043891723283,3.691117971840156,0.08274132611491883,0.0,0.1163655522636949,0.1,0.0033540725708007812,0.0757896900177002,0.049901523,1.358514,1.4485325015847694,0.0,0.034359942305500574,0.0,200,0.052715301513671875,0.4515800122602407,0.45478216883478984,71200,1.057575098633703,0.0
356,1.7378041744232178,1.3885173674703855,0.6894259590525962,2.2016726162310922,0.37929286557044806,0.0,0.11412008787532246,0.1,0.01935291290283203,0.16215181350708008,0.049921397,1.6715823,1.442530988173331,0.0,0.02749479141142707,0.0,200,0.16297268867492676,0.21396411857641914,0.20995657932037157,71400,0.8556771062636989,0.0
357,1.6815767288208008,0.9051550048350308,0.4626708577839904,1.6594212071803363,0.45819177377543546,0.0,0.11666801581912774,0.1,0.003245115280151367,0.05620241165161133,0.04983161,1.1496564,1.3887933898395008,0.0,0.017478000668596456,0.0,200,0.02746438980102539,0.3111734367607614,0.29414918172669724,71600,0.7780182962235855,0.0
358,1.6459221839904785,1.7603865026988474,1.132864876774783,3.678425904129313,0.8413262889336393,0.0,0.11612639616933754,0.1,0.0032722949981689453,0.05701494216918945,0.050031547,1.8746692,1.4259527011254356,0.0,0.034808719441723465,0.0,200,0.04047846794128418,0.3728201840605554,0.36249960465167747,71800,0.773636522064416,0.0
359,1.7182996273040771,1.7864067633538254,1.0053113721871194,2.8883040908865314,0.5101374399572927,0.0,0.11610858331809736,0.1,0.005406856536865234,0.07429313659667969,0.049737882,1.249079,1.4619981073482746,0.0,0.03537588397983414,0.0,200,0.05324411392211914,0.32418685182554047,0.30460973220292065,72000,0.8512838011559586,0.0
360,1.7106709480285645,1.8139933357742988,0.6839186828287716,2.4634928829107174,0.6720050999219259,0.0,0.11835155202038201,0.1,0.003198862075805664,0.055635690689086914,0.050206967,0.9859022,1.4971976301908771,0.0,0.03598330620046546,0.0,200,0.043810367584228516,0.19118997644736813,0.15264466743685431,72200,0.8472508606038792,0.0
361,1.6993885040283203,1.2111427639892989,0.5569046492138433,2.1336216003637714,0.6752043689702246,0.0,0.11817259836407737,0.1,0.003076314926147461,0.05911850929260254,0.049928017,1.6819268,1.4685921435707194,0.0,0.02390417469419632,0.0,200,0.13150334358215332,0.3090245843593471,0.3426572438057321,72400,1.2692659122927898,0.0
