Iter | Sampling Pol | Evaluation Pol | Best (Sampled) 
   0  4.03  4.87 -100000000.00 
   1  3.54  3.85  4.03 
   2  2.26  3.85  4.03 
   3  4.06  3.80  4.03 
   4  3.52  4.36  4.06 
   5  2.50  3.52  4.06 
   6  4.04  3.54  4.06 
   7  3.61  3.68  4.06 
   8  4.03  3.95  4.06 
   9  3.26  3.77  4.06 
  10  2.01  3.70  4.06 
  11  2.81  3.63  4.06 
  12  4.52  3.20  4.06 
  13  4.05  4.20  4.52 
  14  4.30  4.02  4.52 
  15  3.78  3.80  4.52 
  16  2.56  3.96  4.52 
  17  3.29  3.87  4.52 
  18  2.01  3.96  4.52 
  19  3.81  3.85  4.52 
  20  2.27  4.04  4.52 
  21  4.03  3.19  4.52 
  22  3.43  3.86  4.52 
  23  4.02  3.79  4.52 
  24  4.03  3.89  4.52 
  25  2.81  3.52  4.52 
  26  3.79  4.87  4.52 
  27  4.03  3.46  4.52 
  28  4.03  4.06  4.52 
  29  3.52  3.78  4.52 
  30  4.02  3.54  4.52 
  31  4.04  3.69  4.52 
  32  4.03  3.88  4.52 
  33  2.76  3.81  4.52 
  34  4.05  3.97  4.52 
  35  3.78  4.21  4.52 
  36  3.82  4.30  4.52 
  37  2.80  4.29  4.52 
  38  4.13  3.45  4.52 
  39  4.57  3.61  4.52 
  40  3.28  3.69  4.57 
  41  3.03  3.88  4.57 
  42  4.56  3.12  4.57 
  43  3.30  4.21  4.57 
  44  4.01  4.04  4.57 
  45  1.50  3.55  4.57 
  46  4.51  4.12  4.57 
  47  3.27  4.32  4.57 
  48  3.28  4.05  4.57 
  49  4.03  3.61  4.57 
  50  4.04  3.53  4.57 
  51  4.03  3.39  4.57 
  52  4.60  3.44  4.57 
  53  4.56  3.94  4.60 
  54  3.84  3.37  4.60 
  55  4.02  3.61  4.60 
  56  4.03  4.21  4.60 
  57  3.27  3.61  4.60 
  58  3.01  4.21  4.60 
  59  3.83  3.88  4.60 
  60  4.04  3.94  4.60 
  61  4.03  3.29  4.60 
  62  4.03  4.21  4.60 
  63  4.12  3.96  4.60 
  64  4.02  3.95  4.60 
  65  3.01  4.37  4.60 
  66  5.41  4.12  4.60 
  67  3.53  4.21  5.41 
  68  3.77  3.77  5.41 
  69  4.05  3.70  5.41 
  70  4.02  4.89  5.41 
  71  4.04  3.70  5.41 
  72  3.78  3.61  5.41 
  73  3.54  3.62  5.41 
  74  3.27  4.73  5.41 
  75  3.58  3.89  5.41 
  76  4.07  4.28  5.41 
  77  4.61  3.95  5.41 
  78  1.51  3.94  5.41 
  79  4.01  3.52  5.41 
  80  3.77  3.52  5.41 
  81  4.04  3.20  5.41 
  82  3.69  3.27  5.41 
  83  4.59  3.44  5.41 
  84  3.52  3.70  5.41 
  85  4.05  3.72  5.41 
  86  3.30  2.36  5.41 
  87  4.12  4.20  5.41 
  88  2.05  4.91  5.41 
  89  4.01  3.61  5.41 
  90  4.02  3.95  5.41 
  91  4.06  4.19  5.41 
  92  4.62  3.86  5.41 
  93  4.04  3.28  5.41 
  94  4.58  2.69  5.41 
  95  2.78  3.94  5.41 
  96  3.18  3.60  5.41 
  97  3.88  3.96  5.41 
  98  4.12  3.28  5.41 
  99  3.30  3.94  5.41 
 100  3.52  3.99  5.41 
 101  4.55  4.04  5.41 
 102  4.08  3.88  5.41 
 103  4.01  3.88  5.41 
 104  2.76  3.22  5.41 
 105  5.08  3.44  5.41 
 106  2.01  4.05  5.41 
 107  2.51  3.63  5.41 
 108  4.03  4.17  5.41 
 109  4.08  4.24  5.41 
 110  6.19  3.83  5.41 
 111  3.01  3.84  6.19 
 112  2.00  4.28  6.19 
 113  3.82  4.74  6.19 
 114  4.05  3.77  6.19 
 115  2.81  3.76  6.19 
 116  4.01  3.93  6.19 
 117  4.58  3.67  6.19 
 118  3.55  4.01  6.19 
 119  4.10  3.60  6.19 
 120  3.76  3.68  6.19 
 121  3.28  3.85  6.19 
 122  4.03  3.19  6.19 
 123  4.04  3.77  6.19 
 124  4.01  3.69  6.19 
 125  4.01  3.60  6.19 
 126  4.04  3.60  6.19 
 127  4.56  3.36  6.19 
 128  4.02  3.51  6.19 
 129  4.05  2.92  6.19 
 130  4.02  3.01  6.19 
 131  4.02  3.03  6.19 
 132  2.76  3.52  6.19 
 133  4.02  3.94  6.19 
 134  4.03  3.26  6.19 
 135  4.05  3.94  6.19 
 136  3.26  3.95  6.19 
 137  4.01  3.43  6.19 
 138  4.02  3.52  6.19 
 139  4.01  3.11  6.19 
 140  2.30  3.34  6.19 
 141  3.04  3.60  6.19 
 142  2.79  3.96  6.19 
 143  4.04  4.03  6.19 
 144  4.01  3.52  6.19 
 145  3.03  4.12  6.19 
 146  2.82  3.86  6.19 
 147  3.02  3.94  6.19 
 148  4.28  3.56  6.19 
 149  4.04  4.29  6.19 
 150  2.76  3.71  6.19 
 151  4.59  4.03  6.19 
 152  4.56  3.45  6.19 
 153  4.04  3.68  6.19 
 154  4.11  4.01  6.19 
 155  3.28  4.15  6.19 
 156  5.87  3.63  6.19 
 157  2.83  3.54  6.19 
 158  4.02  4.06  6.19 
 159  5.46  4.13  6.19 
 160  3.00  3.90  6.19 
 161  3.52  3.83  6.19 
 162  2.52  4.03  6.19 
 163  4.05  4.14  6.19 
 164  4.02  4.19  6.19 
 165  3.55  4.05  6.19 
 166  4.05  4.27  6.19 
 167  4.08  4.06  6.19 
 168  1.81  3.63  6.19 
 169  4.08  3.22  6.19 
 170  4.22  3.39  6.19 
 171  4.19  4.58  6.19 
 172  4.04  4.24  6.19 
 173  2.76  4.22  6.19 
 174  4.57  3.98  6.19 
 175  4.02  2.94  6.19 
 176  4.07  3.95  6.19 
 177  4.64  3.65  6.19 
 178  4.03  4.05  6.19 
 179  3.82  3.46  6.19 
 180  3.83  4.28  6.19 
 181  2.77  4.30  6.19 
 182  4.06  4.02  6.19 
 183  3.81  4.05  6.19 
 184  4.06  3.43  6.19 
 185  3.31  3.71  6.19 
 186  2.58  3.45  6.19 
 187  3.82  4.31  6.19 
 188  4.27  4.06  6.19 
 189  0.52  3.84  6.19 
 190  3.31  3.54  6.19 
 191  3.27  3.84  6.19 
 192  4.02  3.85  6.19 
 193  4.02  3.65  6.19 
 194  3.09  3.40  6.19 
 195  5.12  4.55  6.19 
 196  4.02  4.05  6.19 
 197  3.51  3.20  6.19 
 198  3.07  4.03  6.19 
 199  4.24  3.79  6.19 
 200  3.35  3.97  6.19 
 201  4.56  3.63  6.19 
 202  4.13  3.62  6.19 
 203  3.60  3.12  6.19 
 204  4.05  3.63  6.19 
 205  2.76  3.91  6.19 
 206  4.04  3.48  6.19 
 207  3.79  4.04  6.19 
 208  4.08  3.86  6.19 
 209  4.59  3.12  6.19 
 210  3.82  3.68  6.19 
 211  4.06  3.78  6.19 
 212  3.38  3.20  6.19 
 213  4.08  3.35  6.19 
 214  4.17  3.11  6.19 
 215  3.83  3.69  6.19 
 216  4.07  3.62  6.19 
 217  4.02  3.77  6.19 
 218  4.16  4.25  6.19 
 219  3.61  3.69  6.19 
 220  3.01  3.45  6.19 
 221  2.76  4.37  6.19 
 222  4.10  3.44  6.19 
 223  2.25  3.70  6.19 
 224  4.34  3.61  6.19 
 225  4.09  3.61  6.19 
 226  3.27  4.38  6.19 
 227  2.77  3.61  6.19 
 228  2.50  4.28  6.19 
 229  3.54  3.53  6.19 
 230  4.53  3.60  6.19 
 231  4.03  4.64  6.19 
 232  3.30  2.73  6.19 
 233  3.77  2.80  6.19 
 234  3.51  3.30  6.19 
 235  4.04  3.62  6.19 
 236  4.13  3.91  6.19 
 237  4.06  4.03  6.19 
 238  3.77  3.59  6.19 
 239  4.01  3.73  6.19 
 240  5.16  3.70  6.19 
 241  4.07  3.19  6.19 
 242  5.11  3.36  6.19 
 243  2.32  4.00  6.19 
 244  4.05  3.55  6.19 
 245  4.01  3.61  6.19 
 246  3.77  4.02  6.19 
 247  4.09  3.94  6.19 
 248  3.29  3.63  6.19 
 249  4.05  3.95  6.19 
 250  4.14  4.14  6.19 
 251  3.02  3.24  6.19 
 252  4.29  3.87  6.19 
 253  3.70  3.03  6.19 
 254  4.04  3.78  6.19 
 255  3.27  3.90  6.19 
 256  3.02  3.62  6.19 
 257  4.93  4.05  6.19 
 258  3.56  3.27  6.19 
 259  4.07  3.95  6.19 
 260  4.60  4.38  6.19 
 261  3.31  3.64  6.19 
 262  4.05  3.77  6.19 
 263  3.51  3.70  6.19 
 264  4.07  3.48  6.19 
 265  2.63  3.48  6.19 
 266  2.82  4.52  6.19 
 267  4.04  4.06  6.19 
 268  3.13  4.04  6.19 
 269  3.81  4.04  6.19 
 270  4.04  4.05  6.19 
 271  3.85  3.70  6.19 
 272  4.11  4.15  6.19 
 273  3.76  4.20  6.19 
 274  4.06  3.70  6.19 
 275  6.04  4.04  6.19 
 276  4.08  4.01  6.19 
 277  4.06  3.85  6.19 
 278  3.81  4.05  6.19 
 279  3.08  3.70  6.19 
 280  4.02  3.86  6.19 
 281  3.56  4.00  6.19 
 282  4.57  2.28  6.19 
 283  4.57  3.55  6.19 
 284  4.60  3.54  6.19 
 285  4.27  3.91  6.19 
 286  4.03  3.39  6.19 
 287  5.35  3.94  6.19 
 288  4.02  3.54  6.19 
 289  2.30  4.03  6.19 
 290  3.80  4.21  6.19 
 291  4.17  4.55  6.19 
 292  4.16  3.71  6.19 
 293  2.51  4.03  6.19 
 294  3.88  3.13  6.19 
 295  3.61  3.11  6.19 
 296  1.51  3.27  6.19 
 297  4.06  3.43  6.19 
 298  2.78  3.93  6.19 
 299  4.04  3.78  6.19 
 300  4.56  2.84  6.19 
 301  4.10  3.61  6.19 
 302  2.27  3.95  6.19 
 303  1.80  4.03  6.19 
 304  4.21  3.69  6.19 
 305  4.56  2.44  6.19 
 306  3.04  3.35  6.19 
 307  4.33  3.77  6.19 
 308  4.22  3.44  6.19 
 309  4.02  3.27  6.19 
 310  2.02  4.20  6.19 
 311  5.37  4.02  6.19 
 312  3.30  3.37  6.19 
 313  4.19  2.85  6.19 
 314  4.03  2.77  6.19 
 315  4.05  2.76  6.19 
 316  1.00  3.18  6.19 
 317  4.05  3.60  6.19 
 318  2.82  3.52  6.19 
 319  4.06  2.85  6.19 
 320  4.06  3.86  6.19 
 321  4.02  3.70  6.19 
 322  2.52  3.68  6.19 
 323  4.10  4.03  6.19 
 324  3.63  2.93  6.19 
 325  2.80  3.69  6.19 
 326  1.29  2.62  6.19 
 327  3.04  4.02  6.19 
 328  4.57  3.37  6.19 
 329  4.02  3.61  6.19 
 330  4.69  3.27  6.19 
 331  2.93  3.63  6.19 
 332  4.26  3.61  6.19 
 333  3.05  3.45  6.19 
 334  3.07  4.05  6.19 
 335  3.59  3.60  6.19 
 336  3.75  3.62  6.19 
 337  4.03  4.12  6.19 
 338  4.19  3.74  6.19 
 339  3.78  4.05  6.19 
 340  4.11  2.69  6.19 
 341  3.53  3.69  6.19 
 342  3.29  4.19  6.19 
 343  3.30  4.03  6.19 
 344  2.53  4.23  6.19 
 345  4.06  4.03  6.19 
 346  3.30  3.70  6.19 
 347  2.76  3.77  6.19 
 348  3.09  3.69  6.19 
 349  4.04  3.94  6.19 
 350  4.15  3.44  6.19 
 351  5.70  4.04  6.19 
 352  3.52  2.59  6.19 
 353  2.53  3.35  6.19 
 354  4.10  4.03  6.19 
 355  3.05  3.86  6.19 
 356  3.04  3.35  6.19 
 357  3.82  4.03  6.19 
 358  2.85  4.04  6.19 
 359  4.05  3.71  6.19 
 360  3.57  4.03  6.19 
 361  5.88  3.70  6.19 
 362  2.54  4.38  6.19 
 363  5.08  3.64  6.19 
 364  2.88  3.63  6.19 
 365  3.43  3.05  6.19 
 366  2.78  3.11  6.19 
 367  2.52  4.55  6.19 
 368  4.02  3.62  6.19 
 369  4.60  4.36  6.19 
 370  4.01  4.20  6.19 
 371  3.67  3.29  6.19 
 372  4.03  3.44  6.19 
 373  4.02  3.19  6.19 
 374  3.82  3.27  6.19 
 375  3.84  3.20  6.19 
 376  4.60  3.19  6.19 
 377  2.77  3.68  6.19 
 378  4.12  3.97  6.19 
 379  2.08  2.94  6.19 
 380  4.04  4.03  6.19 
 381  4.54  3.60  6.19 
 382  3.83  3.63  6.19 
 383  4.11  3.44  6.19 
 384  4.56  3.68  6.19 
 385  5.55  3.61  6.19 
 386  3.56  4.04  6.19 
 387  3.51  2.77  6.19 
 388  5.80  3.97  6.19 
 389  3.02  3.61  6.19 
 390  4.09  2.86  6.19 
 391  3.60  3.86  6.19 
 392  4.09  2.86  6.19 
 393  4.65  3.62  6.19 
 394  5.91  2.87  6.19 
 395  4.01  3.11  6.19 
 396  4.80  3.38  6.19 
 397  4.14  4.03  6.19 
 398  3.11  3.29  6.19 
 399  3.04  3.62  6.19 
 400  3.04  3.78  6.19 
 401  4.03  3.71  6.19 
 402  3.08  3.87  6.19 
 403  4.11  3.11  6.19 
 404  1.26  3.36  6.19 
 405  4.22  3.68  6.19 
 406  3.33  3.82  6.19 
 407  4.24  4.04  6.19 
 408  4.19  3.96  6.19 
 409  4.80  3.28  6.19 
 410  2.77  4.04  6.19 
 411  4.64  3.70  6.19 
 412  4.01  3.70  6.19 
 413  3.28  2.93  6.19 
 414  3.53  4.02  6.19 
 415  4.03  3.60  6.19 
 416  4.03  3.76  6.19 
 417  3.88  4.02  6.19 
 418  3.37  3.27  6.19 
 419  3.21  3.17  6.19 
 420  2.80  4.04  6.19 
 421  4.10  4.04  6.19 
 422  4.03  3.37  6.19 
 423  4.03  3.43  6.19 
 424  3.55  3.61  6.19 
 425  5.14  3.60  6.19 
 426  3.55  3.81  6.19 
 427  2.52  4.02  6.19 
 428  2.78  3.18  6.19 
 429  2.83  3.62  6.19 
 430  4.56  3.35  6.19 
 431  2.76  4.03  6.19 
 432  3.59  4.03  6.19 
 433  2.92  3.85  6.19 
 434  3.13  3.27  6.19 
 435  4.00  3.86  6.19 
 436  3.59  3.78  6.19 
 437  3.26  3.87  6.19 
 438  2.27  3.26  6.19 
 439  2.77  3.34  6.19 
 440  4.06  3.76  6.19 
 441  2.78  3.60  6.19 
 442  4.02  3.59  6.19 
 443  3.57  4.01  6.19 
 444  4.30  4.01  6.19 
 445  3.53  3.59  6.19 
 446  2.80  3.94  6.19 
 447  3.09  3.69  6.19 
 448  3.27  3.69  6.19 
 449  3.02  4.01  6.19 
 450  4.08  3.55  6.19 
 451  4.07  3.18  6.19 
 452  4.03  4.01  6.19 
 453  4.05  3.59  6.19 
 454  4.03  3.76  6.19 
 455  4.09  3.19  6.19 
 456  4.10  3.69  6.19 
 457  5.33  3.01  6.19 
 458  6.18  3.76  6.19 
 459  3.11  4.02  6.19 
 460  3.58  4.03  6.19 
 461  4.19  3.84  6.19 
 462  3.09  3.25  6.19 
 463  4.07  3.85  6.19 
 464  3.04  3.36  6.19 
 465  5.13  3.94  6.19 
 466  2.27  3.77  6.19 
 467 11.56  3.55  6.19 
 468  4.06  4.01 11.56 
 469  2.01  3.78 11.56 
 470  4.02  3.60 11.56 
 471  4.07  3.43 11.56 
 472  3.51  3.85 11.56 
 473  5.14  4.02 11.56 
 474  1.28  3.27 11.56 
 475  4.95  3.18 11.56 
 476  4.01  2.68 11.56 
 477  4.13  4.02 11.56 
 478  4.07  4.02 11.56 
 479  3.80  3.27 11.56 
 480  4.06  3.17 11.56 
 481  4.01  3.27 11.56 
 482  3.26  4.03 11.56 
 483  3.27  4.01 11.56 
 484  3.00  4.01 11.56 
 485  4.64  3.78 11.56 
 486  3.49  3.36 11.56 
 487  4.04  3.35 11.56 
 488  4.07  2.77 11.56 
 489  3.51  3.44 11.56 
 490  2.86  3.88 11.56 
 491  4.08  3.60 11.56 
 492  4.17  3.87 11.56 
 493  3.96  3.45 11.56 
 494  4.04  3.52 11.56 
 495  3.03  4.02 11.56 
 496  3.28  3.78 11.56 
 497  4.26  3.59 11.56 
 498  3.48  4.03 11.56 
 499  4.05  3.52 11.56 
 500  2.25  2.85 11.56 
 501  3.32  3.62 11.56 
 502  4.25  4.01 11.56 
 503  3.34  3.59 11.56 
 504  3.56  3.71 11.56 
 505  3.27  3.59 11.56 
 506  4.29  3.18 11.56 
 507  4.20  3.43 11.56 
 508  4.11  3.59 11.56 
 509  4.03  4.01 11.56 
 510  4.01  3.59 11.56 
 511  4.01  3.68 11.56 
 512  4.14  3.61 11.56 
 513  4.20  4.02 11.56 
 514  3.52  3.26 11.56 
 515  2.80  3.76 11.56 
 516  3.51  3.60 11.56 
 517  4.08  3.17 11.56 
 518  7.45  3.50 11.56 
 519  2.54  3.84 11.56 
 520  3.30  3.68 11.56 
 521  1.88  2.94 11.56 
 522  3.03  3.61 11.56 
 523  4.12  3.35 11.56 
 524  3.07  3.51 11.56 
 525  4.56  3.69 11.56 
 526  5.32  3.52 11.56 
 527  3.06  4.02 11.56 
 528  3.51  3.60 11.56 
 529  4.12  4.02 11.56 
 530  2.52  3.76 11.56 
 531  5.34  3.80 11.56 
 532  3.08  3.09 11.56 
 533  4.02  3.69 11.56 
 534  4.02  4.03 11.56 
 535  4.67  3.43 11.56 
 536  3.51  3.59 11.56 
 537  4.22  3.35 11.56 
 538  4.04  3.60 11.56 
 539  3.54  4.01 11.56 
 540  4.04  3.45 11.56 
 541  4.01  3.02 11.56 
 542  4.12  3.51 11.56 
 543  3.69  3.11 11.56 
 544  4.03  3.26 11.56 
 545  4.01  3.61 11.56 
 546  4.03  3.85 11.56 
 547  3.27  3.94 11.56 
 548  3.42  4.03 11.56 
 549  4.10  3.10 11.56 
 550  2.76  4.01 11.56 
 551  4.59  3.35 11.56 
 552  4.22  3.86 11.56 
 553  2.77  3.60 11.56 
 554  2.51  3.68 11.56 
 555  4.18  3.35 11.56 
 556  4.07  3.85 11.56 
 557  4.44  3.68 11.56 
 558  4.63  3.53 11.56 
 559  3.58  3.26 11.56 
 560  5.43  3.87 11.56 
 561  5.14  3.03 11.56 
 562  3.56  3.61 11.56 
 563  9.25  4.02 11.56 
 564  4.01  3.61 11.56 
 565  3.11  3.34 11.56 
 566  4.05  3.87 11.56 
 567  6.70  4.02 11.56 
 568  4.03  3.68 11.56 
 569  3.13  4.01 11.56 
 570  4.11  3.93 11.56 
 571  4.24  3.01 11.56 
 572  3.53  3.61 11.56 
 573  2.56  3.69 11.56 
 574  4.01  3.12 11.56 
 575  4.13  3.95 11.56 
 576  4.17  3.10 11.56 
 577  2.47  3.51 11.56 
 578  2.79  4.02 11.56 
 579  4.07  3.76 11.56 
 580  3.79  3.60 11.56 
 581  3.03  3.99 11.56 
 582  4.07  3.51 11.56 
 583  4.14  3.60 11.56 
 584  4.03  3.76 11.56 
 585  2.28  3.60 11.56 
 586  3.05  3.51 11.56 
 587  4.07  3.44 11.56 
 588  4.03  3.77 11.56 
 589  4.17  3.94 11.56 
 590  4.15  4.01 11.56 
 591  2.79  3.43 11.56 
 592  4.14  3.35 11.56 
 593  4.06  3.61 11.56 
 594  2.86  3.94 11.56 
 595  6.00  3.44 11.56 
 596  3.54  3.77 11.56 
 597  4.06  3.30 11.56 
 598  4.05  3.53 11.56 
 599  4.02  3.68 11.56 
 600  2.68  3.77 11.56 
 601  4.11  4.02 11.56 
 602  4.11  3.34 11.56 
 603  4.42  3.42 11.56 
 604  4.08  3.93 11.56 
 605  4.09  3.10 11.56 
 606  3.26  3.91 11.56 
 607  3.52  3.86 11.56 
 608  4.28  2.94 11.56 
 609  4.27  3.55 11.56 
 610  3.67  4.04 11.56 
 611  4.01  3.18 11.56 
 612  3.04  2.55 11.56 
 613  2.86  3.27 11.56 
 614  5.82  3.59 11.56 
 615  4.10  4.04 11.56 
 616  5.08  3.46 11.56 
 617  7.00  3.78 11.56 
 618  4.05  3.53 11.56 
 619  4.61  3.77 11.56 
 620  3.76  3.26 11.56 
 621  4.66  4.01 11.56 
 622  3.30  3.19 11.56 
 623  4.21  3.43 11.56 
 624  4.91  3.26 11.56 
 625  2.76  3.43 11.56 
 626  3.34  3.68 11.56 
 627  6.42  4.05 11.56 
 628  3.60  3.76 11.56 
 629  3.69  3.09 11.56 
 630  3.83  3.86 11.56 
 631  3.90  3.52 11.56 
 632  4.02  3.69 11.56 
 633  4.07  3.84 11.56 
 634  0.77  3.17 11.56 
 635  2.26  3.35 11.56 
 636  4.06  3.89 11.56 
 637  3.54  4.01 11.56 
 638  4.01  4.01 11.56 
 639  3.85  3.42 11.56 
 640  3.09  3.77 11.56 
 641  4.44  4.02 11.56 
 642  6.21  4.03 11.56 
 643  2.83  3.94 11.56 
 644  4.04  4.03 11.56 
 645  2.75  4.01 11.56 
 646  4.03  3.19 11.56 
 647  4.18  3.78 11.56 
 648  4.21  3.43 11.56 
 649  3.64  3.59 11.56 
 650  2.57  3.34 11.56 
 651  4.03  4.01 11.56 
 652  4.18  3.85 11.56 
 653  4.02  3.51 11.56 
 654  3.47  3.27 11.56 
 655  1.76  4.02 11.56 
 656  3.02  3.36 11.56 
 657  4.20  2.88 11.56 
 658  4.18  3.36 11.56 
 659  2.78  3.86 11.56 
 660  3.55  3.76 11.56 
 661  4.06  3.26 11.56 
 662  3.29  2.93 11.56 
 663  3.51  3.60 11.56 
 664  4.62  3.52 11.56 
 665  4.09  3.70 11.56 
 666  4.06  3.55 11.56 
 667  4.31  3.60 11.56 
 668  4.54  3.70 11.56 
 669  2.90  3.36 11.56 
 670  5.02  4.04 11.56 
 671  2.77  3.86 11.56 
 672  4.06  3.70 11.56 
 673  4.12  2.76 11.56 
 674  4.29  3.18 11.56 
 675  3.80  3.37 11.56 
 676  4.02  3.18 11.56 
 677  4.03  4.03 11.56 
 678  1.25  3.27 11.56 
 679  4.06  3.43 11.56 
 680  3.05  3.69 11.56 
 681  5.23  3.94 11.56 
 682  2.79  3.61 11.56 
 683  1.76  3.61 11.56 
 684  3.77  4.02 11.56 
 685  6.44  4.02 11.56 
 686  4.05  3.27 11.56 
 687  4.03  3.93 11.56 
 688  4.05  3.52 11.56 
 689  4.07  4.01 11.56 
 690  2.83  3.76 11.56 
 691  3.28  3.34 11.56 
 692  4.01  3.69 11.56 
 693  2.31  3.34 11.56 
 694  4.97  3.60 11.56 
 695  4.03  4.03 11.56 
 696  4.64  4.02 11.56 
 697  3.31  3.62 11.56 
 698  6.13  3.94 11.56 
 699  3.09  2.93 11.56 
 700  5.54  2.93 11.56 
 701  1.75  4.12 11.56 
 702  4.02  2.89 11.56 
 703  4.08  3.51 11.56 
 704  3.44  3.43 11.56 
 705  5.54  4.25 11.56 
 706  4.15  3.01 11.56 
 707  9.18  3.51 11.56 
 708  3.63  4.02 11.56 
 709  3.60  3.74 11.56 
 710  4.03  3.46 11.56 
 711  6.32  3.44 11.56 
 712  5.90  3.82 11.56 
 713  3.18  3.82 11.56 
 714  4.03  4.69 11.56 
 715  4.06  3.80 11.56 
 716  4.03  3.90 11.56 
 717  3.53  3.24 11.56 
 718  2.01  5.53 11.56 
 719  3.53  5.38 11.56 
 720  3.03  3.76 11.56 
 721  4.55  4.83 11.56 
 722  5.15  4.15 11.56 
 723  3.40  4.51 11.56 
 724  3.21  3.70 11.56 
 725  2.75  4.19 11.56 
 726  5.07  3.95 11.56 
 727  3.03  3.40 11.56 
 728  6.91  3.91 11.56 
 729  2.82  3.77 11.56 
 730  4.24  3.38 11.56 
 731  4.07  4.68 11.56 
 732  4.11  3.32 11.56 
 733  3.27  3.35 11.56 
 734  4.10  3.58 11.56 
 735  3.90  4.86 11.56 
 736  4.22  3.97 11.56 
 737  4.06  3.52 11.56 
 738  3.57  3.87 11.56 
 739  4.03  4.19 11.56 
 740  3.07  4.04 11.56 
 741  4.19  3.74 11.56 
 742  4.16  3.26 11.56 
 743  4.15  3.70 11.56 
 744  4.14  3.93 11.56 
 745  4.12  4.03 11.56 
 746  4.02  3.76 11.56 
 747  4.12  4.02 11.56 
 748  3.39  3.09 11.56 
 749  5.02  3.77 11.56 
 750  4.12  3.34 11.56 
 751  5.33  3.71 11.56 
 752  3.28  3.68 11.56 
 753  4.02  3.63 11.56 
 754  4.01  3.89 11.56 
 755  3.85  4.52 11.56 
 756  3.02  3.43 11.56 
 757  5.66  3.79 11.56 
 758  2.77  3.61 11.56 
 759  4.02  3.94 11.56 
 760  4.02  3.53 11.56 
 761  4.06  4.03 11.56 
 762  2.26  4.70 11.56 
 763  2.80  3.36 11.56 
 764  4.05  3.72 11.56 
 765  4.29  3.68 11.56 
 766  4.15  4.02 11.56 
 767  4.45  3.45 11.56 
 768  5.62  4.43 11.56 
 769  3.62  3.86 11.56 
 770  3.75  4.09 11.56 
 771  4.11  5.08 11.56 
 772  3.81  3.91 11.56 
 773  4.11  3.20 11.56 
 774  3.41  3.85 11.56 
 775  3.32  3.80 11.56 
 776  4.07  4.39 11.56 
 777  3.59  6.11 11.56 
 778  5.33  6.20 11.56 
 779  4.13  3.32 11.56 
 780  5.60  4.70 11.56 
 781  3.02  4.76 11.56 
 782  3.52  3.15 11.56 
 783  3.89  3.77 11.56 
 784  4.05  4.12 11.56 
 785  4.06  4.62 11.56 
 786  4.06  3.77 11.56 
 787  2.58  5.58 11.56 
 788  4.05  3.27 11.56 
 789  4.03  5.22 11.56 
 790  4.11  2.92 11.56 
 791  4.53  4.95 11.56 
 792  3.56  4.13 11.56 
 793  5.97  4.29 11.56 
 794  3.59  5.00 11.56 
 795  6.79  4.26 11.56 
 796  4.64  5.57 11.56 
 797  2.77  7.99 11.56 
 798  4.04  6.47 11.56 
 799  3.54  5.70 11.56 
 800  3.59  5.60 11.56 
 801  4.10  3.61 11.56 
 802  3.04  3.67 11.56 
 803  5.12  3.02 11.56 
 804  4.15  5.99 11.56 
 805  3.85  4.32 11.56 
 806  4.11  5.47 11.56 
 807  2.98  6.13 11.56 
 808  4.08  5.54 11.56 
 809  3.06  7.42 11.56 
 810  4.01  6.49 11.56 
 811  4.10  5.24 11.56 
 812  6.37  7.87 11.56 
 813  4.05  6.21 11.56 
 814  4.57  4.88 11.56 
 815  4.06  5.79 11.56 
 816  3.84  4.03 11.56 
 817  4.09  5.04 11.56 
 818  4.06  3.87 11.56 
 819  5.85  4.02 11.56 
 820  4.17  7.31 11.56 
 821  3.05  4.04 11.56 
 822  3.52  4.13 11.56 
 823  2.87  3.30 11.56 
 824  4.47  4.80 11.56 
 825  3.28  3.38 11.56 
 826  4.14  3.28 11.56 
 827  3.51  3.96 11.56 
 828  6.87  4.11 11.56 
 829  2.52  3.43 11.56 
 830  5.50  3.44 11.56 
 831  2.76  3.62 11.56 
 832  5.29  3.96 11.56 
 833  4.15  4.96 11.56 
 834  4.06  4.56 11.56 
 835  3.79  5.88 11.56 
 836  4.12  5.45 11.56 
 837  5.22  4.31 11.56 
 838  4.03  5.60 11.56 
 839  4.09  3.73 11.56 
 840  4.03  3.35 11.56 
 841  4.18  5.49 11.56 
 842  4.20  4.34 11.56 
 843  3.29  6.93 11.56 
 844  4.06  5.07 11.56 
 845  4.02  3.35 11.56 
 846  4.01  4.47 11.56 
 847  3.76  5.60 11.56 
 848  4.02  4.31 11.56 
 849  4.05  4.14 11.56 
 850  4.13  3.20 11.56 
 851  4.07  6.24 11.56 
 852  4.04  3.99 11.56 
 853  4.06  4.31 11.56 
 854  3.85  5.00 11.56 
 855  4.11  4.09 11.56 
 856  2.04  5.09 11.56 
 857  4.02  3.56 11.56 
 858  6.32  4.79 11.56 
 859  3.76  6.11 11.56 
 860  4.10  4.26 11.56 
 861  4.05  3.90 11.56 
 862  4.09  3.02 11.56 
 863  4.04  3.62 11.56 
 864  5.12  3.89 11.56 
 865  3.42  4.07 11.56 
 866  4.05  3.14 11.56 
 867  3.08  3.99 11.56 
 868  4.56  4.05 11.56 
 869  3.85  6.56 11.56 
 870  3.61  3.89 11.56 
 871  4.38  4.20 11.56 
 872  4.25  3.83 11.56 
 873  4.19  4.17 11.56 
 874  4.04  3.04 11.56 
 875  7.24  3.97 11.56 
 876  3.01  3.36 11.56 
 877  5.84  4.40 11.56 
 878  3.01  3.62 11.56 
 879  5.70  4.04 11.56 
 880  7.39  5.20 11.56 
 881  4.14  3.92 11.56 
 882  4.16  4.74 11.56 
 883  4.22  3.66 11.56 
 884  4.08  3.63 11.56 
 885  2.00  4.26 11.56 
 886  4.06  3.51 11.56 
 887  4.60  3.37 11.56 
 888  5.59  4.12 11.56 
 889  2.52  3.67 11.56 
 890  2.84  3.67 11.56 
 891  4.08  3.67 11.56 
 892  4.06  4.52 11.56 
 893  2.76  4.15 11.56 
 894  3.56  5.37 11.56 
 895  4.10  4.72 11.56 
 896  3.05  4.64 11.56 
 897  2.55  3.71 11.56 
 898  2.84  3.55 11.56 
 899  3.29  3.88 11.56 
 900  4.12  4.24 11.56 
 901  3.34  3.56 11.56 
 902  3.62  5.64 11.56 
 903  5.10  4.02 11.56 
 904  4.07  4.37 11.56 
 905  3.80  4.47 11.56 
 906  2.89  4.54 11.56 
 907  3.89  5.35 11.56 
 908  2.22  4.32 11.56 
 909  4.05  4.73 11.56 
 910  6.35  4.54 11.56 
 911  6.01  4.98 11.56 
 912  3.01  4.48 11.56 
 913  3.80  3.32 11.56 
 914  3.33  4.11 11.56 
 915  3.92  3.78 11.56 
 916  2.79  3.70 11.56 
 917  3.80  3.21 11.56 
 918  4.81  3.61 11.56 
 919  4.17  4.28 11.56 
 920  3.40  3.92 11.56 
 921  2.80  3.43 11.56 
 922  4.19  3.30 11.56 
 923  4.10  3.57 11.56 
 924  3.29  3.76 11.56 
 925  4.17  2.93 11.56 
 926  4.08  4.17 11.56 
 927  3.16  3.57 11.56 
 928  3.35  4.07 11.56 
 929  4.25  4.03 11.56 
 930  2.02  3.30 11.56 
 931  3.77  4.00 11.56 
 932  2.76  3.64 11.56 
 933  3.56  3.86 11.56 
 934  4.26  3.37 11.56 
 935  4.06  3.78 11.56 
 936  4.33  3.02 11.56 
 937  4.32  3.95 11.56 
 938  3.81  3.38 11.56 
 939  4.12  3.78 11.56 
 940  3.17  4.04 11.56 
 941  4.09  4.03 11.56 
 942  5.07  3.69 11.56 
 943  4.03  3.56 11.56 
 944  4.02  3.71 11.56 
 945  3.45  3.64 11.56 
 946  3.81  2.77 11.56 
 947  3.06  3.29 11.56 
 948  3.77  3.55 11.56 
 949  3.81  4.04 11.56 
 950  2.30  4.04 11.56 
 951  3.09  3.36 11.56 
 952  3.78  3.87 11.56 
 953  4.17  4.02 11.56 
 954  4.08  3.51 11.56 
 955  2.81  4.02 11.56 
 956  4.65  3.35 11.56 
 957  2.80  2.93 11.56 
 958  2.54  3.60 11.56 
 959  4.18  4.02 11.56 
 960  2.80  3.34 11.56 
 961  5.81  4.03 11.56 
 962  3.91  3.36 11.56 
 963  4.37  3.02 11.56 
 964  2.07  3.35 11.56 
 965  4.49  4.02 11.56 
 966  3.57  4.02 11.56 
 967  4.36  3.76 11.56 
 968  4.21  3.94 11.56 
 969  4.08  3.27 11.56 
 970  4.02  3.52 11.56 
 971  3.55  3.63 11.56 
 972  4.17  3.35 11.56 
 973  3.06  3.19 11.56 
 974  4.09  3.77 11.56 
 975  3.51  3.85 11.56 
 976  5.14  3.51 11.56 
 977  2.77  3.60 11.56 
 978  2.15  3.61 11.56 
 979  3.41  3.52 11.56 
 980  4.13  2.93 11.56 
 981  3.28  3.69 11.56 
 982  4.00  3.52 11.56 
 983  3.51  3.10 11.56 
 984  2.07  3.51 11.56 
 985  4.11  2.84 11.56 
 986  5.15  4.01 11.56 
 987  4.01  3.54 11.56 
 988  1.01  3.52 11.56 
 989  3.83  3.77 11.56 
 990  4.01  3.44 11.56 
 991  3.34  4.02 11.56 
 992  3.52  4.02 11.56 
 993  2.51  2.85 11.56 
 994  4.40  3.68 11.56 
 995  4.04  3.77 11.56 
 996  6.85  2.93 11.56 
 997  4.29  3.77 11.56 
 998  3.78  4.03 11.56 
 999  4.06  3.70 11.56 
1000  3.05  4.03 11.56 
1001  4.05  3.77 11.56 
1002  2.91  4.01 11.56 
1003  1.89  3.61 11.56 
1004  3.76  3.52 11.56 
1005  5.06  3.68 11.56 
1006  4.82  3.85 11.56 
1007  4.26  3.18 11.56 
1008  4.55  3.60 11.56 
1009  4.03  3.77 11.56 
1010  4.28  3.35 11.56 
1011  4.05  3.35 11.56 
1012  4.09  3.77 11.56 
1013  5.16  3.85 11.56 
1014  4.02  3.18 11.56 
1015  4.01  3.93 11.56 
1016  4.06  3.35 11.56 
1017  5.10  3.19 11.56 
1018  5.34  3.69 11.56 
1019  3.01  3.64 11.56 
1020  4.02  2.79 11.56 
1021  4.11  3.95 11.56 
1022  4.04  3.47 11.56 
1023  4.12  2.54 11.56 
1024  3.04  3.60 11.56 
1025  4.34  3.34 11.56 
1026  4.03  4.02 11.56 
1027  4.80  3.20 11.56 
1028  4.02  4.02 11.56 
1029  4.12  3.18 11.56 
1030  5.83  2.68 11.56 
1031  2.84  3.35 11.56 
1032  3.77  3.28 11.56 
1033  4.03  3.60 11.56 
1034  4.87  3.02 11.56 
1035  3.62  5.24 11.56 
1036  6.16  3.43 11.56 
1037  4.08  4.09 11.56 
1038  3.13  4.02 11.56 
1039  4.60  3.76 11.56 
1040  3.67  4.05 11.56 
1041  4.06  3.79 11.56 
1042  3.04  3.61 11.56 
1043  4.04  4.03 11.56 
1044  4.12  3.62 11.56 
1045  4.07  3.52 11.56 
1046  3.07  3.35 11.56 
1047  4.01  3.55 11.56 
1048  4.09  3.19 11.56 
1049  4.06  3.83 11.56 
1050  4.13  4.06 11.56 
1051  4.03  2.83 11.56 
1052  4.14  4.05 11.56 
1053  4.04  3.95 11.56 
1054  3.80  3.36 11.56 
1055  7.58  3.64 11.56 
1056  3.52  3.88 11.56 
1057  4.41  3.72 11.56 
1058  3.82  4.14 11.56 
1059  4.04  4.28 11.56 
1060  5.03  3.30 11.56 
1061  3.27  4.04 11.56 
1062  4.83  3.60 11.56 
1063  5.76  4.03 11.56 
1064  4.28  3.53 11.56 
1065  3.57  3.35 11.56 
1066  3.82  4.02 11.56 
1067  3.37  4.32 11.56 
1068  4.05  3.44 11.56 
1069  3.66  3.68 11.56 
1070  3.60  3.27 11.56 
1071  4.05  3.18 11.56 
1072  4.18  3.77 11.56 
1073  4.02  3.78 11.56 
1074  4.65  3.95 11.56 
1075  4.07  3.78 11.56 
1076  3.07  4.07 11.56 
1077  3.53  3.69 11.56 
1078  5.37  3.77 11.56 
1079  4.05  3.95 11.56 
1080  4.12  3.78 11.56 
1081  3.27  3.43 11.56 
1082  4.07  3.53 11.56 
1083  2.79  4.03 11.56 
1084  2.01  4.06 11.56 
1085  4.08  3.22 11.56 
1086  3.76  3.60 11.56 
1087  2.84  4.05 11.56 
1088  3.09  2.78 11.56 
1089  4.14  3.35 11.56 
1090  3.55  3.96 11.56 
1091  2.54  3.40 11.56 
1092  2.76  3.61 11.56 
1093  3.05  3.77 11.56 
1094  4.07  3.27 11.56 
1095  3.78  2.94 11.56 
1096  2.81  3.94 11.56 
1097  3.84  3.93 11.56 
1098  4.10  3.86 11.56 
1099  3.86  4.03 11.56 
1100  4.56  4.03 11.56 
1101  4.20  4.04 11.56 
1102  4.13  3.44 11.56 
1103  4.16  3.37 11.56 
1104  3.26  4.02 11.56 
1105  4.82  4.03 11.56 
1106  4.33  3.35 11.56 
1107  4.06  4.04 11.56 
1108  3.61  3.30 11.56 
1109  3.78  3.96 11.56 
1110  5.83  4.04 11.56 
1111  0.50  3.61 11.56 
1112  3.82  3.69 11.56 
1113  4.07  4.04 11.56 
1114  4.18  3.12 11.56 
1115  4.02  3.94 11.56 
1116  3.32  4.03 11.56 
1117  3.53  3.27 11.56 
1118  4.57  3.11 11.56 
1119  3.78  4.02 11.56 
1120  4.09  3.95 11.56 
1121  7.08  3.75 11.56 
1122  4.07  4.03 11.56 
1123  4.04  3.74 11.56 
1124  4.03  4.05 11.56 
1125  3.53  3.44 11.56 
1126  4.03  3.61 11.56 
1127  4.26  3.36 11.56 
1128  4.57  3.98 11.56 
1129  2.85  2.61 11.56 
1130  4.23  3.44 11.56 
1131  4.55  3.05 11.56 
1132  4.15  3.73 11.56 
1133  6.12  3.85 11.56 
1134  4.00  3.54 11.56 
1135  4.02  3.90 11.56 
1136  3.53  3.22 11.56 
1137  3.55  3.56 11.56 
1138  4.10  3.19 11.56 
1139  3.21  3.71 11.56 
1140  4.14  3.80 11.56 
1141  4.10  4.04 11.56 
1142  3.67  3.55 11.56 
1143  4.03  3.65 11.56 
1144  2.52  3.24 11.56 
1145  4.21  3.78 11.56 
1146  2.28  3.42 11.56 
1147  4.20  3.28 11.56 
1148  2.78  2.86 11.56 
1149  3.03  3.47 11.56 
1150  4.09  3.63 11.56 
1151  3.04  2.55 11.56 
1152  4.12  3.53 11.56 
1153  4.08  3.92 11.56 
1154  4.03  4.01 11.56 
1155  5.09  3.72 11.56 
1156  3.88  4.12 11.56 
1157  4.16  3.83 11.56 
1158  4.06  4.06 11.56 
1159  4.09  3.65 11.56 
1160  3.07  3.61 11.56 
1161  3.26  4.14 11.56 
1162  2.88  3.07 11.56 
1163  6.93  3.92 11.56 
1164  4.09  3.46 11.56 
1165  5.21  2.98 11.56 
1166  3.05  3.98 11.56 
1167  4.14  4.13 11.56 
1168  5.87  4.16 11.56 
1169  4.08  3.90 11.56 
1170  4.57  3.97 11.56 
1171  4.45  3.97 11.56 
1172  4.10  2.80 11.56 
1173  3.83  3.77 11.56 
1174  4.07  3.98 11.56 
1175  3.54  4.16 11.56 
1176  4.40  3.10 11.56 
1177  4.08  3.99 11.56 
1178  4.30  3.90 11.56 
1179  2.04  4.14 11.56 
1180  6.82  3.79 11.56 
1181  3.06  4.12 11.56 
1182  4.14  3.63 11.56 
1183  2.81  4.01 11.56 
1184  2.09  3.48 11.56 
1185  4.19  3.78 11.56 
1186  3.06  3.68 11.56 
1187  4.28  3.75 11.56 
1188  5.14  3.84 11.56 
1189  4.31  3.77 11.56 
1190  3.55  4.17 11.56 
1191  4.30  4.02 11.56 
1192  4.05  4.09 11.56 
1193  3.37  3.23 11.56 
1194  4.10  4.05 11.56 
1195  4.03  3.40 11.56 
1196  3.52  3.71 11.56 
1197  3.36  3.18 11.56 
1198  4.04  3.75 11.56 
1199  4.29  4.07 11.56 
1200  3.08  3.87 11.56 
1201  4.06  3.29 11.56 
1202  4.03  3.67 11.56 
1203  3.05  3.55 11.56 
1204  2.51  4.05 11.56 
1205  3.54  4.04 11.56 
1206  4.62  3.96 11.56 
1207  4.88  4.05 11.56 
1208  3.58  3.50 11.56 
1209  4.37  3.56 11.56 
1210  4.03  3.81 11.56 
1211  3.58  4.13 11.56 
1212  4.08  3.56 11.56 
1213  4.66  3.40 11.56 
1214  3.44  3.85 11.56 
1215  5.11  3.83 11.56 
1216  2.02  4.31 11.56 
1217  4.11  3.63 11.56 
1218  3.52  3.27 11.56 
1219  4.62  3.19 11.56 
1220  2.89  3.46 11.56 
1221  3.39  3.72 11.56 
1222  3.15  3.52 11.56 
1223  2.77  3.89 11.56 
1224  4.04  3.88 11.56 
1225  3.77  3.61 11.56 
1226  3.57  3.94 11.56 
1227  3.55  3.52 11.56 
1228  4.05  4.07 11.56 
1229  3.81  3.97 11.56 
1230  4.08  4.04 11.56 
1231  2.81  4.04 11.56 
1232  3.80  3.72 11.56 
1233  3.06  3.88 11.56 
1234  5.57  2.87 11.56 
1235  4.09  3.70 11.56 
1236  3.27  4.23 11.56 
1237  2.81  3.62 11.56 
1238  4.06  3.46 11.56 
1239  4.07  3.94 11.56 
1240  2.79  3.61 11.56 
1241  4.03  3.63 11.56 
1242  5.71  3.56 11.56 
1243  4.05  3.71 11.56 
1244  4.13  3.19 11.56 
1245  4.15  3.62 11.56 
1246  4.07  3.91 11.56 
1247  2.84  2.83 11.56 
1248  5.03  3.75 11.56 
1249  3.85  3.37 11.56 
1250  4.16  4.92 11.56 
1251  4.11  4.19 11.56 
1252  4.09  3.13 11.56 
1253  4.09  4.04 11.56 
1254  3.88  3.52 11.56 
1255  3.33  3.59 11.56 
1256  4.05  4.34 11.56 
1257  4.01  4.24 11.56 
1258  4.11  3.87 11.56 
1259  4.71  3.60 11.56 
1260  2.85  3.42 11.56 
1261  4.23  3.10 11.56 
1262  4.11  4.04 11.56 
1263  4.68  4.26 11.56 
1264  5.33  4.08 11.56 
1265  3.60  4.20 11.56 
1266  4.13  3.62 11.56 
1267  2.55  2.43 11.56 
1268  4.35  4.22 11.56 
1269  3.81  3.50 11.56 
1270  4.04  3.80 11.56 
1271  4.23  4.29 11.56 
1272  3.04  3.72 11.56 
1273  3.55  3.96 11.56 
1274  4.47  3.86 11.56 
1275  4.05  3.33 11.56 
1276  4.07  4.11 11.56 
1277  4.07  4.06 11.56 
1278  4.07  3.45 11.56 
1279  4.95  3.37 11.56 
1280  4.01  3.94 11.56 
1281  3.07  3.62 11.56 
1282  3.80  3.72 11.56 
1283  4.06  3.65 11.56 
1284  4.11  3.93 11.56 
1285  4.36  3.82 11.56 
1286  4.13  3.14 11.56 
1287  4.08  3.41 11.56 
1288  4.05  4.04 11.56 
1289  4.11  4.76 11.56 
1290  4.04  2.66 11.56 
1291  3.67  3.23 11.56 
1292  3.53  4.06 11.56 
1293  4.04  3.25 11.56 
1294  5.48  3.22 11.56 
1295  2.79  4.35 11.56 
1296  4.10  4.98 11.56 
1297  4.14  3.67 11.56 
1298  3.53  4.28 11.56 
1299  4.27  3.80 11.56 
1300  4.06  4.07 11.56 
1301  3.95  3.70 11.56 
1302  4.16  3.45 11.56 
1303  2.02  2.79 11.56 
1304  2.77  4.09 11.56 
1305  4.40  3.68 11.56 
1306  4.03  4.09 11.56 
1307  6.27  3.87 11.56 
1308  3.66  3.14 11.56 
1309  2.06  3.95 11.56 
1310  4.01  3.11 11.56 
1311  4.15  3.70 11.56 
1312  4.20  3.61 11.56 
1313  4.05  4.45 11.56 
1314  3.93  4.03 11.56 
1315  3.22  3.64 11.56 
