iteration,time_sampling,stoc_pol_mean,stoc_pol_std,stoc_pol_max,stoc_pol_min,rollout_success,alpha,delta,time_vpg,time_npg,kl_dist,surr_improvement,running_score,rwd_sparse,rwd_dense,success_percentage,num_samples,time_VF,VF_error_before,VF_error_after,env_samples,eval_score,eval_success
0,1.0155503749847412,-1.973161093101839,0.008313724516821889,-1.9605575898584824,-1.9808849081182256,0.0,0.09606796351066489,0.1,0.0905001163482666,0.10988259315490723,0.05230419,1.5061156,-1.973161093101839,0.0,-0.02630385088999411,0.0,81,0.004600048065185547,0.8853407528097943,0.8853407528097943,81,-1.966579473004533,0.0
1,0.9868838787078857,-1.9634898196653419,0.014528976650455643,-1.9395490693949249,-1.9776601937261655,0.0,0.12219358557138522,0.1,0.0019457340240478516,0.045881032943725586,0.053731516,1.0320133,-1.9721939657581895,0.0,-0.02616852599332478,0.0,113,0.055480241775512695,0.881172496143681,0.881172496143681,194,-1.963705256118353,0.0
2,1.0541846752166748,-1.9736402737324141,0.010589885407737323,-1.9594577927810546,-1.984373729613737,0.0,0.10113305753231527,0.1,0.07598280906677246,0.259352445602417,0.050084256,1.9207213,-1.9723385965556122,0.0,-0.02631606522440246,0.0,85,0.0023450851440429688,0.8843874848409072,0.8843874848409072,279,-1.9691866458362028,0.0
3,1.01350736618042,-1.9760686773666214,0.012228999653585228,-1.9549119382692195,-1.983852903129651,0.0,0.11189696215877966,0.1,0.001990079879760742,0.038051605224609375,0.051436808,1.2914066,-1.972711604636713,0.0,-0.026337300277107276,0.0,103,0.0436248779296875,0.8832475053689788,0.8832475053689788,382,-1.9721078874337115,0.0
4,1.0489366054534912,-1.9630698293850692,0.018489646449935452,-1.9334785305830233,-1.9836848254519357,0.0,0.11186142082703217,0.1,0.06751465797424316,0.07495951652526855,0.05085044,1.2333143,-1.9717474271115487,0.0,-0.02616942112060732,0.0,107,0.060051918029785156,0.8812742102126347,0.8812742102126347,489,-1.9700236377908198,0.0
5,1.0872633457183838,-1.980696392978912,0.006653513898627873,-1.9693286550726574,-1.985572805388756,0.0,0.09639562299904439,0.1,0.06485486030578613,0.14626669883728027,0.05000638,1.629779,-1.972642323698285,0.0,-0.026401130025417375,0.0,65,0.002022266387939453,0.8890862262290082,0.8890862262290082,554,-1.9689941022466895,0.0
6,1.1705586910247803,-1.97569131175017,0.014521312082882995,-1.952313834397304,-1.9899043276659325,0.0,0.10962699571264871,0.1,0.042682647705078125,0.0406184196472168,0.050811697,2.8094912,-1.9729472225034737,0.0,-0.02633139445532636,0.0,93,0.002240896224975586,0.8836140386892488,0.8836140386892488,647,-1.9666536410275224,0.0
7,1.152132272720337,-1.9712515088539355,0.01692822204526346,-1.9428066843947485,-1.9845056028035681,0.0,0.10416946622307852,0.1,0.0019683837890625,0.03818464279174805,0.05150793,1.5559006,-1.9727776511385198,0.0,-0.026283255356585124,0.0,79,0.0019979476928710938,0.8854385155037234,0.8854385155037234,726,-1.9686838026506814,0.0
8,1.0930266380310059,-1.982081620461723,0.003075208790243433,-1.9787582379482298,-1.9858051836109822,0.0,0.0908062123784063,0.1,0.0018267631530761719,0.036580562591552734,0.051322516,4.2046595,-1.97370804807084,0.0,-0.026419112637819687,0.0,66,0.001882314682006836,0.8881432940709846,0.8881432940709846,792,-1.9698945513079382,0.0
9,1.0281000137329102,-1.982236959898691,0.004004208925833228,-1.976167549907488,-1.9874218051590233,0.0,0.09826657513982567,0.1,0.0019936561584472656,0.03998112678527832,0.05033327,2.4718502,-1.9745609392536252,0.0,-0.026420789821246463,0.0,78,0.0021398067474365234,0.886359032010503,0.886359032010503,870,-1.964976078648857,0.0
10,1.196789264678955,-1.963430311033579,0.018695839290446714,-1.9327248010374576,-1.9798404710446147,0.0,0.10791707661687298,0.1,0.0020475387573242188,0.03869462013244629,0.04822677,1.6902053,-1.9734478764316206,0.0,-0.026171615975159324,0.0,90,0.002239704132080078,0.8832459271154842,0.8832459271154842,960,-1.9634376411905834,0.0
11,1.132910966873169,-1.9749261825888995,0.015005735568748232,-1.9496943149854538,-1.988807849452327,0.0,0.12178543835498538,0.1,0.002038240432739258,0.03974604606628418,0.049646445,1.3683844,-1.9735957070473487,0.0,-0.02632571572509381,0.0,118,0.049813270568847656,0.8816021676955466,0.8816021676955466,1078,-1.9679230337597362,0.0
12,1.1352112293243408,-1.974419934164892,0.008350596872318213,-1.9630625844485856,-1.986355721275756,0.0,0.10773855313724463,0.1,0.052121639251708984,0.037872314453125,0.049652368,1.3612783,-1.973678129759103,0.0,-0.026320567483655355,0.0,87,0.002199888229370117,0.8834161426406083,0.8834161426406083,1165,-1.9681661263876078,0.0
13,1.120030403137207,-1.9783957837511805,0.011816994138883373,-1.9581416047862779,-1.9877079027079148,0.0,0.10757705630488999,0.1,0.0018227100372314453,0.0376896858215332,0.04971945,2.0905871,-1.974149895158311,0.0,-0.02636916878327594,0.0,73,0.0021932125091552734,0.8867241570468263,0.8867241570468263,1238,-1.966893302634613,0.0
14,1.09889817237854,-1.9802239068259284,0.002782923868864043,-1.9758073655072665,-1.9833118780922854,0.0,0.10269123971377939,0.1,0.0019266605377197266,0.043183088302612305,0.04937284,1.5036125,-1.9747572963250728,0.0,-0.026394319022294933,0.0,79,0.002218961715698242,0.885472108248051,0.885472108248051,1317,-1.96572430307814,0.0
15,1.1554243564605713,-1.969546692098786,0.012875588860794422,-1.9477100191741585,-1.9809759785107668,0.0,0.11060435460357992,0.1,0.0019998550415039062,0.03859734535217285,0.050035335,1.3634015,-1.9742362359024443,0.0,-0.026252307579104628,0.0,101,0.053174734115600586,0.8837069319811829,0.8837069319811829,1418,-1.960008948941515,0.0
16,1.0576794147491455,-1.9742335706082295,0.009082799524989388,-1.9611252057400497,-1.9861881780364428,0.0,0.10363519976122502,0.1,0.08151817321777344,0.04242706298828125,0.05065009,1.8335121,-1.974235969373023,0.0,-0.026326068701204443,0.0,84,0.0020952224731445312,0.8841903902208313,0.8841903902208313,1502,-1.966158602944721,0.0
17,1.200737714767456,-1.979879410698285,0.005080595177596897,-1.9737585055370297,-1.9877529925244586,0.0,0.1156938110159804,0.1,0.003461122512817383,0.03732705116271973,0.04959876,1.083683,-1.9748003135055492,0.0,-0.0263932184274551,0.0,102,0.05295825004577637,0.8827981807350871,0.8827981807350871,1604,-1.969251216213274,0.0
18,1.223464012145996,-1.9742418824145187,0.00825415588063625,-1.9623125964131196,-1.985383234412791,0.0,0.1199937034985385,0.1,0.06257343292236328,0.043872833251953125,0.050739035,1.181831,-1.974744470396446,0.0,-0.026314252384335504,0.0,100,0.002362489700317383,0.882691159547756,0.882691159547756,1704,-1.9630089912070412,0.0
19,1.1381416320800781,-1.9749447006033527,0.008806728371496701,-1.9610158673965197,-1.9837814143853085,0.0,0.10044476318449137,0.1,0.001983165740966797,0.03756070137023926,0.049564414,1.5512737,-1.974764493417137,0.0,-0.026335061652187186,0.0,79,0.001958608627319336,0.884756622628079,0.884756622628079,1783,-1.964662400261392,0.0
20,1.162172794342041,-1.959769977171354,0.018237101492451488,-1.935849989239821,-1.9855201648041703,0.0,0.11004387150891837,0.1,0.0020847320556640625,0.04318118095397949,0.04961211,1.3289447,-1.9732650417925588,0.0,-0.026122236333179602,0.0,108,0.07449150085449219,0.8814822134849704,0.8814822134849704,1891,-1.9604408129531565,0.0
21,1.1262314319610596,-1.971266521032559,0.012595860787498397,-1.9531943435241397,-1.9853545147855576,0.0,0.11002922777230649,0.1,0.0020284652709960938,0.0436246395111084,0.050075095,1.6863877,-1.973065189716559,0.0,-0.026273342059157642,0.0,90,0.0021665096282958984,0.8841765398096936,0.8841765398096936,1981,-1.966404205059665,0.0
22,1.1705827713012695,-0.72211267205442,2.16586966730911,3.029262569391121,-1.983813213074306,0.0,0.11798146042130715,0.1,0.0018982887268066406,0.04251432418823242,0.050794184,1.7254274,-1.8479699379503451,0.0,-0.012953765492927037,0.0,104,0.054466962814331055,0.9755648866164541,0.9755648866164541,2085,-1.9656164292057372,0.0
23,1.1841154098510742,-1.9722428016579872,0.009842574618797964,-1.96256522275706,-1.9879784980193997,0.0,0.11578149769222852,0.1,0.06686735153198242,0.3337593078613281,0.04869166,1.2838082,-1.8603972243211095,0.0,-0.026285870573706845,0.0,108,0.05453181266784668,0.8818707544135226,0.8818707544135226,2193,-1.963884685631619,0.0
24,1.1986823081970215,-0.975526331936438,1.7350275378597595,2.0296027664002914,-1.9840824669261088,0.0,0.11258324094343383,0.1,0.001965045928955078,0.03799319267272949,0.049572933,1.8083857,-1.7719101350826425,0.0,-0.016331254955648355,0.0,96,0.002301454544067383,0.9548833489110282,0.9548833489110282,2289,-1.9577537946110073,0.0
25,1.1672945022583008,-1.955230066175739,0.035162217617301386,-1.8945937605323109,-1.9797800677865296,0.0,0.11214609837842547,0.1,0.0020041465759277344,0.04269838333129883,0.05107037,1.5189571,-1.7902421281919523,0.0,-0.02606103761306444,0.0,107,0.05026054382324219,0.8820785488985358,0.8820785488985358,2396,-1.958027681475749,0.0
26,1.1578702926635742,-1.980564830958473,0.006092168052489448,-1.972586882034006,-1.9891190831464691,0.0,0.10588796849336694,0.1,0.07539582252502441,0.06981372833251953,0.04981137,1.4472046,-1.8092743984686044,0.0,-0.026397683271592524,0.0,82,0.002422332763671875,0.8853328924076134,0.8853328924076134,2478,-1.9556157771184415,0.0
27,1.2028281688690186,-1.9714215244154538,0.011323995454966533,-1.9589620553687774,-1.9878095480625977,0.0,0.11789904446628419,0.1,0.0018513202667236328,0.03837704658508301,0.048809975,1.4334989,-1.8254891110632894,0.0,-0.026275391508120353,0.0,106,0.043717384338378906,0.8821239682074696,0.8821239682074696,2584,-1.9552662365753521,0.0
28,1.2877874374389648,-1.9553417258089814,0.02298983322046605,-1.9166524420162703,-1.9759564602836766,0.0,0.10682705663493094,0.1,0.002168416976928711,0.03924226760864258,0.050449464,1.5271858,-1.8384743725378585,0.0,-0.02608100543229981,0.0,112,0.0502314567565918,0.8805297756103021,0.8805297756103021,2696,-1.9544193487813049,0.0
29,1.210932970046997,-1.9635754428716194,0.016902623010319487,-1.9368575659769365,-1.9823563393078947,0.0,0.11812588805120815,0.1,0.0019404888153076172,0.03993844985961914,0.051643267,1.3025129,-1.8509844795712347,0.0,-0.026173432423546368,0.0,116,0.04960489273071289,0.8807006150721057,0.8807006150721057,2812,-1.9527668055068474,0.0
30,1.178053379058838,-0.22292531436314844,1.787220544997546,2.0239275546823308,-1.983050591200397,0.0,0.11730067604957214,0.1,0.0020499229431152344,0.03804755210876465,0.051959805,1.0296395,-1.6881785630504262,0.0,-0.009632784765706358,0.0,103,0.05127596855163574,1.0025996357595308,1.0025996357595308,2915,-1.9566000408153625,0.0
31,1.1808202266693115,-0.7136728806827144,2.1698277571523303,3.044548793117146,-1.9806241223718282,0.0,0.11673098087883854,0.1,0.001950979232788086,0.038236141204833984,0.049612213,1.7491792,-1.590727994813655,0.0,-0.012837554350928754,0.0,114,0.06166434288024902,0.9688418691596572,0.9688418691596572,3029,-1.9504621186353956,0.0
32,1.2332165241241455,-1.9700744715302663,0.011376054930557511,-1.9520419878217143,-1.981943481887509,0.0,0.10848975262316501,0.1,0.07255911827087402,0.27967357635498047,0.049338598,1.8601271,-1.6286626424853163,0.0,-0.026257240634785302,0.0,98,0.002284526824951172,0.8836212148811252,0.8836212148811252,3127,-1.946238447164372,0.0
33,1.056457757949829,-0.9757016700613471,1.7362660408767703,2.0315837541792217,-1.9871328819568281,0.0,0.10533320595292203,0.1,0.0019702911376953125,0.03928685188293457,0.049764466,1.6059371,-1.5633665452429193,0.0,-0.016336939667705615,0.0,79,0.002074003219604492,0.9706094895831006,0.9706094895831006,3206,-1.9510567734796773,0.0
34,1.0031003952026367,-1.9641736327276986,0.010346818910401002,-1.9481241604652089,-1.9760549419983369,0.0,0.1187700848521153,0.1,0.0022063255310058594,0.039118051528930664,0.04952674,1.2988957,-1.6034472539913973,0.0,-0.026186667072249533,0.0,115,0.051282644271850586,0.8814732953012469,0.8814732953012469,3321,-1.9467322537522316,0.0
35,1.0562138557434082,-0.4683418835047225,1.4990829232687304,1.0315364361290977,-1.983112214317023,0.0,0.11160661188148535,0.1,0.002043008804321289,0.03887534141540527,0.04969719,1.1366707,-1.4899367169427298,0.0,-0.012904147311327229,0.0,100,0.002213716506958008,0.9749718952689458,0.9749718952689458,3421,-1.946687802532918,0.0
36,1.0838816165924072,-1.9652547288323818,0.008378192730183578,-1.953025157420393,-1.976495573423287,0.0,0.11133236859534301,0.1,0.0018050670623779297,0.03842759132385254,0.049675267,1.536416,-1.537468518131695,0.0,-0.026196095174147775,0.0,101,0.05346989631652832,0.8831212095402455,0.8831212095402455,3522,-1.950208715080212,0.0
37,1.0872247219085693,-1.971318221861658,0.009212371978867324,-1.9636358758041461,-1.9864314673675574,0.0,0.11394001162624433,0.1,0.05289959907531738,0.03850364685058594,0.04966469,1.1177181,-1.5808534885046912,0.0,-0.0262744890380577,0.0,103,0.05067586898803711,0.8832118441814929,0.8832118441814929,3625,-1.9450681309618691,0.0
38,1.0688862800598145,-0.9569217591203505,1.7253073342471394,2.0313088350612203,-1.9744868567523663,0.0,0.11079679286371176,0.1,0.0653998851776123,0.053592681884765625,0.050476324,1.9015111,-1.5184603155662573,0.0,-0.01608974708334263,0.0,107,0.060689687728881836,0.9459420933727888,0.9459420933727888,3732,-1.9472896225452037,0.0
39,1.2296042442321777,-0.9619433388228664,1.732986061593961,2.0396659439624143,-1.967279135976575,0.0,0.12107453038426919,0.1,0.06416630744934082,0.2891232967376709,0.04980611,1.6308637,-1.4628086178919182,0.0,-0.01616501671972815,0.0,121,0.05957746505737305,0.9380526596872015,0.9380526596872015,3853,2.0574852830525185,0.0
40,1.1305997371673584,-1.9754522508095056,0.010425635379358443,-1.959747585762082,-1.9882407573020708,0.0,0.10324249443731259,0.1,0.06726527214050293,0.1380293369293213,0.049931567,1.4256946,-1.514072981183677,0.0,-0.02632891278372096,0.0,96,0.0022819042205810547,0.8833442828205352,0.8833442828205352,3949,-1.9397518899263526,0.0
41,1.1153690814971924,-1.961435938135829,0.021867626517092946,-1.935460596857773,-1.9858022293086954,0.0,0.11115421242966594,0.1,0.002109527587890625,0.03702235221862793,0.04985713,1.3900546,-1.5588092768788924,0.0,-0.026144685620184308,0.0,94,0.0022230148315429688,0.8836890250587873,0.8836890250587873,4043,-0.940010561755043,0.0
42,1.1630537509918213,-1.9589756888148622,0.008102308165343861,-1.9520121687601886,-1.9719333751700359,0.0,0.12022894209255597,0.1,0.026015520095825195,0.03843951225280762,0.05110674,0.96635395,-1.5988259180724893,0.0,-0.026113090612857548,0.0,115,0.05010199546813965,0.8820351014133834,0.8820351014133834,4158,-0.9437350010555935,0.0
43,1.114389419555664,-1.9584017697016407,0.015068847983272304,-1.9418158097608202,-1.982863533983074,0.0,0.11243272667670985,0.1,0.037665605545043945,0.03689765930175781,0.050217222,1.3006731,-1.6347835032354046,0.0,-0.026114632331466128,0.0,109,0.04143381118774414,0.8814432197219066,0.8814432197219066,4267,-1.9453613695416323,0.0
44,1.1990699768066406,-1.9518014187480284,0.016103850662957095,-1.9349936467048001,-1.9750321793269796,0.0,0.1161213971424366,0.1,0.06806540489196777,0.32057952880859375,0.050584555,0.99240035,-1.666485294786667,0.0,-0.026016759730307745,0.0,120,0.04829859733581543,0.8806974635284902,0.8806974635284902,4387,3.0631955193954066,0.0
45,1.1164746284484863,-1.964293767327867,0.00554662860895206,-1.9563986504100581,-1.97000050219247,0.0,0.11565933875960288,0.1,0.055899858474731445,0.03715252876281738,0.049149405,1.1624085,-1.6962661420407872,0.0,-0.0261828635303396,0.0,116,0.04150056838989258,0.8799804460522799,0.8799804460522799,4503,3.0630362593646665,0.0
46,1.1019806861877441,-1.970998938764184,0.012009816901941191,-1.952091729146197,-1.9850675882732434,0.0,0.11808864681529542,0.1,0.0019114017486572266,0.04062771797180176,0.049723003,1.0644797,-1.7237394217131268,0.0,-0.026277774601307834,0.0,117,0.048274993896484375,0.8814761609056302,0.8814761609056302,4620,-1.939861138350845,0.0
47,1.099719762802124,-1.9633646886217857,0.0214492623701345,-1.9285486600523547,-1.9827141194636577,0.0,0.10933491302721868,0.1,0.06771612167358398,0.09771895408630371,0.050061,1.5279325,-1.7477019484039928,0.0,-0.026169383620202588,0.0,96,0.0022177696228027344,0.8831026598117528,0.8831026598117528,4716,-1.938520717103505,0.0
48,1.2943975925445557,-1.9577402391354863,0.011954964371547607,-1.9456378975653288,-1.9774446180120289,0.0,0.12302688089375749,0.1,0.001871347427368164,0.03803086280822754,0.049982138,1.2333364,-1.7687057774771422,0.0,-0.026108572381571334,0.0,123,0.047318458557128906,0.8800911174255759,0.8800911174255759,4839,-1.9556899393142186,0.0
49,1.1048552989959717,-1.7180570633423362,0.4316344605237582,-0.9705413377972161,-1.9753894445807822,0.0,0.11364263042327226,0.1,0.059180259704589844,0.5513696670532227,0.05012207,1.2494774,-1.7636409060636615,0.0,-0.022921558141068336,0.0,100,0.002122163772583008,0.8744333941059066,0.8744333941059066,4939,-1.9505992123722684,0.0
50,1.1645545959472656,-1.9662629125350775,0.009240127257903453,-1.9524919134039314,-1.9777427934973955,0.0,0.1102404270123976,0.1,0.002103090286254883,0.03731822967529297,0.04930112,0.99238527,-1.783903106710803,0.0,-0.02621496533228637,0.0,110,0.048761606216430664,0.881924639652456,0.881924639652456,5049,-1.9552175291867393,0.0
51,1.1553070545196533,-1.9647727034646978,0.011419921156513085,-1.9538308866902654,-1.9819008375807963,0.0,0.11173929304262512,0.1,0.06853771209716797,0.08116340637207031,0.049055636,1.6144903,-1.8019900663861925,0.0,-0.026194656122320602,0.0,104,0.047408342361450195,0.8818469546382526,0.8818469546382526,5153,-1.9533329697255006,0.0
52,1.2282297611236572,-1.9657658791837636,0.006988529534374636,-1.957311403960854,-1.9747710404377015,0.0,0.11112769358062044,0.1,0.05108141899108887,0.03623700141906738,0.049729217,1.4461782,-1.8183676476659496,0.0,-0.026204847472679968,0.0,112,0.04987740516662598,0.8808030772073174,0.8808030772073174,5265,-1.959199637615778,0.0
53,1.159560203552246,-0.9610388645020267,1.734035794820199,2.0421775528855584,-1.9867959421589416,0.0,0.12172276234878678,0.1,0.06334567070007324,0.13927364349365234,0.05001884,1.6872131,-1.7326347693495574,0.0,-0.016147234759970062,0.0,113,0.04832649230957031,0.9436617149796505,0.9436617149796505,5378,-1.9579286023828286,0.0
54,1.1595683097839355,-1.9707617194405107,0.010681173193864002,-1.955820425219986,-1.9855673124333708,0.0,0.10889023798013105,0.1,0.06458783149719238,0.09484314918518066,0.050771873,1.1264163,-1.7564474643586527,0.0,-0.02627124740476937,0.0,98,0.0019211769104003906,0.8819264789285187,0.8819264789285187,5476,-1.9571973734684167,0.0
55,1.1605024337768555,-1.4728738318862575,0.8696468667903212,0.03338355201143517,-1.9783101207700895,0.0,0.11721329971473451,0.1,0.0019121170043945312,0.04173898696899414,0.050494798,1.362403,-1.7280901011114131,0.0,-0.019628975628389146,0.0,108,0.0471653938293457,0.8856979512612364,0.8856979512612364,5584,-1.9611094994115,0.0
56,1.1185994148254395,-1.2201405019475111,1.303351335452015,1.0372550325718732,-1.9830343202743588,0.0,0.11254129471389174,0.1,0.06730270385742188,0.609870195388794,0.050282806,1.290172,-1.677295141195023,0.0,-0.019597023004765644,0.0,96,0.0028209686279296875,0.9178291043035335,0.9178291043035335,5680,-1.959511001912894,0.0
57,1.1365668773651123,-1.9440373954602848,0.015878705894335328,-1.9249589526534656,-1.9630447653247924,0.0,0.11190189621625012,0.1,0.06185507774353027,0.10127925872802734,0.0503227,1.0838269,-1.7039693666215492,0.0,-0.025923080190416503,0.0,113,0.02714061737060547,0.8804786508818733,0.8804786508818733,5793,-1.9587047085446647,0.0
58,1.0939488410949707,-1.957858443286513,0.01867040198350397,-1.9393446260369651,-1.9808678618446458,0.0,0.11098589073734055,0.1,0.0020384788513183594,0.03440570831298828,0.049790233,1.22194,-1.7293582742880456,0.0,-0.026097456453252316,0.0,102,0.03997087478637695,0.8804278787902055,0.8804278787902055,5895,-1.956311302896311,0.0
59,1.1220486164093018,-1.9639213686938168,0.009780475346143775,-1.9486820194509833,-1.9757185043270746,0.0,0.12098388689709628,0.1,0.06249117851257324,0.3389902114868164,0.04932874,1.0024649,-1.7528145837286229,0.0,-0.02620418700046876,0.0,120,0.03351736068725586,0.8812586086732426,0.8812586086732426,6015,-1.9576427683299213,0.0
60,1.1497328281402588,-1.9649941707651084,0.011943813887947153,-1.949457867259853,-1.976951381964576,0.0,0.11114887571234194,0.1,0.06186318397521973,0.11509895324707031,0.05031389,1.1204693,-1.7740325424322714,0.0,-0.026192582387452704,0.0,110,0.03155875205993652,0.8814562447602816,0.8814562447602816,6125,-1.9501462139418344,0.0
61,1.1323275566101074,-1.690204854295959,0.41571800048688395,-0.9726394491929686,-1.9611593218082215,0.0,0.11952402116378187,0.1,0.0018832683563232422,0.037380218505859375,0.049562383,1.0126139,-1.76564977361864,0.0,-0.025890892958421105,0.0,119,0.043179988861083984,0.8710334309340995,0.8710334309340995,6244,-1.9469331681095516,0.0
62,1.1416866779327393,-0.7007815166117775,2.1693755407018176,3.0566456729384486,-1.9695828029545832,0.0,0.11843538862857005,0.1,0.001975536346435547,0.03484916687011719,0.049504843,1.5882004,-1.6591629479179537,0.0,-0.01268626344297287,0.0,118,0.028876304626464844,0.9671761265267362,0.9671761265267362,6362,-1.94422053522024,0.0
63,1.0623056888580322,-1.964389322893135,0.013614234330715938,-1.9433824017706836,-1.981463983582062,0.0,0.1103975915340897,0.1,0.023914813995361328,0.0380856990814209,0.04905782,1.2588805,-1.689685585415472,0.0,-0.026183653205846393,0.0,104,0.03688359260559082,0.8817199500119461,0.8817199500119461,6466,-1.9431853209034788,0.0
64,1.26320481300354,-1.963534953110898,0.013946796724681828,-1.9478425532712518,-1.9829626720278672,0.0,0.11523134570402102,0.1,0.05894875526428223,0.3342742919921875,0.048763726,1.3551757,-1.7170705221850144,0.0,-0.02617778701932879,0.0,104,0.04753613471984863,0.8816760785401315,0.8816760785401315,6570,-1.941628321125889,0.0
65,1.0883333683013916,-0.9620355814805865,1.7377621579208664,2.047846104347113,-1.9714120635366268,0.0,0.11205281829657555,0.1,0.006997585296630859,0.0342555046081543,0.049389556,1.7161541,-1.6415670281145718,0.0,-0.016157410735038763,0.0,105,0.02460932731628418,0.948514005429771,0.948514005429771,6675,-1.940754998683542,0.0
66,1.1511309146881104,-1.465026689291217,0.8664015273642562,0.035617056453226326,-1.9692393816365628,0.0,0.11956352986103466,0.1,0.0576930046081543,0.08743977546691895,0.049809963,1.5327678,-1.6239129942322363,0.0,-0.022860123766534058,0.0,119,0.04317760467529297,0.8812591278385855,0.8812591278385855,6794,-1.9392051119049,0.0
67,1.2015337944030762,-1.9657635010646881,0.0060710336338081,-1.9582168423998316,-1.9722108893992922,0.0,0.11922388202753506,0.1,0.06383299827575684,0.15197086334228516,0.049363907,1.0978675,-1.6580980449154816,0.0,-0.02620713957792805,0.0,121,0.04138541221618652,0.8816961358536046,0.8816961358536046,6915,-1.9383938231045257,0.0
68,1.0862972736358643,-1.96496230829182,0.008533437959501384,-1.952235767582942,-1.9748172988850206,0.0,0.11311360378917734,0.1,0.0017271041870117188,0.034653425216674805,0.049217436,1.5923408,-1.6887844712531155,0.0,-0.026192139878424486,0.0,114,0.045641422271728516,0.8813631278224083,0.8813631278224083,7029,-1.943809465545006,0.0
69,1.148308277130127,-1.965934222781931,0.010286284625910396,-1.9515059142911666,-1.9805055563099452,0.0,0.10884567965929859,0.1,0.06160593032836914,0.3039834499359131,0.050017748,1.1672282,-1.716499446405997,0.0,-0.026209204653719776,0.0,102,0.04230332374572754,0.8822579700208878,0.8822579700208878,7131,-1.9433918763847524,0.0
70,1.1725332736968994,-1.963803790792153,0.002734499486587366,-1.9601814374143816,-1.967024544786474,0.0,0.1100467437646996,0.1,0.0018172264099121094,0.03521370887756348,0.048938084,1.028661,-1.7412298808446127,0.0,-0.02618049581471089,0.0,116,0.03402590751647949,0.8809593027264703,0.8809593027264703,7247,-0.9345279322390135,0.0
71,1.6547338962554932,-1.9700609397845044,0.010870477725538546,-1.9572983430066824,-1.9820577353409292,0.0,0.10442186334593356,0.1,0.06200242042541504,0.32267069816589355,0.049748678,1.4119093,-1.7641129867386018,0.0,-0.02625958360193282,0.0,87,0.002033233642578125,0.8840499756193548,0.8840499756193548,7334,-1.934705082672733,0.0
72,1.1165244579315186,-0.9674528113864749,1.7263191531477506,2.0226160879196384,-1.968152361448092,0.0,0.13560663598358627,0.1,0.0019109249114990234,0.0374140739440918,0.049857713,1.324603,-1.6844469692033892,0.0,-0.016226186784386344,0.0,123,0.04860186576843262,0.9377323016584994,0.9377323016584994,7457,-1.9348547452473246,0.0
73,1.2233059406280518,-1.9551169921345684,0.01818883211743802,-1.9256072687412003,-1.975256804568328,0.0,0.1131978456486919,0.1,0.062093257904052734,0.04109835624694824,0.048914153,1.0000576,-1.7115139714965073,0.0,-0.02606311811449121,0.0,112,0.048256874084472656,0.881218779351426,0.881218779351426,7569,2.0704343245187786,0.0
74,1.0876479148864746,-1.9650148996835797,0.009992333157166642,-1.9528215718241346,-1.9788672442145425,0.0,0.12713775638643363,0.1,0.06183004379272461,0.265733003616333,0.049288705,1.0024365,-1.7368640643152145,0.0,-0.026194570615757876,0.0,125,0.03689694404602051,0.8802382266046632,0.8802382266046632,7694,1.0737405427284903,0.0
75,1.1115384101867676,-1.9611193581689235,0.006866838489543845,-1.9523554887987444,-1.9715401049117198,0.0,0.11931431718921937,0.1,0.0020797252655029297,0.035671234130859375,0.05040716,0.89007014,-1.7592895937005855,0.0,-0.026142329587993094,0.0,122,0.05013751983642578,0.8809298527864634,0.8809298527864634,7816,3.0805409109318718,0.0
76,1.1269867420196533,-1.9620433036100435,0.008494261542606013,-1.9485513559151335,-1.9720672033463023,0.0,0.12202043004791926,0.1,0.002324342727661133,0.03584551811218262,0.050085798,0.9701302,-1.7795649646915312,0.0,-0.026155554177091558,0.0,120,0.03206658363342285,0.8810718455323079,0.8810718455323079,7936,3.0749222372408993,0.0
77,1.1156611442565918,-1.970433086165323,0.011228205717585897,-1.9527302948063827,-1.9836970799555034,0.0,0.11287777223914668,0.1,0.0020186901092529297,0.03647494316101074,0.04995107,1.0978113,-1.7986517768389105,0.0,-0.026275588740328787,0.0,106,0.04330134391784668,0.8824068008539488,0.8824068008539488,8042,2.0701370121488454,0.0
78,1.1329882144927979,-1.450058876674452,0.8657143574825532,0.0493574416576954,-1.9585142010959207,0.0,0.12123024203503009,0.1,0.06103968620300293,0.20505475997924805,0.04953273,1.5097687,-1.7637924868224646,0.0,-0.022662168198376315,0.0,120,0.04615378379821777,0.8817263946712234,0.8817263946712234,8162,2.0726655121916058,0.0
79,1.1450896263122559,-0.9607681852074343,1.7283091824585746,2.0326795953961048,-1.9775022530504418,0.0,0.11127661758270789,0.1,0.05914187431335449,0.2957122325897217,0.049914554,2.0840628,-1.6834900566609616,0.0,-0.016134731391356412,0.0,110,0.04697012901306152,0.9455197840959284,0.9455197840959284,8272,0.07881927968770253,0.0
80,1.150437593460083,-1.9718018156398303,0.007258211420249512,-1.9620237856505245,-1.9824795216500806,0.0,0.1165350587477196,0.1,0.06442451477050781,0.19582581520080566,0.050375994,1.0179358,-1.7123212325588486,0.0,-0.026279426400553953,0.0,117,0.0389864444732666,0.8816673771767496,0.8816673771767496,8389,3.072415075507454,0.0
81,1.1029186248779297,-1.2199430860463534,1.304431232087555,1.0393910019093162,-1.977853980026584,0.0,0.12035699817735257,0.1,0.06228780746459961,0.2798161506652832,0.050020352,1.3996502,-1.663083417907599,0.0,-0.0195946227502845,0.0,116,0.044556379318237305,0.9090404207381099,0.9090404207381099,8505,1.0750648753153185,0.0
82,1.148688554763794,-1.9499145932988038,0.011378659934665166,-1.9308171004991324,-1.9608576091062935,0.0,0.12064170773513377,0.1,0.0021059513092041016,0.03987836837768555,0.050309088,0.82805014,-1.6917665354467197,0.0,-0.026019648314322352,0.0,121,0.0260775089263916,0.8801459321821238,0.8801459321821238,8626,0.07737449805985364,0.0
83,1.0775022506713867,-0.965548781890338,1.7345889987444036,2.0388006257370694,-1.9767640593740956,0.0,0.11446708321464837,0.1,0.0021598339080810547,0.03999209403991699,0.04971898,2.3565557,-1.6191447600910815,0.0,-0.01620879483282915,0.0,121,0.017473936080932617,0.9390413455351478,0.9390413455351478,8747,-1.9258575128609092,0.0
84,1.1702089309692383,-1.2140233847217718,1.309327371457936,1.053762748742807,-1.9804733690062666,0.0,0.1232000825600244,0.1,0.06707477569580078,0.16490626335144043,0.05006718,1.4404078,-1.5786326225541507,0.0,-0.019513057914264546,0.0,122,0.029344558715820312,0.907835896283459,0.907835896283459,8869,3.079093411894931,0.0
85,1.345322847366333,-1.962339986110933,0.008344292817697956,-1.9544721264274043,-1.9743416206163222,0.0,0.11064488181554565,0.1,0.0624394416809082,0.18438100814819336,0.050176162,1.0610414,-1.617003358909829,0.0,-0.026161095118641654,0.0,117,0.05014848709106445,0.8810986421646454,0.8810986421646454,8986,2.073771502144929,0.0
86,1.0799190998077393,-1.9670969363674928,0.009762093974813613,-1.9549247074396776,-1.982201837251886,0.0,0.11414085461972627,0.1,0.061560869216918945,0.038988590240478516,0.05015016,1.1736356,-1.6520127166555953,0.0,-0.026234812037313704,0.0,115,0.032602787017822266,0.8816336705865369,0.8816336705865369,9101,0.06219657680421409,0.0
87,1.0778570175170898,-1.9711936798192635,0.010576476217449919,-1.9561112443519324,-1.9828394327665484,0.0,0.11036793695953703,0.1,0.002520322799682617,0.10709929466247559,0.050134048,1.3402053,-1.6839308129719621,0.0,-0.026273926337281074,0.0,113,0.048193931579589844,0.8817055826813043,0.8817055826813043,9214,-1.9419310832067076,0.0
88,1.104863166809082,-1.9675362049138971,0.010231402242095547,-1.956653569556601,-1.9827141135918402,0.0,0.10997506185078745,0.1,0.04517984390258789,0.03597092628479004,0.04984383,1.2853863,-1.7122913521661558,0.0,-0.02622361684279012,0.0,103,0.03379178047180176,0.8834403054079011,0.8834403054079011,9317,-1.9434636731654775,0.0
89,1.0887081623077393,-1.9734716481327887,0.006976691776782148,-1.9617670936065348,-1.9800791676681635,0.0,0.1058728392986184,0.1,0.06287360191345215,0.16446948051452637,0.050130103,1.3580475,-1.7384093817628192,0.0,-0.026302679728352332,0.0,87,0.0019538402557373047,0.8844552068646023,0.8844552068646023,9404,-1.9419886311510262,0.0
90,1.097881555557251,-1.9716275338289737,0.006238719288745698,-1.9616401302814253,-1.9772513342993232,0.0,0.11203134656320943,0.1,0.002079486846923828,0.037096500396728516,0.050266374,1.0519093,-1.7617311969694347,0.0,-0.026280249120812327,0.0,102,0.040635108947753906,0.8824610470889316,0.8824610470889316,9506,-1.9407285201695226,0.0
91,1.0865998268127441,-1.9593271268703794,0.007721429420750388,-1.9489169206497876,-1.9702988977658225,0.0,0.12090311572434427,0.1,0.05405402183532715,0.07537698745727539,0.049761757,0.8913197,-1.7814907899595291,0.0,-0.026118490539796334,0.0,117,0.04516768455505371,0.8812099350227265,0.8812099350227265,9623,-1.9305812534543694,0.0
92,1.1624295711517334,-1.967046716958872,0.008182859262208535,-1.9562202221818,-1.9778791884509765,0.0,0.11603956321966648,0.1,0.05881142616271973,0.11823177337646484,0.05073865,0.97017443,-1.8000463826594635,0.0,-0.02622143807568754,0.0,104,0.0459437370300293,0.8827428925395093,0.8827428925395093,9727,-1.926690526540903,0.0
93,1.0812327861785889,-1.9583833463237281,0.01881688724487104,-1.9297683798070113,-1.9793920546587058,0.0,0.10682342939445655,0.1,0.02390575408935547,0.03474903106689453,0.0494179,1.2819854,-1.81588007902589,0.0,-0.026109617846031382,0.0,101,0.025329113006591797,0.8813209882782209,0.8813209882782209,9828,-1.9255745891185014,0.0
94,1.1657795906066895,-1.965049221827099,0.01243856803424948,-1.9459688019130763,-1.9792273141157257,0.0,0.11401870681420517,0.1,0.061614036560058594,0.36413049697875977,0.050244566,1.070032,-1.830796993306011,0.0,-0.026195812315510197,0.0,113,0.04009866714477539,0.8816821269401417,0.8816821269401417,9941,-1.931262948222291,0.0
95,1.0678625106811523,-1.2142644555377085,1.3093381217579179,1.0535658098207885,-1.9765190944714843,0.0,0.12068931343633242,0.1,0.001932382583618164,0.03603219985961914,0.05023838,1.461148,-1.769143739529181,0.0,-0.01952093758923231,0.0,115,0.033089399337768555,0.912422047051344,0.912422047051344,10056,-1.9235824361140559,0.0
96,1.1455953121185303,-1.9737716072992593,0.008978397389045748,-1.9598655505219214,-1.983933359665573,0.0,0.11330920933871111,0.1,0.02675795555114746,0.03636646270751953,0.049419988,1.1654719,-1.7896065263061889,0.0,-0.02631003705569485,0.0,114,0.04016900062561035,0.8823410697135197,0.8823410697135197,10170,-1.9257359684935327,0.0
97,1.201413631439209,-1.9658435389605295,0.01508991655580444,-1.9437448980305165,-1.9855200143887957,0.0,0.1060391461328247,0.1,0.032476186752319336,0.03448176383972168,0.049706582,1.1798618,-1.807230227571623,0.0,-0.02620152493395406,0.0,93,0.0021202564239501953,0.881181208661299,0.881181208661299,10263,-1.933721325570182,0.0
98,1.2173843383789062,-0.9701163886582187,1.7342988705673459,2.033733912144708,-1.9851274935652854,0.0,0.11033603240800764,0.1,0.001894235610961914,0.034769296646118164,0.049660917,2.0617855,-1.7235188436802824,0.0,-0.016260352239730942,0.0,102,0.04861640930175781,0.9505822926111606,0.9505822926111606,10365,-1.9379901535945097,0.0
99,1.1711974143981934,-1.9716139700787236,0.009544063532925279,-1.9559595794511275,-1.9818393056437538,0.0,0.11080619821364919,0.1,0.06279826164245605,0.12538576126098633,0.048926055,1.2509578,-1.7483283563201266,0.0,-0.026283292883422963,0.0,101,0.03444671630859375,0.8818899017751478,0.8818899017751478,10466,-1.9353091196721117,0.0
100,1.129485845565796,-0.707510054990009,1.6315978529724595,2.0315414981877864,-1.9622866278508004,0.0,0.11962976009672423,0.1,0.06339812278747559,0.5191962718963623,0.04881147,1.4504269,-1.6442465261871149,0.0,-0.016099100280798435,0.0,118,0.04997658729553223,0.9452324763907396,0.9452324763907396,10584,-1.9339362207258617,0.0
101,1.1285479068756104,-1.9685110107173405,0.006520514102158664,-1.9579323819324783,-1.9747099286881196,0.0,0.10219380209246885,0.1,0.0101470947265625,0.032933950424194336,0.049674094,1.1990542,-1.6766729746401374,0.0,-0.02623677730932769,0.0,94,0.002426624298095703,0.8841908999762383,0.8841908999762383,10678,-1.937036288596077,0.0
102,1.2192487716674805,-1.9678793611726246,0.006602514682313187,-1.9573487585416673,-1.9755432631511947,0.0,0.10865611693359979,0.1,0.0016825199127197266,0.03433585166931152,0.050392166,0.98302686,-1.7057936132933862,0.0,-0.02623066010446893,0.0,102,0.04788637161254883,0.8824426661848137,0.8824426661848137,10780,-1.9351909123542264,0.0
103,1.2217469215393066,-1.9605653975019792,0.006559446952284073,-1.9545707806150803,-1.9711357680245976,0.0,0.11350814831657605,0.1,0.05148911476135254,0.03464794158935547,0.050017983,1.0094368,-1.7312707917142456,0.0,-0.0261358305579244,0.0,108,0.038825273513793945,0.8822633498807284,0.8822633498807284,10888,-1.9303290823159391,0.0
104,1.1450433731079102,-1.9654004551368303,0.011962435088748688,-1.948742046138822,-1.9823546972331825,0.0,0.12240898529050442,0.1,0.06631994247436523,0.17132353782653809,0.04976847,1.4859247,-1.754683758056504,0.0,-0.026207496577391975,0.0,123,0.046701669692993164,0.8800218087860565,0.8800218087860565,11011,-1.9352086878906782,0.0
105,1.1649982929229736,-1.9615891271332664,0.020031200275398,-1.9310566624635632,-1.983160200745833,0.0,0.10540091824667623,0.1,0.05298423767089844,0.03564810752868652,0.050621506,1.3494974,-1.7753742949641804,0.0,-0.026152090163403387,0.0,91,0.002547025680541992,0.8838908942375465,0.8838908942375465,11102,-1.9347967956467302,0.0
106,1.1459434032440186,-0.9639123226885764,1.2264026036706854,1.0402030798357007,-1.9829828953831585,0.0,0.12107772955548336,0.1,0.0019354820251464844,0.03549623489379883,0.04977202,1.2237011,-1.69422809773662,0.0,-0.019511829004912707,0.0,118,0.051679134368896484,0.9070531016933465,0.9070531016933465,11220,-1.9384592787571997,0.0
107,1.1855473518371582,-0.7211377373824539,2.1737828821651775,3.0439625996361452,-1.9797761952944313,0.0,0.11448573594456375,0.1,0.06106233596801758,0.15721988677978516,0.05013196,2.6711638,-1.5969190617012035,0.0,-0.01293857007420518,0.0,111,0.041071176528930664,0.9711928681181077,0.9711928681181077,11331,-1.9384356824919886,0.0
108,1.0682158470153809,-1.9729714892879502,0.01439781067100617,-1.948056522535777,-1.9819403639868411,0.0,0.113591570107215,0.1,0.06766271591186523,0.1745293140411377,0.0490355,1.1288791,-1.634524304459878,0.0,-0.02629770696175332,0.0,101,0.04496026039123535,0.8825594279243781,0.8825594279243781,11432,-1.9386772758739153,0.0
109,1.1868891716003418,-1.962648430749556,0.005751062226280136,-1.9539733739103495,-1.9696161677113506,0.0,0.11882082739753623,0.1,0.010205507278442383,0.03674483299255371,0.049889542,0.97271746,-1.667336717088846,0.0,-0.026160344059331642,0.0,122,0.03688764572143555,0.8802145023066272,0.8802145023066272,11554,-1.936014754927456,0.0
110,1.3061153888702393,-1.9685451652787345,0.01146404398484905,-1.956764675913479,-1.9847267310790044,0.0,0.1169249102339273,0.1,0.0023300647735595703,0.04449272155761719,0.04954532,1.1363087,-1.697457561907835,0.0,-0.026245083228544845,0.0,109,0.03411102294921875,0.8809494600873058,0.8809494600873058,11663,-1.939235407691929,0.0
111,1.1948466300964355,-1.9581018807536255,0.010201421557246274,-1.9405053402139054,-1.9654503700639043,0.0,0.11329583388700668,0.1,0.05933046340942383,0.175797700881958,0.049504895,1.053261,-1.723521993792414,0.0,-0.02609710469809583,0.0,118,0.04334592819213867,0.880796807499062,0.880796807499062,11781,-1.9408480165804913,0.0
112,1.1704463958740234,-1.960808938232553,0.013158957352152174,-1.947435602435752,-1.9804284990234973,0.0,0.1148380193359325,0.1,0.06751585006713867,0.07860803604125977,0.04915946,1.1561131,-1.747250688236428,0.0,-0.02613556319842773,0.0,118,0.041765451431274414,0.8801998078442539,0.8801998078442539,11899,-1.932304726237082,0.0
113,1.1490154266357422,-0.7173913306201519,1.30439051887364,1.0346388478755948,-1.974321772058734,0.0,0.12395767764799412,0.1,0.06073904037475586,0.22651171684265137,0.04992803,1.0032239,-1.6442647524748004,0.0,-0.01623961267665458,0.0,121,0.03259706497192383,0.9208882108823699,0.9208882108823699,12020,0.06603531449273636,0.0
114,1.2606761455535889,-1.4683788604976056,0.8680107000547047,0.035054676351732095,-1.9730531771225923,0.0,0.12070760414267279,0.1,0.059717655181884766,0.040464162826538086,0.04990441,1.3937887,-1.626676163277081,0.0,-0.019571164473062744,0.0,120,0.042649030685424805,0.8828614869073292,0.8828614869073292,12140,-1.929793392472576,0.0
115,1.2131483554840088,-0.4673878231671018,1.665957345570304,2.03573160531444,-1.9793054709703937,0.0,0.1169650055694939,0.1,0.0019245147705078125,0.03987526893615723,0.049637176,1.1850688,-1.5107473292660831,0.0,-0.01289034066122133,0.0,119,0.04786181449890137,0.9600500532658661,0.9600500532658661,12259,-1.9226947205263383,0.0
116,1.274641513824463,-1.9694748277572875,0.005179618642647856,-1.9632201011372807,-1.9761465107729284,0.0,0.1057494841678469,0.1,0.06403398513793945,0.045967817306518555,0.049540833,1.0763593,-1.5566200791152036,0.0,-0.02625117851870761,0.0,94,0.002288341522216797,0.8827778082074103,0.8827778082074103,12353,-1.9235388101651558,0.0
117,1.6898224353790283,-1.9575310120200593,0.015341164085867881,-1.941302457583667,-1.9827661107787202,0.0,0.11884786199640214,0.1,0.0019021034240722656,0.03730297088623047,0.049879156,1.1353141,-1.5967111724056893,0.0,-0.02610676208604494,0.0,116,0.04039883613586426,0.8803901204698062,0.8803901204698062,12469,-1.9202485884129574,0.0
118,1.6568455696105957,-0.9571438122791008,1.7351664504448496,2.0482462732606357,-1.9642340538624055,0.0,0.11660802167620796,0.1,0.0018737316131591797,0.03694891929626465,0.04920196,1.6621177,-1.5327544363930303,0.0,-0.016092642311725035,0.0,116,0.04602646827697754,0.9417896200224072,0.9417896200224072,12585,-1.9183086406160725,0.0
119,1.5713369846343994,-1.4556129157481619,0.8684398183304556,0.04839100766506488,-1.972532741100921,0.0,0.12162988403582715,0.1,0.04965662956237793,0.03642082214355469,0.04996638,1.285441,-1.5250402843285435,0.0,-0.0227510532295749,0.0,110,0.02881765365600586,0.8829502074591752,0.8829502074591752,12695,-1.9332441727266205,0.0
120,1.6873829364776611,-1.2127473298249454,1.302363913563461,1.0429990663204616,-1.9714850262124042,0.0,0.12218549544821619,0.1,0.06329178810119629,0.14964008331298828,0.05043314,1.3831934,-1.4938109888781839,0.0,-0.01949348705583935,0.0,119,0.03568243980407715,0.908262641410214,0.908262641410214,12814,1.07926602067227,0.0
121,1.778062343597412,-1.9645816540241532,0.014086027614609363,-1.9473514458217454,-1.985046103655337,0.0,0.11451238778610602,0.1,0.06443238258361816,0.3891627788543701,0.05014527,1.2409406,-1.5408880553927808,0.0,-0.02618612562617715,0.0,99,0.0021064281463623047,0.8823026600103772,0.8823026600103772,12913,0.09413262334757655,0.0
122,1.7272043228149414,-1.9612690239240993,0.008669337002958659,-1.9525831806736136,-1.9711164545567288,0.0,0.1170556626772357,0.1,0.0033762454986572266,0.0372927188873291,0.05028234,1.1646857,-1.5829261522459128,0.0,-0.026143407181893313,0.0,105,0.04569602012634277,0.8811059319568006,0.8811059319568006,13018,2.0906314740957126,0.0
123,1.925414800643921,-1.2228884399081752,1.3101233368674225,1.0462941920338664,-1.983876798339938,0.0,0.10136062529842255,0.1,0.06393289566040039,0.10001659393310547,0.049564503,1.7385776,-1.546922381012139,0.0,-0.019628373214725534,0.0,81,0.0022423267364501953,0.9291208443307137,0.9291208443307137,13099,1.0827717703832065,0.0
124,1.6480510234832764,-0.9655344775562696,1.7335835366948444,2.037096056015977,-1.977316198909871,0.0,0.1062480330268389,0.1,0.002050161361694336,0.037837982177734375,0.04926865,1.9814404,-1.488783590666552,0.0,-0.01620609479373194,0.0,100,0.002071857452392578,0.9524560774639071,0.9524560774639071,13199,0.08717984027995374,0.0
125,1.7189104557037354,-0.4638953655653295,1.5126105808035784,1.051420229683326,-1.985383362225173,0.0,0.11226878365525858,0.1,0.002032041549682617,0.03899979591369629,0.050534744,0.8316761,-1.38629476815643,0.0,-0.012845757067441623,0.0,99,0.002051115036010742,0.975476128009191,0.975476128009191,13298,1.095884830317392,0.0
126,1.7840616703033447,-1.9737843299302913,0.011172698195677639,-1.9551403859547363,-1.984853091167274,0.0,0.11522909132088653,0.1,0.0022377967834472656,0.036516666412353516,0.05026331,0.8887166,-1.4450437243338161,0.0,-0.02630716200820143,0.0,104,0.05178403854370117,0.8817034861784786,0.8817034861784786,13402,1.0991981339799888,0.0
127,1.776721477508545,-1.4698924402501028,0.8711825177311319,0.039018493240769114,-1.9796656115576488,0.0,0.12186758638918566,0.1,0.005795717239379883,0.03711271286010742,0.049635783,1.1716932,-1.4475285959254447,0.0,-0.022921445212967267,0.0,115,0.057332515716552734,0.8822507635600134,0.8822507635600134,13517,2.1048944363938786,0.0
128,1.7881639003753662,-1.461405101977708,0.867035902998266,0.040291540525796865,-1.9692275969922044,0.0,0.11128889283902478,0.1,0.06322908401489258,0.1983649730682373,0.049077004,3.0893865,-1.448916246530671,0.0,-0.02281280500831264,0.0,113,0.0484776496887207,0.8818275769920391,0.8818275769920391,13630,1.0903089739486718,0.0
129,1.6763842105865479,-0.7110407874273117,2.172715236602189,3.0522077393367093,-1.970953438222383,0.0,0.11406853373313275,0.1,0.06200218200683594,0.1107935905456543,0.0499344,1.7249627,-1.3751287006203352,0.0,-0.012809204476227961,0.0,116,0.04202103614807129,0.9673843404980611,0.9673843404980611,13746,-1.9121592448389346,0.0
130,1.7626969814300537,-1.4659825301178102,0.8695658273414567,0.040146403830293,-1.9695880643086037,0.0,0.12309489362840575,0.1,0.002038240432739258,0.03608894348144531,0.050283253,2.0511215,-1.384214083570083,0.0,-0.01953562287294964,0.0,119,0.04062509536743164,0.8822167605533124,0.8822167605533124,13865,-1.9306945460463287,0.0
131,1.8515706062316895,-1.71929594379936,0.4367474264168885,-0.9628637895127775,-1.9777100148617441,0.0,0.11362556885800551,0.1,0.0635061264038086,0.03552508354187012,0.05071677,1.1320102,-1.4177222695930105,0.0,-0.0262471228982027,0.0,116,0.03991556167602539,0.8729162745077956,0.8729162745077956,13981,-1.9258756197751834,0.0
132,1.7075083255767822,-1.960387991176923,0.006698829304671673,-1.9524221082481314,-1.9670528449544642,0.0,0.12764423375364783,0.1,0.061437368392944336,0.08609366416931152,0.050675005,0.94439226,-1.471988841751402,0.0,-0.026132707133990254,0.0,119,0.03306937217712402,0.8799152134686643,0.8799152134686643,14100,-1.9431966799937035,0.0
133,1.7923378944396973,-1.9623513882611574,0.005462175396656291,-1.9573583987417926,-1.9711751784971434,0.0,0.11809048821273208,0.1,0.0020461082458496094,0.0355527400970459,0.05033756,0.9233376,-1.5210250964023775,0.0,-0.026160478882693232,0.0,110,0.02670574188232422,0.8818272345612008,0.8818272345612008,14210,0.06073825822575074,0.0
134,1.8042008876800537,-1.9681875386552092,0.0015104903526196277,-1.966110651160069,-1.9702950474026049,0.0,0.12474135157787154,0.1,0.015462398529052734,0.03752326965332031,0.049225077,0.98100656,-1.5657413406276608,0.0,-0.02623602408091351,0.0,118,0.04515790939331055,0.8804374673919304,0.8804374673919304,14328,-1.9474163670646572,0.0
135,1.891798973083496,-0.7109082600027541,2.1693187948444788,3.0464155106430795,-1.97915436172491,0.0,0.11699958204598986,0.1,0.0016376972198486328,0.03375649452209473,0.04908419,1.5249683,-1.4802580325651702,0.0,-0.012819407018680822,0.0,100,0.0018665790557861328,0.9787133322204201,0.9787133322204201,14428,-1.9450148354317998,0.0
136,1.9327943325042725,-1.97138447952825,0.0036992964729406865,-1.9677867561552462,-1.977474285233058,0.0,0.11116566113533567,0.1,0.0020971298217773438,0.03705286979675293,0.05026099,0.97747207,-1.5293706772614784,0.0,-0.02627399047833392,0.0,107,0.032523155212402344,0.8815323734762863,0.8815323734762863,14535,-0.940928063738856,0.0
137,1.808398962020874,-1.9695169857246857,0.007830862653124467,-1.960149699458829,-1.9804513260448144,0.0,0.11788400444079988,0.1,0.054293155670166016,0.03781485557556152,0.049733162,0.97463286,-1.573385308107799,0.0,-0.026252017655860542,0.0,117,0.04184675216674805,0.8815161528475665,0.8815161528475665,14652,0.05360170545673104,0.0
138,1.7179455757141113,-1.9644328387892473,0.006153930411188538,-1.959481091077773,-1.9746901436128614,0.0,0.12290885206053784,0.1,0.06023359298706055,0.10842370986938477,0.050462153,0.8933829,-1.6124900611759438,0.0,-0.02618683656713025,0.0,116,0.04237866401672363,0.8815356130733948,0.8815356130733948,14768,0.05490775628040612,0.0
139,2.474499464035034,-1.9636459936445056,0.012973338222651737,-1.9411842371820536,-1.9717111645037244,0.0,0.11093657565621685,0.1,0.002409696578979492,0.03763771057128906,0.050325815,1.0180873,-1.6476056544228,0.0,-0.026170235533750013,0.0,111,0.03695821762084961,0.8807646541458853,0.8807646541458853,14879,0.05323778477524299,0.0
140,1.8616783618927002,-1.9707732735819925,0.012348264717551098,-1.950464151419124,-1.9825401315644777,0.0,0.12054123191638458,0.1,0.06051349639892578,0.07181310653686523,0.04988135,1.0854332,-1.6799224163387194,0.0,-0.026277059623867564,0.0,122,0.042618513107299805,0.8802245767515752,0.8802245767515752,15001,0.05872110976493117,0.0
141,1.8051865100860596,-0.9633183817347227,1.738239820095291,2.047384573879487,-1.9763449446389358,0.0,0.1121204427939,0.1,0.002243518829345703,0.042064666748046875,0.049685705,1.7657157,-1.6082620128783198,0.0,-0.01617672692144517,0.0,113,0.02685713768005371,0.9430058316858622,0.9430058316858622,15114,1.0817987380846723,0.0
142,1.8160812854766846,-1.9562544742855832,0.012506211202197115,-1.9465870113627504,-1.9773560428422596,0.0,0.1142943776363097,0.1,0.048597097396850586,0.037844181060791016,0.04959891,1.6383797,-1.6430612590190463,0.0,-0.026084787068210585,0.0,120,0.0494387149810791,0.8798830503278815,0.8798830503278815,15234,1.0865737873624912,0.0
143,1.6030919551849365,-1.975798235366454,0.003920797527014579,-1.972506107942762,-1.982398671460448,0.0,0.11294303090767116,0.1,0.06235504150390625,0.19487309455871582,0.04991908,1.0199829,-1.6763349566537873,0.0,-0.026333610864232037,0.0,91,0.0019643306732177734,0.8839451076120592,0.8839451076120592,15325,1.068627474886476,0.0
144,1.9406683444976807,-0.9578459312668044,1.7247893118905913,2.029558777887315,-1.9605873728367122,0.0,0.12250939044466769,0.1,0.002035379409790039,0.037126779556274414,0.04919457,1.4713688,-1.6044860541150892,0.0,-0.016103773351714097,0.0,120,0.036377906799316406,0.938174513878293,0.938174513878293,15445,-0.9282921740844716,0.0
145,1.6715455055236816,-1.714571036412842,0.4284838866661659,-0.972643734129733,-1.9781428471828348,0.0,0.11679902803281626,0.1,0.0633246898651123,0.06751585006713867,0.049832426,0.99556535,-1.6154945523448645,0.0,-0.0261855037911743,0.0,116,0.047823190689086914,0.8717011745505657,0.8717011745505657,15561,-0.9297515082364431,0.0
146,1.7370061874389648,-0.7104725317215225,2.176842560806232,3.0598847239126608,-1.9762091830587034,0.0,0.1142073674171043,0.1,0.002008199691772461,0.03494882583618164,0.04936536,1.9384902,-1.5249923502825302,0.0,-0.012806955965786977,0.0,109,0.03188323974609375,0.9727376637135282,0.9727376637135282,15670,-0.9347254464884379,0.0
147,1.7500338554382324,-1.9642751733562689,0.009364821199212224,-1.9562329645462333,-1.9799802092896914,0.0,0.10595981448142543,0.1,0.0019795894622802734,0.037001848220825195,0.049953643,1.1417501,-1.568920632589904,0.0,-0.026193912322494205,0.0,96,0.0020461082458496094,0.882475463417889,0.882475463417889,15766,-0.9307332653140534,0.0
148,1.7432811260223389,-1.9665880761302135,0.005844127187561232,-1.961335054770478,-1.9757884615819332,0.0,0.11734931881017684,0.1,0.0020020008087158203,0.03483128547668457,0.04985706,0.97400147,-1.6086873769439352,0.0,-0.026211670785709337,0.0,105,0.04641914367675781,0.8819199838582329,0.8819199838582329,15871,0.05741433221628478,0.0
149,1.7653098106384277,-0.953430173866488,1.7418079230519208,2.0634422130837446,-1.9660999187628574,0.0,0.11738889600767219,0.1,0.005987882614135742,0.03484201431274414,0.04985074,1.8468055,-1.5431616566361903,0.0,-0.016046464895570038,0.0,117,0.042984724044799805,0.9408918807729192,0.9408918807729192,15988,2.0882753151626914,0.0
150,1.750157117843628,-1.9584318156409095,0.008301403997440308,-1.947107138101058,-1.9701033983247611,0.0,0.11670119646824276,0.1,0.0500028133392334,0.036106109619140625,0.049873065,1.0015706,-1.5846886725366622,0.0,-0.026109913676611227,0.0,122,0.03251791000366211,0.8804609837461036,0.8804609837461036,16110,-1.9443131944733485,0.0
151,1.7289392948150635,-1.964578822687505,0.012136343729864751,-1.946112754084863,-1.9801995222221613,0.0,0.11122014988085678,0.1,0.0019736289978027344,0.034610748291015625,0.050437093,1.109339,-1.6226776875517466,0.0,-0.026186136003374466,0.0,117,0.024817943572998047,0.8811092297844864,0.8811092297844864,16227,-0.939394517357515,0.0
152,1.7340993881225586,-1.9709038277297461,0.0058683553588149045,-1.9619757566775837,-1.978317507173148,0.0,0.11580813921012463,0.1,0.05751824378967285,0.03793001174926758,0.049481567,0.9730408,-1.6575003015695466,0.0,-0.02627292590704216,0.0,108,0.04923868179321289,0.8820142599616407,0.8820142599616407,16335,0.05907963202988431,0.0
153,1.6679747104644775,-1.2173095440747712,1.2946266916282663,1.0250405244981402,-1.9706933597392766,0.0,0.11268723055215409,0.1,0.016876220703125,0.042409658432006836,0.04975805,2.0700643,-1.6134812258200693,0.0,-0.01955748395524295,0.0,107,0.045701026916503906,0.9115175663401098,0.9115175663401098,16442,0.059885103938364104,0.0
154,1.8103203773498535,-0.9647607431522136,1.7341756519615255,2.0387537256766715,-1.98112334865456,0.0,0.10972272587179252,0.1,0.0567631721496582,0.17259550094604492,0.04986891,2.1342444,-1.5486091775532838,0.0,-0.01619020502846112,0.0,117,0.058344125747680664,0.9406718266965277,0.9406718266965277,16559,2.061728003746253,0.0
155,1.7559418678283691,-1.969726776367497,0.007447142488496477,-1.9585682998432237,-1.9793505871200385,0.0,0.11766851877489232,0.1,0.062252044677734375,0.15764379501342773,0.050192825,1.144094,-1.590720937434705,0.0,-0.026265361729563952,0.0,113,0.053978919982910156,0.8823166317144168,0.8823166317144168,16672,2.0612187320316404,0.0
156,1.5671107769012451,-1.9694344496578395,0.01164492952260684,-1.9492820000591478,-1.9769128111276175,0.0,0.10546118190545935,0.1,0.061673641204833984,0.0621495246887207,0.049347196,1.3714966,-1.6285922886570185,0.0,-0.026251300010023557,0.0,97,0.0021317005157470703,0.8840380358697233,0.8840380358697233,16769,1.0635468788515532,0.0
157,2.0774216651916504,-1.958756147542408,0.012326087079312794,-1.9394000065303656,-1.9733604142929995,0.0,0.12112368001525663,0.1,0.002198934555053711,0.03711080551147461,0.050347783,0.8311615,-1.6616086745455576,0.0,-0.026126460386458016,0.0,122,0.04278111457824707,0.8805306984716257,0.8805306984716257,16891,1.0627195982485609,0.0
158,1.5253252983093262,-1.9642288653522515,0.01430289522597784,-1.9419393061214534,-1.979367811572847,0.0,0.11217665121581688,0.1,0.002092123031616211,0.035989999771118164,0.050005607,0.96039313,-1.6918706936262269,0.0,-0.026183411685614697,0.0,112,0.04385948181152344,0.8816677784151903,0.8816677784151903,17003,2.0617090412190033,0.0
159,1.7781834602355957,-1.9716491699235696,0.00819641513090204,-1.9600102070262013,-1.9800278348490332,0.0,0.11738604983190164,0.1,0.0514068603515625,0.03749823570251465,0.05037169,1.0638218,-1.7198485412559612,0.0,-0.026280778138212946,0.0,111,0.05075716972351074,0.8821794349604033,0.8821794349604033,17114,0.06021032364959944,0.0
160,1.6094629764556885,-1.9628290464300144,0.005152063750736028,-1.9589480959051315,-1.9716364008444407,0.0,0.11735181168191167,0.1,0.003091096878051758,0.04773116111755371,0.049683414,0.96087694,-1.7441465917733665,0.0,-0.02616364677799308,0.0,113,0.03146219253540039,0.8808848076374614,0.8808848076374614,17227,0.0629953087704771,0.0
161,1.7958498001098633,-1.9624748156243168,0.006455967254542965,-1.9520665073564887,-1.9697864754436805,0.0,0.11937166514373485,0.1,0.06184840202331543,0.2628905773162842,0.049822453,0.85890645,-1.7659794141584617,0.0,-0.02615643505069202,0.0,113,0.02961897850036621,0.8812373930967222,0.8812373930967222,17340,1.0623444839390468,0.0
162,1.7492289543151855,-1.9601497986804648,0.021833912562232313,-1.9235581064764777,-1.9779898215454448,0.0,0.11896379917017887,0.1,0.005745410919189453,0.04020261764526367,0.050094597,1.1786574,-1.7853964526106623,0.0,-0.026128746583270523,0.0,109,0.047065019607543945,0.8817688496202369,0.8817688496202369,17449,1.064836964342099,0.0
163,1.8535139560699463,-1.9602832844658737,0.01753006380096564,-1.9301012325360953,-1.972609028878878,0.0,0.11818343942569084,0.1,0.0027115345001220703,0.03654026985168457,0.05029911,1.0697701,-1.8028851357961835,0.0,-0.026128000992775284,0.0,120,0.04910612106323242,0.879703668368464,0.879703668368464,17569,0.06040467714741515,0.0
164,1.8051512241363525,-1.9651412078354553,0.008072166382024525,-1.9555142014594764,-1.9735991598807028,0.0,0.11358892490357105,0.1,0.058091163635253906,0.12420296669006348,0.049881343,1.1462941,-1.8191107430001106,0.0,-0.02619170365164163,0.0,115,0.03685617446899414,0.8809276736638864,0.8809276736638864,17684,0.05787329529151952,0.0
165,1.6193101406097412,-0.9699211886258163,1.7388308502865018,2.0418142909787385,-1.9797989794707223,0.0,0.11118179225924726,0.1,0.019628047943115234,0.03419375419616699,0.04928896,1.7532219,-1.7341917875626813,0.0,-0.016254638910927245,0.0,101,0.025948047637939453,0.9515270316963238,0.9515270316963238,17785,0.058714950758369744,0.0
166,1.6504580974578857,-0.7110408375515513,2.1761651696819766,3.058170592841617,-1.9745336435850185,0.0,0.11366111400108637,0.1,0.002170562744140625,0.03575277328491211,0.04901435,1.766987,-1.6318766925615684,0.0,-0.012807821092674344,0.0,120,0.054140329360961914,0.9663342912931496,0.9663342912931496,17905,1.06345871264303,0.0
167,1.6489055156707764,-1.2088004152219063,1.2913023468327662,1.0276415577716558,-1.9672797128744306,0.0,0.13267223669679049,0.1,0.001935720443725586,0.040780067443847656,0.049736675,1.145787,-1.5895690648276022,0.0,-0.019444509968388077,0.0,115,0.03257107734680176,0.9093668102434317,0.9093668102434317,18020,2.066624694689779,0.0
168,1.568737506866455,-1.9654836225755796,0.016142709095727313,-1.9495752453438764,-1.985304424866597,0.0,0.10831192713047091,0.1,0.05980086326599121,0.04412531852722168,0.049546022,1.2226934,-1.6271605206023998,0.0,-0.026197937119844875,0.0,91,0.002197265625,0.8843028347073782,0.8843028347073782,18111,1.0663971512832688,0.0
169,1.677384853363037,-0.2102238800447136,1.7943497496923413,2.036656528077299,-1.9724092398077837,0.0,0.11575884632702402,0.1,0.0020618438720703125,0.041532278060913086,0.04942023,1.0158888,-1.4854668565466311,0.0,-0.009460179796810665,0.0,114,0.041527748107910156,0.9878086054727144,0.9878086054727144,18225,0.06965644039255392,0.0
170,1.7327876091003418,-0.9671609641026588,1.7431335123719498,2.0520076915363603,-1.983839303523867,0.0,0.11132458511852046,0.1,0.0285031795501709,0.03750300407409668,0.049106557,2.0451784,-1.4336362673022338,0.0,-0.016221033287678585,0.0,107,0.041515350341796875,0.9473127587862902,0.9473127587862902,18332,1.0785504492830233,0.0
171,1.7750318050384521,0.29952021853288346,2.2801228390608936,3.0403934045289787,-1.9701293204763317,0.0,0.1172106083421047,0.1,0.05519437789916992,0.039214372634887695,0.04973771,1.1326569,-1.2603206187187221,0.0,-0.002667245874323017,0.0,122,0.0424802303314209,1.0105446677818448,1.0105446677818448,18454,2.0783498627253576,0.0
172,1.6487276554107666,-1.959133593127779,0.007161624848059953,-1.9474843065406418,-1.9657203703832784,0.0,0.11816266105008134,0.1,0.05861401557922363,0.07775449752807617,0.049834322,0.9990057,-1.330201916159628,0.0,-0.026118511952318707,0.0,117,0.03705477714538574,0.8809396019337208,0.8809396019337208,18571,1.0713748458221326,0.0
173,1.5361905097961426,-1.9688413488374434,0.01475674408450456,-1.9452173577385714,-1.9837330575523164,0.0,0.10834845696734986,0.1,0.03710055351257324,0.03768467903137207,0.04998387,1.0509311,-1.3940658594274096,0.0,-0.02625001579487262,0.0,98,0.0021352767944335938,0.8844106236016174,0.8844106236016174,18669,2.070329297971873,0.0
174,1.704014778137207,-0.9712533904235953,1.7330354703224875,2.030418903986126,-1.9851145663978247,0.0,0.13040976661436585,0.1,0.002560138702392578,0.04229879379272461,0.050105955,1.2068346,-1.351784612527028,0.0,-0.016273078099489836,0.0,121,0.038220882415771484,0.9392975874077957,0.9392975874077957,18790,1.0678166709926722,0.0
175,1.734973669052124,-0.9588179924913391,1.729168792634611,2.0360901663328086,-1.9800667993438674,0.0,0.11678878754723035,0.1,0.06342864036560059,0.18953871726989746,0.050055612,1.8644924,-1.3124879505234592,0.0,-0.016116379225191452,0.0,110,0.0503544807434082,0.9443985295630682,0.9443985295630682,18900,2.06443443975832,0.0
176,1.68912935256958,-1.1978804408784176,1.2938374553672427,1.0429887281224062,-1.9650946821523445,0.0,0.11543460025533366,0.1,0.06470108032226562,0.04878878593444824,0.0500166,1.455325,-1.301027199558955,0.0,-0.01930514682333162,0.0,119,0.03928208351135254,0.9083316668154638,0.9083316668154638,19019,1.0656036156840119,0.0
177,1.6095130443572998,-1.957681252868904,0.017218626211790575,-1.9279794001217259,-1.9694356926878984,0.0,0.1157047300263955,0.1,0.05614304542541504,0.03978466987609863,0.049955703,1.1598216,-1.36669260488995,0.0,-0.026097282491430927,0.0,109,0.05015277862548828,0.8814193551712312,0.8814193551712312,19128,1.071941034450646,0.0
178,1.6723649501800537,-1.9633358931927307,0.010283580058112337,-1.952611181677859,-1.977711107601939,0.0,0.11488927931815342,0.1,0.057646989822387695,0.16603946685791016,0.048990935,1.4240782,-1.426356933720228,0.0,-0.02617056472310103,0.0,98,0.002027750015258789,0.8833881623205149,0.8833881623205149,19226,1.068787753763075,0.0
179,1.7621574401855469,-1.9685347817150913,0.008150979161101001,-1.956114454068269,-1.9789977256121498,0.0,0.12170252789943606,0.1,0.0020570755004882812,0.038089752197265625,0.050117,1.02764,-1.4805747185197144,0.0,-0.026236743375503645,0.0,119,0.04349660873413086,0.8805132606799282,0.8805132606799282,19345,-1.9375304503488122,0.0
180,1.764885425567627,0.038459220270694705,2.0065279861699286,2.045404177337152,-1.9712975134596886,0.0,0.11758522146682163,0.1,0.06588292121887207,0.5449621677398682,0.049991667,0.974211,-1.3286713246406736,0.0,-0.006153386288099562,0.0,109,0.04705476760864258,1.0113908118870687,1.0113908118870687,19454,0.07720554168997285,0.0
181,1.7245466709136963,-1.94972174962111,0.014047675081505093,-1.9292005828855951,-1.9633925266884107,0.0,0.11408060598623002,0.1,0.06952381134033203,0.6407127380371094,0.050311714,1.1211562,-1.3907763671387172,0.0,-0.026001389825403322,0.0,114,0.07313156127929688,0.880485957419678,0.880485957419678,19568,0.059950426580339444,0.0
182,1.6496691703796387,-0.19564711255071932,1.8020653544510343,2.081576257723997,-1.967841425523293,0.0,0.11353789503751285,0.1,0.060878753662109375,0.5568568706512451,0.049911138,1.1185867,-1.2712634416799173,0.0,-0.009278758047486532,0.0,118,0.041136741638183594,0.9836974224783835,0.9836974224783835,19686,-1.9323593811449593,0.0
183,1.6934545040130615,-0.2088410556593659,1.8009007591957464,2.05791578652647,-1.981735994693419,0.0,0.12543929454315114,0.1,0.05361223220825195,0.20773839950561523,0.0496209,1.0378344,-1.1650212030778622,0.0,-0.00944453099944641,0.0,119,0.05589628219604492,0.980564210605085,0.980564210605085,19805,-1.9368125608846531,0.0
184,1.7275478839874268,-1.9552736915304954,0.015725687960630202,-1.9348033123695076,-1.9788772888793396,0.0,0.11841160713816784,0.1,0.0661921501159668,0.16570615768432617,0.050431374,1.211415,-1.2440464519231254,0.0,-0.02606696100186617,0.0,117,0.053478240966796875,0.8800500151477456,0.8800500151477456,19922,-1.9390390654246472,0.0
185,1.9692645072937012,-1.9617660003742126,0.01649214618794759,-1.9366742669132355,-1.9783211261033773,0.0,0.11247478904874071,0.1,0.0683588981628418,0.8514018058776855,0.049723096,1.2148857,-1.3158184067682341,0.0,-0.026147192192273058,0.0,113,0.05903935432434082,0.8805365496724396,0.8805365496724396,20035,-0.9352207276154122,0.0
186,2.058927059173584,-0.4404981981259322,1.6630336333356772,2.065385485250798,-1.9471618303829747,0.0,0.11629629441617173,0.1,0.06735634803771973,0.7940919399261475,0.050410632,1.3396326,-1.2282863859040039,0.0,-0.012544845435123027,0.0,116,0.03919172286987305,0.9632893724258531,0.9632893724258531,20151,-1.9377415010858992,0.0
187,2.0709948539733887,-1.9692660870429368,0.010961553368970277,-1.9505076029244888,-1.978160023353619,0.0,0.11996943627179964,0.1,0.1169424057006836,0.8820292949676514,0.050202075,0.8670025,-1.3023843560178974,0.0,-0.026248860716218476,0.0,117,0.06579256057739258,0.8809655782989405,0.8809655782989405,20268,-1.939173945584592,0.0
188,1.9276483058929443,-1.7202777164915761,0.42718667450985026,-0.9803721036657439,-1.9685747768066149,0.0,0.11607006289175384,0.1,0.06262898445129395,0.588975191116333,0.05003227,1.2871295,-1.3441736920652654,0.0,-0.0262607049690041,0.0,107,0.04810619354248047,0.8736517222525637,0.8736517222525637,20375,-1.9423613621471967,0.0
189,2.021367311477661,-0.9637854001308627,1.7295086315331984,2.031795203414972,-1.9703772224011988,0.0,0.11554988973127447,0.1,0.06441974639892578,0.09959721565246582,0.050175283,1.5223405,-1.3061348628718252,0.0,-0.016180415776434684,0.0,122,0.05073904991149902,0.93877535290619,0.93877535290619,20497,-1.9436115444471183,0.0
190,1.8162033557891846,-1.9695134862743664,0.006055933212227806,-1.9641237317082572,-1.9790205775298284,0.0,0.11079511961103984,0.1,0.062061309814453125,0.05745553970336914,0.04900594,1.1165259,-1.3724727252120794,0.0,-0.02624971493646884,0.0,115,0.03589987754821777,0.8821554615763462,0.8821554615763462,20612,-1.9403067452155085,0.0
191,1.8345210552215576,0.05756478929493569,1.9997248143149426,2.075827001204731,-1.9578433028292967,0.0,0.12195715285631739,0.1,0.05807948112487793,0.10586762428283691,0.049988147,0.9704446,-1.229468973761378,0.0,-0.005895097230204812,0.0,122,0.029797792434692383,0.9974527086046006,0.9974527086046006,20734,2.064635132144588,0.0
192,1.9926505088806152,-0.2097387168694841,1.0986561562677848,1.0451928570307867,-1.976715261985485,0.0,0.11206617435371027,0.1,0.12194275856018066,0.10451269149780273,0.050012488,0.7755939,-1.1274959480721884,0.0,-0.009458391094491321,0.0,111,0.04957294464111328,0.9680132737043113,0.9680132737043113,20845,1.060064898813328,0.0
193,2.2121615409851074,-1.4669232877264602,0.8628303412910633,0.02751309215203923,-1.9728083752290804,0.0,0.1152717902115033,0.1,0.061418771743774414,0.24344182014465332,0.049783,1.3739448,-1.1614386820376157,0.0,-0.02288362369926404,0.0,116,0.05097675323486328,0.8813431505751745,0.8813431505751745,20961,0.060175897369386666,0.0
194,1.9644148349761963,-1.9732004797860356,0.004763316362572633,-1.9700068249339362,-1.9814345249547909,0.0,0.10840908608231908,0.1,0.05610942840576172,0.0822751522064209,0.049620997,1.0947298,-1.242614861812458,0.0,-0.026300199302536544,0.0,88,0.0021071434020996094,0.8850121532086214,0.8850121532086214,21049,0.056787609769247904,0.0
195,1.8469328880310059,-1.9472539764134729,0.01961536718681022,-1.9247953398217172,-1.9787079410657367,0.0,0.1075167330730613,0.1,0.0018818378448486328,0.03655576705932617,0.049932893,1.04294,-1.3130787732725595,0.0,-0.02596453822665666,0.0,97,0.002117156982421875,0.8834544180295938,0.8834544180295938,21146,0.05484513255985135,0.0
196,1.8979334831237793,-1.9630802971123569,0.015493753788391434,-1.9404072347899697,-1.9800128487653244,0.0,0.11520091175582409,0.1,0.002177715301513672,0.04017758369445801,0.049900804,0.97494435,-1.378078925656539,0.0,-0.026165191869750422,0.0,111,0.05212593078613281,0.8821924150258333,0.8821924150258333,21257,1.0544320659565112,0.0
197,1.8282220363616943,-1.9652801632873,0.009321514363488173,-1.9500563515056661,-1.9746581518744517,0.0,0.11372068256652705,0.1,0.05993175506591797,0.6231167316436768,0.050335944,0.9960486,-1.4367990494196152,0.0,-0.026197042531444878,0.0,123,0.05222487449645996,0.8805682038559879,0.8805682038559879,21380,1.0537321839701561,0.0
198,1.767014503479004,-1.9577184756655424,0.006959334664046921,-1.9488127932911286,-1.968334929408899,0.0,0.11566240056474457,0.1,0.057653188705444336,0.3784775733947754,0.04961415,1.0961642,-1.488890992044208,0.0,-0.02610006781519788,0.0,120,0.038834571838378906,0.8811473791120262,0.8811473791120262,21500,1.053480913710399,0.0
199,1.808936595916748,-0.9653085001918943,1.7339887240735237,2.0379529919891466,-1.97857074337549,0.0,0.1093586532644204,0.1,0.002106904983520508,0.04018211364746094,0.049819022,1.6388564,-1.4365327428589767,0.0,-0.016204418811724297,0.0,94,0.0020966529846191406,0.9573423356463256,0.9573423356463256,21594,1.0531468829015116,0.0
200,1.941431999206543,-1.9673537555315495,0.013192813358368286,-1.949163123318209,-1.9861161539256917,0.0,0.10326668303176874,0.1,0.001970052719116211,0.03909444808959961,0.049920518,1.8218995,-1.489614844126234,0.0,-0.02622439009106721,0.0,96,0.002056121826171875,0.8828376539769209,0.8828376539769209,21690,0.05331220443805629,0.0
201,2.1292073726654053,-1.9639944223869565,0.009387359411422607,-1.9523147890057968,-1.9779048020190675,0.0,0.11762115803010345,0.1,0.0021839141845703125,0.041726112365722656,0.049845517,1.0122403,-1.5370528019523062,0.0,-0.026178182701624718,0.0,118,0.02683281898498535,0.8810265214933358,0.8810265214933358,21808,-0.9489552174987268,0.0
202,1.834688663482666,-1.960350570649715,0.00464700270139622,-1.9533848487180085,-1.9662100948102879,0.0,0.11058141882872675,0.1,0.0023398399353027344,0.04096531867980957,0.051158834,1.0079527,-1.5793825788220472,0.0,-0.026136788130240115,0.0,113,0.026366472244262695,0.8810189849831707,0.8810189849831707,21921,0.051225194146507835,0.0
203,1.6216425895690918,-1.9715347745440468,0.00866810335920296,-1.9609187737586233,-1.981945968368838,0.0,0.11285058336935752,0.1,0.002202749252319336,0.041220664978027344,0.050071698,1.083801,-1.6185977983942474,0.0,-0.026277305753124862,0.0,101,0.026227474212646484,0.8828490033648796,0.8828490033648796,22022,-1.9482491678233742,0.0
204,1.6468358039855957,-1.2216390806581892,1.310021661228461,1.0473487908078243,-1.9849843289143023,0.0,0.10983333658338881,0.1,0.002521514892578125,0.04349517822265625,0.04958584,1.591862,-1.5789019266206417,0.0,-0.019618482950171125,0.0,102,0.02122044563293457,0.9163955559414331,0.9163955559414331,22124,-1.9419163833753492,0.0
205,1.7118499279022217,-1.9710614479279307,0.006022898643455349,-1.9629197818035367,-1.9774935114840142,0.0,0.12076886285325453,0.1,0.002109050750732422,0.048666954040527344,0.050189506,1.1349105,-1.6181178787513706,0.0,-0.026270781198208443,0.0,115,0.0304872989654541,0.8823121766391172,0.8823121766391172,22239,-1.9402182453089802,0.0
206,1.6804115772247314,0.5475513707801964,1.5117480552495566,2.046646522513668,-1.9760816081978634,0.0,0.11858583326068299,0.1,0.0021941661834716797,0.041390419006347656,0.050162893,0.78954923,-1.4015509537982138,0.0,-0.0026966321147049747,0.0,119,0.025786399841308594,1.04480297233544,1.04480297233544,22358,2.064279445632144,0.0
207,1.6740658283233643,-1.9735657155611248,0.010220247178565529,-1.959695604407092,-1.9846746822039663,0.0,0.10639513181035468,0.1,0.002166748046875,0.04104185104370117,0.05058094,1.6410596,-1.458752429974505,0.0,-0.026302852392020463,0.0,103,0.023357629776000977,0.8831914749943982,0.8831914749943982,22461,0.051301556523662306,0.0
208,1.7875535488128662,-1.9626319214351204,0.012895963331306076,-1.9425735626709821,-1.97553969228843,0.0,0.11774808533552823,0.1,0.0026671886444091797,0.04120779037475586,0.049842324,0.9570187,-1.5091403791205666,0.0,-0.026159870486913834,0.0,109,0.026241779327392578,0.882563484582473,0.882563484582473,22570,0.051705373871903104,0.0
209,1.7445917129516602,-1.9664546694401168,0.008456604617501372,-1.9577190596760978,-1.980442593008249,0.0,0.11608180108770039,0.1,0.002199411392211914,0.04481029510498047,0.049433477,1.3478765,-1.5548718081525217,0.0,-0.026213149606946897,0.0,112,0.016124248504638672,0.8824441845665795,0.8824441845665795,22682,-0.9531849996164398,0.0
210,1.6436312198638916,-1.9548326018712947,0.019556953710600452,-1.9251607879809423,-1.9796356572650087,0.0,0.11789302776533188,0.1,0.002101898193359375,0.041008949279785156,0.049494117,1.0231212,-1.5948678875243991,0.0,-0.026064721598186784,0.0,116,0.02504110336303711,0.8809902107031556,0.8809902107031556,22798,0.05406235321964559,0.0
211,1.7494585514068604,-0.9606735231350287,1.7356114739504707,2.0454322471280264,-1.9728378291948923,0.0,0.10711991546534586,0.1,0.002203226089477539,0.03982234001159668,0.049399912,1.8945013,-1.5314484510854622,0.0,-0.016140601194307193,0.0,102,0.02630019187927246,0.9514681066274385,0.9514681066274385,22900,1.054151265495877,0.0
212,1.805098056793213,-1.9619960479333267,0.006243665337260524,-1.9535445686836352,-1.9711327188490504,0.0,0.10963949974255104,0.1,0.002222776412963867,0.04141402244567871,0.050398584,1.3320246,-1.5745032107702488,0.0,-0.02615388157814216,0.0,119,0.025462865829467773,0.8809738409150283,0.8809738409150283,23019,0.05201336735249362,0.0
213,1.5944323539733887,-0.4515315218057896,1.6830443571897422,2.100896717332489,-1.9683333661554703,0.0,0.1150560926226115,0.1,0.0021872520446777344,0.03961586952209473,0.049893524,1.5377417,-1.462206041873803,0.0,-0.01269519434237398,0.0,115,0.02751636505126953,0.9652777528344721,0.9652777528344721,23134,1.0508827204593378,0.0
214,1.62982177734375,-1.2068386039148133,1.3138882374447842,1.0688225764880603,-1.9781226011731345,0.0,0.1182865173802216,0.1,0.002019643783569336,0.03940248489379883,0.050000187,1.4590499,-1.436669298077904,0.0,-0.019427667609979007,0.0,104,0.027224302291870117,0.91541127257109,0.91541127257109,23238,1.0524768153880866,0.0
215,1.6967229843139648,-0.46544354737288507,1.6630492170512048,2.0301774411520803,-1.981928133987667,0.0,0.11218760073767668,0.1,0.002172231674194336,0.03925204277038574,0.04960785,1.1179,-1.339546723007402,0.0,-0.012867377572870459,0.0,95,0.002155780792236328,0.988091274572071,0.988091274572071,23333,1.0492487892556588,0.0
216,1.6443917751312256,-1.9661816264113323,0.007284888978687197,-1.9582516942054609,-1.9779146787863113,0.0,0.09523139993741175,0.1,0.001989603042602539,0.038559675216674805,0.049091395,1.1935378,-1.4022102133477952,0.0,-0.026212895164854203,0.0,92,0.002033233642578125,0.8840252350936331,0.8840252350936331,23425,-1.9440626167706754,0.0
217,1.7637736797332764,-1.9627251747545016,0.006362804484911219,-1.9571096824648029,-1.9734597659441881,0.0,0.12312885553530624,0.1,0.0022804737091064453,0.04510092735290527,0.049299087,0.94828755,-1.458261709488466,0.0,-0.026171502141177815,0.0,118,0.02784109115600586,0.8808512529493332,0.8808512529493332,23543,-1.9500949189565524,0.0
218,2.0757789611816406,-1.9567156831549801,0.015280139430437633,-1.932418921654513,-1.9715831349894681,0.0,0.10881162410384942,0.1,0.002302408218383789,0.04128861427307129,0.05041497,1.3945867,-1.5081071068551175,0.0,-0.026083874200309304,0.0,112,0.027141571044921875,0.8813973040871672,0.8813973040871672,23655,-1.9527963827593853,0.0
219,1.7392287254333496,-1.9580342503576051,0.009513729162400569,-1.9466052437791763,-1.9722859511193729,0.0,0.11745290089522413,0.1,0.0022325515747070312,0.046094655990600586,0.050498184,1.0944461,-1.5530998212053664,0.0,-0.026107902500815072,0.0,117,0.026798009872436523,0.880316987048023,0.880316987048023,23772,0.0460273935984592,0.0
220,1.6772756576538086,-1.9656430438477126,0.01798341745447704,-1.9383504032591703,-1.987448288193374,0.0,0.1072347845422123,0.1,0.0022382736206054688,0.040657997131347656,0.04989478,1.2327266,-1.5943541434696011,0.0,-0.02620791140075355,0.0,101,0.026752471923828125,0.883144842093861,0.883144842093861,23873,-1.952627816311726,0.0
221,1.7577168941497803,-1.9632751488049567,0.011276618251187054,-1.946498632044068,-1.9780448722028108,0.0,0.11226086622412842,0.1,0.0022063255310058594,0.040900230407714844,0.04997242,1.0458629,-1.6312462440031368,0.0,-0.026167361290383783,0.0,117,0.010951042175292969,0.881001993199385,0.881001993199385,23990,-1.9542852286854935,0.0
222,1.9050536155700684,-1.71277584563874,0.4391160747244803,-0.952344844350711,-1.979133973114206,0.0,0.10888259851403127,0.1,0.0024764537811279297,0.04146075248718262,0.050126176,1.0570315,-1.6393992041666972,0.0,-0.0261621449777361,0.0,113,0.026194095611572266,0.8728741312311636,0.8728741312311636,24103,-1.952118858642829,0.0
223,1.8480381965637207,-1.7108162437973293,0.43466025415092174,-0.9581927904537546,-1.9749044036537486,0.0,0.11336082741144361,0.1,0.0023109912872314453,0.07278633117675781,0.050091628,1.0438745,-1.6465409081297606,0.0,-0.02614227826205695,0.0,111,0.02840137481689453,0.8720634820200667,0.8720634820200667,24214,-1.9552805639475173,0.0
224,1.6758441925048828,-1.9622238924925515,0.007050887524471647,-1.9531580213221145,-1.972931106994433,0.0,0.11945964082131598,0.1,0.0022096633911132812,0.04146432876586914,0.049850825,0.97821236,-1.6781092065660397,0.0,-0.026154267100198435,0.0,115,0.026845693588256836,0.8814173304238252,0.8814173304238252,24329,-0.9553119830002762,0.0
225,1.6993274688720703,-1.9612321454612467,0.005319071072885505,-1.9559269688628673,-1.9695465485805863,0.0,0.11060572242904851,0.1,0.0021753311157226562,0.0410609245300293,0.049798228,1.6071501,-1.7064215004555605,0.0,-0.026147783596593067,0.0,101,0.02236318588256836,0.8820435099512085,0.8820435099512085,24430,0.0431238316395377,0.0
226,1.7571673393249512,-1.4624155376330212,0.8722445623416895,0.04834889966684708,-1.9704797348297278,0.0,0.118929449629086,0.1,0.0022830963134765625,0.0412447452545166,0.05037594,1.5160235,-1.6820209041733067,0.0,-0.022833819524947,0.0,111,0.034871816635131836,0.8831067661817598,0.8831067661817598,24541,0.04396772430864737,0.0
227,1.6856274604797363,-0.20322696073671598,1.7787639014537528,2.0282090548723843,-1.9541496097199225,0.0,0.11804791860550573,0.1,0.002254009246826172,0.04137563705444336,0.04961128,1.1888322,-1.5341415098296476,0.0,-0.009368148025692224,0.0,118,0.02488112449645996,0.9819400007952649,0.9819400007952649,24659,0.042170120530441,0.0
228,1.8362321853637695,-1.7172620520258493,0.4385549121110603,-0.9577214400772958,-1.9767462886646605,0.0,0.11514976881790852,0.1,0.002195596694946289,0.06113553047180176,0.049929317,1.311497,-1.5524535640492678,0.0,-0.022890943391816947,0.0,117,0.026545286178588867,0.8749373375369954,0.8749373375369954,24776,0.04287155739980264,0.0
229,1.7671294212341309,-1.2246177721633926,1.2990603140976986,1.025413203751349,-1.978962649645985,0.0,0.12810528475862404,0.1,0.0021440982818603516,0.04070758819580078,0.049471576,1.2782001,-1.5196699848606803,0.0,-0.016318422931187432,0.0,111,0.008249998092651367,0.9115253808241859,0.9115253808241859,24887,-0.9566975890572195,0.0
230,1.7876946926116943,-0.7137890602675518,1.3032878318413483,1.0414260668541335,-1.9758891429423309,0.0,0.10845347511121572,0.1,0.0021550655364990234,0.04063057899475098,0.049869996,1.2991729,-1.4390818924013673,0.0,-0.016182172928586144,0.0,104,0.01658773422241211,0.9332527322481594,0.9332527322481594,24991,0.04495846495360034,0.0
231,1.7108590602874756,-1.4647479964507604,0.86488394909229,0.033245275643777994,-1.97291483934205,0.0,0.11716291236274858,0.1,0.0021042823791503906,0.03966045379638672,0.049953766,1.6314172,-1.4416485028063066,0.0,-0.022862763924119914,0.0,112,0.0303037166595459,0.8824923953901345,0.8824923953901345,25103,0.047477987568472324,0.0
232,1.8319811820983887,-1.4680622877805838,0.8771225928603666,0.05114109513558929,-1.9807534709619097,0.0,0.11909938896636545,0.1,0.0021262168884277344,0.04007220268249512,0.049882837,1.282011,-1.4442898813037344,0.0,-0.022895741795786455,0.0,113,0.02683424949645996,0.8836118183044477,0.8836118183044477,25216,1.0469469726186096,0.0
233,1.918874979019165,-1.9680082243426356,0.010448881926942587,-1.9525966134175372,-1.9819012290442348,0.0,0.11362136849106075,0.1,0.00199127197265625,0.039308786392211914,0.050341923,0.94509673,-1.4966617156076247,0.0,-0.026235375159836705,0.0,102,0.026077747344970703,0.8817293327074229,0.8817293327074229,25318,-0.9582699404181364,0.0
234,1.8865556716918945,-1.956553171981637,0.0053580853598640225,-1.9488747177729828,-1.9621012395987254,0.0,0.11780613456024873,0.1,0.002122163772583008,0.04079914093017578,0.05049506,1.1529334,-1.542650861245026,0.0,-0.026078409237521333,0.0,116,0.044409990310668945,0.8811330248085893,0.8811330248085893,25434,1.0521339446057445,0.0
235,1.8135035037994385,-1.469391289615017,0.8710278482328274,0.03926719573644255,-1.9762656724032464,0.0,0.11624813612961449,0.1,0.002684354782104492,0.04272818565368652,0.04949351,1.4869145,-1.5353249040820252,0.0,-0.022914196012062717,0.0,115,0.02684164047241211,0.88256230634914,0.88256230634914,25549,2.0563961798325425,0.0
236,1.6628241539001465,-0.2031898340085192,1.7862678726453214,2.0457858191564213,-1.9614650256928439,0.0,0.12012184747404135,0.1,0.06772160530090332,0.15504217147827148,0.04974388,0.9849504,-1.4021113970746746,0.0,-0.006037654796432167,0.0,119,0.02691793441772461,0.982785573124537,0.982785573124537,25668,-0.9569651579526118,0.0
237,1.6566736698150635,-1.4565992397553027,0.8645874427942175,0.04090696420284834,-1.9582102205298473,0.0,0.11254660680533933,0.1,0.0023326873779296875,0.044829368591308594,0.05022124,2.224414,-1.4075601813427374,0.0,-0.019413901171733455,0.0,115,0.02671647071838379,0.8822825827128985,0.8822825827128985,25783,2.046963903559981,0.0
238,1.7353696823120117,-1.2159450048960545,1.3105163752345839,1.0538599723213093,-1.985414206227198,0.0,0.10586567033669689,0.1,0.0022192001342773438,0.04063105583190918,0.04991124,2.3837557,-1.3883986636980692,0.0,-0.01954347079103094,0.0,104,0.02123880386352539,0.9144436112697241,0.9144436112697241,25887,1.0455750029154987,0.0
239,1.8553736209869385,-0.9676329948935534,1.7336781185689252,2.035153763491876,-1.981440835165442,0.0,0.13180569977866685,0.1,0.0021507740020751953,0.04137396812438965,0.04982315,1.269579,-1.3463220968176175,0.0,-0.016226392575246332,0.0,113,0.006753206253051758,0.9430334464236059,0.9430334464236059,26000,2.0453173333146393,0.0
240,1.9570350646972656,-1.9728801245937975,0.00247852760804902,-1.968819104054054,-1.975253510000471,0.0,0.11930953483696372,0.1,0.004882335662841797,0.040915727615356445,0.05059863,1.0861465,-1.4089778995952353,0.0,-0.026294043075178186,0.0,114,0.026570558547973633,0.8816116652560312,0.8816116652560312,26114,2.044645079011872,0.0
241,1.7469563484191895,-1.9667679918647558,0.005759288848194284,-1.9607432953584216,-1.974323201593165,0.0,0.11328464334571917,0.1,0.002349853515625,0.04059171676635742,0.048734862,1.2373168,-1.4647569088221875,0.0,-0.0262150070872,0.0,107,0.025973796844482422,0.8820911970000148,0.8820911970000148,26221,1.0435572920511045,0.0
242,1.662400245666504,-0.44960468919690677,1.6521998679906822,2.049719767617312,-1.981116046552066,0.0,0.11601565434474258,0.1,0.0022194385528564453,0.040405988693237305,0.049745306,1.2327055,-1.3632416868596595,0.0,-0.012670367230606147,0.0,108,0.02595973014831543,0.9726741823332193,0.9726741823332193,26329,2.0447818140527114,0.0
243,1.6572072505950928,-0.9616810226447676,1.7344874984324474,2.042497063629779,-1.9756689320644167,0.0,0.11405065359836364,0.1,0.002244710922241211,0.04031515121459961,0.049922302,1.4532987,-1.3230856204381702,0.0,-0.01615488856760379,0.0,97,0.002367734909057617,0.9537844454558393,0.9537844454558393,26426,0.044220771180777385,0.0
244,1.7826220989227295,-0.9736287027725044,1.7314111272564758,2.0252483037872935,-1.9792039292736052,0.0,0.11435376426601529,0.1,0.002107381820678711,0.041257619857788086,0.05043308,1.7609121,-1.2881399286716038,0.0,-0.01630713639115136,0.0,106,0.023927927017211914,0.9475096161527369,0.9475096161527369,26532,1.0434000196598192,0.0
245,1.666311264038086,-1.966270152529966,0.007338062404533658,-1.9556429274405922,-1.9742386352707944,0.0,0.11025073296204485,0.1,0.0023262500762939453,0.040086984634399414,0.050090585,1.3037673,-1.35595295105744,0.0,-0.026224937530584844,0.0,104,0.02599048614501953,0.8819448659244241,0.8819448659244241,26636,-0.9551842898456259,0.0
246,1.7117528915405273,-1.9705520336341122,0.005078120978744873,-1.9649261296812937,-1.975791602765275,0.0,0.11519754019878638,0.1,0.002195596694946289,0.04019570350646973,0.05028474,1.1602451,-1.4174128593151072,0.0,-0.02626465781743076,0.0,105,0.026758670806884766,0.882854502225888,0.882854502225888,26741,-1.9554592172993888,0.0
247,1.7829265594482422,0.03545749423950406,2.0073645511330707,2.0459695773305473,-1.9800565060047068,0.0,0.11081143381497204,0.1,0.0020227432250976562,0.04025697708129883,0.049952388,1.0272225,-1.2721258239596462,0.0,-0.006188385216032391,0.0,115,0.04082822799682617,1.0050152287110945,1.0050152287110945,26856,-1.9560298780731096,0.0
248,1.796316385269165,-0.9738048036815664,1.7310161761236522,2.024400282616163,-1.9762403394588326,0.0,0.12774053606192065,0.1,0.0020668506622314453,0.04065537452697754,0.04945711,1.2757037,-1.2422937219318382,0.0,-0.016306984530397924,0.0,114,0.01118922233581543,0.9423027209178023,0.9423027209178023,26970,0.04379400383586418,0.0
249,1.8460817337036133,-1.4393047066265061,0.865316171664695,0.05946481552241378,-1.9410470797414423,0.0,0.11788260230061612,0.1,0.0021271705627441406,0.04066610336303711,0.05115975,1.7359688,-1.261994820401305,0.0,-0.022535136376120445,0.0,116,0.01600193977355957,0.8815422262519624,0.8815422262519624,27086,-1.9573817986278401,0.0
250,1.6647210121154785,-1.9685892989102858,0.0071512760037488925,-1.9571400188831867,-1.9767933252649055,0.0,0.11202481326305178,0.1,0.002522706985473633,0.04234790802001953,0.05046156,1.0616529,-1.3326542682522031,0.0,-0.02623799986865053,0.0,110,0.01545262336730957,0.8826451753536416,0.8826451753536416,27196,-1.953981647435579,0.0
251,1.7716028690338135,-0.45885477917561135,1.6745654087413289,2.0702889153820174,-1.9733899283720278,0.0,0.11298928321218511,0.1,0.0023729801177978516,0.041901350021362305,0.050424624,1.3472676,-1.245274319344544,0.0,-0.012779389079682697,0.0,116,0.023092269897460938,0.9621817598177094,0.9621817598177094,27312,0.04805068272052959,0.0
252,1.710231065750122,-1.465433508966178,0.8675973848144363,0.03727426040583137,-1.9718024316960587,0.0,0.12635051133453093,0.1,0.0024063587188720703,0.04227423667907715,0.04949731,1.1786854,-1.2672902383067075,0.0,-0.022865269965555695,0.0,117,0.027495384216308594,0.8828795424275604,0.8828795424275604,27429,-1.9525027420706136,0.0
253,1.6770460605621338,-0.9708931687848716,1.7309035581984626,2.0271174692144323,-1.9733779848512354,0.0,0.11842674707600487,0.1,0.002220630645751953,0.04226231575012207,0.05004104,1.5345272,-1.237650531354524,0.0,-0.01627065993751202,0.0,120,0.0170595645904541,0.9401813760298171,0.9401813760298171,27549,-1.9536570388356822,0.0
254,1.592897891998291,-1.9660139839574502,0.0053870097152316195,-1.9573822227145619,-1.9720163420728776,0.0,0.10951486456820399,0.1,0.002209901809692383,0.04211568832397461,0.04978533,1.1612761,-1.3104868766148168,0.0,-0.026202163953698066,0.0,113,0.030323266983032227,0.8824739541989447,0.8824739541989447,27662,-0.9556597203937459,0.0
255,1.6014318466186523,0.5454724726777205,2.067318093953664,3.049835891178641,-1.9657801839429063,0.0,0.11793081541374968,0.1,0.0022537708282470703,0.04114532470703125,0.04988032,0.9200778,-1.124890941685563,0.0,-0.0027211256637794936,0.0,118,0.030902624130249023,1.0302630317645973,1.0302630317645973,27780,1.045227703357385,0.0
256,1.6554133892059326,-0.4630099804471101,1.5024383840390512,1.0451786698468004,-1.969578122934631,0.0,0.11291164869454777,0.1,0.0021474361419677734,0.04010629653930664,0.049873814,1.0158496,-1.0587028455617178,0.0,-0.012831639563999377,0.0,108,0.027176856994628906,0.9634273318096561,0.9634273318096561,27888,-1.9558452433800761,0.0
257,2.0904762744903564,-1.4631239191970271,0.8691098804235772,0.042100927815693856,-1.977402037726183,0.0,0.1209592545764794,0.1,0.0022025108337402344,0.043840885162353516,0.050287265,1.105202,-1.0991449529252488,0.0,-0.022831604710997263,0.0,104,0.02080059051513672,0.8835891338973656,0.8835891338973656,27992,-1.9554997566170027,0.0
258,1.6089725494384766,-0.4662224881207005,1.5063154143333086,1.04833657568726,-1.978802182002022,0.0,0.11195149350265239,0.1,0.0023200511932373047,0.04182791709899902,0.04967791,1.0284165,-1.035852706444794,0.0,-0.0128833486080638,0.0,117,0.02455759048461914,0.9533110494385708,0.9533110494385708,28109,-1.9492882894366845,0.0
259,1.7132811546325684,-1.967489188777912,0.0055271573657823545,-1.9618051125122042,-1.9766369057173032,0.0,0.1103553294645332,0.1,0.002315998077392578,0.040595293045043945,0.049374424,1.2802215,-1.1290163546781058,0.0,-0.026231343384078454,0.0,94,0.0026984214782714844,0.8827985767408009,0.8827985767408009,28203,-1.9522430151844175,0.0
260,1.6588234901428223,-1.2033138718414584,1.3093572704224805,1.0645439566369552,-1.9653683747740118,0.0,0.11122162596693053,0.1,0.0021753311157226562,0.04126381874084473,0.05009158,1.8394997,-1.136446106394441,0.0,-0.01937571236504325,0.0,116,0.02709197998046875,0.9093515497855683,0.9093515497855683,28319,-1.9498192249323623,0.0
261,1.6984567642211914,-1.4609001429586637,0.8721922431283383,0.049715706883306954,-1.9775850520508678,0.0,0.11710651286981148,0.1,0.0021898746490478516,0.04093170166015625,0.049813002,1.5699664,-1.1688915100508634,0.0,-0.019474619768001987,0.0,121,0.015736818313598633,0.8826866363214824,0.8826866363214824,28440,-1.9479609490805425,0.0
262,1.7529575824737549,0.7908484878152795,1.6417910369983453,2.0482785007214614,-1.9662577589924337,0.0,0.12118792126310653,0.1,0.002359628677368164,0.04410409927368164,0.05048761,0.7910035,-0.9729175102642492,0.0,0.0005545659497510517,0.0,119,0.026622533798217773,1.0548042396219084,1.0548042396219084,28559,-0.9528795530647619,0.0
263,2.0687026977539062,-1.9651616131930598,0.007289155670279619,-1.9591104045915229,-1.977599440228215,0.0,0.1009465174291399,0.1,0.0022957324981689453,0.0397944450378418,0.049789485,1.8728257,-1.0721419205571303,0.0,-0.02619204019468889,0.0,95,0.0023908615112304688,0.8827797569343653,0.8827797569343653,28654,-0.9484172830407585,0.0
264,1.8185980319976807,0.03658630908860211,2.0054709022334327,2.0434700045477148,-1.9752098311080695,0.0,0.1231473698008995,0.1,0.002315521240234375,0.04249715805053711,0.04951059,0.9517079,-0.9612690975925571,0.0,-0.006170606352143105,0.0,120,0.030498504638671875,0.9994208136740724,0.9994208136740724,28774,2.047853005544581,0.0
265,1.670682668685913,-1.9623796045141129,0.008545604408939665,-1.9524476689891208,-1.9726778303995725,0.0,0.11551303595896394,0.1,0.006241798400878906,0.0403294563293457,0.049636748,1.239883,-1.0613801482847127,0.0,-0.026166561032679007,0.0,101,0.026102304458618164,0.8833049189419732,0.8833049189419732,28875,1.0501840389322248,0.0
266,1.9626264572143555,-1.9631279911514894,0.010649936318452024,-1.9474717674428246,-1.9772569266310938,0.0,0.11816749170352536,0.1,0.0022363662719726562,0.04134368896484375,0.0500282,1.1482054,-1.1515549325713903,0.0,-0.02616542146609727,0.0,123,0.02624964714050293,0.8809690411343657,0.8809690411343657,28998,1.0492171228409202,0.0
267,2.030663013458252,-1.9704224738498821,0.009178944123631834,-1.954996665438633,-1.9791608556855573,0.0,0.11725423833649154,0.1,0.0023927688598632812,0.05608534812927246,0.0502406,1.0427573,-1.2334416866992395,0.0,-0.026267796141513325,0.0,115,0.033487558364868164,0.8823112000650587,0.8823112000650587,29113,2.0477632543188093,0.0
268,1.8743326663970947,-0.7145416727017504,2.1681252483734834,3.040748552478279,-1.974882191952276,0.0,0.11343141650613951,0.1,0.0021185874938964844,0.040872812271118164,0.049689256,1.7900442,-1.1815516852994905,0.0,-0.012854405074956447,0.0,103,0.020102500915527344,0.9770460593478385,0.9770460593478385,29216,1.046543855954692,0.0
269,1.8534047603607178,-0.21391722333030688,1.785718231100808,2.0220387306346717,-1.9695477811531708,0.0,0.11608700014326119,0.1,0.002252340316772461,0.040827274322509766,0.049765214,1.0507573,-1.084788239102572,0.0,-0.009519899542999966,0.0,114,0.011236190795898438,0.9849720721885943,0.9849720721885943,29330,1.0422614071826926,0.0
270,1.794649362564087,-1.9669982502640244,0.007348839522035474,-1.9555654087966023,-1.9738548478532179,0.0,0.10943965340046405,0.1,0.002253293991088867,0.2335360050201416,0.050355855,1.0575106,-1.1730092402187173,0.0,-0.026224275985922682,0.0,103,0.02743697166442871,0.8824471817200175,0.8824471817200175,29433,1.041868599107729,0.0
271,1.8274836540222168,-1.9715510613917682,0.0030143155719881214,-1.9668856859024257,-1.974873234480754,0.0,0.12028914673646078,0.1,0.04442715644836426,0.04120898246765137,0.049528528,1.0965269,-1.2528634223360224,0.0,-0.026278189068939757,0.0,115,0.02687668800354004,0.8808464756481501,0.8808464756481501,29548,1.0470317744674156,0.0
272,1.9422614574432373,0.2877948377939433,2.2834174244199414,3.034933597437167,-1.9714190451946134,0.0,0.1170673543831052,0.1,0.0021562576293945312,0.04024004936218262,0.050078165,1.2438357,-1.0987975963230259,0.0,-0.0028224057951048093,0.0,120,0.028185606002807617,1.0122489655704425,1.0122489655704425,29668,0.051018149173543526,0.0
273,1.870908498764038,-1.9732700228475442,0.002980886984592976,-1.969847774042164,-1.9776759026714912,0.0,0.11313557965584586,0.1,0.002200603485107422,0.040460824966430664,0.04896735,1.161794,-1.1862448389754778,0.0,-0.02630009366762235,0.0,112,0.0334925651550293,0.8815855128794792,0.8815855128794792,29780,0.05275952280497709,0.0
274,1.9552686214447021,-1.96757347337927,0.0050412730615666465,-1.9592780617271888,-1.972855767501717,0.0,0.11520975210818855,0.1,0.002562999725341797,0.043282508850097656,0.05023428,1.1437881,-1.2643777024158571,0.0,-0.026226981286123757,0.0,110,0.004734039306640625,0.8824345949466579,0.8824345949466579,29890,-1.9539795046223947,0.0
275,1.9478423595428467,-1.970407278680886,0.007598164069054586,-1.9604715387820972,-1.980867802439019,0.0,0.11179052624686894,0.1,0.0023403167724609375,0.04065537452697754,0.050091058,1.1728958,-1.33498066004236,0.0,-0.026260843338843633,0.0,100,0.0020904541015625,0.8833898654197596,0.8833898654197596,29990,-1.9533660237635138,0.0
276,1.934377908706665,-1.4642128124633873,0.8689604275449909,0.04081114247305262,-1.9731026957262128,0.0,0.1103717835222642,0.1,0.0021829605102539062,0.04032135009765625,0.050521243,1.6255009,-1.3479038752844628,0.0,-0.02284811452818258,0.0,103,0.026537179946899414,0.8841237039736604,0.8841237039736604,30093,-1.9496119661358433,0.0
277,1.8782503604888916,-0.9476626501888861,1.7373034401201086,2.0613425251820106,-1.9673395658443311,0.0,0.1121792258995858,0.1,0.002188444137573242,0.04410862922668457,0.04911408,1.8750751,-1.307879752774905,0.0,-0.015962888082886095,0.0,118,0.029523134231567383,0.9405577774958512,0.9405577774958512,30211,-1.947977204061451,0.0
278,2.0183680057525635,-1.9635020754848982,0.014835590674884358,-1.9399218003826657,-1.9797597160128226,0.0,0.10970263182792778,0.1,0.0024056434631347656,0.044652462005615234,0.049979683,1.265352,-1.3734419850459043,0.0,-0.026177899233303544,0.0,113,0.02964019775390625,0.8807176809484512,0.8807176809484512,30324,-1.9445972035117618,0.0
279,1.8282859325408936,-1.9765964654560177,0.005128227831791956,-1.9683251447348469,-1.9824055847938777,0.0,0.10482664137533124,0.1,0.0025861263275146484,0.04360032081604004,0.049936768,1.3918045,-1.4337574330869156,0.0,-0.026347933761257096,0.0,94,0.0024423599243164062,0.8844853254652989,0.8844853254652989,30418,0.05238789778540798,0.0
280,1.9082520008087158,-1.2156213368279163,1.2985089211438434,1.0334066511908606,-1.9798027716928595,0.0,0.11680186971319487,0.1,0.0024213790893554688,0.0702049732208252,0.049986728,3.1459494,-1.4119438234610158,0.0,-0.01953749728465104,0.0,121,0.028458118438720703,0.907893948277179,0.907893948277179,30539,-1.9549693909197856,0.0
281,1.915092945098877,0.03581654958704206,2.0054733292005817,2.043545740893422,-1.9766396898524712,0.0,0.1164835170831547,0.1,0.0025022029876708984,0.04525446891784668,0.04994691,0.9738091,-1.26716778615621,0.0,-0.0061818523182236,0.0,109,0.023584604263305664,1.0114130989950254,1.0114130989950254,30648,-1.9563507305893006,0.0
282,1.8539540767669678,-1.9677370437171193,0.0052165411978000445,-1.9611250598996048,-1.9756934761909857,0.0,0.10947090530336495,0.1,0.0028541088104248047,0.1734316349029541,0.05008312,0.9180035,-1.337224711912301,0.0,-0.02622637165486944,0.0,106,0.03086709976196289,0.8827239894346912,0.8827239894346912,30754,-1.9498956447227547,0.0
283,1.8386976718902588,-0.9596143935290473,1.7308324108828492,2.0381735074826404,-1.9729359514945985,0.0,0.11867096597463611,0.1,0.0023801326751708984,0.04180169105529785,0.04982052,1.7775134,-1.2994636800739756,0.0,-0.012788027020377443,0.0,121,0.018947839736938477,0.9397195620859438,0.9397195620859438,30875,-1.9563653042717766,0.0
284,1.931335210800171,-0.6976925495919102,2.1630501688746047,3.04870139647473,-1.9639752754712159,0.0,0.11279980942259724,0.1,0.002274751663208008,0.04098963737487793,0.050033715,1.9051555,-1.2392865670257691,0.0,-0.012632679344367384,0.0,118,0.020696401596069336,0.9669058885392297,0.9669058885392297,30993,2.0434715669369496,0.0
285,1.8037896156311035,-1.217419599559559,0.8405480514070991,0.05170629869039867,-1.978846170049126,0.0,0.11283202656346425,0.1,0.0021910667419433594,0.04040789604187012,0.04927851,1.3570356,-1.2370998702791483,0.0,-0.022893767184595834,0.0,113,0.02635502815246582,0.8710008420337783,0.8710008420337783,31106,2.0468876032895964,0.0
286,2.007307291030884,-0.9639845454265199,1.744165029392292,2.056997288948871,-1.9727301413593041,0.0,0.11184510553222028,0.1,0.0022923946380615234,0.04075503349304199,0.05035545,1.4244934,-1.2097883377938854,0.0,-0.016179182367405107,0.0,102,0.02018284797668457,0.9517593065021984,0.9517593065021984,31208,2.0475579528209242,0.0
287,2.14753794670105,-1.9727899288920512,0.010504369198608934,-1.9550764365584257,-1.9823547014108422,0.0,0.10791975556498469,0.1,0.07268023490905762,0.2235407829284668,0.049883142,1.1028044,-1.286088496903702,0.0,-0.026294150642204014,0.0,106,0.016547441482543945,0.8821972169137793,0.8821972169137793,31314,2.0460481844564384,0.0
288,1.8312695026397705,-1.970969952443971,0.009096666078274059,-1.956010254471551,-1.980561973128759,0.0,0.11555973047597012,0.1,0.0023956298828125,0.040643930435180664,0.049666587,0.9981343,-1.354576642457729,0.0,-0.026271978835798033,0.0,109,0.010917901992797852,0.8812424838798614,0.8812424838798614,31423,-1.9534616150349777,0.0
289,1.7729887962341309,-1.2175189547479621,1.3044285696729865,1.0418160641393817,-1.972150349853983,0.0,0.1093509771422894,0.1,0.0023009777069091797,0.040917158126831055,0.050009605,1.7967337,-1.3408708736867525,0.0,-0.019555670881751697,0.0,110,0.011131525039672852,0.911666425676699,0.911666425676699,31533,2.0480910391182277,0.0
290,1.7634992599487305,-0.9599053734562399,1.7330219524658304,2.0416859932186515,-1.98145548803543,0.0,0.11373589276967651,0.1,0.0023314952850341797,0.048575639724731445,0.049470093,2.5653462,-1.3027743236637013,0.0,-0.016121360182555063,0.0,121,0.026929378509521484,0.9393725958493417,0.9393725958493417,31654,0.05032236015172842,0.0
291,1.7897160053253174,-1.213161693159187,1.3055523921967545,1.04812123561024,-1.9673444558965762,0.0,0.12114543707155423,0.1,0.0022764205932617188,0.04126739501953125,0.049951132,1.4426516,-1.29381306061325,0.0,-0.019497668187669404,0.0,116,0.029729604721069336,0.9100973345961006,0.9100973345961006,31770,-1.952773291505243,0.0
292,1.869065284729004,-1.9648631812819375,0.007458563376658969,-1.957761330661622,-1.9760068133713684,0.0,0.10882821458758901,0.1,0.0021758079528808594,0.0439913272857666,0.050058246,1.2525276,-1.3609180726801189,0.0,-0.026187265853221495,0.0,113,0.031021833419799805,0.8814842216062925,0.8814842216062925,31883,3.05048797962283,0.0
293,1.998882532119751,-1.9770106182666674,0.0038446155801193267,-1.9731573034658871,-1.9820828366016598,0.0,0.1164307906200075,0.1,0.002138376235961914,0.04314613342285156,0.05000866,1.0289843,-1.4225273272387737,0.0,-0.02634934124901989,0.0,108,0.02644181251525879,0.8831516290898089,0.8831516290898089,31991,3.0497739613386003,0.0
294,1.9241697788238525,-1.9656374411828763,0.014898325342691886,-1.9463452503755567,-1.98480754639943,0.0,0.10706742084273138,0.1,0.002393960952758789,0.04289579391479492,0.050291155,1.3281212,-1.476838338633184,0.0,-0.026202835971939634,0.0,104,0.02657151222229004,0.8825252088573731,0.8825252088573731,32095,0.053510420066422926,0.0
295,1.7962751388549805,-1.9503073293986986,0.021485282996530363,-1.9146228540042896,-1.971622844034444,0.0,0.10880031006007541,0.1,0.007479190826416016,0.04623532295227051,0.050298907,1.0468602,-1.5241852377097356,0.0,-0.02599474840612238,0.0,114,0.03123164176940918,0.881638935088847,0.881638935088847,32209,-1.9480525937113533,0.0
296,1.8238029479980469,-1.9648449539536108,0.012990024228614953,-1.9424415224198217,-1.973910403065888,0.0,0.11043552828939128,0.1,0.0023033618927001953,0.04076886177062988,0.04995692,1.2626351,-1.5682512093341232,0.0,-0.02619413021756984,0.0,114,0.026211977005004883,0.8820938475974022,0.8820938475974022,32323,-1.9480105116696802,0.0
297,1.8979239463806152,-1.217996509388723,1.3087166929503424,1.0487671605729683,-1.9743124540995463,0.0,0.11638562982506821,0.1,0.0023293495178222656,0.04189944267272949,0.049290754,1.6213431,-1.5332257393395832,0.0,-0.019562132372995263,0.0,117,0.026262521743774414,0.9103700245534906,0.9103700245534906,32440,-1.9434914763481437,0.0
298,2.0014164447784424,0.03447354373490774,2.01558471438804,2.0614973696772374,-1.9841747383888162,0.0,0.11614772115090292,0.1,0.002758026123046875,0.0480647087097168,0.04993435,0.9303075,-1.376455811032134,0.0,-0.006210404948660457,0.0,106,0.026286602020263672,1.0162471486400781,1.0162471486400781,32546,1.0518607623391136,0.0
299,1.989654541015625,-0.9617165525592088,1.7331260103095032,2.040110380032205,-1.9760641181943122,0.0,0.11298479194245692,0.1,0.0023012161254882812,0.04093599319458008,0.049861647,1.7936202,-1.3349818851848416,0.0,-0.016154863850245012,0.0,109,0.026193857192993164,0.9447972298330979,0.9447972298330979,32655,-1.950553228230823,0.0
300,2.0623581409454346,-1.2088072633626543,1.3060741221663423,1.0533090890288295,-1.9786789987081057,0.0,0.12099653389992238,0.1,0.002368927001953125,0.04460310935974121,0.050257985,1.6022781,-1.322364423002623,0.0,-0.019451535696325392,0.0,106,0.026206493377685547,0.914011716149238,0.914011716149238,32761,1.0499849411999944,0.0
301,1.9625141620635986,-1.9687171705307498,0.007386490992859029,-1.9570248787504994,-1.9766273930710987,0.0,0.11264493288594268,0.1,0.002278566360473633,0.040673017501831055,0.04992825,1.1206235,-1.3869996977554357,0.0,-0.02624172050568599,0.0,108,0.026467084884643555,0.8829827987748257,0.8829827987748257,32869,-0.9491363670864991,0.0
302,1.8917946815490723,-1.9664523066350157,0.00858253454293181,-1.956220719124275,-1.9754129577046324,0.0,0.11706495991798332,0.1,0.022053003311157227,0.044988155364990234,0.049980618,1.01133,-1.4449449586433938,0.0,-0.026215126012184606,0.0,122,0.03296518325805664,0.8813965799768798,0.8813965799768798,32991,-1.9500356259826683,0.0
303,1.9361169338226318,-0.4587613756125745,2.068302526259483,3.0490695895846454,-1.9776676995317677,0.0,0.11160508064275428,0.1,0.002166271209716797,0.04595470428466797,0.049512465,1.6928865,-1.346326600340312,0.0,-0.009444822872307428,0.0,109,0.027883291244506836,0.9810895305865347,0.9810895305865347,33100,-1.946809263122468,0.0
304,1.9475622177124023,-1.9731374574958587,0.009227970250737351,-1.9581739270193144,-1.9814040731934968,0.0,0.12032655736313921,0.1,0.002317667007446289,0.04168105125427246,0.049600743,1.1226964,-1.409007686055867,0.0,-0.026302278128994584,0.0,122,0.026968002319335938,0.8813523948524626,0.8813523948524626,33222,1.0499400676789035,0.0
305,2.0501163005828857,-1.9729901011810242,0.0024370425915063204,-1.969395259630063,-1.9753368252236,0.0,0.10554312587326273,0.1,0.0023260116577148438,0.04275679588317871,0.049635224,1.1053966,-1.4654059275683826,0.0,-0.026298129828025273,0.0,95,0.0021245479583740234,0.8842452974297482,0.8842452974297482,33317,-1.9519267325997705,0.0
306,1.8723268508911133,-1.9728414153335465,0.0062447693070930696,-1.9661577089948752,-1.9826760266209968,0.0,0.11871492345265221,0.1,0.002171754837036133,0.04052734375,0.04970154,1.1267755,-1.516149476344899,0.0,-0.026293853530425355,0.0,111,0.026363134384155273,0.8826044552216494,0.8826044552216494,33428,-1.9524923403397425,0.0
307,1.8677449226379395,-0.20534194705854847,1.7889074811323284,2.041589543768759,-1.9625439934532602,0.0,0.11551450957986743,0.1,0.002611398696899414,0.04411792755126953,0.04944148,0.98930985,-1.385068723416264,0.0,-0.009416835831678426,0.0,112,0.029421091079711914,0.9899338631416855,0.9899338631416855,33540,-1.9507830635498993,0.0
308,1.9021482467651367,-0.21641976400749996,1.789133381462756,2.042075350528172,-1.9706782451720557,0.0,0.1139522900634478,0.1,0.002203702926635742,0.04065561294555664,0.05023362,1.1483964,-1.2682038274753877,0.0,-0.00954234349572325,0.0,119,0.026848793029785156,0.9812113349760809,0.9812113349760809,33659,-1.946713357458151,0.0
309,1.9646236896514893,-1.965259945627243,0.004850740047763175,-1.9580441808634328,-1.9717078452583532,0.0,0.1181147288746032,0.1,0.002385854721069336,0.04121661186218262,0.050514925,1.0576082,-1.3379094392905733,0.0,-0.026193184745066718,0.0,120,0.027023792266845703,0.8811103406178515,0.8811103406178515,33779,-1.9462348200203943,0.0
310,1.8354835510253906,-0.7115626118086178,2.165846726468816,3.0397474751330904,-1.9715054464283805,0.0,0.10969392007427335,0.1,0.0021741390228271484,0.04005765914916992,0.04954226,2.15542,-1.2752747565423779,0.0,-0.012817097696342658,0.0,107,0.03554940223693848,0.9744212464965653,0.9744212464965653,33886,-1.9533406584943342,0.0
311,1.8105921745300293,-1.9698417115016726,0.006609580293127231,-1.9613146795393612,-1.9793148962796405,0.0,0.12153822387472454,0.1,0.07095217704772949,0.10167431831359863,0.050217193,1.0506933,-1.3447314520383074,0.0,-0.026259092692118652,0.0,116,0.02745342254638672,0.8806317166439872,0.8806317166439872,34002,-1.951068598917374,0.0
312,1.9935872554779053,-1.961703173238515,0.012314170976379836,-1.941126966355681,-1.9737893113612073,0.0,0.11591408371268719,0.1,0.0020804405212402344,0.04097270965576172,0.050045975,1.1178361,-1.4064286241583281,0.0,-0.026157582961124793,0.0,111,0.03167843818664551,0.8813192908941266,0.8813192908941266,34113,-1.953091606346149,0.0
313,1.868417501449585,-1.9621902203023625,0.013794118257854418,-1.9454893948723297,-1.9806422312369534,0.0,0.10799367607245641,0.1,0.002081155776977539,0.03996706008911133,0.050709005,1.286711,-1.4620047837727317,0.0,-0.026162414674366686,0.0,106,0.02265310287475586,0.8816885146631221,0.8816885146631221,34219,-1.9532861110199347,0.0
314,1.9128625392913818,-1.9694163694774844,0.00954253055169892,-1.9536697871291449,-1.9791377880536911,0.0,0.10947097411459394,0.1,0.002028226852416992,0.03964853286743164,0.05007913,1.0666864,-1.5127459423432068,0.0,-0.02625256043477239,0.0,104,0.0261688232421875,0.8823277018676763,0.8823277018676763,34323,-1.9522031520892218,0.0
315,2.073775291442871,-1.976902339089377,0.0021949149716197795,-1.9744975364592932,-1.9792930016282468,0.0,0.11139984331316494,0.1,0.0020859241485595703,0.040351152420043945,0.049931318,1.015542,-1.559161582017824,0.0,-0.026351048823813637,0.0,109,0.02655029296875,0.8818167516671994,0.8818167516671994,34432,-1.9463393679648011,0.0
316,2.138160467147827,-1.2063187774828443,1.305614833359034,1.0550561446919264,-1.9682061228801395,0.0,0.11075807454600359,0.1,0.0022068023681640625,0.04101204872131348,0.049355235,1.6809514,-1.523877301564326,0.0,-0.0194188752054671,0.0,118,0.02643585205078125,0.9083736671115751,0.9083736671115751,34550,-1.9451498846372557,0.0
317,1.8181288242340088,-0.9751541453925937,1.7387836348433539,2.036504368845632,-1.9828043164715132,0.0,0.11388486231867388,0.1,0.005686521530151367,0.039608001708984375,0.05012199,1.7564311,-1.469004985947153,0.0,-0.016328953710268528,0.0,108,0.028565645217895508,0.9467353923393546,0.9467353923393546,34658,-1.9459367660921847,0.0
318,1.9509868621826172,-1.962827510717275,0.0072459287247668685,-1.9546787400783514,-1.9719053636919013,0.0,0.11716991098175399,0.1,0.002042055130004883,0.04034233093261719,0.0507703,1.0214256,-1.5183872384241652,0.0,-0.02616999670836912,0.0,120,0.02704906463623047,0.8807528143502313,0.8807528143502313,34778,-1.9450036979623622,0.0
319,1.8765251636505127,-1.9658165792402666,0.008693798447685508,-1.95274374310442,-1.9771967994688129,0.0,0.10737980256199343,0.1,0.0020339488983154297,0.03968191146850586,0.049800273,1.2133847,-1.5631301725057754,0.0,-0.026206731177575028,0.0,93,0.0021555423736572266,0.8838322167468861,0.8838322167468861,34871,-1.9481252891862717,0.0
320,1.8963191509246826,-1.9702712059688825,0.00372534918194163,-1.966800406727699,-1.9764179725630049,0.0,0.10357272305652866,0.1,0.002382040023803711,0.04212784767150879,0.050142415,1.618838,-1.603844275852086,0.0,-0.026263009526265667,0.0,102,0.0268704891204834,0.8824808460240163,0.8824808460240163,34973,2.0483416254699676,0.0
321,2.029689311981201,0.04100715845425201,1.9958297006410304,2.042684810027722,-1.9564029597001744,0.0,0.11335534710780354,0.1,0.002288818359375,0.04501223564147949,0.050299075,1.2158265,-1.4393591324214523,0.0,-0.002784367399246984,0.0,120,0.028326034545898438,0.9989009207284499,0.9989009207284499,35093,-1.9416208671721866,0.0
322,1.8612427711486816,-0.7081116383271203,1.6441172252668286,2.049481094103881,-1.9665734844365808,0.0,0.1117907793923415,0.1,0.002177715301513672,0.04714226722717285,0.04944389,2.2372246,-1.3662343830120192,0.0,-0.0160997851707186,0.0,113,0.022016048431396484,0.9495273882122545,0.9495273882122545,35206,-1.9544170473915339,0.0
323,1.811941146850586,-1.4608097409440006,0.5023335070309943,-0.9569518576658569,-1.968109382617265,0.0,0.1213092662262642,0.1,0.0021882057189941406,0.04443526268005371,0.050046414,0.9029284,-1.3756919188052172,0.0,-0.0261451093465939,0.0,117,0.026463031768798828,0.8592581055918211,0.8592581055918211,35323,2.0470100303159744,0.0
324,1.852794885635376,-1.9603783292849783,0.006370190738618356,-1.95334368178945,-1.9707274824525234,0.0,0.1178147384279274,0.1,0.0026404857635498047,0.12066316604614258,0.0492503,1.2362888,-1.4341605598531935,0.0,-0.02614628196586303,0.0,121,0.029163122177124023,0.881092259584266,0.881092259584266,35444,-1.9538351284768576,0.0
325,2.037260055541992,-1.2178366832635146,1.2998169171914087,1.0335050317866168,-1.9736584506260548,0.0,0.11376980363673644,0.1,0.0022766590118408203,0.04319453239440918,0.049789973,1.7355086,-1.4125281721942256,0.0,-0.01956104657936224,0.0,107,0.0282289981842041,0.9130699222242995,0.9130699222242995,35551,1.0463641109837936,0.0
326,1.996253252029419,-1.9684296516511097,0.007740100686106106,-1.9556317801841807,-1.9750727648392443,0.0,0.12315545655314865,0.1,0.06899523735046387,0.7943763732910156,0.049953155,0.9674014,-1.468118320139914,0.0,-0.026239666684109788,0.0,114,0.04958510398864746,0.8813678088804732,0.8813678088804732,35665,-1.9543775539907173,0.0
327,1.9809558391571045,-1.970260368524459,0.00767562407167777,-1.9582861041098711,-1.9788930512343277,0.0,0.1242785852268932,0.1,0.06430387496948242,0.4974203109741211,0.050790586,0.9373644,-1.5183325249783686,0.0,-0.026262239132500906,0.0,122,0.0292508602142334,0.880823941808065,0.880823941808065,35787,-1.9503066897258217,0.0
328,2.0565249919891357,-0.9614391447693612,1.731883233238063,2.0382628947623567,-1.9656802934322757,0.0,0.12139394252033778,0.1,0.06382083892822266,0.7990396022796631,0.05025462,1.3704768,-1.4626431869574679,0.0,-0.01614460189096744,0.0,118,0.0302734375,0.9410366429174216,0.9410366429174216,35905,-1.9549547044794406,0.0
329,2.10903263092041,-0.9636775738371735,1.7320376952713823,2.036271036428957,-1.975537027241923,0.0,0.11250344872499811,0.1,0.002179384231567383,0.04157662391662598,0.04980327,1.7499726,-1.4127466256454384,0.0,-0.016177311799957086,0.0,114,0.025853395462036133,0.9443285957322289,0.9443285957322289,36019,2.049656459476029,0.0
330,1.889098882675171,-1.969920556623748,0.004286801187496525,-1.9656121317930777,-1.9767287514821221,0.0,0.1107294103955982,0.1,0.0023055076599121094,0.04138803482055664,0.049823437,1.045305,-1.4684640187432694,0.0,-0.026256611222907077,0.0,109,0.027886629104614258,0.8816037146631605,0.8816037146631605,36128,2.046568798876554,0.0
331,2.0381906032562256,-0.9637010686264502,1.7380477850445422,2.046667381353239,-1.9770261765310106,0.0,0.11651746452547747,0.1,0.0022001266479492188,0.04365229606628418,0.04962966,1.7093148,-1.4179877237315874,0.0,-0.0161829679765612,0.0,119,0.02914595603942871,0.9395998354145337,0.9395998354145337,36247,-1.9587898153500554,0.0
332,2.0337836742401123,-1.9643859815927218,0.006325014930167199,-1.9535099701323215,-1.9691069864346848,0.0,0.112687677480697,0.1,0.002257823944091797,0.043142080307006836,0.05017827,1.1166208,-1.472627549517701,0.0,-0.026182625355390326,0.0,104,0.022432327270507812,0.8832295558429207,0.8832295558429207,36351,1.0410263176510912,0.0
333,2.011972188949585,-0.7250447169636127,2.1683460013871185,3.030637471267979,-1.9815957328977998,0.0,0.11412828121549133,0.1,0.0022592544555664062,0.04075217247009277,0.049287956,2.028887,-1.3978692662622922,0.0,-0.012991807248604943,0.0,118,0.030163049697875977,0.9671461600770255,0.9671461600770255,36469,3.0410939416815626,0.0
334,2.0066263675689697,-0.7033459866917442,1.3007774181102043,1.0520019459897971,-1.969808844462749,0.0,0.11387893947582846,0.1,0.0021212100982666016,0.040184736251831055,0.05045063,1.0326358,-1.3284169383052373,0.0,-0.016037444589912207,0.0,113,0.0211331844329834,0.9258448448041113,0.9258448448041113,36582,3.044121497805295,0.0
335,2.039468288421631,-1.9643127596635854,0.011534656298369514,-1.9452991757288678,-1.973543232945065,0.0,0.11435056635985179,0.1,0.0020475387573242188,0.04503202438354492,0.049768887,1.0076369,-1.3920065204410723,0.0,-0.026182085304536785,0.0,115,0.011356830596923828,0.8819992238072824,0.8819992238072824,36697,2.0464912737905165,0.0
336,1.9296047687530518,-0.9647845642417063,1.7416164516454333,2.0517708322971258,-1.9761313799423867,0.0,0.11966466708316773,0.1,0.0020666122436523438,0.049262285232543945,0.049893018,1.8142235,-1.3492843248211357,0.0,-0.016191599435322414,0.0,120,0.026195764541625977,0.939753762457232,0.939753762457232,36817,-1.9527179506034134,0.0
337,1.812122106552124,-1.97690494463575,0.0009823681935507685,-1.9754092215355283,-1.9781633020857925,0.0,0.11423081155655644,0.1,0.06857728958129883,0.805600643157959,0.050943837,1.134926,-1.4120463868025972,0.0,-0.026349811354844016,0.0,106,0.05338406562805176,0.8831107777051829,0.8831107777051829,36923,-1.9547581557104043,0.0
338,1.944566011428833,-0.4663797657972435,1.6637634424552283,2.043110387413641,-1.9754087813836352,0.0,0.11820609132766911,0.1,0.06765079498291016,0.7497632503509521,0.050116036,1.3230797,-1.317479724702062,0.0,-0.012881831236729181,0.0,120,0.027683734893798828,0.9593486991037253,0.9593486991037253,37043,2.0466395348770794,0.0
339,1.9028403759002686,-1.2161245192743375,1.3076959928548584,1.0488523876384153,-1.9798528318506656,0.0,0.1095713701110653,0.1,0.0019466876983642578,0.04309391975402832,0.050280135,1.6619539,-1.3073442041592895,0.0,-0.019539904402473964,0.0,105,0.022794723510742188,0.9143373921738787,0.9143373921738787,37148,-1.9444358665196757,0.0
340,1.972245693206787,-1.968986973996435,0.006154994180256954,-1.9593596726083142,-1.97626506601514,0.0,0.12130450381897653,0.1,0.0027191638946533203,0.04351067543029785,0.049502518,0.95768815,-1.3735084811430043,0.0,-0.02624917690922268,0.0,119,0.02669382095336914,0.8808429757616238,0.8808429757616238,37267,0.051582905236354115,0.0
341,1.8433480262756348,-1.7138434175281199,0.4274064044607682,-0.9735700975972535,-1.9638494218135505,0.0,0.11805531632072042,0.1,0.00234222412109375,0.042122602462768555,0.049545895,1.1746918,-1.4075419747815159,0.0,-0.026176140110316194,0.0,118,0.020925521850585938,0.8728507247107117,0.8728507247107117,37385,-0.9543400228463105,0.0
342,1.8353369235992432,-1.948566400336151,0.026949324687519528,-1.9023108292527737,-1.9679336715221232,0.0,0.11927217454377925,0.1,0.0021741390228271484,0.04619741439819336,0.050382808,1.0039262,-1.4616444173369794,0.0,-0.025978148308123016,0.0,123,0.02044391632080078,0.8802932558610699,0.8802932558610699,37508,2.0510949420329254,0.0
343,2.227726459503174,-1.9671160344058183,0.005854273006072424,-1.9583928226977048,-1.9747370671673978,0.0,0.11250283084318448,0.1,0.0021164417266845703,0.04075264930725098,0.050149903,1.0495251,-1.5121915790438634,0.0,-0.026217806029519796,0.0,106,0.04040098190307617,0.8829354746945466,0.8829354746945466,37614,2.0395813425515494,0.0
344,2.2096598148345947,-1.973710788329849,0.0045830706976687195,-1.9683280156038292,-1.980621943896893,0.0,0.11218760747061617,0.1,0.0020492076873779297,0.055635929107666016,0.050969064,0.98814726,-1.5583434999724621,0.0,-0.026317848609763557,0.0,114,0.01564502716064453,0.8817482887529924,0.8817482887529924,37728,-1.9593908286735173,0.0
345,1.9355015754699707,-1.9639910760636967,0.005134910323364405,-1.9557167465594076,-1.968580933417099,0.0,0.11085579426686203,0.1,0.0023202896118164062,0.04138827323913574,0.05029136,1.3199908,-1.5989082575815856,0.0,-0.026182964342979637,0.0,105,0.011519670486450195,0.8827531066334,0.8827531066334,37833,1.0441459371149338,0.0
346,1.9717602729797363,-1.7106356753953718,0.43525199584927116,-0.9573394628767087,-1.9799542753610293,0.0,0.11950653173176944,0.1,0.0022983551025390625,0.0444638729095459,0.050248027,1.4106497,-1.6100809993629641,0.0,-0.022798293375246765,0.0,115,0.026631593704223633,0.8741282656724784,0.8741282656724784,37948,-1.9602820332637012,0.0
347,3.021007537841797,-1.9622415924241987,0.00613633643996317,-1.9521304052217676,-1.9678442400499747,0.0,0.1163913810691575,0.1,0.0022971630096435547,0.04153585433959961,0.049815785,0.92681485,-1.6452970586690876,0.0,-0.02615658270077953,0.0,117,0.03289484977722168,0.8807271264882194,0.8807271264882194,38065,3.0423745624477347,0.0
348,1.989253282546997,-1.9725064447881395,0.005327881297807225,-1.9663587408537349,-1.980271843949389,0.0,0.11545315400217471,0.1,0.0021352767944335938,0.04056859016418457,0.05085335,1.5852757,-1.678017997280993,0.0,-0.026288959548018725,0.0,107,0.03001260757446289,0.8837752796235143,0.8837752796235143,38172,3.045920285310508,0.0
349,1.906421422958374,-1.9750265211081046,0.006879097314536524,-1.9637974374216958,-1.9808733248781842,0.0,0.10818159191829523,0.1,0.002180337905883789,0.0398252010345459,0.050411984,1.1420907,-1.7077188496637044,0.0,-0.02633151693615301,0.0,105,0.020522594451904297,0.8833335326780869,0.8833335326780869,38277,-1.957476257585575,0.0
350,1.9633889198303223,-1.2189989158442043,1.3166375032255224,1.0614781810860323,-1.9839213490332503,0.0,0.11436909441094904,0.1,0.00217437744140625,0.040936946868896484,0.0494957,1.4836578,-1.6588468562817544,0.0,-0.019581991219750412,0.0,100,0.002224445343017578,0.9186895443143428,0.9186895443143428,38377,3.0455988888473065,0.0
351,2.1656856536865234,-0.4610655651075251,1.6685399713648954,2.051143533946712,-1.9827278139613977,0.0,0.10986248000725025,0.1,0.0020716190338134766,0.04034090042114258,0.050448757,1.5264143,-1.5390687271643315,0.0,-0.012810799920646525,0.0,107,0.02638554573059082,0.9716489498847941,0.9716489498847941,38484,1.051902975842655,0.0
352,2.451551675796509,-0.7179747642349201,2.1670537922196726,3.035451053246221,-1.9798938644510555,0.0,0.10701278270062427,0.1,0.0020737648010253906,0.03970503807067871,0.050116915,1.9344532,-1.4569593308713904,0.0,-0.012897320224054036,0.0,101,0.027877330780029297,0.9774728575918269,0.9774728575918269,38585,2.0555107217293425,0.0
353,2.1103203296661377,-1.964781441501459,0.007551896994058067,-1.9549880934464,-1.9734617929986225,0.0,0.11730867313241375,0.1,0.0020596981048583984,0.041162729263305664,0.05057013,1.0197729,-1.5077415419343974,0.0,-0.02619056229122198,0.0,117,0.0159149169921875,0.8814214418456212,0.8814214418456212,38702,3.0508235299559487,0.0
354,1.94551682472229,-1.9652257288531896,0.008798383406115622,-1.9532517679482562,-1.9780856568602696,0.0,0.11192539288536135,0.1,0.0022745132446289062,0.04138588905334473,0.05009837,0.96427935,-1.5534899606262766,0.0,-0.026196335599469565,0.0,112,0.027251482009887695,0.8816811090587506,0.8816811090587506,38814,2.052450416447428,0.0
355,2.0046608448028564,-1.9717555191335763,0.009234858841952758,-1.9631382103071866,-1.9853166472432868,0.0,0.10610531903151739,0.1,0.002094745635986328,0.04353737831115723,0.05012044,1.2421542,-1.5953165164770067,0.0,-0.026286330401425015,0.0,94,0.0021779537200927734,0.8831417597809448,0.8831417597809448,38908,2.051208750468852,0.0
356,2.04016375541687,1.0425550419018998,1.728993651358332,2.04946683357348,-1.9521169151437565,0.0,0.11557161629676659,0.1,0.002099752426147461,0.04364418983459473,0.04988342,0.7592521,-1.331529360639116,0.0,0.0039016114157528507,0.0,119,0.02635955810546875,1.0610319329769813,1.0610319329769813,39027,3.0524081203243667,0.0
357,2.1120197772979736,-1.9717319133531326,0.0035547434786489555,-1.966983662167726,-1.976704313035242,0.0,0.12154886192801229,0.1,0.002545595169067383,0.04226493835449219,0.050163027,1.0184492,-1.3955496159105176,0.0,-0.026282846493479728,0.0,114,0.026682615280151367,0.8816309306799811,0.8816309306799811,39141,3.0450353909328407,0.0
358,1.97585129737854,-1.9643660440459159,0.01267474610714033,-1.9424986413653575,-1.9734800235229795,0.0,0.1126846446120085,0.1,0.002305269241333008,0.041547536849975586,0.05018952,0.9948348,-1.4524312587240575,0.0,-0.026189332586804507,0.0,106,0.006180763244628906,0.8811680193277859,0.8811680193277859,39247,2.0593185651437333,0.0
