iteration,time_sampling,stoc_pol_mean,stoc_pol_std,stoc_pol_max,stoc_pol_min,rollout_success,alpha,delta,time_vpg,time_npg,kl_dist,surr_improvement,running_score,rwd_sparse,rwd_dense,success_percentage,num_samples,time_VF,VF_error_before,VF_error_after,env_samples,eval_score,eval_success
0,0.849604606628418,-46.57169600478763,8.17300743753722,-32.622897398209034,-52.51500848239109,0.0,0.09251667546814407,0.1,0.03336048126220703,0.04427361488342285,0.054928493,4.830404,-46.57169600478763,-0.37421682279099994,0.001640393344081191,0.0,63,0.0026743412017822266,1.0009123231858934,1.0009123231858934,63,-37.31327878556773,0.0
1,0.7786540985107422,-42.32045154813806,4.58524311417163,-36.333567346672574,-48.726974349993306,0.0,0.1411185103554235,0.1,0.002201557159423828,0.0441436767578125,0.051683806,0.9220088,-46.14657155912268,-0.38077448299771793,0.04413126888370085,0.0,59,0.0026106834411621094,1.0009522587492024,1.0009522587492024,122,-33.68752919465139,0.0
2,0.8299980163574219,-43.64065716842545,4.908383959660979,-39.896919224715354,-52.071673112083836,0.0,0.15642664641901466,0.1,0.0021944046020507812,0.044539451599121094,0.049150158,0.77163607,-45.895980120052954,-0.38006550696088004,0.03094618426062419,0.0,65,0.007566928863525391,1.0009538066034505,1.0009538066034505,187,-34.49041364428174,0.0
3,0.7972757816314697,-45.48572054045374,4.412705365871325,-40.59643833803419,-52.65374987211666,0.0,0.1462749828719507,0.1,0.002114534378051758,0.044057607650756836,0.049106892,0.9578084,-45.85495416209303,-0.37776895492713514,0.012482752773429558,0.0,61,0.002429485321044922,1.0009247301740671,1.0009247301740671,248,-29.936309342284293,0.0
4,0.801048755645752,-47.413304526663225,5.097573746952652,-40.41145556242255,-52.39898490226525,0.0,0.14023875286116494,0.1,0.002109050750732422,0.04490971565246582,0.05020003,1.1882436,-46.01078919855005,-0.39313720596510043,-0.006803614607431518,0.0,58,0.0021202564239501953,1.0008945325730094,1.0008945325730094,306,-26.839180661457878,0.0
5,0.8242502212524414,-38.830055867438446,6.250311402942177,-32.638892570269476,-48.52633182296803,0.0,0.17074629569488126,0.1,0.002153158187866211,0.044817447662353516,0.04981057,0.89998907,-45.292715865438886,-0.35367562494395083,0.07898850667995765,0.0,71,0.0027954578399658203,1.0010224265295793,1.0010224265295793,377,6.28907604013073,0.0
6,0.8130710124969482,-43.34094912011461,1.7753101672621723,-40.30684460408146,-44.76263758300873,0.0,0.15433749953649273,0.1,0.002161264419555664,0.044606685638427734,0.050154433,0.8958414,-45.09753919090646,-0.39047373504321164,0.0339093844079313,0.0,58,0.0023224353790283203,1.0009411753419022,1.0009411753419022,435,-8.645676270975226,0.0
7,0.8335740566253662,-43.519074250732416,6.229193287492943,-36.06728896454301,-52.87518883055809,0.0,0.14299156130168614,0.1,0.002293825149536133,0.045369863510131836,0.048547395,0.78824276,-44.93969269688906,-0.37704074103959995,0.032128551317587295,0.0,62,0.0024957656860351562,1.0009515622639718,1.0009515622639718,497,-8.243042130107353,0.0
8,0.8243610858917236,-42.607048395173855,3.1801678056790044,-37.10049372068485,-44.569787139296636,0.0,0.14371948934090698,0.1,0.0022046566009521484,0.04662799835205078,0.049228366,1.0050967,-44.706428266717545,-0.3699851295548331,0.0412502755690466,0.0,64,0.0023393630981445312,1.0009621241018323,1.0009621241018323,561,-14.80955457181483,0.0
9,0.821913480758667,-49.332870952692026,5.162086614653225,-40.39254335774241,-52.37724186154541,0.0,0.1412605893692106,0.1,0.002112150192260742,0.043700218200683594,0.04911037,0.88818884,-45.16907253531499,-0.39338852947628367,-0.026018073097321626,0.0,57,0.0023114681243896484,1.000909769902196,1.000909769902196,618,-16.124421775318435,0.0
10,0.8271746635437012,-45.35441898088999,4.779701564299309,-39.907397008791875,-53.040178077429374,0.0,0.1485481889266266,0.1,0.0020983219146728516,0.04364418983459473,0.05044078,0.84732795,-45.18760717987249,-0.39621818758791677,0.013764475508963456,0.0,58,0.002748727798461914,1.0009363641077376,1.0009363641077376,676,-16.191522293924432,0.0
11,0.848186731338501,-41.50594214474817,4.333565321034346,-36.17160428130529,-48.25707807631617,0.0,0.1546368180326443,0.1,0.0021164417266845703,0.043946027755737305,0.049934972,1.0338147,-44.81944067636005,-0.3745840531990762,0.052241249548446354,0.0,62,0.0024836063385009766,1.0009680021673724,1.0009680021673724,738,-15.28881811599564,0.0
12,0.8613855838775635,-42.60203839700162,6.982984036654575,-33.39840927959885,-52.76434656183602,0.0,0.14712304283706515,0.1,0.002146005630493164,0.044300079345703125,0.049422167,0.90806454,-44.597700448424206,-0.37622235747190075,0.041273291598119335,0.0,64,0.0022804737091064453,1.0009506526511875,1.0009506526511875,802,-15.970435566248335,0.0
13,0.858830451965332,-39.79641635750725,3.408844810867316,-36.354714499134836,-44.296203253573545,0.0,0.15326379189654316,0.1,0.002227783203125,0.04434943199157715,0.050313957,0.84049416,-44.11757203933251,-0.36314199973939965,0.0693709256876514,0.0,68,0.002211332321166992,1.0009781028913154,1.0009781028913154,870,-15.888821766133082,0.0
14,0.8663289546966553,-50.91971672797817,2.6416325273763874,-48.276597680818014,-54.23986483294178,0.0,0.14754130381689928,0.1,0.002117633819580078,0.04443717002868652,0.049352173,0.8902482,-44.79778650819708,-0.3670166534601361,-0.041873282684533615,0.0,69,0.0020830631256103516,1.0008949979495514,1.0008949979495514,939,-15.626906209361815,0.0
15,0.8072025775909424,-43.1549952109512,6.161546706841239,-35.85350765167529,-52.578106995119796,0.0,0.13592400163759713,0.1,0.0022242069244384766,0.044193267822265625,0.049784794,1.17376,-44.633507378472494,-0.40320676519017035,0.03573098562656355,0.0,54,0.0031616687774658203,1.0009217197577327,1.0009217197577327,993,-15.838192149657745,0.0
16,0.8431973457336426,-44.4569360478242,4.954226108498097,-40.41409646539768,-52.66538558608302,0.0,0.13614210871932192,0.1,0.0022737979888916016,0.044321537017822266,0.04915341,1.2615087,-44.615850245407664,-0.38317537293183873,0.022721366825015493,0.0,60,0.0024755001068115234,1.0009381538300692,1.0009381538300692,1053,-16.729248217364866,0.0
17,0.8569424152374268,-45.78815401081903,6.073101370814554,-36.77985952903223,-52.94366388071071,0.0,0.1629952965213556,0.1,0.0022935867309570312,0.04494929313659668,0.050872788,1.1084268,-44.7330806219488,-0.35601959894674984,0.009450190750249943,0.0,69,0.002724885940551758,1.0009407216074313,1.0009407216074313,1122,-15.831440917824958,0.0
18,0.8399357795715332,-49.256272187046626,5.43876226554901,-39.8433662622931,-52.73343201890774,0.0,0.15658479927840824,0.1,0.0021398067474365234,0.04401850700378418,0.048889227,0.77455616,-45.18539977845858,-0.39823995648915234,-0.02523001858399693,0.0,56,0.0024590492248535156,1.0008882175559708,1.0008882175559708,1178,-16.18976202998123,0.0
19,0.856919527053833,-41.348342966008374,3.7215060484237306,-35.88594275877091,-45.349444812063666,0.0,0.15510209224532837,0.1,0.0021505355834960938,0.04412126541137695,0.05115455,0.8522902,-44.80169409721356,-0.39566433862306455,0.05384536880342372,0.0,58,0.002565622329711914,1.0009620585310266,1.0009620585310266,1236,-15.86124629923689,0.0
20,0.8988518714904785,-37.74723568997032,4.770312426628451,-31.70749584931684,-44.14767524474884,0.0,0.1635133101977872,0.1,0.002697467803955078,0.05029940605163574,0.049181048,0.9110625,-44.09624825648924,-0.3376271993901476,0.08986688945989522,0.0,90,0.00372314453125,1.0010141332097036,1.0010141332097036,1326,-16.004136136156202,0.0
21,0.8677332401275635,-38.34857738021161,1.8672810709032277,-35.87355848569318,-40.26807212676078,0.0,0.1480750890374853,0.1,0.0022013187408447266,0.045444488525390625,0.05119024,0.98000205,-43.52148116886148,-0.38928506187065626,0.08380299846917769,0.0,59,0.0022139549255371094,1.0009779835654031,1.0009779835654031,1385,-15.89454319789396,0.0
22,0.9191446304321289,-38.37804717740137,2.0848918426427727,-35.93185829728523,-40.70792831415362,0.0,0.17569610085373777,0.1,0.002274751663208008,0.04655742645263672,0.050986703,0.8765684,-43.00713776971546,-0.33976118155348933,0.08349268313980648,0.0,84,0.0026941299438476562,1.001001332036367,1.001001332036367,1469,-16.460743105532284,0.0
23,0.9113059043884277,-44.83838482839326,6.586677489037463,-35.33885458927317,-53.955711842676706,0.0,0.16994338547294568,0.1,0.0022878646850585938,0.04694104194641113,0.0505709,0.908056,-43.19026247558324,-0.31662813803574147,0.018922062971694128,0.0,92,0.0024633407592773438,1.000990608393779,1.000990608393779,1561,-16.512853916726364,0.0
24,0.885528564453125,-42.83455947203268,7.7566935254479334,-33.700131495137285,-52.443843694805224,0.0,0.15261396266723315,0.1,0.0022439956665039062,0.04590797424316406,0.050039537,1.1359156,-43.154692175228185,-0.35613242704484716,0.03893771522003553,0.0,70,0.0023987293243408203,1.0009908106070613,1.0009908106070613,1631,-17.312893488051515,0.0
25,0.8857607841491699,-36.727765613453855,2.304822427081164,-33.442469303114564,-39.917582655817455,0.0,0.1565018975112467,0.1,0.002256155014038086,0.04560399055480957,0.05161002,0.9246997,-42.511999519050754,-0.36699911858596523,0.10001837937175191,0.0,67,0.0024051666259765625,1.0010322022682534,1.0010322022682534,1698,-17.284259998167272,0.0
26,0.8818740844726562,-50.74119135129364,3.165632449667197,-45.27910320705121,-53.00900243562647,0.0,0.1587378901185115,0.1,0.0021910667419433594,0.04562783241271973,0.0519178,0.7466061,-43.33491870227505,-0.37352087991317984,-0.04009308125503559,0.0,65,0.0027403831481933594,1.0009053094932163,1.0009053094932163,1763,-17.047694521006058,0.0
27,0.9395246505737305,-40.196984860453696,7.063809642485759,-30.40756280392206,-48.75855141302446,0.0,0.1736350763238356,0.1,0.0022935867309570312,0.04625058174133301,0.05002345,0.8212262,-43.02112531809291,-0.33889620928964875,0.06534044948749572,0.0,78,0.0022602081298828125,1.001010321199607,1.001010321199607,1841,-17.639013028795887,0.0
28,1.0051605701446533,-43.545202052331724,5.686007892478747,-36.55402165765292,-52.06512322328972,0.0,0.13779197209828034,0.1,0.00220489501953125,0.04549670219421387,0.048603028,1.0266069,-43.07353299151679,-0.3803152414924124,0.03186865087955772,0.0,62,0.0029561519622802734,1.0009698260515,1.0009698260515,1903,-16.92840354626026,0.0
29,0.83780837059021,-38.76899327833686,1.851958636062025,-36.843066865204406,-40.95096741428428,0.0,0.14675139300274503,0.1,0.0023102760314941406,0.04654741287231445,0.049581777,0.8991627,-42.6430790201988,-0.352845484575435,0.07960470797037378,0.0,69,0.002481698989868164,1.0010120307348074,1.0010120307348074,1972,-16.820268975051192,0.0
30,0.8747913837432861,-46.08323222697936,6.24161474415847,-36.03977809279545,-53.1298076474421,0.0,0.15873474798648127,0.1,0.0023491382598876953,0.046610116958618164,0.050905887,0.9204211,-42.98709434087685,-0.3601491617739579,0.006487740046987734,0.0,75,0.00270843505859375,1.00097743676382,1.00097743676382,2047,-17.381030954256662,0.0
31,0.8414511680603027,-40.59195761742737,7.418753766643702,-32.8949200823393,-52.540463816864936,0.0,0.1477674708572732,0.1,0.005621433258056641,0.04560565948486328,0.05178598,0.7994076,-42.7475806685319,-0.36732914054181864,0.061419239300373886,0.0,64,0.0024940967559814453,1.00099090231714,1.00099090231714,2111,-17.75780742734259,0.0
32,0.9021382331848145,-46.76326044674916,5.982500632342199,-38.19770838854424,-55.0624618329216,0.0,0.19421600583665216,0.1,0.0025415420532226562,0.04923272132873535,0.050310533,0.79748607,-43.14914864635363,-0.29107202451446235,-0.00035267639231530623,0.0,111,0.0029256343841552734,1.0009862381294574,1.0009862381294574,2222,-52.56239633805627,0.0
33,0.8674418926239014,-44.151122134057076,5.847463706334452,-37.26899944419209,-52.863882772767106,0.0,0.15991997219116227,0.1,0.0023162364959716797,0.046280622482299805,0.049563404,0.9793167,-43.249345995123974,-0.3401384696078691,0.02578204883077042,0.0,76,0.0029096603393554688,1.0009809580539144,1.0009809580539144,2298,-52.42000088480163,0.0
34,0.9288177490234375,-36.11988088283759,5.222873842350771,-30.93302442961337,-44.29444532315396,0.0,0.19400259961647023,0.1,0.0024564266204833984,0.04936575889587402,0.048155695,0.7769846,-42.53639948389534,-0.29292781682794516,0.10610881516414296,0.0,123,0.004575252532958984,1.0010678173427845,1.0010678173427845,2421,-51.88380410784645,0.0
35,0.8994197845458984,-43.40395713966401,7.775359415712303,-34.62844325544234,-55.006402657358876,0.0,0.17795062254562521,0.1,0.002371549606323242,0.04785752296447754,0.050074864,0.897754,-42.623155249472205,-0.3052416033325499,0.03323702822772389,0.0,101,0.0029900074005126953,1.000991255479027,1.000991255479027,2522,-51.46938590934476,0.0
36,0.9203100204467773,-37.99659873874902,10.17555726905036,-26.794001155148408,-54.47578497945062,0.0,0.191523054320004,0.1,0.0024614334106445312,0.04888796806335449,0.049384397,0.7592849,-42.16049959839989,-0.28361966007686706,0.08729419549634927,0.0,118,0.0030617713928222656,1.0010332639186301,1.0010332639186301,2640,-51.47537381568705,0.0
37,0.9218595027923584,-37.3832643918092,5.85764369693766,-27.659848635024403,-42.77889264928054,0.0,0.18488431939780173,0.1,0.006613731384277344,0.04880237579345703,0.050972566,0.96481544,-41.682776077740826,-0.28935046260503894,0.09345654682251044,0.0,108,0.0033979415893554688,1.0010605196744682,1.0010605196744682,2748,-52.064503418176976,0.0
38,0.9487965106964111,-40.003934397325594,5.09793113113801,-36.749712716008425,-48.82263792942088,0.0,0.1949665899100349,0.1,0.002444744110107422,0.048720598220825195,0.049582284,0.8702396,-41.51489190969931,-0.2948647147771033,0.06726250108699128,0.0,119,0.003034353256225586,1.001004009190921,1.001004009190921,2867,-52.04275347304491,0.0
39,0.977484941482544,-38.122879624052416,6.814821956824627,-29.530679150514562,-46.90738599374011,0.0,0.19675353735861034,0.1,0.0023920536041259766,0.049864768981933594,0.04946415,0.8161517,-41.17569068113462,-0.2747980840378763,0.08604815308172692,0.0,142,0.011298418045043945,1.001016524422094,0.9994455321333513,3009,-52.036103957142224,0.0
40,0.9553117752075195,-43.78813311999593,7.914529193820864,-32.03732902602896,-52.565509205246414,0.0,0.18118328903388245,0.1,0.0023195743560791016,0.04809856414794922,0.049042914,0.9467368,-41.43693492502075,-0.30272592416589744,0.02941170705618096,0.0,116,0.004243135452270508,0.9994917764803367,0.9994917764803367,3125,-52.173569211753566,0.0
41,0.9792177677154541,-34.87834656976614,4.836772721098511,-26.57777673107453,-38.70161647756042,0.0,0.18610458542398636,0.1,0.0022933483123779297,0.04745841026306152,0.04944914,0.84315675,-40.78107608949529,-0.30077792681890364,0.11850921255976271,0.0,114,0.004010677337646484,0.9994422873377602,0.9994422873377602,3239,-52.351462122377264,0.0
42,1.0409088134765625,-44.64590078995387,15.481059769718264,-21.555957721642518,-60.04860562200687,0.0,0.2641883675676725,0.1,0.0024785995483398438,0.05082345008850098,0.049190197,0.5639853,-41.16755855954115,-0.24371229550567405,0.02081364949158461,0.0,183,0.010711193084716797,0.9994949674166198,0.9980341961934753,3422,-52.354719598039104,0.0
43,0.9401640892028809,-31.058287661752015,3.0269306657288464,-27.10602556039104,-34.03535080909252,0.0,0.19875361381847584,0.1,0.0026390552520751953,0.053787946701049805,0.049950983,0.8571988,-40.15663146976224,-0.28663407693348253,0.15671897952333996,0.0,124,0.005895137786865234,0.9979078215974876,0.9979078215974876,3546,-52.41806101623148,0.0
44,0.9687075614929199,-36.38215859860769,3.8069822663312425,-31.42765024381317,-41.68693077512241,0.0,0.23453990736423502,0.1,0.002565622329711914,0.04928779602050781,0.049309533,0.71496433,-39.77918418264679,-0.27449836347944306,0.10345176115532795,0.0,151,0.011799097061157227,0.9979204093808908,0.996404335251984,3697,-52.37640014090289,0.0
45,0.9944949150085449,-35.23673914905636,2.5167178618596284,-30.9298342084747,-37.28017926603544,0.0,0.23756238218170808,0.1,0.0025243759155273438,0.05024075508117676,0.048527185,0.5399052,-39.324939679287745,-0.266961048584739,0.11494956635060813,0.0,177,0.010805845260620117,0.9963873209557528,0.9947412685560532,3874,-52.401440580854796,0.0
46,0.9192945957183838,-28.125530190459205,6.136219372857244,-22.062943919646887,-38.24123326544798,0.0,0.18235986388984043,0.1,0.0023958683013916016,0.04729747772216797,0.050448198,0.68837434,-38.204998730404895,-0.2865178394539263,0.1860165871266753,0.0,105,0.004620075225830078,0.9947243008477442,0.9947243008477442,3979,-52.48217748475995,0.0
47,0.9714810848236084,-26.300673950705143,6.6658107072409685,-16.065467697351373,-33.84911101054959,0.0,0.23422097510944093,0.1,0.0025243759155273438,0.049054622650146484,0.04944866,0.6784975,-37.01456625243492,-0.2518663526251798,0.20428112913868773,0.0,156,0.010131359100341797,0.9947066081051934,0.9928311704471425,4135,-52.490676879285985,0.0
48,1.0300681591033936,-35.85010710697701,4.10370031848464,-29.45670165321324,-40.828526064259265,0.0,0.23051681725288534,0.1,0.002524852752685547,0.049161434173583984,0.049364462,0.601315,-36.89812033788913,-0.2833387310713202,0.10875448436250676,0.0,158,0.010191679000854492,0.9930170759572886,0.99095779922384,4293,-52.62478400877355,0.0
49,1.1072266101837158,-41.99622015952818,7.841327011201114,-29.479036854552298,-51.01930195053603,0.0,0.28694269627413443,0.1,0.0025839805603027344,0.05291581153869629,0.050509293,0.5958637,-37.40793032005304,-0.22666303256837234,0.04730002460616507,0.0,270,0.01683664321899414,0.9908789058822499,0.9825256209377635,4563,-52.138179880003484,0.0
50,1.035862922668457,-38.47243890931822,14.246472441331438,-15.64794888066659,-52.39903014731047,0.0,0.2452146370413299,0.1,0.0024940967559814453,0.05036330223083496,0.049682256,0.587229,-37.51438117897956,-0.23359645953987346,0.08256824423015341,0.0,205,0.013756990432739258,0.9826932083699924,0.9747735453988123,4768,-52.31437952404452,0.0
51,1.0597753524780273,-37.897363062278984,2.631766788139082,-34.11528271609012,-40.51408662445829,0.0,0.25426299023103455,0.1,0.0025527477264404297,0.050807952880859375,0.049964737,0.57194215,-37.55267936730951,-0.23288493607657643,0.08830277517950672,0.0,216,0.013265371322631836,0.9744699642163945,0.9637266240045326,4984,-52.29755650334308,0.0
52,1.1129448413848877,-28.308182132503056,17.379833235049535,1.4832426083421737,-41.49441427939032,0.0,0.2881249117457083,0.1,0.0027420520782470703,0.05439281463623047,0.04774356,0.49510646,-36.62822964382886,-0.21819408082215036,0.18417641688111258,0.0,286,0.016983509063720703,0.9640905366913701,0.9414040446061146,5270,-52.492457190035985,0.0
53,1.1440975666046143,-28.66891240481796,21.24640673431283,7.189560989568264,-46.090736690954174,0.0,0.31624730444664434,0.1,0.0026907920837402344,0.053678274154663086,0.05098197,0.35482147,-35.832297919927775,-0.21957644544728924,0.05553198005981836,0.0,267,0.01677227020263672,0.9376705804685221,0.9044041673051759,5537,-52.487306405578,0.0
54,1.1853103637695312,-11.847804591853667,28.91929088456861,19.56023848184432,-49.072688703950206,0.0,0.31458035249952404,0.1,0.0028464794158935547,0.06345725059509277,0.05010139,0.41850588,-33.433848587120366,-0.21109118607764082,0.09861921469172048,0.0,314,0.01627349853515625,0.9030236747932905,0.8630662217690331,5851,-52.61276818142007,0.0
55,1.1603789329528809,-34.07225595667084,4.924111925691518,-29.139347762258097,-41.66383788914193,0.0,0.3230685204292792,0.1,0.0028645992279052734,0.05344367027282715,0.050781343,0.46568063,-33.49768932407542,-0.2115351386880634,0.1265457571033698,0.0,292,0.016392946243286133,0.8678639430631154,0.8111850550985273,6143,-53.30858664929561,0.0
56,1.2027852535247803,-19.432386595283077,17.212249881275895,1.1776773766773014,-36.461868979514946,0.0,0.303653812694486,0.1,0.0026712417602539062,0.05328249931335449,0.05056883,0.2984959,-32.09115905119618,-0.2734358398530824,0.022906338396276,0.0,250,0.01280665397644043,0.769614130868853,0.7271171033469354,6393,-53.33301017846844,0.0
57,1.219238519668579,-7.181586761907129,21.836227652601284,20.713863325592268,-35.412668694205294,0.0,0.34544555798373494,0.1,0.002697467803955078,0.057381629943847656,0.049904402,0.4381731,-29.600201822267273,-0.2002502802853547,0.14532946100350405,0.0,350,0.019826889038085938,0.7601960830714325,0.6793632407244817,6743,-52.81240195900142,0.0
58,1.180518627166748,-15.333275361727827,29.623287641640133,23.954079445791,-45.28359934522559,0.0,0.3594547182584982,0.1,0.0029022693634033203,0.05864858627319336,0.04924243,0.36449316,-28.17350917621333,-0.20527592408530143,0.06381705144599058,0.0,383,0.019651174545288086,0.6830176921502853,0.5868700872771646,7126,-53.20038084682707,0.0
59,1.1797325611114502,-4.3011424831690706,18.78754227194359,11.07937022175306,-36.43247456062126,0.0,0.2956395096841871,0.1,0.002839326858520508,0.05542922019958496,0.051599007,0.2997128,-25.786272506908904,-0.24196202188408802,0.04888457489065014,0.0,315,0.016527652740478516,0.7536391957359075,0.866475548675856,7441,-52.84930038524478,0.0
60,1.1894299983978271,2.875538343665766,24.975251044840093,36.758616656442136,-33.178997354002604,0.0,0.2722708866643291,0.1,0.0028378963470458984,0.0618901252746582,0.04801552,0.8800546,-22.92009142185144,-0.2238514030742514,0.12065080359812969,0.0,320,0.019273757934570312,1.0291212299202666,1.0207133619135793,7761,-52.106196383135796,0.0
61,1.212989091873169,12.557634815379782,4.197400735992253,16.84839298785174,6.146104631304859,0.0,0.3247320837661405,0.1,0.002840757369995117,0.058188438415527344,0.049135417,0.5864823,-19.372318798128315,-0.19749762430052586,0.0925023756994742,0.0,400,0.024165868759155273,1.4414414970578877,1.0252202214677224,8161,-52.07095084402763,0.0
62,1.2154145240783691,7.7995386020829365,5.115969694307649,16.00227733805213,3.1039948365342402,0.0,0.30204203177645894,0.1,0.002845287322998047,0.057802677154541016,0.048426084,0.6368122,-16.65513305810719,-0.19524364489677096,0.04475635510322908,0.0,400,0.023587942123413086,0.9702472900255127,0.6536878976576727,8561,-52.111293675606966,0.0
63,1.2257134914398193,3.5904434689816456,10.873007177769628,11.751100667991079,-15.113200272544123,0.0,0.3130314350345313,0.1,0.002820730209350586,0.0638284683227539,0.04858265,0.6748553,-14.630575405398307,-0.19726609479499083,0.0027339052050091503,0.0,400,0.023216724395751953,0.6160940691736867,0.49553050655695535,8961,-52.24510328450547,0.0
64,1.2399225234985352,8.552984770917657,4.002572986697441,14.07465405454949,4.069566718134432,0.0,0.30151560554180823,0.1,0.0028345584869384766,0.05775785446166992,0.046319433,0.55451846,-12.31221938776671,-0.20754992546591783,0.052450074534082236,0.0,400,0.022887229919433594,0.4856698932316636,0.464808836297133,9361,-52.20113502513689,0.0
65,1.1956000328063965,-15.11082126516637,18.077801659305933,2.9663353371062593,-35.19637684312154,0.0,0.3262696688201902,0.1,0.0027785301208496094,0.05523514747619629,0.050423708,0.33708984,-12.592079575506677,-0.20605361955385512,0.06602251403751087,0.0,340,0.01991558074951172,0.7301724500429682,0.6887459734141015,9701,-52.57676835501248,0.0
66,1.2355115413665771,-1.776817192039184,14.696638154111836,12.971372504964474,-25.673118772824672,0.0,0.3270311441411142,0.1,0.0026950836181640625,0.05879378318786621,0.050204147,0.30981952,-11.510553337159926,-0.20665853229462489,0.07420296771091713,0.0,347,0.019664525985717773,0.6686485415673147,0.6420199397474785,10048,-52.55361079273482,0.0
67,1.2492997646331787,-0.294299941971476,17.282058635169378,15.251468448313563,-29.401939367185925,0.0,0.2982818484364924,0.1,0.0028486251831054688,0.054444074630737305,0.05014601,0.47865716,-10.388927997641082,-0.2167884004882664,0.08908229498399389,0.0,323,0.019789934158325195,0.6787785134652597,0.6894318629308356,10371,-52.37810259279036,0.0
68,1.267711877822876,9.897439946028648,4.609763940888776,16.75535841186613,4.570158788912342,0.0,0.28225275425097673,0.1,0.0028684139251708984,0.05751943588256836,0.047693297,0.8054091,-8.360291203274109,-0.19405743764245226,0.06594256235754782,0.0,400,0.023452281951904297,0.7948865655092744,0.7272628331600031,10771,-52.32517789882055,0.0
69,1.2552375793457031,-6.391881757862998,23.789853315204738,10.596093150181458,-47.325097031514986,0.0,0.3576639523015615,0.1,0.002932310104370117,0.05695509910583496,0.050142124,0.3268635,-8.163450258732997,-0.20499889684305272,0.028102466178995925,0.0,376,0.01994490623474121,0.6461131671017613,0.6437368122955786,11147,-52.54180515070209,0.0
70,1.2973675727844238,-0.9289841026043799,23.785597830313257,17.42461493698513,-41.12952175887637,0.0,0.35974786539962655,0.1,0.0028433799743652344,0.05733156204223633,0.048389424,0.3365435,-7.440003643120136,-0.1903295140768366,0.08260605008510058,0.0,394,0.023830175399780273,0.6533403228203152,0.627349338760986,11541,-52.166925664722044,0.0
71,1.2846238613128662,4.656190170781432,23.426926083387084,23.894656826738156,-34.50346513627224,0.0,0.33068626453945443,0.1,0.002782106399536133,0.060143470764160156,0.05091208,0.3738387,-6.230384261729979,-0.19527876305856368,0.1385747965856034,0.0,374,0.02076578140258789,0.6828936412387966,0.6772044766356139,11915,-52.17652097888732,0.0
72,1.2697129249572754,-5.415164630304431,21.755011932668456,11.98604199358665,-41.39745678366943,0.0,0.40152739235005724,0.1,0.002859830856323242,0.05746102333068848,0.049218748,0.28880104,-6.148862298587424,-0.20118896751408272,0.03770051499503633,0.0,384,0.027302980422973633,0.6048013986386152,0.5957414540626834,12299,-52.154502746016156,0.0
73,1.2910888195037842,1.703076884585656,23.419344667049693,20.97100644462356,-38.373247633214426,0.0,0.3319124925486553,0.1,0.002756357192993164,0.05867290496826172,0.05049376,0.36261818,-5.363668380270116,-0.20138606363855388,0.10891761409755085,0.0,349,0.019466400146484375,0.6852803438323898,0.6831498493125905,12648,-52.56006620140354,0.0
74,1.2231931686401367,-0.6992928050266283,21.938064268551106,15.390474931071846,-38.05005693094444,0.0,0.3681805264238576,0.1,0.006773948669433594,0.05630326271057129,0.05082351,0.3007731,-4.897230822745768,-0.2199388445174996,0.08496834286689049,0.0,325,0.02000260353088379,0.7937290067189982,0.7504907404812382,12973,-52.58018212952627,0.0
75,1.2462718486785889,8.362264288508698,12.37939453839962,29.084350306199372,-2.5492039266456983,0.0,0.3122265576122329,0.1,0.0030333995819091797,0.06381464004516602,0.053573046,0.7529366,-3.571281311620321,-0.19966251012689473,0.05033748987310526,0.0,400,0.024167299270629883,1.1370936549133257,0.8022217945455041,13373,-52.883404037148466,0.0
76,1.2259650230407715,2.1320515938284696,28.49034286985517,36.810053235149,-34.17547937336741,0.0,0.2866785022767672,0.1,0.0028505325317382812,0.05683398246765137,0.051373523,0.48036498,-3.000948021075442,-0.2098181216584087,0.1131731621532874,0.0,326,0.020148515701293945,0.8585601321065253,0.8298737438074015,13699,-53.80285886764339,0.0
77,1.2499141693115234,15.304190303770477,12.49679149642973,32.68780615455836,-2.296783104309418,0.0,0.3070128022874481,0.1,0.0030975341796875,0.05919504165649414,0.048861586,0.6667842,-1.1704341885908502,-0.18026110629705688,0.11973889370294313,0.0,400,0.0239105224609375,0.9906924001100643,0.8454968231544443,14099,-55.18929643199397,0.0
78,1.2663815021514893,21.99858790386738,27.842492616276715,61.60533928956357,-15.548982846281849,0.0,0.306140007599156,0.1,0.003024578094482422,0.05906414985656738,0.050093908,0.58668226,1.1464680206549729,-0.18334000220735727,0.18665999779264286,0.0,400,0.02350449562072754,1.037750506430207,0.9791728556837871,14499,-56.689609651659026,0.0
79,1.2719731330871582,2.75289341662392,13.7922052326577,18.021660169371142,-14.629293959551012,0.0,0.3040785725365233,0.1,0.0028717517852783203,0.05815553665161133,0.050089467,0.58474493,1.3071105602518678,-0.17590518509977404,-0.005905185099773974,0.0,400,0.02444314956665039,0.6100468060818941,0.6248681053852879,14899,-55.90745835603761,0.0
80,1.2736523151397705,17.091127324694007,7.070961869714639,28.565886061856226,9.954783149697962,0.0,0.28538735650166963,0.1,0.002980470657348633,0.06414961814880371,0.050721362,0.644311,2.8855122366960817,-0.18250720213680255,0.13749279786319754,0.0,400,0.023347854614257812,0.7656082601942059,0.7584245422509925,15299,-57.01341691568738,0.0
81,1.2954356670379639,13.406123777718733,9.266666779129324,29.41880409912603,7.062496181470736,0.0,0.2682160842374252,0.1,0.002973794937133789,0.05964541435241699,0.04977318,1.0712371,3.937573390798347,-0.1891442947910851,0.10085570520891489,0.0,400,0.024404525756835938,0.6908189631473346,0.6785571512245472,15699,-57.66110576391585,0.0
82,1.2773823738098145,0.3705161135139239,15.58581415558709,11.785892168872039,-26.484671805234242,0.0,0.34449103502739764,0.1,0.002842426300048828,0.058591365814208984,0.049884032,0.3657557,3.580867663069905,-0.19823092184865826,0.09560953885119346,0.0,374,0.02033376693725586,0.7913731517965519,0.7389822224385044,16073,-56.7358530342999,0.0
83,1.2867228984832764,5.0119868048980125,19.142229226758243,20.882936453450032,-27.72342522055693,0.0,0.275006027270815,0.1,0.0027217864990234375,0.05529284477233887,0.048971415,0.40977806,3.723979577252716,-0.19985760264412578,0.14191804324997642,0.0,335,0.019574403762817383,0.7553113975479229,0.7333863251839693,16408,-58.42336474398812,0.0
84,1.315443992614746,16.26612612498139,4.3701274244551085,20.534640079469597,8.975697813042,0.0,0.2808525473793405,0.1,0.0030863285064697266,0.06058311462402344,0.050541684,0.6335905,4.978194232025583,-0.18074633647797622,0.12925366352202372,0.0,400,0.023908138275146484,0.9816528332424025,0.9467149421734125,16808,-56.45696381722008,0.0
85,1.2898294925689697,26.054975203245426,30.837843922018838,72.32034167298356,-12.616363888416139,0.0,0.30711252953298995,0.1,0.005473136901855469,0.056696414947509766,0.050483964,0.54635805,7.085872329147568,-0.19539180489621047,0.3524985016808813,0.0,366,0.020360946655273438,0.891556412841438,0.8891493715186681,17174,-56.79158217300188,0.0
86,1.3362419605255127,14.252938366983923,26.714232506386818,53.75552154621573,-17.358138755114847,0.0,0.2791433866778346,0.1,0.0028760433197021484,0.057518720626831055,0.048846494,0.7776957,7.802578932931204,-0.1907693986782069,0.10923060132179305,0.0,400,0.0235135555267334,0.9099227258121335,0.8696171434820972,17574,-56.96872608510612,0.0
87,1.342670202255249,36.223389750708186,32.82842651701634,72.32029574772848,-13.727518980624673,0.0,0.3389697390385938,0.1,0.002911806106567383,0.05858254432678223,0.04893616,0.41330263,10.644660014708903,-0.1897900952094917,0.45408218970312464,0.0,373,0.02008223533630371,0.9212904198922952,0.9181123385997608,17947,-58.09980279851144,0.0
88,1.2502808570861816,11.680793847995025,38.18111515577394,60.00721155816443,-31.37502565412681,0.0,0.2523708760944592,0.1,0.002978801727294922,0.05679154396057129,0.049213845,0.56261945,10.748273398037515,-0.21337984034295088,0.33383550741848395,0.0,292,0.017307519912719727,0.8695589655047239,0.8531308498175882,18239,-56.76168963797366,0.0
89,1.3139712810516357,8.62767022136899,7.618460864543979,17.77628233084745,-3.2989636129431883,0.0,0.3176046374340586,0.1,0.0030488967895507812,0.06114768981933594,0.049037594,0.48729163,10.536213080370663,-0.1870332663217165,0.05296673367828351,0.0,400,0.025000333786010742,0.6892657510854976,0.7203919006613012,18639,-56.5038701302286,0.0
90,1.282120943069458,23.878294982372285,32.5741389814611,69.15156828761212,-22.603951760519525,0.0,0.28932057626561397,0.1,0.002934694290161133,0.056611061096191406,0.048185375,0.51526535,11.870421270570827,-0.19678683994701165,0.3306251825916404,0.0,352,0.019698619842529297,0.8716779681788879,0.8673410195836073,18991,-57.2520158407177,0.0
91,1.3087432384490967,37.65233144220039,21.60282016062925,72.63640866564141,15.649340952688721,0.0,0.33936448527801133,0.1,0.002863168716430664,0.06095242500305176,0.050817013,0.44174805,14.448612287733782,-0.1866126166879796,0.34338738331202023,0.0,400,0.022977352142333984,1.0644085738625706,1.0003237283680175,19391,-59.201763839883576,0.0
92,1.3302252292633057,18.452374254260622,11.19387965173042,33.93493661349139,6.392539992316749,0.0,0.3299709078091815,0.1,0.0028274059295654297,0.05815386772155762,0.050104544,0.53251046,14.848988484386467,-0.18879015179999598,0.15120984820000402,0.0,400,0.02300238609313965,0.7462536366082936,0.7214310941621079,19791,-59.00494213533432,0.0
93,1.2955570220947266,14.340321709874104,23.369566282258436,36.94152504924158,-23.97265162258402,0.0,0.3088226207217044,0.1,0.0032515525817871094,0.05827975273132324,0.050762087,0.3966762,14.798121806935232,-0.19677379425399782,0.23530057840539126,0.0,360,0.020261526107788086,0.8464060321975738,0.8101824355756608,20151,-59.25702072609612,0.0
94,1.307460069656372,-11.097235904277198,18.399692536288548,16.57895750550679,-30.607013670441614,0.0,0.3130618804253922,0.1,0.002904176712036133,0.057598114013671875,0.050716568,0.35544592,12.208586035813989,-0.20980100748393338,0.10605719156396687,0.0,338,0.02004098892211914,0.800657128460391,0.66200517779543,20489,-59.78035543419023,0.0
95,1.3169827461242676,20.53377965612565,37.81936857838309,76.8114379116513,-29.46829174296386,0.0,0.31848171419617116,0.1,0.002985239028930664,0.05934953689575195,0.048352238,0.5234228,13.041105397845156,-0.19044106260105137,0.2971868857328985,0.0,386,0.024166584014892578,0.8087456268575249,0.805999457910479,20875,-60.325396376903306,0.0
96,1.3304009437561035,3.2940392055477723,33.67517788272013,46.104778574950856,-33.84984363872684,0.0,0.30324359196245754,0.1,0.005774021148681641,0.05552077293395996,0.050325617,0.37421793,12.066398778615417,-0.20401502680149292,0.24999288198308145,0.0,342,0.01927018165588379,0.6667036939783874,0.6306812544853028,21217,-61.05628730324608,0.0
97,1.2924132347106934,-7.387739916160568,29.290189246721166,36.20831132334175,-42.61272370527171,0.0,0.31111670458144375,0.1,0.0026552677154541016,0.05556344985961914,0.050266683,0.3504137,10.12098490913782,-0.23530108228455832,0.14330982208894555,0.0,258,0.015875577926635742,0.7199889102816267,0.731506019247653,21475,-62.02558967889946,0.0
98,1.3248772621154785,-2.8327440544527063,42.30793764037866,68.79317584967599,-38.57466513471131,0.0,0.3104968126999465,0.1,0.002835988998413086,0.05517244338989258,0.048769675,0.6585939,8.825612012778766,-0.2122358769174621,0.18881795935212872,0.0,335,0.019787073135375977,0.6315947236717164,0.6248695346938652,21810,-65.04009677462828,0.0
99,1.3416004180908203,-1.310975038857583,35.21939540248233,44.30018266068219,-44.551186027789775,0.0,0.3079509667996764,0.1,0.002877473831176758,0.05695748329162598,0.048805647,0.44311622,7.8119533076151315,-0.20080708550255433,0.20386687887538119,0.0,372,0.02036738395690918,0.5237957751451743,0.5074657010996815,22182,-62.82049967288426,0.0
100,1.3273108005523682,23.463060451334933,59.0631310850309,120.85416582070847,-37.19066224389871,0.0,0.3394116226794773,0.1,0.002846240997314453,0.0567777156829834,0.049789883,0.39140952,9.377064021987112,-0.19287247404022795,0.45173007671806303,0.0,352,0.019698619842529297,0.90365902942143,0.8741292870508918,22534,-63.15218878256169,0.0
101,1.36387038230896,44.617025345137684,19.070391394113216,73.62855487263495,23.90923712469765,0.0,0.3567573410388033,0.1,0.0029387474060058594,0.06075143814086914,0.050193526,0.37070414,12.901060154302169,-0.1870255142342874,0.4129744857657124,0.0,400,0.02343010902404785,1.9691536533640308,1.1100055005227136,22934,-62.05813305463292,0.0
102,1.3745825290679932,43.93059574429957,19.59450687788309,73.67165036542893,20.50847858229267,0.0,0.36104094028995926,0.1,0.002880573272705078,0.05922746658325195,0.049009934,0.3828457,16.00401371330191,-0.1938783361064927,0.40612166389350735,0.0,400,0.023894548416137695,1.079926161524262,0.9237511183813882,23334,-60.55217578439309,0.0
103,1.3769032955169678,24.403014783243265,29.091548577702103,66.1567446957378,-13.729946641611447,0.0,0.32839708789906663,0.1,0.002861499786376953,0.059551239013671875,0.050423857,0.63904214,16.843913820296045,-0.17933100769828347,0.21066899230171635,0.0,400,0.02503204345703125,0.8999099836324697,0.9312526184275739,23734,-60.963983408553986,0.0
104,1.3751518726348877,10.056591839363692,26.95890614335194,52.967418242351364,-15.964708369884875,0.0,0.29591456626807483,0.1,0.0028684139251708984,0.05518078804016113,0.050471246,0.5167222,16.16518162220281,-0.20374253380471624,0.3175933536297847,0.0,329,0.019108057022094727,0.9378172952149301,0.8666220469836853,24063,-60.63166949678588,0.0
105,1.3957388401031494,24.53964246521888,8.656621660466405,36.66698420345023,14.51171136561895,0.0,0.268314701933044,0.1,0.0029973983764648438,0.05897641181945801,0.04921381,1.0392402,17.002627706504416,-0.1878616727441607,0.2121383272558392,0.0,400,0.02205514907836914,0.7404905673685653,0.7241725030970056,24463,-60.422628865716405,0.0
106,1.4001855850219727,35.05201019477228,20.09568120162846,61.07561843325151,4.590900088541659,0.0,0.31577494057415023,0.1,0.002981901168823242,0.058327674865722656,0.051096935,0.62369126,18.807565955331203,-0.18283333595249399,0.3171666640475061,0.0,400,0.02367115020751953,0.904652977853704,0.8910996411502775,24863,-61.16183503544996,0.0
107,1.5520446300506592,36.079245596084675,11.586052714841491,49.54909589778458,20.993395261092644,0.0,0.2848005303684737,0.1,0.0030372142791748047,0.06030392646789551,0.049982548,0.541883,20.53473391940655,-0.18254081698218816,0.32745918301781185,0.0,400,0.02239847183227539,0.8903659576293387,0.8478278215979885,25263,-61.290430210048754,0.0
108,1.3415796756744385,46.14351766170575,84.61073609772959,187.17911777351293,-24.706064931881688,0.0,0.2869761187978694,0.1,0.0027170181274414062,0.059156179428100586,0.050243165,0.50596905,23.09561229363647,-0.20737196344561445,0.6784193205348148,0.0,290,0.01633477210998535,0.9816536388843407,0.9773738543711504,25553,-19.373445343248363,0.0
109,1.382140874862671,36.67907357592968,19.94868736479238,62.305585393945364,14.213687174868625,0.0,0.295309650759281,0.1,0.0029268264770507812,0.0590367317199707,0.050375115,0.730823,24.453958421865792,-0.1765712475852947,0.3334287524147053,0.0,400,0.027333498001098633,0.8564528239357432,0.8400771487865548,25953,-18.803691881464854,0.0
110,1.4060626029968262,48.8699841066222,18.23912642991058,70.77988956958643,20.25618868691966,0.0,0.3077008021264481,0.1,0.0029516220092773438,0.05844926834106445,0.049916983,0.6036442,26.895560990341433,-0.1747440876049887,0.45525591239501134,0.0,400,0.024047374725341797,0.8847613901584266,0.8569661716874835,26353,-20.168952073291674,0.0
111,1.3818871974945068,12.658113027837867,36.281715893741925,53.15623429707449,-44.35662630094065,0.0,0.30957274283625097,0.1,0.0029230117797851562,0.0569310188293457,0.049240038,0.5549587,25.471816194091076,-0.19519103449908548,0.21848744840740342,0.0,359,0.019590377807617188,0.9642391496415016,0.8924723485648691,26712,-67.83867270507245,0.0
112,1.4197919368743896,35.24113573018988,11.065520934519014,54.36427701671872,27.93246916653744,0.0,0.3096693222447168,0.1,0.0029027462005615234,0.058302879333496094,0.04907248,0.4836499,26.44874814770096,-0.18093868529222304,0.3190613147077768,0.0,400,0.022770404815673828,0.7890701264610237,0.813586474580743,27112,-62.196442455413624,0.0
113,1.4176793098449707,69.8575871818622,22.626537399960597,106.93562775458656,45.73898156548392,0.0,0.3193997109392627,0.1,0.0029251575469970703,0.058431148529052734,0.048069667,0.47761968,30.78963205111709,-0.17486397542960777,0.6651360245703921,0.0,400,0.023190021514892578,0.9398036828707863,0.8675260857647735,27512,-20.492124166645965,0.0
114,1.4316413402557373,36.883621064612136,30.061945827938928,81.19852489794604,0.324976269398478,0.0,0.3101962851755053,0.1,0.0029189586639404297,0.05950355529785156,0.05012825,0.77238554,31.399030952466592,-0.1844901739195561,0.33550982608044366,0.0,400,0.02889108657836914,0.8345213106684537,0.8340618547559439,27912,-20.264269466844528,0.0
115,1.4150745868682861,60.96490305162594,10.642070847710848,74.6409650459218,45.65430702386517,0.0,0.29215463042844275,0.1,0.003031015396118164,0.058447837829589844,0.050277404,0.5285417,34.35561816238253,-0.17369981224606362,0.5763001877539364,0.0,400,0.023613691329956055,0.8002116410839911,0.7616401873051444,28312,-19.735138807524073,0.0
116,1.4399933815002441,70.87356715681494,47.95244852951764,119.31778188048756,-3.6361582132782075,0.0,0.3089818999047541,0.1,0.002955198287963867,0.058443546295166016,0.049166974,0.5468162,38.00741306182577,-0.17465456440998012,0.6753454355900199,0.0,400,0.023051023483276367,0.8403045166570358,0.7997884912724207,28712,-18.95441445028474,0.0
117,1.4231438636779785,32.96047266211194,31.57288312580973,54.51134219938968,-21.314774967489406,0.0,0.3112152577331299,0.1,0.0029299259185791016,0.0574488639831543,0.0489498,0.4131022,37.502719021854396,-0.18560150338933878,0.42134275969160323,0.0,387,0.023184776306152344,1.0035653325419407,0.7797136932067531,29099,-19.142209938483457,0.0
118,1.4398534297943115,71.69907177641704,45.28208771540731,134.96810461108583,25.407030308421337,0.0,0.3468697290428199,0.1,0.0075817108154296875,0.058864593505859375,0.050707765,0.42751873,40.92235429731066,-0.1763106410484882,0.683689358951512,0.0,400,0.023364543914794922,0.8670763315014637,0.8166592900252581,29499,-19.53264373204828,0.0
119,1.4762723445892334,56.04512664827221,23.593004433008428,87.00863956385854,29.515487909968215,0.0,0.3034455715220167,0.1,0.0029840469360351562,0.058652400970458984,0.050323587,0.5805277,42.43463153240682,-0.1730124434786287,0.5269875565213713,0.0,400,0.022016048431396484,0.6697805360319401,0.642926774493565,29899,-17.932595101744912,0.0
120,1.5093955993652344,41.84307209919962,28.4730648169465,70.5600295455726,13.244466361047513,0.0,0.32746193580313926,0.1,0.0030622482299804688,0.06536674499511719,0.04939583,0.5371653,42.3754755890861,-0.17498339542634467,0.38501660457365516,0.0,400,0.024176359176635742,0.6894774879004357,0.6634890936760561,30299,-17.528750789980997,0.0
121,1.5247106552124023,31.328632065422855,47.48756370805069,86.54053849191895,-31.828004456760947,0.0,0.31453846233444416,0.1,0.002963542938232422,0.05655860900878906,0.050070148,0.4068729,41.270791236719774,-0.19176339142180437,0.40502687177891705,0.0,355,0.01961040496826172,0.8729883200322646,0.803066643746942,30654,-17.00935937070156,0.0
122,1.511613368988037,97.44776408129886,32.23220748203889,130.75753457661398,54.96908002787177,0.0,0.35050539865724883,0.1,0.0035085678100585938,0.05825662612915039,0.04975547,0.36891308,46.888488521177685,-0.16884642457676663,0.9411535754232334,0.0,400,0.023431062698364258,0.736402009206698,0.6355357785028997,31054,-16.799070759581575,0.0
123,1.537287712097168,54.26243602721733,13.739035015295077,74.25300149744555,37.750850550505035,0.0,0.33569765093642506,0.1,0.0029098987579345703,0.05821990966796875,0.049357686,0.47207996,47.62588327178165,-0.17092064841707305,0.5090793515829268,0.0,400,0.023182153701782227,0.5218524056665799,0.5138930277325748,31454,-16.91272955793465,0.0
124,1.5323667526245117,101.58900065866929,20.562924696125553,127.32414153770364,69.85058103756738,0.0,0.3136576134894959,0.1,0.0028839111328125,0.05865335464477539,0.049634915,0.44906104,53.02219501047042,-0.16754578162801786,0.9824542183719822,0.0,400,0.02332139015197754,0.5439456437606783,0.48398289189013843,31854,-17.375170367287776,0.0
125,1.4730961322784424,60.891716658314806,27.4952321043555,93.73454791776457,29.96570190737132,0.0,0.300640133412456,0.1,0.0030324459075927734,0.06089615821838379,0.048967317,0.5923126,53.80914717525486,-0.1745004502877287,0.5754995497122715,0.0,400,0.023560523986816406,0.5399838878461533,0.4028743808080016,32254,-16.97948028420398,0.0
126,1.4891424179077148,148.9355283231283,65.52135782714166,259.79940994944104,89.59992905240811,0.0,0.3402204824023464,0.1,0.0031075477600097656,0.058951616287231445,0.05040785,0.37882876,63.3217852900422,-0.16414985211737132,1.4558501478826287,0.0,400,0.025618553161621094,0.7092382123683191,0.5472384539361546,32654,-0.40437446907162755,0.0
127,1.4975390434265137,92.8057049230727,26.368496492919398,122.41280227932448,50.49419547540223,0.0,0.32939485052449025,0.1,0.0029382705688476562,0.05876874923706055,0.049376536,0.45545253,66.27017725334525,-0.16545729654370026,0.8945427034562996,0.0,400,0.023705005645751953,0.5165213851157531,0.44899825169341895,33054,-0.34207294374689834,0.0
128,1.4921140670776367,92.3150281915492,35.10392956072839,130.6750598886879,38.33626730034766,0.0,0.33686470558385956,0.1,0.0029702186584472656,0.0588533878326416,0.049454622,0.520557,68.87466234716565,-0.17017865301365004,0.8898213469863498,0.0,400,0.024091243743896484,0.47027042222210036,0.3964819963471219,33454,-16.390916695415232,0.0
129,1.525367259979248,46.281304628326346,18.91726545665718,73.64544143555017,28.00986965860476,0.0,0.3335005330770297,0.1,0.0030286312103271484,0.06005430221557617,0.049527608,0.6127421,66.61532657528173,-0.18062514385915263,0.42937485614084747,0.0,400,0.024001121520996094,0.7096068971904109,0.5541109364299465,33854,-16.451316761610254,0.0
130,1.5347776412963867,83.64759965508617,50.04112308256401,169.41224484145425,44.93812686470332,0.0,0.3329168319783512,0.1,0.002844095230102539,0.06133460998535156,0.052668996,0.85626185,68.31855388326217,-0.1766511738809295,0.8033488261190701,0.0,400,0.02422046661376953,0.6296755948397004,0.44261541052421044,34254,-16.41420622635167,0.0
131,1.5376152992248535,124.49885019228464,58.63531644255084,186.7006671957657,46.33671244122717,0.0,0.3394817593020952,0.1,0.0028755664825439453,0.06135821342468262,0.049648773,0.33870074,73.93658351416441,-0.1683815985583319,1.211618401441668,0.0,400,0.02505040168762207,0.45769874736641153,0.38016165080432496,34654,-16.79982745427677,0.0
132,1.5381684303283691,140.4635136951037,36.8471807814169,199.24443023067326,97.57284448669185,0.0,0.3580728627280541,0.1,0.0030281543731689453,0.059899091720581055,0.049858328,0.40323913,80.58927653225835,-0.16870589142034936,1.3712941085796506,0.0,400,0.022984743118286133,0.40057131196435336,0.3487787681716585,35054,-17.120237185088993,0.0
133,1.5520224571228027,156.4909325672509,92.72981355979904,271.52818431495024,56.68146905559744,0.0,0.35759399471214215,0.1,0.0029747486114501953,0.05819869041442871,0.049495872,0.30383492,88.17944213575761,-0.16865067852839594,1.5113493214716043,0.0,400,0.023307085037231445,0.4524703747287363,0.36284317806772826,35454,-16.96337668793504,0.0
134,1.581953525543213,209.54518934109362,78.76930058198782,328.17809857610575,110.97677982976631,0.0,0.3485971460157893,0.1,0.0031430721282958984,0.06461071968078613,0.050103597,0.34607586,100.31601685629121,-0.1581066139691397,2.06189338603086,0.0,400,0.024244070053100586,0.4010550466249703,0.3716833452803767,35854,-17.065220442041724,0.0
135,1.5814847946166992,209.50784920005233,66.48275329342609,292.2695900060253,110.88826653416054,0.0,0.36302451603726094,0.1,0.0031080245971679688,0.06437325477600098,0.05108249,0.33648366,111.23520009066733,-0.15853508580727835,2.0614649141927215,0.0,400,0.0243377685546875,0.3466315247708442,0.30298969341206017,36254,-16.54757213030195,0.0
136,1.582228183746338,243.99574670224658,110.04241765166907,368.38390535809253,71.50509513005586,0.0,0.3521219312942197,0.1,0.0029239654541015625,0.06278085708618164,0.049767733,0.29608682,124.51125475182525,-0.16361038835964403,2.3963896116403554,0.0,400,0.02365279197692871,0.41364296860200495,0.33203136898481617,36654,-16.671601963202,0.0
137,1.5247633457183838,119.15024277821587,44.87406208076455,179.37412095231664,58.975887285770774,0.0,0.3567337161397181,0.1,0.0031828880310058594,0.059622764587402344,0.048931155,0.34911662,123.97515355446431,-0.16199182452978322,1.1580081754702172,0.0,400,0.023860454559326172,1.6957238793704996,0.3876671243447105,37054,-16.216630186336495,0.0
138,1.519360065460205,200.75567364814435,97.03087266808143,307.8111425579794,83.2615182039152,0.0,0.3638942027609247,0.1,0.0033426284790039062,0.06230640411376953,0.05021126,0.33287576,131.65320556383233,-0.156125197419156,1.953874802580844,0.0,400,0.024155378341674805,0.3599721105658902,0.3623732515199029,37454,-16.422510383776476,0.0
139,1.5500450134277344,146.71375791700999,62.65785340926877,211.31960371600925,78.07992127011248,0.0,0.36839253236204733,0.1,0.0030176639556884766,0.06047677993774414,0.05065364,0.30837864,133.1592607991501,-0.16644116087649424,1.4235588391235057,0.0,400,0.023312091827392578,0.2753357969171429,0.2658492495036804,37854,-4.525722735792161,0.0
140,1.5398659706115723,268.01513745306033,56.367191651912,352.55189527238406,207.32513678356256,0.0,0.36142969594053037,0.1,0.002965211868286133,0.06052398681640625,0.049481228,0.2924312,146.64484846454113,-0.1535461532502397,2.6364538467497605,0.0,400,0.02416539192199707,0.24375954763404403,0.19455190589119428,38254,-0.17762287744431313,0.0
141,1.5616800785064697,322.2722726765321,48.066583873942804,360.38526513409334,239.9267435000635,0.0,0.34262685970118684,0.1,0.0030176639556884766,0.06316304206848145,0.050270833,0.34488675,164.20759088574022,-0.1509984476033217,3.169001552396679,0.0,400,0.023955106735229492,0.21300896244692227,0.15898523604235118,38654,3.6123128402650067,0.0
142,1.5726194381713867,272.74203130408915,21.972942048224393,307.7757686979129,247.80695494376204,0.0,0.35025979899841925,0.1,0.003010272979736328,0.05967378616333008,0.05149063,0.27982408,175.06103492757512,-0.15633405726492816,2.663665942735072,0.0,400,0.023879528045654297,0.13093988329150844,0.12533646641713264,39054,-0.422429102480577,0.0
143,1.5804271697998047,294.0978123924822,44.287938316504906,340.63254456502756,247.85572445011007,0.0,0.351622791254491,0.1,0.002886533737182617,0.059599876403808594,0.05024548,0.27881503,186.96471267406582,-0.15276490558084777,2.867235094419152,0.0,400,0.02393484115600586,0.14576084569784883,0.13316762509135702,39454,7.780098431606876,0.0
144,1.5911564826965332,254.75471209823317,117.23687883316295,368.4206550163882,86.78629347954418,0.0,0.33340613444767087,0.1,0.0030128955841064453,0.05938220024108887,0.04933706,0.32185414,193.74371261648258,-0.1560569220801593,2.5039430779198404,0.0,400,0.023583412170410156,0.36257661341056285,0.33185540400682084,39854,7.554027345167956,0.0
145,1.5775151252746582,214.47864592871852,127.45954956465435,343.9537187491011,82.84252152394203,0.0,0.36144680735935214,0.1,0.0028824806213378906,0.061562299728393555,0.048659425,0.30772275,195.81720594770616,-0.15890218158450517,2.0910978184154954,0.0,400,0.023569583892822266,0.38249660701203164,0.38226551544971105,40254,7.735860833592849,0.0
146,1.6051380634307861,291.9855742908872,59.65344449026537,364.622221581144,223.75353076069047,0.0,0.35754204383132393,0.1,0.0029833316802978516,0.05902266502380371,0.048987433,0.34597597,205.43404278202428,-0.15386697962784524,2.856133020372155,0.0,400,0.023989439010620117,0.22398156614079665,0.16779936935567416,40654,3.8046008225600185,0.0
147,1.595459222793579,345.430346363292,38.270092721473745,376.77384268757925,279.9672369915442,0.0,0.3581545476197378,0.1,0.002971649169921875,0.05881619453430176,0.04935008,0.26589194,219.43367314015106,-0.14949903233177617,3.380500967668224,0.0,400,0.024022579193115234,0.14929124607040012,0.1235444974382406,41054,-0.3488937850439246,0.0
148,1.6192681789398193,362.72389581903644,6.772311894544867,369.1832421222957,352.8274091548379,0.0,0.3732012410637003,0.1,0.003021240234375,0.05880928039550781,0.048615888,0.24943624,233.7626954080396,-0.14658457531916808,3.5534154246808316,0.0,400,0.022032976150512695,0.1398712077737622,0.1245086627769837,41454,7.388917306619813,0.0
149,1.6084773540496826,293.04350265652545,27.952081334787724,324.3997994169703,252.02919611116968,0.0,0.33232046659342185,0.1,0.002890348434448242,0.06259727478027344,0.050106764,0.5522211,239.6907761328882,-0.1533246982869684,2.8566753017130315,0.0,400,0.0259246826171875,0.11418085698265314,0.07672362807465459,41854,3.1522384419723415,0.0
150,1.5948457717895508,352.5567328508876,20.892357757797605,372.98650500598575,320.31349063886245,0.0,0.3493240721408446,0.1,0.0029783248901367188,0.06102275848388672,0.048396353,0.33219588,250.97737180468815,-0.14823309652679434,3.4617669034732055,0.0,400,0.023370027542114258,0.14167356051678762,0.10757486866204516,42254,-1.502980122610028,0.0
151,1.5773813724517822,271.9962866723358,47.115004775322454,328.27568807517304,219.74385567382274,0.0,0.3514124143415924,0.1,0.003443479537963867,0.059419870376586914,0.049597446,0.38995716,253.07926329145292,-0.15378235437890203,2.656217645621098,0.0,400,0.023392915725708008,0.12534084997789385,0.11961970118016661,42654,3.493843573484769,0.0
152,1.5660712718963623,323.3934262720094,59.767191941796604,360.44766876474023,220.01714582674367,0.0,0.33699070824487154,0.1,0.003021717071533203,0.0589749813079834,0.049338687,0.32253465,260.11067958950855,-0.14983700174042291,3.160162998259577,0.0,400,0.023849964141845703,0.10548895210829239,0.1045042881722075,43054,3.03972309542211,0.0
153,1.5853068828582764,273.94251698530877,67.5545696117533,356.3622266124525,171.69187664076708,0.0,0.33020071062498674,0.1,0.0030138492584228516,0.05832314491271973,0.05117949,0.4320146,261.4938633290886,-0.15431493059481768,2.665685069405183,0.0,400,0.024254322052001953,0.15546878128022146,0.12852511570822672,43454,7.008924861124426,0.0
154,1.6058688163757324,206.28334069872923,102.89570481333712,340.43943014710425,101.314995338146,0.0,0.3553702875457843,0.1,0.0030100345611572266,0.06316518783569336,0.049112316,0.33885956,255.97281106605266,-0.16076196212418284,2.029238037875817,0.0,400,0.0235593318939209,0.4520665642489515,0.3575256980227766,43854,10.70815208590547,0.0
155,1.5986759662628174,356.86430512935067,16.8027759533036,369.21432620630645,328.3738997971615,0.0,0.35976847210458757,0.1,0.0030028820037841797,0.05973482131958008,0.051363617,0.2646212,266.06196047238245,-0.14519076263658176,3.4948092373634188,0.0,400,0.02457571029663086,0.33681555229284493,0.09215793859308782,44254,22.846108621205108,0.0
156,1.5953025817871094,336.6467169761302,56.020684085569236,373.0128948930536,239.98032039004607,0.0,0.35261078983242344,0.1,0.0030493736267089844,0.06051898002624512,0.04716598,0.3899172,273.12043612275727,-0.14734327621706542,3.292656723782934,0.0,400,0.023823976516723633,0.11095878075312035,0.14125074223764247,44654,22.20195726802221,0.0
157,1.6214947700500488,332.47155651168237,44.12680823981759,372.9541775140417,263.6419952631303,0.0,0.3526243529432811,0.1,0.0029609203338623047,0.05984950065612793,0.0498942,0.3246596,279.05554816164977,-0.1490599431861013,3.2509400568138993,0.0,400,0.023955106735229492,0.11052575246582196,0.08474052566395579,45054,18.28091604186301,0.0
158,1.62300443649292,319.37622153974274,33.047660692457654,365.0642369940322,287.7780528502901,0.0,0.3696716725797217,0.1,0.003007650375366211,0.06259679794311523,0.046671852,0.28048056,283.08761549945905,-0.1500563832310994,3.1199436167689,0.0,400,0.023766517639160156,0.08746138937164691,0.07511698234946422,45454,18.86166261688171,0.0
159,1.6298062801361084,347.7238938276455,29.616618478814367,373.1008960668437,300.4865146971139,0.0,0.36978816778356977,0.1,0.002946138381958008,0.059908151626586914,0.04878665,0.28098595,289.5512433322777,-0.1465084308343475,3.413491569165653,0.0,400,0.024018049240112305,0.1320834001316382,0.1288521980874275,45854,22.43621123667353,0.0
160,1.6183805465698242,321.60324383600255,64.18547643870089,373.52486491737295,211.6497977663897,0.0,0.3608283328057419,0.1,0.002903461456298828,0.059366703033447266,0.049834136,0.29529038,292.75644338265016,-0.14778375280045059,3.1422162471995496,0.0,400,0.02398228645324707,0.15453760598818148,0.1509166946335167,46254,14.48235965469081,0.0
161,1.6619009971618652,260.74732685808846,133.93672723205688,351.99115330753756,29.904442771498815,0.0,0.37966342011293086,0.1,0.002918243408203125,0.0615079402923584,0.049844168,0.2552571,289.555531730194,-0.156231240443103,2.5437687595568974,0.0,400,0.024168729782104492,0.2534534698736445,0.23380966837722883,46654,14.219149531667457,0.0
162,1.6575419902801514,310.3605369765087,96.7377525621689,369.1264180720249,142.91031021418894,0.0,0.36676922643578697,0.1,0.0031828880310058594,0.06233787536621094,0.049658094,0.28965038,291.63603225482547,-0.15012120209744637,3.039878797902554,0.0,400,0.02400994300842285,0.23042618788589453,0.2260147723900476,47054,14.148583953353326,0.0
163,1.6593527793884277,321.4906148919932,56.28153262920653,381.1126296744909,243.92193851648747,0.0,0.37459321922631594,0.1,0.0030558109283447266,0.05879068374633789,0.049529076,0.37526074,294.62149051854226,-0.14888758372153182,3.1411124162784683,0.0,400,0.023478269577026367,0.08934557286562547,0.0839554870270443,47454,10.296199441801605,0.0
164,1.6354689598083496,276.10152796165664,119.53216107953195,368.8322885520197,70.73576539618014,0.0,0.3362916619095315,0.1,0.002955913543701172,0.06013989448547363,0.04987848,1.3178434,292.7694942628537,-0.15271129966532948,2.69728870033467,0.0,400,0.023764371871948242,0.25790774785811726,0.23508653310715455,47854,18.680198129178486,0.0
165,1.637253999710083,296.2006637061124,61.01727710221829,373.18120540131315,203.69432646616244,0.0,0.3518058122938415,0.1,0.0030777454376220703,0.05966043472290039,0.04994319,0.3402608,293.1126112071796,-0.15181008881360292,2.8881899111863962,0.0,400,0.023265361785888672,0.1381208758015584,0.14239642667965624,48254,13.257709454227184,0.0
166,1.644028663635254,362.0034879593911,15.202464207520602,377.35118871577345,336.87680068986646,0.0,0.4021079351030467,0.1,0.0030057430267333984,0.0585174560546875,0.05031005,0.2390604,300.0016988824008,-0.14380023065864392,3.5461997693413556,0.0,400,0.023313522338867188,0.14030025290229348,0.098017271394351,48654,13.382458635104202,0.0
167,1.7983899116516113,288.2659588903134,57.727563185532986,368.6640855745521,223.83315301920797,0.0,0.3521828411907492,0.1,0.0029201507568359375,0.058463096618652344,0.04993958,0.38344455,298.82812488319206,-0.15106130689364486,2.8189386931063556,0.0,400,0.025125980377197266,0.18104695238837684,0.14806983988772035,49054,8.87143578517755,0.0
168,1.736232042312622,254.3264775335306,120.01497180897493,373.33472550652067,99.30603305644753,0.0,0.3683964212904434,0.1,0.0033774375915527344,0.05976366996765137,0.049825333,0.35661507,294.37796014822595,-0.15045859139601922,2.48954140860398,0.0,400,0.025322675704956055,0.41419502081787013,0.3137913313637366,49454,14.703547465512829,0.0
169,1.6199924945831299,270.19639537666734,89.28550840942336,364.84086034384694,123.44117332298673,0.0,0.37458035894007435,0.1,0.002943754196166992,0.06036496162414551,0.05060693,0.26971233,291.95980367107006,-0.1518168805014601,2.63818311949854,0.0,400,0.023488283157348633,0.21502060761115485,0.20095344183619174,49854,14.986918025286194,0.0
170,1.6353116035461426,315.5623496947453,66.89072503652254,369.0122295158641,203.58632417405084,0.0,0.3600248600005344,0.1,0.0029578208923339844,0.06379508972167969,0.050136484,0.2784133,294.3200582734376,-0.14810535137435377,3.091894648625646,0.0,400,0.023647546768188477,0.12120229428733588,0.09237455728280729,50254,9.73480870288371,0.0
171,1.625295877456665,350.78454447852744,25.29470634415409,369.522564514432,307.90655291757025,0.0,0.34759547949969083,0.1,0.0029866695404052734,0.05843639373779297,0.049873,0.324569,299.9665068939466,-0.1459850524450654,3.4340149475549344,0.0,400,0.023523569107055664,0.09704122430369715,0.0908476367272047,50654,9.36618531760048,0.0
172,1.6364188194274902,308.65959582436335,66.77506436571015,381.378020444557,240.05520429821834,0.0,0.36838603618931237,0.1,0.0029458999633789062,0.061582088470458984,0.049396195,0.34692442,300.8358157869883,-0.14715008702613463,3.022849912973865,0.0,400,0.022008657455444336,0.19748215789208542,0.1510020125405985,51054,5.148673012353897,0.0
173,1.6346442699432373,274.4496481052606,109.15168753271563,369.47487624504373,103.08655896498179,0.0,0.34786270781315737,0.1,0.0029473304748535156,0.06239748001098633,0.0498874,0.4999817,298.1971990188155,-0.1492686410825354,2.690731358917465,0.0,400,0.02297067642211914,0.2420379122205743,0.22096687013828104,51454,5.256019271206463,0.0
174,1.654205560684204,274.21928933927586,93.65741471302846,369.1083166723669,123.42777360669395,0.0,0.350526434130707,0.1,0.0029296875,0.058007001876831055,0.04998412,0.4049774,295.79940805086153,-0.15157140042402267,2.6784285995759767,0.0,400,0.02393484115600586,0.18037734605129616,0.17909822473096917,51854,1.158683353486498,0.0
175,1.6359386444091797,337.7791869421035,51.796791906800316,369.0652920212968,248.1067279314184,0.0,0.35644365901203173,0.1,0.0029485225677490234,0.05790376663208008,0.050261606,0.3092972,299.99738593998575,-0.1460462194401238,3.3039537805598767,0.0,400,0.02747035026550293,0.1798297388631747,0.0997228549320623,52254,4.551516392675723,0.0
176,1.6330976486206055,291.2331599081421,34.42226637470063,336.2688962154595,240.0414988354731,0.0,0.32353728144969185,0.1,0.0029125213623046875,0.05794477462768555,0.049696043,0.6162486,299.12096333680137,-0.15148228733766178,2.8385177126623384,0.0,400,0.023164987564086914,0.1017828435967949,0.10326207164071768,52654,0.8239498234351584,0.0
177,1.7735369205474854,193.6107017445079,87.51335804725025,336.97092011815744,115.19478826737088,0.0,0.3285286051791083,0.1,0.09366846084594727,0.4132390022277832,0.0498787,0.4796149,288.569937177572,-0.15753707946557477,1.882462920534425,0.0,400,0.022103548049926758,0.9228751688446999,0.36464038351739697,53054,0.7863518107323548,0.0
178,1.6499621868133545,204.76600520559236,79.12112418563974,328.80830925111246,123.32694293318346,0.0,0.3590616153386906,0.1,0.0029599666595458984,0.05872607231140137,0.04934658,0.4200909,280.1895439803741,-0.15609282449634604,1.9939071755036537,0.0,400,0.022957324981689453,0.4154959023613598,0.3274019174334659,53454,13.320876024292303,0.0
179,1.6908748149871826,259.36509815992616,118.16596068218055,385.5912123548183,139.56286740571298,0.0,0.36111444251211317,0.1,0.003004789352416992,0.05850076675415039,0.050761178,0.30121356,278.1070993983293,-0.15004550242967477,2.539954497570325,0.0,400,0.023606538772583008,0.5035902318900471,0.3297338409119361,53854,17.85487561204775,0.0
180,1.7261908054351807,329.6570945491422,43.01545823365227,369.4350197255088,260.15752816985906,0.0,0.3841603416215999,0.1,0.0028603076934814453,0.05869102478027344,0.050514054,0.22696538,283.26209891341057,-0.14730705978944844,3.2226929402105515,0.0,400,0.02613687515258789,0.23311833224338488,0.1069041498820353,54254,34.399777425552266,0.0
181,1.6967644691467285,219.48776502694741,120.60131083673954,356.64611795093515,37.220019062753295,0.0,0.395469075294775,0.1,0.0030374526977539062,0.058838844299316406,0.05022214,0.3203166,276.8846655247643,-0.1587911415289074,2.1412088584710927,0.0,400,0.023453712463378906,0.5607977677486993,0.5375082224428686,54654,30.076442213372,0.0
182,1.7243659496307373,205.60333002386534,88.49637675123901,292.26989891094746,58.35197222100798,0.0,0.35547108421012125,0.1,0.0028808116912841797,0.05822896957397461,0.049325436,0.5898551,269.7565319746744,-0.15768177591106255,2.0023182240889374,0.0,400,0.02355194091796875,0.5272689856383073,0.3979842712093752,55054,-10.648268048797478,0.0
183,1.7964980602264404,229.76808176850767,52.76006379758623,316.19402310325745,175.59629072243246,0.0,0.33791011435189505,0.1,0.0027806758880615234,0.05863046646118164,0.05054661,0.54539156,265.7576869540577,-0.15614434673415772,2.223855653265842,0.0,400,0.02400970458984375,0.10555937074108683,0.11423649981520488,55454,22.66331921368045,0.0
184,1.6486482620239258,218.8188409300738,82.50089161724327,356.83343818905814,143.4408308888276,0.0,0.3539214428874374,0.1,0.0031175613403320312,0.058476924896240234,0.050386723,0.43406376,261.0638023516593,-0.15563977141702112,2.1143602285829783,0.0,400,0.030132532119750977,0.21177027210849406,0.20941254824581146,55854,35.06104628272761,0.0
185,1.6250953674316406,280.36864172602895,85.45332465377074,368.80390790222964,139.56218845138136,0.0,0.3913889419694111,0.1,0.0029544830322265625,0.06166410446166992,0.047045168,0.25685513,262.9942862890963,-0.1500750531734521,2.739924946826548,0.0,400,0.02583789825439453,0.2765766668875646,0.27146570363998807,56254,30.755728553932116,0.0
186,1.6365067958831787,275.12426372299376,115.3177992152796,369.0739203725401,86.56510268965636,0.0,0.3887561855464658,0.1,0.0029268264770507812,0.05851125717163086,0.05082576,0.27887547,264.20728403248603,-0.15259598374204056,2.67740401625796,0.0,400,0.02655196189880371,0.27112851577174113,0.25744126917531335,56654,27.100385086806565,0.0
187,1.703639030456543,235.7743276388136,82.01260837142904,365.14635426456346,162.9391764905775,0.0,0.35594882807223804,0.1,0.0028984546661376953,0.05866551399230957,0.049530115,0.31580633,261.3639883931188,-0.156118075707241,2.2838819242927597,0.0,400,0.02619338035583496,0.18893879942663472,0.18943186735407255,57054,31.240719168136362,0.0
188,1.641995906829834,345.9102352864252,17.335039742852604,365.80523412135244,328.6487034772917,0.0,0.3647599873382947,0.1,0.0029191970825195312,0.058207035064697266,0.04900943,0.2531722,269.8186130824494,-0.1447297574416719,3.3852702425583283,0.0,400,0.02540755271911621,0.1758088135769491,0.13972927963648785,57454,39.60834970067622,0.0
189,1.6834640502929688,277.42806196204344,82.8870961669552,365.07061997013756,175.74578938407151,0.0,0.32319239851304593,0.1,0.00302886962890625,0.058270931243896484,0.049615312,5.322045,270.5795579704088,-0.14953272159123487,2.710467278408766,0.0,400,0.027141571044921875,0.18983146526819417,0.18384479798872094,57854,18.82108537162004,0.0
190,1.6514935493469238,340.865148528203,35.299660721726916,373.3961926028025,288.18775564469547,0.0,0.35209684768907057,0.1,0.0027971267700195312,0.06159710884094238,0.05063125,0.614685,277.6081170261882,-0.14510773093955692,3.344892269060443,0.0,400,0.026274681091308594,0.09656984365337291,0.08298656226562802,58254,22.7039498246456,0.0
191,1.7040202617645264,292.3617570140244,75.07114856197434,368.9004955877447,207.57132081949982,0.0,0.3550320361113874,0.1,0.0028030872344970703,0.05828523635864258,0.049727358,0.8138209,279.08348102497183,-0.15019408513688826,2.8498059148631114,0.0,400,0.02660393714904785,0.11212897779967759,0.10663629785229829,58654,22.829142396444187,0.0
192,1.6699330806732178,282.5800535503273,57.80146849499393,381.946944109717,240.15865089757108,0.0,0.3602870791546988,0.1,0.0060918331146240234,0.05863070487976074,0.050503187,0.51393294,279.4331382775074,-0.14800747792878183,2.7619925220712185,0.0,400,0.028154611587524414,0.1520116922980572,0.13953667637285597,59054,18.451762569235765,0.0
193,1.682403326034546,324.8701322419039,66.46271719322051,385.93344059943104,215.55836051313787,0.0,0.3810423970290841,0.1,0.002935647964477539,0.06077218055725098,0.051400933,0.27806953,283.97683767394705,-0.1451153067393908,3.1748846932606094,0.0,400,0.028147459030151367,0.1454842730040155,0.1378961348686931,59454,18.55519544456775,0.0
194,1.6773321628570557,361.2562109105514,19.818455548555626,381.75986389198954,328.55189585176623,0.0,0.37978594905399793,0.1,0.0031349658966064453,0.06303286552429199,0.048451096,0.40260875,291.7047749976075,-0.14127632541006696,3.538723674589933,0.0,400,0.030117034912109375,0.09946739636326202,0.07227828779491158,59854,26.591461124731563,0.0
195,1.6970670223236084,372.3140745936158,1.8240324642469936,373.483579341091,369.1573431558321,0.0,0.35665112001892685,0.1,0.0028879642486572266,0.06024765968322754,0.050228797,0.83331984,299.76570495720836,-0.14068097621595635,3.6493190237840434,0.0,400,0.029036283493041992,0.08560282741171522,0.07643362259324316,60254,22.304139401515076,0.0
196,1.6917672157287598,333.1017831605036,69.96589604869,381.45427574134635,212.2191056266082,0.0,0.33946211386723235,0.1,0.0029878616333007812,0.05834007263183594,0.04934823,0.52631986,303.09931277753793,-0.1427854893169304,3.2672145106830697,0.0,400,0.028347492218017578,0.1865324268191169,0.1591256649195982,60654,30.647447552355953,0.0
197,1.7247955799102783,267.3779846722325,101.90163341525236,373.6737326075525,163.48565463948233,0.0,0.40250454047408774,0.1,0.0029244422912597656,0.05834031105041504,0.048945393,0.30063826,299.5271799670074,-0.14993952371199298,2.6200604762880064,0.0,400,0.0310361385345459,0.329162763476989,0.227135379757762,61054,30.791748483793654,0.0
198,1.6300535202026367,342.8987996912352,30.472864718041134,373.25419322646616,308.50081878841763,0.0,0.34462234211158094,0.1,0.003039836883544922,0.05976366996765137,0.048711825,1.003942,303.8643419394301,-0.14482760708986692,3.365172392910134,0.0,400,0.027660369873046875,0.1264468849212969,0.09116750525513316,61454,30.810767701748713,0.0
199,1.638735294342041,277.3077942547267,68.74901392437611,369.10225351105487,176.14638863329722,0.0,0.35751965185237916,0.1,0.0029344558715820312,0.060712575912475586,0.048450574,0.40238458,301.2086871709598,-0.15063728066726642,2.7093627193327343,0.0,400,0.029859304428100586,0.13835777128795765,0.15033016258522466,61854,26.393364412531085,0.0
200,1.6134183406829834,303.56857538059205,50.13734491308347,373.1715266421213,236.1891550569572,0.0,0.3702831195165294,0.1,0.0030517578125,0.05872845649719238,0.049914237,0.3299457,301.4446759919231,-0.14806318390162887,2.981936816098371,0.0,400,0.03328657150268555,0.12653356367049537,0.12437070813058125,62254,26.370895104172906,0.0
201,1.6155734062194824,357.1885154585942,22.148254826990403,377.50075916176934,321.20371910537136,0.0,0.34604553881506434,0.1,0.00301361083984375,0.059560537338256836,0.04943516,0.33332554,307.0190599385902,-0.14196482991691275,3.4980351700830874,0.0,400,0.032871246337890625,0.09512070172243482,0.062248372936611174,62654,17.90567037083833,0.0
202,1.6410744190216064,335.593915075576,39.53404184932929,369.19728387660496,268.14367969469646,0.0,0.39154092625594017,0.1,0.003038644790649414,0.06186938285827637,0.047687124,0.27322808,309.87654545228884,-0.14785294550390474,3.2821470544960953,0.0,400,0.03372836112976074,0.07416221182868596,0.07109399543919263,63054,17.862430184669698,0.0
203,1.621063232421875,350.83779432297405,18.679588095857035,373.17088436860934,328.47831619171683,0.0,0.38018878436662334,0.1,0.0029802322387695312,0.059897661209106445,0.051216222,0.3129513,313.97267033935736,-0.14547438572985977,3.4345256142701404,0.0,400,0.03263092041015625,0.06710664422216076,0.061330353140405414,63454,18.02163971362418,0.0
204,1.6313972473144531,302.78382497578787,113.15197877853224,377.3854444679742,107.46041453597836,0.0,0.3612899264704877,0.1,0.003015756607055664,0.0626828670501709,0.049857605,0.32379073,312.8537858030004,-0.14589812603047242,2.9641018739695277,0.0,400,0.031041860580444336,0.2677637618843591,0.2308496628903535,63854,22.41107435672845,0.0
205,1.6624176502227783,370.3372040765809,12.89552125313605,389.31761951787985,352.90977573353325,0.0,0.3513176920977729,0.1,0.0029516220092773438,0.05918145179748535,0.04914355,1.3807276,318.6021276303585,-0.1404480560891667,3.629551943910834,0.0,400,0.032099008560180664,0.07254010476334358,0.06878471556997276,64254,22.038474824901858,0.0
206,1.6496648788452148,294.79791123046573,114.88976241902994,381.68009518522643,99.37784963725926,0.0,0.360517930648199,0.1,0.002949953079223633,0.059384822845458984,0.049687266,0.3681143,316.22170599036923,-0.14576464190559596,2.8842353580944047,0.0,400,0.03304314613342285,0.26050596071225923,0.25308534308238073,64654,30.17837220554783,0.0
207,1.6467976570129395,356.1670953481548,20.123406408724442,377.491007547237,328.955361217485,0.0,0.37833332323982666,0.1,0.002911090850830078,0.05954861640930176,0.04973269,0.4957478,320.2162449261478,-0.14218419052569245,3.487815809474308,0.0,400,0.03206801414489746,0.07720967524984156,0.07493747569797332,65054,17.804695988142818,0.0
208,1.6550865173339844,335.0064075552174,50.40610930787971,389.7227024787659,255.97339717816462,0.0,0.3269751421400588,0.1,0.0030214786529541016,0.06156778335571289,0.050272945,0.6354639,321.69526118905475,-0.14372203187699442,3.2962779681230048,0.0,400,0.03392601013183594,0.05261354356742545,0.05214398708855499,65454,17.671426464561875,0.0
209,1.664102554321289,215.1602418972571,109.0143626053122,397.62489017163097,127.56164478326816,0.0,0.3431456387830688,0.1,0.002922534942626953,0.06406545639038086,0.049315628,0.47620448,311.041759259875,-0.15210497900616265,2.107895020993838,0.0,400,0.0326848030090332,0.6215910271707207,0.3183946619013591,65854,17.63358917343001,0.0
210,1.6760931015014648,341.8420912429695,57.850445009752356,393.72274690429316,243.72822135865874,0.0,0.3476107502690273,0.1,0.0029001235961914062,0.058585166931152344,0.05023704,0.24894966,314.1217924581845,-0.14541195332254944,3.3445880466774502,0.0,400,0.03243207931518555,0.16637285600662322,0.12605096176947464,66254,17.856425596583367,0.0
211,1.5970401763916016,376.2388515409112,13.069735843976028,393.27299720232133,357.29630247972256,0.0,0.3549737018439398,0.1,0.0031104087829589844,0.0614776611328125,0.04916026,0.49730054,320.33349836645715,-0.14146339488875273,3.6885366051112465,0.0,400,0.03670358657836914,0.1251763477982904,0.05905604976402829,66654,21.949892829218765,0.0
212,1.6206865310668945,379.2354534619801,6.852543272671688,385.4116450321322,368.8206482423144,0.0,0.353718112790117,0.1,0.0030896663665771484,0.05969357490539551,0.04945817,0.6347147,326.22369387600946,-0.14144932577516656,3.7185506742248338,0.0,400,0.03286933898925781,0.0515777015711292,0.05919438909224034,67054,22.243159380560396,0.0
213,1.5996861457824707,364.13598601923997,19.49632369463524,385.51048326942475,332.8094557531671,0.0,0.36563725466531644,0.1,0.0029768943786621094,0.06699228286743164,0.049877103,0.38227344,330.0149230903325,-0.14244165833431402,3.5675583416656864,0.0,400,0.03483176231384277,0.0671860208624709,0.05636724003937241,67454,18.171545469834715,0.0
214,1.6184663772583008,371.1092601207745,11.967184655254808,385.28835763621106,352.9506790167929,0.0,0.372957203120344,0.1,0.003132343292236328,0.06005740165710449,0.050425,0.42565635,334.1243567933767,-0.14268368722007987,3.64731631277992,0.0,400,0.03403615951538086,0.06853501881630167,0.058395857976524836,67854,22.089610863050698,0.0
215,1.6429295539855957,371.04824027818984,18.412739982976618,389.2491399877666,340.7318137588095,0.0,0.3865211992715218,0.1,0.0029659271240234375,0.06201791763305664,0.0508462,0.33160275,337.81674514185806,-0.14332346142118688,3.636676538578813,0.0,400,0.03434562683105469,0.061831175873563134,0.054143721367303506,68254,21.8387981705244,0.0
216,1.6397969722747803,276.263205939277,87.64352262956355,344.9951883795499,126.51797743093421,0.0,0.35814779773805777,0.1,0.0029878616333007812,0.05909466743469238,0.049054246,0.65138793,331.66139122159996,-0.1511678478731131,2.6888321521268868,0.0,400,0.03350687026977539,0.34236860452272977,0.26447625631328997,68654,17.29565042903605,0.0
217,1.6544551849365234,337.03160491540757,65.94700932890352,389.59041617850096,228.08422287501875,0.0,0.3576555394066669,0.1,0.003078937530517578,0.058930158615112305,0.049281687,0.40223658,332.19841259098075,-0.1435141746051423,3.3064858253948572,0.0,400,0.0382387638092041,0.0757043789864499,0.08230162934132472,69054,21.621298308427416,0.0
218,1.6604690551757812,377.2987555468975,11.825396303908216,393.4089410847018,360.9700507213116,0.0,0.37201587183518336,0.1,0.002949237823486328,0.05976462364196777,0.050531503,0.31305814,336.7084468865724,-0.14083767192498042,3.6991623280750194,0.0,400,0.037952423095703125,0.10393955683972966,0.06780563195518706,69454,21.853500464643023,0.0
219,1.648960828781128,294.3453262468208,35.933543482919205,340.5977351289196,239.75422785883183,0.0,0.3529901140410628,0.1,0.0030825138092041016,0.0597074031829834,0.048677344,0.5419608,332.47213482259724,-0.15036172647836332,2.8696382735216357,0.0,400,0.03735661506652832,0.0615441439239024,0.06777712982368568,69854,21.200305067497432,0.0
220,1.6682956218719482,359.01607933806247,11.390296376804244,369.12075017775004,341.3192439444152,0.0,0.36406650982404315,0.1,0.002924203872680664,0.059851646423339844,0.049917966,0.48281556,335.12652927414376,-0.14362993243756494,3.5163700675624354,0.0,400,0.045566558837890625,0.0505632842803515,0.05082433857332022,70254,21.374512994354095,0.0
221,1.705272912979126,348.7866143528256,32.85170150791543,373.11408673005946,292.1813664244895,0.0,0.3766215860642211,0.1,0.0029425621032714844,0.0608677864074707,0.048653975,0.525399,336.49253778201194,-0.14597708766057058,3.414022912339429,0.0,400,0.038712501525878906,0.06918212610389537,0.059885337547697544,70654,21.4584335821414,0.0
222,1.6506571769714355,377.1702670334918,7.658532246754249,389.4000741198568,368.8231319754385,0.0,0.3970951130359134,0.1,0.002935647964477539,0.05787515640258789,0.04915741,0.29227257,340.56031070715994,-0.1421684322541345,3.697831567745867,0.0,400,0.03838706016540527,0.07455703195505796,0.06892687157495966,71054,17.074460845786586,0.0
223,1.6635992527008057,377.2528257002102,4.669327076027851,384.924008371272,373.46404302893046,0.0,0.3430834726631885,0.1,0.002964019775390625,0.05833745002746582,0.049605697,1.7618283,344.229562206465,-0.14132205634161013,3.69867794365839,0.0,400,0.04027819633483887,0.05701032244231265,0.05069534195759454,71454,17.549390543565636,0.0
224,1.6667346954345703,347.95628695172104,32.108549619412045,381.2752816249457,300.44182824424433,0.0,0.3843406490024989,0.1,0.002889394760131836,0.05820441246032715,0.048934054,0.42177707,344.60223468099065,-0.14428347979330158,3.4057165202066995,0.0,400,0.04241204261779785,0.05973668945637016,0.053863454478599464,71854,13.611252435977919,0.0
225,1.6489489078521729,367.182639244062,17.765976739239946,381.2937736819845,336.8664163292781,0.0,0.3539536847338428,0.1,0.0029931068420410156,0.0625312328338623,0.05048611,0.5205314,346.8602751372978,-0.14202612579577556,3.5979738742042233,0.0,400,0.03957009315490723,0.05591457145677805,0.05597459893752935,72254,17.932412224105466,0.0
226,1.6069788932800293,320.56494249117486,86.26411374154274,377.1853817869868,171.3531698719636,0.0,0.3270030561767415,0.1,0.003148794174194336,0.06094551086425781,0.05018022,0.5848734,344.2307418726855,-0.14815988089663565,3.131840119103364,0.0,400,0.04336380958557129,0.16621443498070335,0.14759779870428397,72654,18.084109970002885,0.0
227,1.6046936511993408,355.91038405836264,18.802885282936106,377.19871251548307,328.89041554400734,25.0,0.38109375128111306,0.1,0.0029764175415039062,0.06095457077026367,0.049867745,0.43328363,345.39870609125325,-0.1447127907200685,3.4952872092799327,25.0,400,0.04136037826538086,0.05399573684601913,0.05617996382362192,73054,17.932548881277253,0.0
228,1.6079843044281006,357.0734281444513,42.80163273138406,394.0574871334096,284.22350267972627,0.0,0.3727227320970599,0.1,0.002899169921875,0.0595545768737793,0.051874265,0.32078132,346.56617829657307,-0.14311523936670517,3.4968847606332956,0.0,400,0.04140424728393555,0.10462293793821423,0.06753886345488912,73454,17.646511505650576,0.0
229,1.6056923866271973,366.0934352142199,14.733978749013753,377.0584440520942,340.7136026969021,0.0,0.3527913151790462,0.1,0.0030014514923095703,0.05855846405029297,0.04924393,0.37856194,348.51890398833774,-0.1429204337179792,3.5870795662820205,0.0,400,0.04036426544189453,0.04887797976150584,0.05402237203843272,73854,21.98526782427027,0.0
230,1.6238608360290527,359.9843942757557,20.59415988046597,373.37337818248824,324.46224391960226,0.0,0.4029221462074452,0.1,0.0029211044311523438,0.06153392791748047,0.050370637,0.27040613,349.6654530170796,-0.1439927107567358,3.526007289243264,0.0,400,0.04023027420043945,0.08000808291053209,0.06270393378019576,74254,17.682536242450052,0.0
231,1.638655662536621,349.84731633153183,33.69414015331052,373.27376352450403,292.09656891135967,0.0,0.35049506840506844,0.1,0.0029473304748535156,0.061636924743652344,0.050607942,0.79172903,349.6836393485248,-0.14528496018134351,3.424715039818656,0.0,400,0.0410313606262207,0.040148536848327934,0.04040795131478119,74654,13.736011505955029,0.0
232,1.616753101348877,366.98218940320254,12.809403189525533,377.01356793099677,344.98171911492665,0.0,0.34783478580843474,0.1,0.003051280975341797,0.059378862380981445,0.050092764,0.3883215,351.41349435399263,-0.1439748721945044,3.5960251278054955,0.0,400,0.043245553970336914,0.054620764879897504,0.046361351265091756,75054,17.735558941524978,0.0
233,1.6774296760559082,366.2405519493189,17.05569431703972,377.512769189238,336.84550322178586,0.0,0.4150022402181448,0.1,0.002907276153564453,0.05912899971008301,0.049760427,0.31356874,352.89620011352525,-0.1414743636763064,3.588525636323695,0.0,400,0.04038047790527344,0.049115653281220306,0.046239148423865735,75454,21.894966948163106,0.0
234,1.6355557441711426,371.1922231861148,13.439358094472704,381.58627443816346,348.72601269747423,0.0,0.3897081435168947,0.1,0.0030612945556640625,0.0599062442779541,0.049098182,0.47534096,354.72580242078425,-0.14192832822625265,3.6380716717737474,0.0,400,0.040335893630981445,0.057272583165767624,0.04860229054675656,75854,17.553629266950843,0.0
235,1.655426025390625,341.9760720443825,27.5332225655941,369.1491636548274,296.66279293146806,0.0,0.38163936280594724,0.1,0.0030765533447265625,0.06451869010925293,0.048124846,0.314393,353.4508293831441,-0.14407857010142372,3.345921429898576,0.0,400,0.04325723648071289,0.0546143449097759,0.05570887885305165,76254,16.871116745876897,0.0
236,1.648216724395752,356.1001397163025,41.848697125772546,389.49462183858634,284.35443990380185,0.0,0.3600259865094576,0.1,0.003915071487426758,0.06252408027648926,0.050507966,0.68855375,353.71576041645994,-0.14280976958586525,3.497190230414135,0.0,400,0.04004263877868652,0.04983145477075469,0.0490066092065792,76654,17.155866384252935,0.0
237,1.6906707286834717,372.17498869465555,9.98271895201605,385.2366399086722,357.1399348608513,0.0,0.3761530203282866,0.1,0.003049135208129883,0.060179948806762695,0.048867036,0.43017334,355.5616832442795,-0.1420912164564198,3.6479087835435795,0.0,400,0.042838096618652344,0.044560488485316296,0.04294355650639587,77054,17.37376767546775,0.0
238,1.6643507480621338,373.1362781424235,2.986461291839268,377.2641377420808,368.86249158307106,0.0,0.3235007810084376,0.1,0.0030841827392578125,0.05971026420593262,0.050174702,1.0093107,357.31914273409393,-0.14251585242463816,3.657484147575361,0.0,400,0.04312729835510254,0.03678337309869663,0.03447595633244122,77454,21.620241704603846,0.0
239,1.6788330078125,280.33282119273287,66.03216634283656,365.07580675850033,187.50179348260204,0.0,0.41839077919906076,0.1,0.003011941909790039,0.05878877639770508,0.050035596,0.26185557,349.62051057995785,-0.1504861310789411,2.7295138689210594,0.0,400,0.04037880897521973,0.2929423251651201,0.2073291768149074,77854,21.357365590611504,0.0
240,1.6397314071655273,371.04779768420667,6.690016838289602,381.2695527677087,365.0157981613054,0.0,0.34392086144767825,0.1,0.002977609634399414,0.058226585388183594,0.050525848,0.53312325,351.7632392903827,-0.14339598232269862,3.6366040176773016,0.0,400,0.03983902931213379,0.04990639958834757,0.044616998585383295,78254,-25.478349104582154,0.0
241,1.6033718585968018,344.88291848340475,38.14283615644954,385.4818262008223,288.1602008781684,0.0,0.36427194510939137,0.1,0.002978086471557617,0.05892586708068848,0.049843073,0.35581353,351.0752072096849,-0.14502960250451263,3.374970397495487,0.0,400,0.04027128219604492,0.057779773184602624,0.0561619323857819,78654,-24.83864656173186,0.0
242,1.6166841983795166,368.9872649088859,17.98211346410422,393.2743477292135,344.9887177891557,0.0,0.32810359532306277,0.1,0.002962350845336914,0.058576345443725586,0.04898082,1.1229755,352.866412979605,-0.14394518733608874,3.6160548126639114,0.0,400,0.04735374450683594,0.04888683628822951,0.04807619143771917,79054,-35.98362668508598,0.0
243,1.6143512725830078,344.1337761824944,52.97029232886579,377.6268409513678,252.43989589079834,0.0,0.3400423244577229,0.1,0.002993345260620117,0.06005573272705078,0.049801532,0.3302661,351.99314929989396,-0.14244983191186286,3.3775501680881375,0.0,400,0.042818546295166016,0.09334581049257713,0.06854571437744207,79454,17.586387012502424,0.0
244,1.6109521389007568,366.9635068826134,4.533107650819666,373.10086324693157,361.08761103133395,0.0,0.3649444058294235,0.1,0.002961397171020508,0.06016731262207031,0.04951339,0.47293705,353.49018505816593,-0.1442642456128656,3.5957357543871344,0.0,400,0.03992629051208496,0.05748678081964576,0.03990565474174944,79854,18.263089772523635,0.0
245,1.6065773963928223,374.1857078803116,14.723856986655807,397.6114696497255,357.1326914161342,25.0,0.3963268934766153,0.1,0.0029718875885009766,0.05845761299133301,0.050091755,0.46474153,355.55973734038054,-0.14197464789717532,3.668025352102824,25.0,400,0.040212154388427734,0.060154069534304036,0.0583885188783957,80254,14.61759491491705,0.0
246,1.6230480670928955,374.94867697568577,6.110901330561068,380.98289630346454,364.7413725261062,0.0,0.42168626543109017,0.1,0.003064393997192383,0.06070280075073242,0.04892062,0.28764877,357.49863130391105,-0.1443628807134103,3.6756371192865895,0.0,400,0.04039406776428223,0.06319087535936183,0.04553848849056742,80654,10.274714028609708,0.0
247,1.6380889415740967,367.9709324262473,5.425314546534738,373.28889148074063,360.7382993072561,0.0,0.35478191495956996,0.1,0.0028705596923828125,0.058328866958618164,0.050955046,0.4986332,358.5458614161447,-0.14414493728486405,3.605855062715136,0.0,400,0.042922019958496094,0.029501934804431636,0.030683360706991313,81054,10.23902777888654,0.0
248,1.6317470073699951,362.9493005032715,25.61195746661305,389.24071733363496,320.56358593312234,0.0,0.3627741058403838,0.1,0.0030176639556884766,0.0579831600189209,0.050982013,0.40873232,358.9862053248574,-0.1443640868940771,3.5556359131059225,0.0,400,0.04006004333496094,0.05045070254440854,0.04601174707487486,81454,10.264080710808765,0.0
249,1.650820016860962,331.553529748,69.68794621356393,381.1325957055886,211.50025993422528,0.0,0.39644718927374806,0.1,0.002865314483642578,0.05844402313232422,0.04930632,0.26481402,356.24293776717167,-0.14827442730210944,3.2417255726978897,0.0,400,0.04199409484863281,0.09500816425703554,0.09300603101568107,81854,6.0963388211159275,0.0
250,1.6935718059539795,364.8125766820451,9.518219692785602,381.0672068164431,356.8022552179628,0.0,0.38281326780848063,0.1,0.0027971267700195312,0.058396100997924805,0.049772862,0.33888328,357.09990165865906,-0.1457116431976397,3.5742883568023602,0.0,400,0.03992319107055664,0.03524642763805742,0.03360073706925178,82254,-47.770537401507916,0.0
251,1.6605112552642822,354.0041501796747,33.359838106305006,377.3569828118936,296.44545449115975,0.0,0.3703444433313711,0.1,0.00287628173828125,0.05840706825256348,0.049586073,0.34609163,356.7903265107606,-0.14385879324088025,3.466141206759121,0.0,400,0.04133486747741699,0.04297595529291826,0.03719262684438665,82654,-35.850002338926835,0.0
252,1.7536067962646484,356.7834989863404,21.98357722273682,380.8198182287905,324.7847221935015,0.0,0.37219988905216106,0.1,0.0029964447021484375,0.06141543388366699,0.04961485,0.33937725,356.7896437583186,-0.14604518549949283,3.4939548145005075,0.0,400,0.040228843688964844,0.04160191233724878,0.035655343073639,83054,-36.339517622066936,0.0
253,1.6570909023284912,343.53290120697443,13.398077521387682,364.52603881862944,328.3268634915572,0.0,0.4007309875616728,0.1,0.0027811527252197266,0.058408260345458984,0.049152914,0.3112687,355.4639695031842,-0.14847877437276522,3.371521225627235,0.0,400,0.04208111763000488,0.045843413700625106,0.04603075862496014,83454,-45.294730211279976,0.0
254,1.6612944602966309,345.8184034284489,32.48865908638925,384.98554302872697,304.73949710023504,0.0,0.37060258828605164,0.1,0.003106832504272461,0.059293508529663086,0.04931418,0.40034077,354.4994128957107,-0.1456264219956903,3.38437357800431,0.0,400,0.04143953323364258,0.06399211206615339,0.06076282477329066,83854,-44.75979997966922,0.0
255,1.6695137023925781,331.49550402399404,53.631195215394015,372.86921285234763,239.83340676407337,0.0,0.38780828438592485,0.1,0.0028257369995117188,0.058422088623046875,0.047949106,0.39949867,352.19902200853903,-0.1488759172477659,3.241124082752234,0.0,400,0.041396379470825195,0.036189303152483324,0.03504804746872341,84254,-61.03212800322583,0.0
256,1.7054443359375,318.39672451070186,31.637931802250602,360.93457998879563,272.00084051892566,0.0,0.3800188669831989,0.1,0.0029115676879882812,0.06002521514892578,0.050076712,0.31188428,348.81879225875537,-0.14992430370072404,3.110075696299276,0.0,400,0.041139841079711914,0.09602263760448103,0.0877873861147762,84654,-62.005957182639584,0.0
257,1.6927735805511475,350.8285114046464,19.413463935420285,373.1891141139616,324.4180788563592,0.0,0.37723043901415826,0.1,0.0029637813568115234,0.06001019477844238,0.049443897,0.35410336,349.01976417334447,-0.14555618881802385,3.434443811181977,0.0,400,0.045220136642456055,0.040230348119800724,0.040931927885710734,85054,-52.00708886109234,0.0
258,1.6840636730194092,357.7873996643259,9.774961510124065,369.11200390196916,344.2434874161863,0.0,0.3539188929862482,0.1,0.0030820369720458984,0.059966325759887695,0.05031356,0.6357954,349.8965277224426,-0.14594259501830614,3.5140574049816946,0.0,400,0.043854713439941406,0.043180377811834494,0.03761046708503681,85454,-5.899464821562543,0.0
259,1.679800271987915,352.77565154952526,30.456759501389627,376.95211404961657,300.5833700122179,0.0,0.39525509859820046,0.1,0.003092527389526367,0.060693979263305664,0.05021601,0.26202786,350.1844401051509,-0.14605646286025925,3.45394353713974,0.0,400,0.040557146072387695,0.04213088587169706,0.04178041440345696,85854,2.1952947055282976,0.0
260,1.690866231918335,331.73789832382215,34.71587409656875,389.0219079093796,300.2573172635321,0.0,0.37242829368124963,0.1,0.002948760986328125,0.062354326248168945,0.04886598,0.31700018,348.33978592701806,-0.14646013849693326,3.243539861503067,0.0,400,0.040926456451416016,0.06278780821901042,0.058915105528260035,86254,10.491608161994844,0.0
261,1.6614258289337158,371.16691780540117,8.477564354327702,377.4171224171009,356.7783750291698,0.0,0.38614746825069785,0.1,0.0029296875,0.05804753303527832,0.050118785,0.34499535,350.6224991148564,-0.14222050499100916,3.637779495008991,0.0,400,0.045298099517822266,0.04201504617643602,0.03394396442623831,86654,-1.1253475706022564,0.0
262,1.7027013301849365,350.6548910183682,36.123362820162164,376.89371384724666,288.5767320033237,0.0,0.3890092920383691,0.1,0.0029489994049072266,0.06385517120361328,0.049036805,0.41326264,350.62573830520756,-0.14726999333330695,3.4327300066666933,0.0,400,0.040335655212402344,0.05984776926498439,0.05858874886529799,87054,-1.5541847816848644,0.0
263,1.7176580429077148,293.278011692127,42.60168222902454,344.3948292800949,240.19358423820296,0.0,0.36275124281128923,0.1,0.002924203872680664,0.05892181396484375,0.050036002,0.4038021,344.8909656438995,-0.15106109455715605,2.858938905442844,0.0,400,0.0408475399017334,0.15159748180064392,0.08766047290824053,87454,1.3294736970793584,0.0
264,1.68043851852417,371.65695195006714,5.968540528298919,380.689286207507,364.4341150230914,0.0,0.39106488001282924,0.1,0.002920389175415039,0.05838942527770996,0.04919847,0.33490598,347.56756427451626,-0.14727348094483717,3.642726519055163,0.0,400,0.04209136962890625,0.05967264128753072,0.04733585519779487,87854,-1.9761633902987903,0.0
265,1.6360361576080322,293.0074146572364,44.42737787953843,364.7057357448944,243.69226525898515,0.0,0.3820252985765373,0.1,0.003225564956665039,0.0650947093963623,0.04750187,0.2965308,342.1115493127883,-0.15376571467850653,2.856234285321494,0.0,400,0.04040074348449707,0.07451048509418376,0.07267950177040124,88254,-9.08153051325583,0.0
266,1.6409881114959717,327.4668039140017,22.38359463791428,364.78208499672513,308.3394470093764,0.0,0.402286338048098,0.1,0.0030107498168945312,0.058888912200927734,0.049259257,0.35049307,340.64707477290966,-0.1491372024376878,3.2008627975623125,0.0,400,0.04105639457702637,0.04775218266752715,0.046983666425604906,88654,3.1658623382343847,0.0
267,1.6527552604675293,318.3128264018858,74.3312708947026,377.0879206854109,191.13459478472606,0.0,0.36550435000284365,0.1,0.0029363632202148438,0.05925393104553223,0.04965677,0.28890467,338.4136499358073,-0.15069377679704482,3.109306223202955,0.0,400,0.04069828987121582,0.07751729035639982,0.07692250511308009,89054,-17.536961930014833,0.0
268,1.6729211807250977,320.34519509574983,52.477508254126775,372.9697063897646,239.89056658817063,0.0,0.36348787347061456,0.1,0.0029785633087158203,0.06068158149719238,0.05084475,0.3783974,336.60680445180157,-0.1503607542114407,3.1296392457885585,0.0,400,0.04555535316467285,0.05291175956403772,0.04555891020622044,89454,-14.476733679637668,0.0
269,1.6575369834899902,332.4741909826488,67.47088332777757,376.94769710738547,215.7607453040909,0.0,0.39046436154806674,0.1,0.002903461456298828,0.06111788749694824,0.050259233,0.36918,336.19354310488626,-0.14910767630713714,3.250892323692863,0.0,400,0.04466509819030762,0.10098407302262112,0.09883916082896949,89854,1.9544159799167848,0.0
270,1.700775146484375,343.48673288884726,41.807940704180346,372.75013780526973,271.9807982097159,0.0,0.3879158893696669,0.1,0.003074169158935547,0.06270360946655273,0.050276145,0.41286454,336.9228620832823,-0.1489426849382741,3.361057315061726,0.0,400,0.04709601402282715,0.05831530307869223,0.05641562732347283,90254,2.2448639982439937,0.0
271,1.637946367263794,282.2206972337973,61.80317323436384,372.8604774728037,199.59171732728305,0.0,0.42744113134213035,0.1,0.0030303001403808594,0.05974769592285156,0.049052797,0.25558278,331.45264559833385,-0.15156470595499363,2.748435294045006,0.0,400,0.04089999198913574,0.3548469863534076,0.11064683909078359,90654,6.003911473195909,0.0
272,1.7171261310577393,356.83176144167425,23.39956612168487,372.76181923031504,316.3858567387802,0.0,0.4038830678359254,0.1,0.003134012222290039,0.0578761100769043,0.050274707,0.29273942,333.9905571826679,-0.14552201639959994,3.494477983600399,0.0,400,0.0407710075378418,0.11073206374363366,0.0665597922943817,91054,1.796826301307149,0.0
273,1.702742338180542,325.40210652584324,70.88539499734448,372.9988162387122,203.50838319791785,0.0,0.4115872901733038,0.1,0.0029058456420898438,0.058002471923828125,0.05191438,0.22771293,333.13171211698545,-0.14978012738832575,3.1802198726116746,0.0,400,0.040721893310546875,0.09414644728546208,0.08136647384098883,91454,-38.31885239334679,0.0
274,1.6589381694793701,351.64593011405964,20.410714573823547,365.0826701858187,316.4342419305894,0.0,0.3880445137264146,0.1,0.002996206283569336,0.05969691276550293,0.04828783,0.25662193,334.98313391669285,-0.14735031584276018,3.4426496841572396,0.0,400,0.0410923957824707,0.05109110108516513,0.04897388631970865,91854,-2.211889302757423,0.0
275,1.7314202785491943,299.0420604970722,58.74992278952853,372.61208762278767,235.48936330346655,0.0,0.3471558947669166,0.1,0.0046176910400390625,0.06227421760559082,0.050577622,0.36074868,331.3890265747308,-0.15335700198039687,2.916642998019603,0.0,400,0.04095268249511719,0.10811452602763223,0.08732595392266264,92254,6.200268679907645,0.0
276,1.7511327266693115,345.7047348805261,19.452033690431087,373.050877765138,320.4206359986489,0.0,0.3904512688597393,0.1,0.0030591487884521484,0.05994892120361328,0.04877469,0.29311767,332.8205974053103,-0.14678538967386812,3.3832146103261316,0.0,400,0.04141807556152344,0.05338907713704351,0.0452905132876545,92654,14.493838143782474,0.0
277,1.681898832321167,315.41680109063407,55.053071726034105,377.06092580264936,244.16783278272968,0.0,0.381885983198201,0.1,0.0030694007873535156,0.0632028579711914,0.050169542,0.2710804,331.0802177738427,-0.14967338957766446,3.0803266104223352,0.0,400,0.0414738655090332,0.056577138957658576,0.058569645779007834,93054,2.836727742582734,0.0
278,1.686913013458252,334.52100898942075,41.668677386100846,372.9655354540478,264.15658651918324,0.0,0.3771134668326765,0.1,0.0029897689819335938,0.05838203430175781,0.049350277,0.26585212,331.4242968954006,-0.14858372121705773,3.2814162787829426,0.0,400,0.04133462905883789,0.05838927661236967,0.053309914060315655,93454,3.0658734440275146,0.0
279,1.7256784439086914,304.30296223627806,62.206498394524026,368.8591104906136,223.49698995762486,0.0,0.4230409577999989,0.1,0.0028133392333984375,0.05830788612365723,0.050036278,0.43801153,328.7121634294883,-0.15081967602712984,2.9691803239728696,0.0,400,0.04137873649597168,0.10030694801882997,0.09460108808495928,93854,7.275140504580663,0.0
280,1.703129529953003,332.4690480974334,45.126194806813004,372.83288014933254,256.26220055657205,0.0,0.37790902020046957,0.1,0.003144979476928711,0.05888032913208008,0.050044995,0.27597192,329.08785189628287,-0.149067883841283,3.2609321161587177,0.0,400,0.04320502281188965,0.06151077850135538,0.06103706891183679,94254,2.5410105319831273,0.0
281,1.6738355159759521,345.4595335864942,24.412825384715667,372.75578265788903,308.29469637765146,0.0,0.3819010051189686,0.1,0.0028650760650634766,0.06133294105529785,0.049711157,0.31467536,330.72502006530397,-0.1492162994149154,3.380783700585085,0.0,400,0.04390072822570801,0.07613978071014905,0.05836600185846136,94654,2.1356263385986267,0.0
282,1.6416308879852295,318.43487918048174,71.82913861439596,376.99307764779974,195.64854673187554,0.0,0.3636603920186617,0.1,0.003021717071533203,0.05857205390930176,0.04859804,0.34276482,329.4960059768218,-0.14944590047343453,3.1105540995265657,0.0,400,0.046993255615234375,0.06346779649221006,0.06025357512218589,95054,-1.9080057977604268,0.0
283,1.6520905494689941,332.43073069735493,58.6214052624038,373.1818025565822,231.44481338792363,0.0,0.3847935153758812,0.1,0.0029191970825195312,0.058533430099487305,0.050518475,0.30903718,329.7894784488751,-0.1495070092712565,3.2504929907287434,0.0,400,0.04212164878845215,0.05349994126016095,0.053864871184226955,95454,6.433468865535076,0.0
284,1.667297124862671,356.44058243713357,12.366254703585144,368.52944992452035,336.34584727113463,0.0,0.3904455390053401,0.1,0.002960681915283203,0.06183648109436035,0.048983946,0.29467142,332.45458884770096,-0.14942856178202368,3.4905714382179767,0.0,400,0.041106224060058594,0.049071914544529874,0.04149342660346616,95854,-1.4420783714391672,0.0
285,1.6707518100738525,335.2632961613482,10.173446521900255,352.6413810770528,327.93816051172695,0.0,0.3792786399044036,0.1,0.0030059814453125,0.06235218048095703,0.047626942,0.35135457,332.7354595790657,-0.15120224800060064,3.2787977519993996,0.0,400,0.046154022216796875,0.05636870289906634,0.0323076998209798,96254,-55.14980634417333,0.0
286,1.6930582523345947,328.3726825726943,30.834285326498378,369.0310387960485,287.89189034774006,0.0,0.40161983685893876,0.1,0.003022432327270508,0.059676170349121094,0.051268335,0.27153665,332.2991818784286,-0.15008402578543598,3.2099159742145646,0.0,400,0.04328322410583496,0.05688004956283885,0.0614281530155715,96654,-56.77538206553515,0.0
287,1.6450996398925781,291.1479935114274,136.82840136192516,372.77359164719513,54.17074810245137,0.0,0.4058401603762022,0.1,0.0030012130737304688,0.05986428260803223,0.048965655,0.26353377,328.1840630417285,-0.15224149610220358,2.8477585038977957,0.0,400,0.04436612129211426,0.32626314372626364,0.3177416743541666,97054,-49.59751125695674,0.0
288,1.6396229267120361,312.12747866363543,88.94431803027004,372.69391164980357,158.8927893914733,0.0,0.3632864331355787,0.1,0.0029244422912597656,0.06035447120666504,0.050292835,0.2595338,326.5784046039192,-0.1525324447139541,3.0474675552860457,0.0,400,0.044466495513916016,0.10364024643809581,0.09044054611522631,97454,-41.10373349736643,0.0
289,1.660729169845581,360.5782743366432,10.406222371923601,372.8912573915568,348.5039226003613,0.0,0.39896988575707765,0.1,0.0029375553131103516,0.05837130546569824,0.049617853,0.6070203,329.9783915771916,-0.148058195298816,3.5319418047011846,0.0,400,0.05063772201538086,0.04959322155188486,0.044924853751372236,97854,-51.544673120991014,0.0
290,1.6734318733215332,362.54147116646556,10.832878077530621,372.6973852588958,344.45333864315506,0.0,0.3597022102271355,0.1,0.0029621124267578125,0.05850958824157715,0.04912347,1.490638,333.23469953611897,-0.14833799992150734,3.5516620000784918,0.0,400,0.043007612228393555,0.036643077463953205,0.034611996362002996,98254,-34.777351604500794,0.0
291,1.725510835647583,309.4349723151238,61.462658820392384,352.9529413912783,203.79414295701358,0.0,0.39692568680442447,0.1,0.0028824806213378906,0.058528900146484375,0.05078653,0.25351506,330.85472681401944,-0.14949112162341532,3.0205088783765843,0.0,400,0.044497013092041016,0.08943788328893684,0.07159604132905908,98654,-38.43248870472588,0.0
292,1.6788926124572754,364.83208815529287,14.373846303792313,376.8521964782588,340.42091748849793,0.0,0.38006701056192416,0.1,0.002887248992919922,0.06016349792480469,0.047944907,0.47261208,334.2524629481468,-0.14549962471277036,3.57450037528723,0.0,400,0.04004263877868652,0.05093215477046573,0.04982929170130793,99054,-33.86186603058702,0.0
293,1.6327815055847168,276.04087234348145,85.07046418552714,372.96486780373726,187.65537064627438,0.0,0.3925567647304527,0.1,0.0028905868530273438,0.06022787094116211,0.04971515,0.28510916,328.43130388768026,-0.15341488160663785,2.686585118393363,0.0,400,0.041778564453125,0.14680486304612167,0.11512789023280588,99454,-35.57871142278875,0.0
294,1.6420173645019531,366.53940877463185,2.0931185863420425,368.6558898962961,364.41077979835893,0.0,0.3856655323524962,0.1,0.0028727054595947266,0.05840349197387695,0.047030352,0.2658393,332.2421143763754,-0.14838867206077605,3.591611327939224,0.0,400,0.04171943664550781,0.10339289340805963,0.047398632512406294,99854,-36.210272388531,0.0
295,1.6279363632202148,293.32237763058407,63.7755475162489,364.87809260876446,203.63526527241294,0.0,0.3627292943871327,0.1,0.0029709339141845703,0.0584263801574707,0.04937868,0.88048303,328.3501407017963,-0.15062168031631554,2.859378319683684,0.0,400,0.040784358978271484,0.08990672457142437,0.08269269688057268,100254,-62.752594122889626,0.0
296,1.621748685836792,332.3659825438709,36.59631818774562,368.5249090404131,275.95783022682593,0.0,0.36887357664378784,0.1,0.0028710365295410156,0.05876946449279785,0.04921288,0.85369027,328.7517248860038,-0.15014623714890796,3.249853762851093,0.0,400,0.0426177978515625,0.055474031214437655,0.05116412646691496,100654,-65.75287819057006,0.0
297,1.6266446113586426,323.2944191154748,29.278424442978345,368.9260153140796,287.38053552538486,0.0,0.38838206835235883,0.1,0.002932310104370117,0.05996394157409668,0.05024053,0.29003108,328.2059943089509,-0.1508647674910064,3.1691352325089936,0.0,400,0.042258262634277344,0.04749355591320519,0.04578447400318547,101054,-19.224203243884258,0.0
298,1.6529603004455566,323.6406792391526,51.92753632571832,373.12558366699045,251.89702784733555,0.0,0.3712125758365538,0.1,0.0031211376190185547,0.060471534729003906,0.048708275,0.25665167,327.74946280197105,-0.14736881639913263,3.162631183600867,0.0,400,0.04222536087036133,0.07177909122832553,0.06890788430113594,101454,-3.1418289672071142,0.0
299,1.6734566688537598,356.4692408544783,15.735658907574221,372.4837668010512,332.55112767261863,0.0,0.4088513630689898,0.1,0.0030002593994140625,0.06437349319458008,0.048828214,0.28933668,330.6214406072218,-0.1490656175865745,3.5009343824134254,0.0,400,0.044954776763916016,0.03300365536471543,0.03090570691416441,101854,4.941219661607229,0.0
300,1.6781468391418457,349.7860038049695,28.89359246828708,376.9055306830285,304.52110357311733,0.0,0.3716700132253603,0.1,0.003027677536010742,0.0606999397277832,0.049163762,0.3830715,332.5378969269966,-0.14594001493053713,3.4340599850694624,0.0,400,0.045111894607543945,0.08103349449610099,0.07139780584590184,102254,1.235139421121412,0.0
301,1.6530632972717285,325.4084148904172,68.38876847650906,373.0193808769219,207.38469785912966,0.0,0.37088813765949635,0.1,0.002962827682495117,0.05853128433227539,0.050302368,0.3094307,331.8249487233387,-0.14975051181442728,3.1802494881855727,0.0,400,0.04181933403015137,0.07755406988611867,0.07745249263463909,102654,1.5663467019226338,0.0
302,1.6333224773406982,365.7047044474632,10.184690937943978,372.9623391239252,348.3253803831647,0.0,0.371730972504098,0.1,0.002953767776489258,0.05857419967651367,0.049117707,0.3121997,335.2129242957512,-0.14676752296270473,3.5832324770372947,0.0,400,0.04194784164428711,0.05024439571066412,0.032992656269586265,103054,-2.6396347364789596,0.0
303,1.6347169876098633,363.8155728789684,4.273711907203695,368.90904938447034,357.05844574863954,0.0,0.39673965194563376,0.1,0.0029685497283935547,0.05855274200439453,0.04938201,0.25675908,338.0731891540729,-0.14567125859929683,3.5643287414007028,0.0,400,0.04154539108276367,0.07243791233395894,0.0538494125416502,103454,-19.11789384683726,0.0
304,1.6796984672546387,359.73461041913424,11.787012557449845,369.03571281355045,340.18153217909304,0.0,0.3607769609430673,0.1,0.002992868423461914,0.05997037887573242,0.048604727,0.7108678,340.23933128057905,-0.14648443079778578,3.5235155692022135,0.0,400,0.04216122627258301,0.02512544589606762,0.026793991599470535,103854,-11.056270271578223,0.0
305,1.6414198875427246,345.77831059010117,26.608478661832883,369.1270946310783,304.2350104043713,0.0,0.430439956827797,0.1,0.0030965805053710938,0.060173988342285156,0.050767623,0.30704278,340.7932292115313,-0.1460643521876886,3.3839356478123115,0.0,400,0.04324483871459961,0.04873348081170752,0.047381781978311895,104254,-19.32923972583213,0.0
306,1.6683475971221924,358.79630759051554,10.979680070974762,373.3072323222082,344.48098300192436,0.0,0.4145558732349342,0.1,0.0031130313873291016,0.06031942367553711,0.04965911,0.3029406,342.59353704942976,-0.14579566383442194,3.524204336165579,0.0,400,0.04463028907775879,0.03252429500994583,0.032021709144188656,104654,-19.39812460956184,0.0
307,1.7219984531402588,351.47984385640837,19.45735759378939,372.69046560791656,328.38920702996336,0.0,0.3483657509662668,0.1,0.003009796142578125,0.06029820442199707,0.048888374,0.29826167,343.4821677301276,-0.1490317971137344,3.440968202886266,0.0,400,0.04287552833557129,0.05144526731818187,0.025243812781866624,105054,-19.432146847445658,0.0
308,1.6798467636108398,336.8845043765343,34.64138935747606,370.29665875688033,287.9629681937712,0.0,0.3679731031407464,0.1,0.003129243850708008,0.06011533737182617,0.05131247,0.4904769,342.8224013947683,-0.14501124086259404,3.2949887591374054,0.0,400,0.04303574562072754,0.06887419671539954,0.047849067513692424,105454,-64.609981888986,0.0
309,1.689314365386963,355.66411876427685,17.461800853638326,372.84214024513557,328.3907196803311,0.0,0.38753243013715977,0.1,0.003113985061645508,0.06167173385620117,0.049156345,0.31426913,344.1065731317192,-0.14716044084766894,3.482839559152331,0.0,400,0.042081356048583984,0.029904648746482757,0.030569585128387287,105854,-65.32317824402001,0.0
310,1.7309105396270752,356.58131951250465,13.437115779073531,368.80404177833543,336.4568878030873,0.0,0.37429561068687955,0.1,0.0029489994049072266,0.05820918083190918,0.049708385,0.45292327,345.3540477697978,-0.14797577608275125,3.502024223917249,0.0,400,0.0440678596496582,0.03663418604285226,0.034838637822302204,106254,-64.39212484791709,0.0
311,1.674957513809204,355.80468277270813,27.47805907849693,372.8868289791025,308.2781007023664,0.0,0.3849687139855201,0.1,0.0029938220977783203,0.06034445762634277,0.04953783,0.27443725,346.39911127008884,-0.14573457959458105,3.4842654204054195,0.0,400,0.04267168045043945,0.03865769461234446,0.03740362841007162,106654,-62.699607671486966,0.0
312,1.7302794456481934,354.8280684010411,13.501243703717442,369.28068434911876,332.8346572525702,0.0,0.4055423679276437,0.1,0.0028743743896484375,0.058731794357299805,0.049332887,0.2495898,347.24200698318407,-0.14555298118670662,3.4744470188132928,0.0,400,0.04152798652648926,0.03942212715703452,0.03366005053787146,107054,-67.75201018619295,0.0
313,1.7257699966430664,328.5687391150196,28.712540697553756,361.1205134090286,284.3391493122268,0.0,0.39273040334820747,0.1,0.0031304359436035156,0.06287193298339844,0.049504206,0.291124,345.37468019636765,-0.1480603097330858,3.2219396902669137,0.0,400,0.04534459114074707,0.1312921016346436,0.08446073855789603,107454,-66.7470022141882,0.0
314,1.701183795928955,351.3495499202031,15.56121089355913,369.57488650510965,329.2824010199977,0.0,0.4145960720364493,0.1,0.0031921863555908203,0.060242652893066406,0.04765778,0.23241808,345.9721671687512,-0.1402960528345534,3.449703947165448,0.0,400,0.04478120803833008,0.054516605003418823,0.05101383289204354,107854,-18.607065606366714,0.0
315,1.6916522979736328,345.82582804842764,27.760164297384303,372.7565084241204,304.4893100895457,0.0,0.3789659211250783,0.1,0.0030007362365722656,0.058066368103027344,0.049361173,0.30736578,345.9575332567189,-0.14559979223071398,3.384400207769286,0.0,400,0.04242849349975586,0.054754516994144964,0.04092547983193012,108254,-67.16359226567488,0.0
316,1.6848347187042236,312.55496004651707,37.99250719751878,361.34690877756174,260.12554698452084,0.0,0.4337666816255169,0.1,0.0028972625732421875,0.058271169662475586,0.051973604,0.2886336,342.61727593569873,-0.1482471402783223,3.061752859721678,0.0,400,0.041457414627075195,0.0912067886559733,0.07503157527956847,108654,-17.905698535413425,0.0
317,1.7274689674377441,359.12103103805896,9.374244495566781,369.37471702611595,344.86121325893623,0.0,0.384638820579736,0.1,0.0030198097229003906,0.05896902084350586,0.049020484,0.4390518,344.2676514459348,-0.14259826219679694,3.5174017378032034,0.0,400,0.04423213005065918,0.04068591003958943,0.03893113010529733,109054,-18.007442164147953,0.0
318,1.7277805805206299,357.16742754271115,14.90496021695547,369.68339701462565,332.8341725433599,0.0,0.3886676160602152,0.1,0.0029633045196533203,0.058390140533447266,0.051815744,0.390511,345.5576290556125,-0.14210643243371132,3.5078935675662897,0.0,400,0.041708946228027344,0.02853314880770117,0.027374141547160495,109454,-18.609804336931745,0.0
319,1.6810853481292725,274.06092068024674,26.41814424498147,312.35058419992123,243.91408235312437,0.0,0.40086311428204086,0.1,0.003064393997192383,0.05835843086242676,0.048030972,0.43014073,338.4079582180759,-0.1530689048438106,2.7069310951561896,0.0,400,0.04223299026489258,0.1449201051808929,0.0973163463315005,109854,-18.416945121126833,0.0
320,1.678840160369873,334.06150467636496,52.24137612122364,369.60872077816964,243.92155672129763,0.0,0.3919209722186588,0.1,0.0029168128967285156,0.06026411056518555,0.049623664,0.23969819,337.9733128639048,-0.14321012776610387,3.276789872233896,0.0,400,0.042856693267822266,0.08085137011741299,0.07093620911594735,110254,-18.77370130649538,0.0
321,1.730713129043579,356.9233380905089,8.72158196673582,365.14380356441876,344.43332283655053,0.0,0.3765658596055984,0.1,0.0029404163360595703,0.05838155746459961,0.04790383,0.27367932,339.8683153865652,-0.1446355850039278,3.495364414996072,0.0,400,0.046189069747924805,0.05039199822033352,0.04116193589892597,110654,-19.003992070378697,0.0
322,1.6287212371826172,326.7313244824144,54.68316991542905,369.38223720394933,235.6644726132285,0.0,0.3679801120871806,0.1,0.0031375885009765625,0.06153750419616699,0.052579813,0.71472275,338.55461629615013,-0.14652252335918864,3.193477476640812,0.0,400,0.04628872871398926,0.05248365387044346,0.04918196879639995,111054,-18.46269598516452,0.0
323,1.6588096618652344,357.0951326972187,9.222559428819306,364.94296709927806,341.3634383288369,0.0,0.40463841502370473,0.1,0.003002643585205078,0.05924677848815918,0.047339287,0.5049493,340.408667936257,-0.14290955580280365,3.497090444197196,0.0,400,0.044770240783691406,0.02787623082691303,0.02598217902244611,111454,-18.55072761854331,0.0
324,1.7368028163909912,292.38771598083497,123.58583191454062,369.2218244282544,78.46958979718238,0.0,0.3939414091481407,0.1,0.00295257568359375,0.05844712257385254,0.049784552,0.32409233,335.6065727407148,-0.14990447104240354,2.8600955289575962,0.0,400,0.04637479782104492,0.24631458773408746,0.2109026383831517,111854,-18.111578992621475,0.0
325,1.66981840133667,276.5316822646575,153.8593206868441,369.508041924218,10.084869303755282,0.0,0.41286303497160454,0.1,0.0031108856201171875,0.0581667423248291,0.048255432,0.22028916,329.6990836931091,-0.1484766510638363,2.701523348936164,0.0,400,0.042472124099731445,0.2670174311031192,0.24152147322942016,112254,-18.185004834978738,0.0
326,1.6916770935058594,349.78870155433793,10.654674387498833,360.95864084231357,332.2176559825621,0.0,0.4100888096153028,0.1,0.0029451847076416016,0.05828285217285156,0.047218762,0.24318157,331.708045479232,-0.14592144454608932,3.4240785554539106,0.0,400,0.04210829734802246,0.05727844096692227,0.035786651395879956,112654,-18.363743338150122,0.0
327,1.6657087802886963,344.8890435566694,29.091387576456974,369.22506672899385,296.2141334776071,0.0,0.3959790221805228,0.1,0.002860546112060547,0.06000876426696777,0.049425222,0.27706528,333.02614528697575,-0.14492087515293528,3.3750791248470655,0.0,400,0.04274153709411621,0.06471422235557862,0.038299707390660805,113054,-18.68016640348713,0.0
328,1.7061750888824463,368.2726333037433,6.609874412800901,373.4687645693197,357.20267298656194,0.0,0.3606579241893749,0.1,0.0029058456420898438,0.05990743637084961,0.050355628,0.7326608,336.5507940886525,-0.14112446025375874,3.60887553974624,0.0,400,0.04283547401428223,0.045893305693247795,0.039484439698996274,113454,-18.485414890639337,0.0
329,1.6876187324523926,367.064694940977,6.194031974745491,373.22914957667837,356.73327415923364,0.0,0.37685694124785457,0.1,0.0029380321502685547,0.06209278106689453,0.04944716,0.36276966,339.60218417388495,-0.1431869916856728,3.596813008314327,0.0,400,0.04264521598815918,0.039245227127771135,0.038718911319747064,113854,-18.560869978881847,0.0
330,1.702543020248413,360.06867377834783,11.246654301293807,369.3253502601056,340.8242299609423,0.0,0.41369046108792246,0.1,0.002967357635498047,0.059868812561035156,0.04888795,0.2844297,341.64883313433126,-0.14317244415666724,3.526827555843332,0.0,400,0.0430150032043457,0.05077026639597208,0.03372759486989651,114254,-18.852859227140332,0.0
331,1.6693756580352783,367.9934956885288,7.361664545918195,377.1985293326811,356.6065435323274,0.0,0.4272203118696556,0.1,0.0028998851776123047,0.05948185920715332,0.04942143,0.2542193,344.28329938975105,-0.1439123897154569,3.606087610284544,0.0,400,0.042597055435180664,0.06042899134050503,0.04984955358418272,114654,-18.55290922931931,0.0
332,1.7039401531219482,296.64183029808777,79.28071210206276,373.34498989043,179.35750188199503,0.0,0.44304735574209003,0.1,0.0029234886169433594,0.05844593048095703,0.050326124,0.26666385,339.51915248058475,-0.14736948938442174,2.9026305106155776,0.0,400,0.042980194091796875,0.21499532083544703,0.16200819557249485,115054,-18.925313463674573,0.0
333,1.715226173400879,369.05987139346706,4.154631982846166,373.40348765050817,364.8928970882517,0.0,0.39290656829991794,0.1,0.002994537353515625,0.05822348594665527,0.049083494,0.28898382,342.473224371873,-0.14325060757528077,3.6167493924247203,0.0,400,0.04413127899169922,0.05409841046017934,0.030608177836274425,115454,-18.790784678116516,0.0
334,1.6718182563781738,368.3654477815436,3.364476884610095,373.2010140439101,365.19520712047375,0.0,0.4051442349257226,0.1,0.0029664039611816406,0.05867767333984375,0.051548377,0.35282853,345.0624467128401,-0.14024103076203198,3.6097589692379692,0.0,400,0.042240142822265625,0.030860044706021845,0.03539250002318337,115854,-18.471361711618673,0.0
335,1.6914622783660889,351.84421662033026,22.814230431733982,369.0518937495367,312.6713914654659,0.0,0.40681325295367854,0.1,0.0030515193939208984,0.06220197677612305,0.04889286,0.36862636,345.7406237035891,-0.14535761748855877,3.454642382511441,0.0,400,0.04302811622619629,0.04379462057845151,0.028382611307184634,116254,-18.611302393300914,0.0
336,1.7417047023773193,307.3907640557726,50.29784096495086,377.72503334722893,255.7336302116625,0.0,0.41702386115478746,0.1,0.0029549598693847656,0.058309078216552734,0.049847852,0.24118358,341.90563773880746,-0.1499737070847322,3.000026292915268,0.0,400,0.042635440826416016,0.054806051740302404,0.05403176594246064,116654,-18.15923655435967,0.0
337,1.7273497581481934,359.0329103004609,10.304906779156418,373.618360489517,344.7551973155741,0.0,0.4083255834201949,0.1,0.0029439926147460938,0.05881309509277344,0.049787655,0.2654369,343.6183649949728,-0.14356148981859254,3.5164385101814073,0.0,400,0.043596506118774414,0.043146362669360186,0.02547694468093486,117054,-18.112473461192227,0.0
338,1.6819608211517334,365.84174567045136,4.5507766255540005,373.003220427844,360.3547227905973,0.0,0.449577414671033,0.1,0.0030090808868408203,0.058290719985961914,0.050366715,0.26390743,345.8407030625207,-0.1453931785446565,3.584606821455344,0.0,400,0.051367998123168945,0.04730710070983431,0.048151341902852876,117454,-18.23519144353975,0.0
339,1.6850838661193848,362.8000058139131,8.608842005134369,373.35794892790307,352.0645898790112,0.0,0.3774453179100801,0.1,0.0030961036682128906,0.06325387954711914,0.049946103,0.44400844,347.53663333765996,-0.1458413340946737,3.5541586659053266,0.0,400,0.04198288917541504,0.031801339203912024,0.030679021295969878,117854,-18.46918715574739,0.0
340,1.6896941661834717,359.24070805987907,13.126268191967464,369.1422409632726,336.64472703928493,0.0,0.40133683788162433,0.1,0.0030181407928466797,0.05868411064147949,0.049976803,0.49345464,348.7070408098819,-0.1414969641532481,3.518503035846752,0.0,400,0.04183363914489746,0.03872367472914604,0.02284846906976092,118254,-19.31646243541048,0.0
341,1.6636717319488525,369.1623329211163,2.840865886026027,373.05105203365514,365.0260736352989,0.0,0.41628114365597635,0.1,0.003063678741455078,0.05800437927246094,0.049556777,0.25064132,350.75257002100534,-0.14221370458529714,3.617786295414702,0.0,400,0.04208087921142578,0.043923529768017215,0.03383764752191043,118654,-18.54584051138068,0.0
342,1.6429545879364014,338.61190766707995,24.63840568345825,365.0330709159814,311.52472084514847,0.0,0.3993285150114207,0.1,0.0029973983764648438,0.0585479736328125,0.052477255,0.33338702,349.5385037856128,-0.14772877371163282,3.3122712262883667,0.0,400,0.045836687088012695,0.023468623951919346,0.02491564376065038,119054,-18.938240636630386,0.0
343,1.666106939315796,362.07631045009816,5.38770937743772,369.46767115367385,356.88463100829586,0.0,0.3847519724599789,0.1,0.0028820037841796875,0.05995750427246094,0.049250707,0.27229068,350.7922844520613,-0.14308817453584866,3.546911825464151,0.0,400,0.041902780532836914,0.03625500060156538,0.027362065025086826,119454,-19.224912247503173,0.0
344,1.7183332443237305,367.23062640515803,4.539601747052886,373.02304597138476,360.8997299094123,0.0,0.4126908675060917,0.1,0.0028731822967529297,0.05825376510620117,0.05078657,0.29013723,352.436118647371,-0.14157299603411522,3.598427003965884,0.0,400,0.04505133628845215,0.027496854130899265,0.025944084674539108,119854,-19.262641749841894,0.0
345,1.739448070526123,344.75454108662063,20.735872400033966,369.4024915584524,312.4620785613802,0.0,0.4083244877952943,0.1,0.002903461456298828,0.058786869049072266,0.04918868,0.26335168,351.667960891296,-0.14627490386231912,3.383725096137681,0.0,400,0.04364728927612305,0.0345157581932261,0.031754390601680255,120254,-19.56282535279356,0.0
346,1.6959712505340576,369.3223701703484,2.703808420020876,372.9968014130373,365.360120880849,0.0,0.38161070738569736,0.1,0.0030417442321777344,0.05992317199707031,0.049739465,0.4293322,353.4334018192012,-0.14063025798305687,3.6193697420169437,0.0,400,0.04373812675476074,0.02703987296683844,0.018869234334260698,120654,-19.494943968699946,0.0
347,1.732926368713379,310.60269160494306,64.34681660753239,365.0148877970584,207.57378474780086,0.0,0.4141130387307504,0.1,0.0029363632202148438,0.05838823318481445,0.049909595,0.34139928,349.15033079777544,-0.14782414153919748,3.042175858460802,0.0,400,0.0412137508392334,0.07644997276849581,0.07282149131736647,121054,-19.103265816798146,0.0
