iteration,time_sampling,stoc_pol_mean,stoc_pol_std,stoc_pol_max,stoc_pol_min,rollout_success,alpha,delta,time_vpg,time_npg,kl_dist,surr_improvement,running_score,rwd_sparse,rwd_dense,success_percentage,num_samples,time_VF,VF_error_before,VF_error_after,env_samples,eval_score,eval_success
0,1.4290459156036377,0.0255192473941795,0.007522226788230587,0.036052099032647014,0.01695914192068379,0.0,0.1548866280891293,0.1,0.051772356033325195,0.06043362617492676,0.052430857,1.5533642,0.0255192473941795,0.0,0.0003259644116691712,0.0,300,0.04257798194885254,77.52996168802606,1.4111807237986156,300,0.017692964277460397,0.0
1,1.3775074481964111,0.04637147451419869,0.03149417593740889,0.09867541585229635,0.020853624445879453,0.0,0.18110834855792443,0.1,0.002833127975463867,0.05647420883178711,0.051225994,0.59081113,0.027604470106181417,0.0,0.0006169411528016899,0.0,300,0.01775836944580078,1.0064657715722494,1.5174279549491259,600,0.019838584768767244,0.0
2,1.3994596004486084,0.017950489256054726,0.010623150798891808,0.0295219478729576,0.006931144819554354,0.0,0.16675128909058728,0.1,0.0029723644256591797,0.07360529899597168,0.05218144,0.72587675,0.026639072021168747,0.0,0.00023781250803492284,0.0,300,0.01848459243774414,22.609458575324695,2.3003894429447604,900,0.024389961241611625,0.0
3,1.4377353191375732,0.047138885924740505,0.02281522371616728,0.07958486247296755,0.021833613364587112,0.0,0.17464350409057264,0.1,0.0028955936431884766,0.07097768783569336,0.05544308,0.7375766,0.028689053411525924,0.0,0.0006287143102802503,0.0,300,0.017395496368408203,0.5165485949292672,0.9789682914793265,1200,0.025592533826994928,0.0
4,1.4381625652313232,0.04316207247090762,0.029374644039665717,0.09401856056683003,0.02547994598784221,0.0,0.1729939528420752,0.1,0.002858877182006836,0.056077003479003906,0.05096716,1.0528743,0.030136355317464097,0.0,0.0005629209615521306,0.0,300,0.01910877227783203,0.9931403626138752,0.7370574909037657,1500,0.031896082927696794,0.0
5,1.448552131652832,0.036228225351613665,0.021235964362346312,0.0623734424412126,0.01462474979388575,0.0,0.1661384499150997,0.1,0.0029358863830566406,0.057244300842285156,0.049328193,0.92123157,0.030745542320879057,0.0,0.00048180969162613547,0.0,300,0.028505563735961914,0.6771803197992488,0.4667051775939069,1800,0.03623907937230893,0.0
6,1.4446699619293213,0.04653635779300842,0.03350072201618663,0.10015048641192971,0.010264694853583447,0.0,0.1822079921548607,0.1,0.002841949462890625,0.05784010887145996,0.0502902,0.6836696,0.032324623868092,0.0,0.0005817969835201208,0.0,300,0.018172264099121094,0.5137028950867581,0.48042939020960984,2100,0.03682984691863477,0.0
7,1.4476804733276367,0.030323886737404618,0.008770460303715678,0.04237401036929726,0.019299087399708485,0.0,0.16198025768880664,0.1,0.0028162002563476562,0.05670571327209473,0.051802386,1.1478795,0.03212455015502326,0.0,0.00039885468431919346,0.0,300,0.01715874671936035,1.0457578215379484,0.4108739924046741,2400,0.0520108067493578,0.0
8,1.44423246383667,0.10940904644569535,0.10886674084113182,0.2799450998087879,0.010405062912350072,0.0,0.1573598523907434,0.1,0.0028486251831054688,0.06247115135192871,0.05266802,1.6275578,0.03985299978409047,0.0,0.0014204223204457344,0.0,300,0.017545700073242188,0.7660169610410139,0.6567292095942895,2700,0.07340845174349907,0.0
9,1.5184025764465332,0.05107872870643212,0.029643690157271703,0.09214007796197438,0.00893106959833708,0.0,0.16697160330078126,0.1,0.0029649734497070312,0.07076430320739746,0.05077827,1.2295481,0.04097557267632464,0.0,0.0006788649486273219,0.0,300,0.020778894424438477,0.4718869592921164,0.5509025036922962,3000,0.10549026579083183,0.0
10,1.5632193088531494,0.07467764616992711,0.0840045195960159,0.2180091399944999,0.013793597364960802,0.0,0.16186464557205105,0.1,0.002902507781982422,0.05692791938781738,0.050576244,2.508558,0.044345780025684886,0.0,0.000984061015375871,0.0,300,0.0183260440826416,0.6830977425333183,0.6513077496030903,3300,0.08205912620622713,0.0
11,1.5196361541748047,0.10963628782890872,0.06528538109862975,0.2068082772651196,0.03864101408773613,0.0,0.19290898047366647,0.1,0.0028295516967773438,0.05610227584838867,0.050234966,0.70715255,0.05087483080600727,0.0,0.0014421347696101248,0.0,300,0.016811132431030273,0.6137536999857773,0.4608601730795696,3600,0.07540000744607976,0.0
12,1.4695563316345215,0.0961113086782908,0.060939926967585614,0.18938564835495825,0.023855750287360047,0.0,0.1657222095066659,0.1,0.0028924942016601562,0.05901908874511719,0.048781782,1.0664225,0.05539847859323563,0.0,0.0012732593980565158,0.0,300,0.017522573471069336,0.45463159407636916,0.46448693203926783,3900,0.15271633299651888,0.0
13,1.459881067276001,0.06703148568347556,0.041957675485443956,0.12415831734506393,0.017703508857550714,0.0,0.15911754985470214,0.1,0.0028748512268066406,0.07557082176208496,0.04994893,0.8674745,0.05656177930225962,0.0,0.0008533624520964847,0.0,300,0.017889022827148438,0.6278243887338404,0.44599248906141886,4200,0.19296315913282538,0.0
14,1.4685721397399902,0.14222552964202084,0.09909139517261105,0.24754269201814255,0.03005448266634747,0.0,0.17207588925768463,0.1,0.0029327869415283203,0.0566561222076416,0.051483028,0.9785041,0.06512815433623574,0.0,0.0018809676931847016,0.0,300,0.018461227416992188,0.6005987969695886,0.4811703867757019,4500,0.44790534145230426,0.0
15,1.466381549835205,0.160708323485774,0.17978666644023308,0.4717103316007445,0.047215101768325246,0.0,0.1632756600858975,0.1,0.0035066604614257812,0.08629965782165527,0.05219738,1.6834292,0.07468617125118956,0.0,0.002136382475775246,0.0,300,0.021394014358520508,0.6756255339703559,0.6471018306708753,4800,0.7625882428995533,0.0
16,1.4312899112701416,0.154598567623276,0.0770873648846857,0.24573954253687702,0.036299258415922984,0.0,0.16669216674887885,0.1,0.0029556751251220703,0.07996010780334473,0.051041152,0.86610776,0.08267741088839821,0.0,0.0020568181451650087,0.0,300,0.017357587814331055,0.420784101098433,0.3373321008956016,5100,0.4136190634060816,0.0
17,1.5038580894470215,0.10637958050283353,0.04643664390522204,0.16432073795470453,0.036889860656878,0.0,0.16171095439899563,0.1,0.003567218780517578,0.07191181182861328,0.05056074,0.9115654,0.08504762784984174,0.0,0.0013492595735303677,0.0,300,0.01794123649597168,0.4938415328325494,0.274592024625146,5400,0.14904948259204792,0.0
18,1.5021891593933105,0.35843231591987307,0.4747581354650592,1.176187402390303,0.020280217290797597,0.0,0.14817352629030706,0.1,0.002894878387451172,0.057259321212768555,0.05050857,2.019922,0.11238609665684487,0.0,0.004770626726056957,0.0,300,0.019733190536499023,0.852965671124317,0.6987894685398085,5700,0.2913684982945526,0.0
19,1.5348269939422607,0.2804411627972617,0.2597817793389388,0.7179433622287665,0.059583801184992624,0.0,0.16494828026809644,0.1,0.002887725830078125,0.05691885948181152,0.050960865,1.3290786,0.12919160327088655,0.0,0.003738376435540542,0.0,300,0.017391443252563477,0.5426055863334672,0.5469753977188428,6000,0.3004103382470062,0.0
20,1.5229861736297607,0.11926947835128926,0.1050165301368239,0.29913272756536624,0.043960795688011735,0.0,0.1553776926044816,0.1,0.002897977828979492,0.05666232109069824,0.048958454,0.7960609,0.12819939077892684,0.0,0.0015456192906493013,0.0,300,0.022682905197143555,2.576356288729432,0.4900833039687174,6300,0.24531147684254065,0.0
21,1.5237202644348145,0.2333806021092176,0.23684285366587163,0.6033106293203722,0.013213611745847011,0.0,0.15092282975810453,0.1,0.002900362014770508,0.05633282661437988,0.04954916,1.4478726,0.13871751191195592,0.0,0.003071143759431662,0.0,300,0.03733420372009277,0.6259577422470712,0.7076090444429278,6600,0.3650756629464489,0.0
22,1.5861873626708984,0.3204114809513259,0.38824704214063793,0.9845359658563636,0.015593546775678103,0.0,0.15770404439672234,0.1,0.002929210662841797,0.060164690017700195,0.05024595,1.7270331,0.1568869088158929,0.0,0.004272683943347491,0.0,300,0.017523765563964844,0.8160306643162203,0.6978268337105761,6900,0.48519801553238734,0.0
23,1.5355842113494873,0.5530434481873029,0.6856285807282055,1.7349738742192269,0.08337822979732716,0.0,0.14641671125950204,0.1,0.0027468204498291016,0.056151628494262695,0.04965762,2.2696834,0.1965025627530339,0.0,0.007353851260330935,0.0,300,0.017652273178100586,0.8041364344625022,0.6873336311932059,7200,0.5935660771835298,0.0
24,1.533961534500122,0.2770860691045737,0.20083015890884906,0.5284542527700982,0.040969425558037675,0.0,0.16423889908087644,0.1,0.002740144729614258,0.060028076171875,0.049422853,0.98260653,0.20456091338818788,0.0,0.003682671129284845,0.0,300,0.01806354522705078,0.6309293240128541,0.6943236319744529,7500,0.39738412085005764,0.0
25,1.6286866664886475,0.12971310558397084,0.10777128634687624,0.3156325939464165,0.05959264152292267,0.0,0.1483551699173396,0.1,0.0027446746826171875,0.05577516555786133,0.048690517,1.5656797,0.19707613260776619,0.0,0.0017289794297798498,0.0,300,0.017209768295288086,5.026959319701307,0.7680039340907336,7800,0.6149842645029647,0.0
26,1.5645289421081543,0.3306203657335824,0.3640417943270598,0.939992275758843,0.01912701178447368,0.0,0.1530719106795295,0.1,0.0028040409088134766,0.056598663330078125,0.04968551,1.6402203,0.21043055592034782,0.0,0.004340390280857094,0.0,300,0.018132925033569336,0.6250237967147948,0.7179601492640628,8100,1.0107957355030597,0.0
27,1.5598719120025635,0.17263746962924068,0.08088935704810117,0.2997112825463006,0.09578336346940233,0.0,0.1556858599316329,0.1,0.002956867218017578,0.05675697326660156,0.049946968,1.2297026,0.2066512472912371,0.0,0.002250626628414508,0.0,300,0.024071931838989258,0.3597063931641355,0.36796173361315393,8400,1.2743810393552981,0.0
28,1.6391174793243408,0.11448365693115121,0.06976591204560677,0.19296388725116526,0.03160481400098388,0.0,0.1494394956233992,0.1,0.0027740001678466797,0.05584263801574707,0.048246715,1.242135,0.19743448825522852,0.0,0.0015140489856744666,0.0,300,0.019969701766967773,0.28681417444523877,0.28792183539392474,8700,1.0586599741947025,0.0
29,1.6019606590270996,0.18515646838755792,0.14407238083546417,0.33608032793676645,0.029206294595883527,0.0,0.15765783225188515,0.1,0.0028913021087646484,0.057181358337402344,0.04966461,0.98844075,0.19620668626846147,0.0,0.002468317680528864,0.0,300,0.01733708381652832,0.471663123900567,0.4592962925258544,9000,1.2849735986184587,0.0
30,1.5042543411254883,0.21148099449619545,0.13506163552329545,0.44026369568287615,0.09203785469163185,0.0,0.1682169597310742,0.1,0.0030891895294189453,0.05708169937133789,0.049098074,1.1366789,0.19773411709123487,0.0,0.0028150722207783635,0.0,300,0.020704030990600586,0.3842307416824815,0.3689208378662284,9300,1.5113071468541863,0.0
31,1.4914605617523193,0.3684672734539608,0.22062373406371433,0.6981469683574439,0.15169219141622411,0.0,0.16996278453743013,0.1,0.002985239028930664,0.06051135063171387,0.05077305,0.959082,0.21480743272750746,0.0,0.004907708505628074,0.0,300,0.01807236671447754,0.591278224577247,0.4550122078608955,9600,1.4330031641040615,0.0
32,1.5213589668273926,0.4028621447933639,0.06074409321025717,0.4765962996196292,0.3359781923743872,0.0,0.16973018259038983,0.1,0.0031347274780273438,0.057413578033447266,0.048702825,0.83737344,0.23361290393409312,0.0,0.005343839696638567,0.0,300,0.018654584884643555,0.275844519890065,0.1563527472563228,9900,1.034202184526601,0.0
33,1.5026049613952637,0.5622508685894299,0.4719085888311921,1.0451296813894757,0.08311716228355077,0.0,0.15880511634338235,0.1,0.002916097640991211,0.06264448165893555,0.050648592,1.0538064,0.2664767003996268,0.0,0.007472488453245028,0.0,300,0.018444299697875977,0.5473331432384809,0.49812918669266004,10200,1.2144610736468469,0.0
34,1.5253119468688965,0.7482832455427572,0.6210707878339471,1.7334833310703144,0.09712973219527501,0.0,0.1670591790130613,0.1,0.002941131591796875,0.056912899017333984,0.050277535,1.2573996,0.3146573549139398,0.0,0.009970825457750528,0.0,300,0.02185225486755371,0.501263270591906,0.44600695742481566,10500,1.196069492124184,0.0
35,1.5735094547271729,0.3980839115177535,0.38874459144417,1.0568064327533346,0.04802655440711742,0.0,0.16740996443152847,0.1,0.003008604049682617,0.0659184455871582,0.049981896,0.7229193,0.3230000105743212,0.0,0.005244233670245985,0.0,300,0.01796865463256836,0.9379806790197833,0.45334430720050894,10800,1.1070505582002261,0.0
36,1.5721654891967773,0.4032587947180431,0.2614316943797947,0.6753974370703715,0.057383372699174845,0.0,0.1530745445143226,0.1,0.0029964447021484375,0.055672407150268555,0.04894299,0.8319371,0.3310258889886934,0.0,0.005356388964633153,0.0,300,0.017361879348754883,0.5049550900134325,0.4709655879598432,11100,1.1422869025054638,0.0
37,1.6202037334442139,0.4341678930559466,0.20422509296856195,0.6964206515896653,0.21892001350482326,0.0,0.15650909954435036,0.1,0.003008127212524414,0.0789790153503418,0.050493643,0.97330344,0.3413400893954187,0.0,0.005748118366150328,0.0,300,0.018284082412719727,0.4147481054017449,0.4088591651779877,11400,1.0289835683541386,0.0
38,1.586113452911377,0.7386280321295337,0.4330107762046371,1.426960695640722,0.258822196602517,0.0,0.16668250499513954,0.1,0.003240823745727539,0.05572366714477539,0.050173663,1.2208524,0.3810688836688302,0.0,0.00982263413217453,0.0,300,0.03795218467712402,0.6010711071038489,0.4101664403220649,11700,0.9963775990088551,0.0
39,1.6193015575408936,0.5798068406534767,0.33400944145211986,1.065430596844022,0.23683246320163082,0.0,0.15778774836266768,0.1,0.003525257110595703,0.07448601722717285,0.050013237,1.392776,0.40094267936729483,0.0,0.007678448742681527,0.0,300,0.021071195602416992,0.3321912507015839,0.33848261723071404,12000,1.1659555596135487,0.0
40,1.5838611125946045,0.7485489051489309,0.3383069632134479,1.2659984258805799,0.36544641520067367,0.0,0.15986606192455102,0.1,0.0035486221313476562,0.07237982749938965,0.05012606,1.2060204,0.4357033019454584,0.0,0.00995437963920334,0.0,300,0.021074771881103516,0.2568836616277714,0.2506406008441258,12300,1.1198647794613537,0.0
41,1.5819041728973389,0.32630179770535184,0.18281635432375104,0.6321973915611758,0.1472031831635078,0.0,0.1503774837588996,0.1,0.002859354019165039,0.05705523490905762,0.049737364,0.767617,0.4247631515214478,0.0,0.0043475390260012715,0.0,300,0.017270565032958984,1.5093250851264126,0.5020661982623068,12600,0.9181658165020007,0.0
42,1.5883722305297852,0.41030896234745473,0.308789278922449,0.9322391761629918,0.16041032071419528,0.0,0.15813976855153902,0.1,0.0030660629272460938,0.05793190002441406,0.04948552,1.441985,0.4233177326040485,0.0,0.005465987192932355,0.0,300,0.01806473731994629,0.43229761932310945,0.44874707159480515,12900,0.7939373607099259,0.0
43,1.5928502082824707,0.9284768084678454,0.4962608627448781,1.6476428970199721,0.25701639615765304,0.0,0.1570252515660435,0.1,0.002958536148071289,0.05709981918334961,0.05071422,3.9451663,0.4738336401904282,0.0,0.012378201872466294,0.0,300,0.017809391021728516,0.5911779352430683,0.505944438756629,13200,1.0311178955520095,0.0
44,1.6183803081512451,0.4733774027193215,0.35651059234523935,1.0001780772355697,0.052961096223219054,0.0,0.15686589976445467,0.1,0.0027396678924560547,0.057146310806274414,0.049466766,1.6798884,0.47378801644331753,0.0,0.006241455736485043,0.0,300,0.019709348678588867,0.3862535705120544,0.3787536535040752,13500,0.8170761588462101,0.0
45,1.6125407218933105,0.7059447556090339,0.19020173465508303,0.9764130815832417,0.4483400363089622,0.0,0.16004517048848682,0.1,0.002817392349243164,0.07182812690734863,0.05029051,1.4622446,0.4970036903598892,0.0,0.009285263935765887,0.0,300,0.01709747314453125,0.1992946651263204,0.1605655386558516,13800,0.9029502312715162,0.0
46,1.6362805366516113,0.5107166082612696,0.45156782602048734,1.2720762077406027,0.13795794623270216,0.0,0.16670892145157912,0.1,0.0028297901153564453,0.07622361183166504,0.04954237,0.9615614,0.4983749821500273,0.0,0.006755450168622758,0.0,300,0.017795801162719727,0.690674643765442,0.6050069184036571,14100,0.94744376976437,0.0
47,1.561068058013916,0.6601779474138184,0.4976531124403634,1.3982574775065075,0.131937139720233,0.0,0.15451660033246203,0.1,0.0032880306243896484,0.07803511619567871,0.048984855,1.412925,0.5145552786764064,0.0,0.008672518680670625,0.0,300,0.017493486404418945,0.4183475923951187,0.4172314318993879,14400,0.6832540757609121,0.0
48,1.5369815826416016,0.5882306753255317,0.24823424952807743,0.7466047969138873,0.15927983848543162,0.0,0.15753172230774862,0.1,0.003110647201538086,0.07519650459289551,0.0496069,0.86743814,0.5219228183413189,0.0,0.00783772600812169,0.0,300,0.02062058448791504,0.2768093774737653,0.26063125424101,14700,0.6762492051609604,0.0
49,1.5809440612792969,1.4688260142662106,0.5942228875357054,2.1249500550626146,0.5162547512254074,0.0,0.1517903968209852,0.1,0.003045320510864258,0.057379722595214844,0.049027015,0.9938743,0.6166131379338081,0.0,0.019141418828082443,0.0,300,0.01780557632446289,0.5598984015739146,0.31796575824654355,15000,0.7105694519081833,0.0
50,1.5810320377349854,0.7998263565807368,0.37705133468393437,1.4491383363761807,0.5289896832521391,0.0,0.16496448244356599,0.1,0.0032148361206054688,0.05833721160888672,0.0495593,1.2211254,0.6349344597985009,0.0,0.010663493742776645,0.0,300,0.023766040802001953,0.3138179291539921,0.4668618346509049,15300,0.7090185294573043,0.0
51,1.564089059829712,0.522767517456735,0.1712973338609483,0.7751409310850635,0.2916302354126468,0.0,0.15731054497130495,0.1,0.002925872802734375,0.05765032768249512,0.050139684,0.6355943,0.6237177655643243,0.0,0.006930876963388843,0.0,300,0.01761317253112793,1.6267243948554782,0.30144639642266113,15600,0.8433323789609428,0.0
52,1.5890984535217285,0.7981133512075436,0.5270294625401056,1.6832427052407029,0.36233200838826196,0.0,0.14739057725392393,0.1,0.0029299259185791016,0.05614352226257324,0.0500877,1.3565502,0.6411573241286462,0.0,0.010391952649338634,0.0,300,0.02297186851501465,0.3167781828626088,0.3901613149026608,15900,0.5809297243250082,0.0
53,1.608891248703003,0.41796557585968763,0.22801963781390264,0.6530125877708322,0.1793577876790149,0.0,0.16083248758238378,0.1,0.0038394927978515625,0.07191157341003418,0.04951518,0.7305869,0.6188381493017504,0.0,0.005417105911028852,0.0,300,0.021961450576782227,0.26771136237308996,0.24568234849605597,16200,0.6876295519685217,0.0
54,1.6431162357330322,0.7358162237876619,0.30248100486084534,1.2181561006335733,0.3842873443200553,0.0,0.15472953260202635,0.1,0.0030143260955810547,0.055974483489990234,0.050358716,1.3589292,0.6305359567503416,0.0,0.009769003308644403,0.0,300,0.02810215950012207,0.3921671402626757,0.3563812136950394,16500,1.4580069259804933,0.0
55,1.6844041347503662,1.4491795023576168,0.5883121199343022,2.219695659179911,0.7962590575993679,0.0,0.15812656024576957,0.1,0.0031740665435791016,0.05733799934387207,0.05031814,0.98407733,0.7124003113110692,0.0,0.01926534675581303,0.0,300,0.019168376922607422,0.574135463100167,0.3829387329819845,16800,1.266171720351778,0.0
56,1.6180458068847656,0.43397668243101517,0.36558058514021863,1.0523639331676495,0.14554810679912167,0.0,0.16564279162428874,0.1,0.003522634506225586,0.08454561233520508,0.05015566,0.900001,0.6845579484230638,0.0,0.005765127818576017,0.0,300,0.020810604095458984,0.7693817448245764,1.1933612391408175,17100,1.429898709787459,0.0
57,1.6307005882263184,1.030438195705183,0.6638565478467807,1.8635322268965047,0.05231330649445223,0.0,0.14068180576855904,0.1,0.0027854442596435547,0.05533933639526367,0.050209984,0.9990017,0.7191459731512758,0.0,0.013723207845992215,0.0,300,0.018274545669555664,0.38000747224409454,0.37258262200933717,17400,1.20944342197523,0.0
58,1.6762888431549072,0.6888331862191855,0.1816924765510052,0.9391249358561975,0.47590666433898776,0.0,0.14701259083819151,0.1,0.0029211044311523438,0.07164287567138672,0.05034911,1.3974183,0.7161146944580667,0.0,0.009112976386148013,0.0,300,0.017325401306152344,0.26856142822806595,0.15335089320323872,17700,1.0481886024642735,0.0
59,1.6310539245605469,0.8057347083121609,0.570159929932635,1.7829516711952302,0.3467493066093666,0.0,0.15131709152968842,0.1,0.002892732620239258,0.05594038963317871,0.050537463,1.4317365,0.7250766958434762,0.0,0.010705463914080152,0.0,300,0.03541898727416992,0.39999814343283385,0.4032874455024522,18000,5.340208324717245,0.0
60,1.6399471759796143,0.16869657709962824,0.12500057277923626,0.3801484104262826,0.05466186827297204,0.0,0.15099810944588238,0.1,0.002789735794067383,0.05862545967102051,0.049845256,0.5290159,0.6694386839690915,0.0,0.0021822048728898816,0.0,300,0.025141000747680664,7.436148288660989,3.8260804022832517,18300,1.2015799081601393,0.0
61,1.6961839199066162,1.3152629329921057,0.7612383540113086,2.431760529638177,0.4535472243529131,0.0,0.15037535152399922,0.1,0.004782676696777344,0.0555109977722168,0.049897984,1.4961753,0.7340211088713929,0.0,0.017404216405353775,0.0,300,0.017215728759765625,0.5268183317810675,0.5062759717449128,18600,1.8881640453552675,0.0
62,1.6812000274658203,1.658670146139119,0.6574914948949199,2.475864477418455,0.8376155958186284,0.0,0.1600025049416369,0.1,0.0028879642486572266,0.05736279487609863,0.049831428,0.8740145,0.8264860125981655,0.0,0.021526965753957322,0.0,300,0.017040014266967773,0.5778486759832,0.36591014394680244,18900,1.8816210394206285,0.0
63,1.5627937316894531,1.0236993306959101,0.4044055119974114,1.7122046793472008,0.6730706390998632,0.0,0.14325829062919734,0.1,0.0030579566955566406,0.06568050384521484,0.05040597,1.9085809,0.8462073444079399,0.0,0.01362453604017022,0.0,300,0.034256935119628906,0.21415331187443537,0.27696184879493985,19200,1.2348646829197973,0.0
64,1.5653040409088135,0.44107801462192797,0.2585534435211787,0.8557314305271867,0.15852003585423602,0.0,0.1538060535692334,0.1,0.0031380653381347656,0.05850338935852051,0.05019033,0.700549,0.8056944114293387,0.0,0.005873800239563239,0.0,300,0.01771712303161621,3.5205931150181136,1.6742267095236907,19500,1.669906286646676,0.0
65,1.5546026229858398,0.8600997742447583,0.5122720883257567,1.7017534009056636,0.4424870388492467,0.0,0.14444219249136311,0.1,0.0032172203063964844,0.0815439224243164,0.04933007,2.081158,0.8111349477108807,0.0,0.011441005203015957,0.0,300,0.01792120933532715,0.4475371251998413,0.33360915932753843,19800,1.3421424634620054,0.0
66,1.5836904048919678,1.7233187426470895,0.3571690407117323,2.340036272962752,1.4719870801907315,0.0,0.15717496138621748,0.1,0.0029478073120117188,0.07853364944458008,0.050277233,1.099059,0.9023533272045016,0.0,0.022957557802365518,0.0,300,0.01748800277709961,0.40275318411238,0.38460189257313787,20100,1.5862148854996099,0.0
67,1.603473424911499,0.608574218622622,0.44588562215091077,1.312522014920693,0.08734176243478058,0.0,0.16135188406283307,0.1,0.002931833267211914,0.0563197135925293,0.05005693,0.8962411,0.8729754163463136,0.0,0.008081403581981528,0.0,300,0.017967700958251953,0.49141453187856193,0.5422642800452395,20400,2.044464330607716,0.0
68,1.6059455871582031,1.10139838126044,0.6311565430030374,1.8863270806218386,0.12414547740454888,0.0,0.16024682976427834,0.1,0.002992868423461914,0.06424570083618164,0.05077107,0.98367494,0.8958177128377263,0.0,0.014654605814765647,0.0,300,0.018204450607299805,0.3561728921182063,0.3426267618015662,20700,1.687041347153887,0.0
69,1.6285908222198486,1.6687638638594084,1.037648741912147,2.937084295131061,0.051005530761648855,0.0,0.15081337587048688,0.1,0.0028448104858398438,0.0566098690032959,0.05004621,1.0592202,0.9731123279398944,0.0,0.022242020590216172,0.0,300,0.019647836685180664,0.5136796047025117,0.42168428565458216,21000,1.5746055753576351,0.0
70,1.673973798751831,1.1498435404809886,0.5143148894459819,1.547933774329063,0.2658031300491634,0.0,0.14714842338577222,0.1,0.002811908721923828,0.05689191818237305,0.050509598,0.9699032,0.9907854491940038,0.0,0.015251171414632524,0.0,300,0.01744365692138672,0.22729483642984083,0.26941081889003704,21300,1.6923295882127292,0.0
71,1.636854648590088,1.5219317668061603,1.0666807868593144,3.3319764180621423,0.64112187614397,0.0,0.15143128932034433,0.1,0.0029778480529785156,0.0572504997253418,0.04991972,1.2808267,1.0439000809552195,0.0,0.02023103362167905,0.0,300,0.017444610595703125,0.36250225703922556,0.3406206297351842,21600,2.1459938190218972,0.0
72,1.6504096984863281,1.024788176327461,0.535187496697363,1.7639044452353854,0.3423125418847833,0.0,0.14688023873415595,0.1,0.002918243408203125,0.05757784843444824,0.049225304,0.9821026,1.0419888904924437,0.0,0.013640099378283515,0.0,300,0.017583131790161133,0.5059582832691778,0.3749220041325862,21900,1.4051462299235233,0.0
73,1.6838798522949219,1.705539350889484,0.7922340269706553,2.646915902982846,0.5347888345280987,0.0,0.15677707504219224,0.1,0.002796173095703125,0.056442975997924805,0.05001247,0.8803554,1.1083439365321477,0.0,0.02273865758640729,0.0,300,0.0172882080078125,0.28418616741250785,0.2742644755004821,22200,1.203947045130683,0.0
74,1.6604745388031006,1.8175872672690123,0.6196402936953296,2.8778054455899333,1.307641345429596,0.0,0.15410888130296388,0.1,0.003000497817993164,0.05702495574951172,0.049574476,1.0620782,1.179268269605834,0.0,0.024177176285828036,0.0,300,0.01739645004272461,0.18994415470592096,0.15395276367277455,22500,1.9327634135039602,0.0
75,1.6794536113739014,1.135043357918552,0.6117862197186056,2.0473281536167285,0.4447423999999674,0.0,0.15110964451877637,0.1,0.002812623977661133,0.0559537410736084,0.049225125,0.81910276,1.174845778437106,0.0,0.015090615632364277,0.0,300,0.022670745849609375,0.4191588561117333,0.329842662322742,22800,0.8844626874818727,0.0
76,1.7023558616638184,3.271382327395009,2.0511466105425358,6.783017734895919,1.8277834328290703,0.0,0.15363683596662786,0.1,0.0029621124267578125,0.06446337699890137,0.049165033,1.3410558,1.3844994333328964,0.0,0.043594671768033125,0.0,300,0.01787543296813965,0.5972824487518482,0.45484431264074154,23100,0.670064372482501,0.0
77,1.6037838459014893,0.6913443294189849,0.44531423064955705,1.24496716713659,0.04950855616342076,0.0,0.14480541240030964,0.1,0.002965211868286133,0.07711982727050781,0.050067604,1.6787204,1.3151839229415054,0.0,0.009210823081398914,0.0,300,0.017766237258911133,4.311423815254743,3.848423228352602,23400,0.856381331052995,0.0
78,1.5884368419647217,1.1128262644136866,0.7996250787991234,2.0611906447853383,0.20920979298902057,0.0,0.15534452295189297,0.1,0.0030679702758789062,0.057955026626586914,0.049635526,0.8281155,1.2949481570887236,0.0,0.014801616618338124,0.0,300,0.029932737350463867,1.3131720959162059,0.47711417183078636,23700,2.123181572623278,0.0
79,1.6046791076660156,1.1655163055285207,0.30973309146762945,1.6553096112744026,0.897042867276857,0.0,0.14812219107574517,0.1,0.0031294822692871094,0.06073737144470215,0.051108215,0.9264979,1.2820049719327034,0.0,0.01551529238719744,0.0,300,0.026378154754638672,0.12654932213353812,0.11976305050379635,24000,2.0345309998127887,0.0
80,1.6144111156463623,1.807960084405174,0.08247143985628408,1.870538304428285,1.667683204765439,0.0,0.1483626594739845,0.1,0.003056764602661133,0.0605165958404541,0.050354622,1.0657539,1.3346004831799505,0.0,0.024092676938042117,0.0,300,0.028700828552246094,0.22398772678725662,0.2552453603034866,24300,2.4036167991276396,0.0
81,1.639355182647705,1.1753485556770393,0.6079099809152074,1.6743026560433867,0.15581018339068375,0.0,0.14643985611592925,0.1,0.0029556751251220703,0.05871295928955078,0.049726408,1.043143,1.3186752904296593,0.0,0.015589096603918084,0.0,300,0.018098115921020508,0.3465447009325384,0.3333537488864366,24600,1.7988568198162467,0.0
82,1.6805503368377686,1.5744271506764136,0.4072449040674354,2.2083379244374126,1.1022383567427678,0.0,0.14761825952593616,0.1,0.0030012130737304688,0.057276010513305664,0.04887285,1.5058825,1.3442504764543348,0.0,0.020980017519027176,0.0,300,0.01784062385559082,0.26538506540107065,0.2237677454732465,24900,2.47666428991934,0.0
83,1.6468403339385986,1.6405162361699697,0.7995099454870628,2.468098474211457,0.7282196373060073,0.0,0.14760871974028847,0.1,0.0029125213623046875,0.08249735832214355,0.05008253,1.0406201,1.3738770524258985,0.0,0.021819263860473594,0.0,300,0.017773866653442383,0.3329385874990437,0.27264587159134523,25200,2.8077232818555946,0.0
84,1.6362330913543701,1.1007420876668785,0.774260936804493,2.437440146057839,0.5747573873875814,0.0,0.14747429370445292,0.1,0.002959012985229492,0.057743072509765625,0.050396983,1.7935897,1.3465635559499967,0.0,0.014643922732609695,0.0,300,0.01769089698791504,0.41843907045587575,0.43594175269075364,25500,3.2998979617883815,0.0
85,1.648824691772461,0.6841550138785594,0.23587108503417184,0.9034374762226326,0.33728769131548125,0.0,0.1543168882648217,0.1,0.0029478073120117188,0.05728912353515625,0.04959611,0.7107049,1.2803227017428531,0.0,0.008936737150676846,0.0,300,0.02347254753112793,1.271984989836295,0.8206662037792265,25800,2.1677990300669063,0.0
86,1.6631851196289062,1.416243793466848,0.34617374338171136,1.9979813786821201,1.1265186311685558,0.0,0.15221087426696875,0.1,0.0029795169830322266,0.07981586456298828,0.050180495,0.9531303,1.2939148109152525,0.0,0.01884119264836251,0.0,300,0.01844310760498047,0.11038145702427724,0.13944562456184845,26100,0.9054463751268056,0.0
87,1.6647922992706299,1.383703708776776,1.0299130576806186,2.473338161801899,0.13838471639999006,0.0,0.15717908110212117,0.1,0.0031638145446777344,0.05729532241821289,0.04957548,0.7837964,1.3028937007014048,0.0,0.01825577024170164,0.0,300,0.017336606979370117,0.43040081033448185,0.41553671437658707,26400,2.090564821148472,0.0
88,1.694429636001587,0.8382075946607254,0.8656926258362015,2.262858017543181,0.060818678454852865,0.0,0.14766550257682767,0.1,0.002965211868286133,0.05587267875671387,0.049335327,1.1487283,1.2564250900973368,0.0,0.011099338514173164,0.0,300,0.017298221588134766,0.5796968855631525,0.5764546846492438,26700,4.061989060734207,0.0
89,1.674314022064209,1.2366330666168357,1.5560632512059187,3.918189276153236,0.08992217978786338,0.0,0.15429247564601123,0.1,0.0029561519622802734,0.05639243125915527,0.05102265,2.0887334,1.2544458877492866,0.0,0.016486105693704636,0.0,300,0.017941713333129883,0.7733558062683409,0.7435565628831566,27000,5.598073060514975,0.0
90,1.728076696395874,1.2189389817079013,1.0377386316919286,2.807406757749408,0.27600094190614005,0.0,0.14850610613177617,0.1,0.003468036651611328,0.07184791564941406,0.049619384,1.2980717,1.250895197145148,0.0,0.016216347326224158,0.0,300,0.01821279525756836,0.4776041202121357,0.4766274711200495,27300,3.958003737704303,0.0
91,1.7216413021087646,3.052215227742815,4.417534371467807,10.656937706057352,0.03436863459282023,0.0,0.14502969082337033,0.1,0.003000974655151367,0.06082797050476074,0.0500413,2.6864796,1.431027200204915,0.0,0.04068869874218105,0.0,300,0.015690326690673828,0.8638542749346572,0.8278359696913363,27600,2.7899078683438536,0.0
92,1.747880458831787,1.585507849310733,0.5392202016455927,2.285112886144574,0.7759321882679437,0.0,0.1555119738241103,0.1,0.0029146671295166016,0.05552363395690918,0.04986666,0.83840084,1.4464752651154966,0.0,0.021115119436089964,0.0,300,0.017148971557617188,0.1480907668354944,0.22046203074756207,27900,2.1343636466287106,0.0
93,1.6520705223083496,1.4407016102524979,0.8465556090487015,2.376604557824031,0.16432547213536924,0.0,0.1406483210950732,0.1,0.0031545162200927734,0.0588836669921875,0.049660742,1.041186,1.4458978996291967,0.0,0.019169390033778544,0.0,300,0.017746448516845703,0.44118408174942975,0.4278724526873789,28200,2.0776494082014265,0.0
94,1.6900737285614014,1.8672719821354018,0.2766586673870176,2.1459715775658283,1.5326298079831877,0.0,0.1600181427338347,0.1,0.0028536319732666016,0.06527566909790039,0.049587846,0.9389621,1.4880353078798172,0.0,0.024880185667885163,0.0,300,0.023480892181396484,0.22117146348563474,0.15945992764183264,28500,1.563734868737168,0.0
95,1.769979476928711,1.4305706176344588,0.3605811426105586,1.786556711943532,0.9298128560805691,0.0,0.1517716393192728,0.1,0.0029883384704589844,0.056557655334472656,0.04967552,1.0472767,1.4822888388552815,0.0,0.01907138222883188,0.0,300,0.020654678344726562,0.2897850648986455,0.19069062916164908,28800,1.3228326416688925,0.0
96,1.7072772979736328,4.933202183098965,5.972304950438794,15.236769692294198,0.6663318850248978,0.0,0.1489652640569151,0.1,0.0029273033142089844,0.07600283622741699,0.049337834,1.6820282,1.82738017327965,0.0,0.06575140614683608,0.0,300,0.021709680557250977,0.8330934009430737,0.7729401308923561,29100,1.629912371959233,0.0
97,1.7212355136871338,2.1415343482687526,1.0935654413373745,3.936747685399134,1.0465264581747913,0.0,0.16786348416146019,0.1,0.0036699771881103516,0.07335233688354492,0.05030759,0.8422839,1.8587955907785603,0.0,0.028278022409953564,0.0,300,0.020739078521728516,0.3886347901494944,0.5189908295178363,29400,1.9966892265521696,0.0
98,1.7088892459869385,1.6713531722008474,0.5751260566191121,2.5607591012611977,1.1620314998486119,0.0,0.14872257211331621,0.1,0.003348827362060547,0.07576608657836914,0.05025148,1.3855951,1.840051348920789,0.0,0.022171949105126598,0.0,300,0.017601966857910156,0.8507160623982779,0.5585348681954058,29700,5.183142411638343,0.0
99,1.7263898849487305,1.2145712568707623,0.7023423381969518,2.195969666722197,0.42063201164024233,0.0,0.14535197192272153,0.1,0.002983570098876953,0.0577387809753418,0.049342774,1.2820096,1.7775033397157864,0.0,0.01617697751711795,0.0,300,0.01756906509399414,1.1587194172131334,0.47480830290038756,30000,2.0841999912091254,0.0
100,1.7104160785675049,0.9541265890228183,0.4927917185371682,1.57304828464922,0.29347290370318524,0.0,0.15708001077547196,0.1,0.002999544143676758,0.0574946403503418,0.0501075,0.63842845,1.6951656646464897,0.0,0.012661076790344224,0.0,300,0.017423152923583984,1.0075851359190862,0.37857715547912824,30300,2.1924486615597907,0.0
101,1.7143275737762451,1.638236937446523,1.0209145141352713,2.7772277368618816,0.02309650650515614,0.0,0.1484571548232903,0.1,0.003586292266845703,0.09005093574523926,0.049113646,0.863797,1.6894727919264931,0.0,0.02170877385057508,0.0,300,0.017706632614135742,0.35620846701535663,0.40724351055791946,30600,3.433227240484763,0.0
102,1.769404411315918,1.189089959622665,0.974694229307578,2.740746263853325,0.09479606360700216,0.0,0.14669738890249098,0.1,0.0028219223022460938,0.05628085136413574,0.05022201,1.3250153,1.6394345086961104,0.0,0.015805755649392978,0.0,300,0.01777172088623047,0.4421984541450684,0.4441144508813475,30900,2.1863209659845,0.0
103,1.7862548828125,1.4558710640309747,1.1345700419549187,3.362577544055875,0.5052206515788485,0.0,0.14930436646284254,0.1,0.0029287338256835938,0.06859564781188965,0.049701873,2.0223458,1.6210781642295968,0.0,0.01907176165432833,0.0,300,0.01847696304321289,0.48412657812295995,0.47730663139531115,31200,6.461618428503165,0.0
104,1.7586259841918945,1.229808946160879,0.688450062096036,2.0278524347737044,0.32745155137654186,0.0,0.1602333218760172,0.1,0.0028243064880371094,0.07209348678588867,0.049521007,0.8828082,1.5819512424227251,0.0,0.01630831825770268,0.0,300,0.017297983169555664,0.3167876416779755,0.3145405005102132,31500,1.5843345287708266,0.0
105,1.8108296394348145,1.2538569574630063,0.6310657012978362,1.838519433452988,0.1993970743027504,0.0,0.15414839981820516,0.1,0.0028176307678222656,0.06152820587158203,0.05126916,1.1376859,1.5491418139267532,0.0,0.01670850870708954,0.0,300,0.020616531372070312,0.2494507373868625,0.2431436751058764,31800,1.6571247348685347,0.0
106,1.770442008972168,1.3603589799409401,0.6647008193870538,2.4877404513856685,0.7712854885718057,0.0,0.14539222786478012,0.1,0.003047943115234375,0.05564475059509277,0.050890476,1.5506071,1.530263530528172,0.0,0.017804903476466502,0.0,300,0.017823219299316406,0.27613324937101863,0.26613337149788446,32100,6.190395246235069,0.0
107,1.8276798725128174,1.6099382913684273,0.6620037159706357,2.534555157989329,0.8441245677138254,0.0,0.15411982507138633,0.1,0.003764629364013672,0.055106163024902344,0.050211743,1.306721,1.5382310066121976,0.0,0.021466309649241802,0.0,300,0.017690658569335938,0.2388935237876075,0.22052912940409458,32400,3.70873672440427,0.0
108,1.7952895164489746,1.7810427903750083,1.0607510891302783,3.196633600391279,0.3138558303591418,0.0,0.15232164879914095,0.1,0.0029344558715820312,0.0570521354675293,0.050594326,0.90511614,1.5625121849884789,0.0,0.02368163750803562,0.0,300,0.017229318618774414,0.37155909420585176,0.3287269940048901,32700,2.695979717100482,0.0
109,1.789813756942749,2.040384054767695,1.236640834711919,3.9224835285804307,0.5182604576738314,0.0,0.15064754163173924,0.1,0.002784252166748047,0.05544567108154297,0.050275654,1.0939395,1.6102993719664005,0.0,0.027189477757800264,0.0,300,0.01690983772277832,0.36519456859611366,0.31166081419448244,33000,1.0434668428196545,0.0
110,1.7420251369476318,1.4154718537031246,0.6989348982804163,2.219797717821248,0.6820641898294569,0.0,0.1398191913196658,0.1,0.0030498504638671875,0.05842280387878418,0.050262462,1.012664,1.590816620140073,0.0,0.018863844260795484,0.0,300,0.017895221710205078,0.42071832640610474,0.3953090906904742,33300,0.5785134224111326,0.0
111,1.7526812553405762,2.6876964287114733,0.8966764119081273,3.6977304591638647,1.2492725127920559,0.0,0.15157991200895315,0.1,0.0029938220977783203,0.05715608596801758,0.049957573,0.9351176,1.7005046009972133,0.0,0.035620619996930315,0.0,300,0.030703067779541016,0.23911993346157862,0.21650816410153587,33600,1.2260078541548503,0.0
112,1.6769294738769531,1.0528575032988088,0.6493920007766187,1.6846813730402777,0.1833254996484281,0.0,0.1399259362897206,0.1,0.002952098846435547,0.0784294605255127,0.049483426,0.69795334,1.635739891227373,0.0,0.013894301779441644,0.0,300,0.017308712005615234,0.8700867134776283,0.7642682404637949,33900,1.344731832659422,0.0
113,1.695479154586792,3.4403005018549098,1.2371000984594507,5.045175379966875,1.7524619725900745,0.0,0.1534668571556961,0.1,0.003055572509765625,0.05658411979675293,0.050401248,0.95614666,1.8161959522901268,0.0,0.04586323329894223,0.0,300,0.01770305633544922,0.33884628793622035,0.28608220433036224,34200,2.961143937635845,0.0
114,1.7259166240692139,2.2853757652752726,0.8614892823504845,3.5968155622492914,1.1819218956696187,0.0,0.15533992915502728,0.1,0.003079652786254883,0.05672168731689453,0.049726177,1.0563012,1.8631139335886413,0.0,0.030428764586364995,0.0,300,0.018260478973388672,0.15617930485195697,0.17514996052004148,34500,12.13301747951081,0.0
115,1.7568974494934082,1.7421433318885395,1.1552485456480945,3.0456767068765744,0.14424579027960663,0.0,0.14712921589096964,0.1,0.002973794937133789,0.059136152267456055,0.049551737,0.7200301,1.8510168734186312,0.0,0.023219203817392255,0.0,300,0.01756596565246582,0.47488808189062987,0.4201670342339687,34800,2.704550939707048,0.0
116,1.770801305770874,1.5546762661256441,1.5194943758472905,3.8535999373309724,0.09153035473734998,0.0,0.134952703088016,0.1,0.0029840469360351562,0.060527801513671875,0.049751833,2.3924515,1.8213828126893326,0.0,0.020725408825123148,0.0,300,0.017278432846069336,0.5768401322282023,0.49183932938818886,35100,2.5036518750601755,0.0
117,1.7537214756011963,1.6971563288628393,1.1614416854864529,3.0322463442929912,0.5175102302594018,0.0,0.1471164302551423,0.1,0.0031003952026367188,0.056032657623291016,0.049912754,0.7255688,1.8089601643066833,0.0,0.022581595818658734,0.0,300,0.0178067684173584,0.3712062850745985,0.3475753425961607,35400,2.9918373457860308,0.0
118,1.707604169845581,2.357684731489054,1.5769583599457897,4.652530282965674,0.20100968574033687,0.0,0.1567787195942774,0.1,0.002830982208251953,0.07171940803527832,0.04974931,0.859399,1.8638326210249203,0.0,0.031361485293720834,0.0,300,0.017285585403442383,0.48313964002767484,0.4260316856877564,35700,1.9254901468703,0.0
119,1.766916275024414,1.3519295308625876,0.5534483690592621,1.8523931307508779,0.49948552376953786,0.0,0.14606099792568428,0.1,0.008725881576538086,0.057857513427734375,0.049451917,0.7144281,1.8126423120086872,0.0,0.01801802825464606,0.0,300,0.017230510711669922,0.2762731520401442,0.3084997283885711,36000,2.4266082595166445,0.0
120,1.7697746753692627,2.1235074219710333,0.506603999225844,2.764271758714824,1.4874859134121574,0.0,0.15299625456154387,0.1,0.002954244613647461,0.06961703300476074,0.05052282,0.95675576,1.8437288230049218,0.0,0.028297994987317495,0.0,300,0.01756906509399414,0.11396347397807204,0.104904098273127,36300,2.127233029685201,0.0
121,1.8034183979034424,1.5651403920680482,1.590695968618244,4.238199683611947,0.2028314257609871,0.0,0.13974787944081019,0.1,0.0028829574584960938,0.07136011123657227,0.049780257,2.766873,1.8158699799112346,0.0,0.020802984992387117,0.0,300,0.0194399356842041,0.48134521945383674,0.4830702314313107,36600,1.0593445133069834,0.0
122,1.7698957920074463,2.990255453511196,3.4654735935888783,8.883744805994978,0.08159025253849486,0.0,0.14913589424436344,0.1,0.004582643508911133,0.057149648666381836,0.048362356,1.3744229,1.933308527271231,0.0,0.03986836995273466,0.0,300,0.018031835556030273,0.6735671613731461,0.6409965814938495,36900,0.8948271312223111,0.0
123,1.8014466762542725,1.9416582442590415,0.9524090217310502,3.2112473684006866,0.5317421062482938,0.0,0.14777862647942722,0.1,0.002763509750366211,0.05559420585632324,0.049258094,0.7913987,1.934143498970012,0.0,0.025572033348309833,0.0,300,0.017881393432617188,0.2544070745562379,0.28650305858634423,37200,2.7394866462659597,0.0
124,1.8161871433258057,2.6659264466014987,1.349843661531822,3.9147188881106225,0.5192280605339544,0.0,0.14702171242917572,0.1,0.002816915512084961,0.07054352760314941,0.049659044,0.782534,2.0073217937331607,0.0,0.035474969575499955,0.0,300,0.017073631286621094,0.29184794876897074,0.28044790912693995,37500,3.5304482593783444,0.0
125,1.7215416431427002,0.8787389981207954,0.5021802565565195,1.4502899305605983,0.1583588747216389,0.0,0.14817745111006256,0.1,0.0030565261840820312,0.05776619911193848,0.050178126,0.61886543,1.8944635141719242,0.0,0.011274603739456624,0.0,300,0.019159555435180664,2.528598350327239,1.6572651930332463,37800,1.5863271366216665,0.0
126,1.786893606185913,1.1642945543709318,0.42816407993734823,1.8864421959329973,0.7830055030993812,0.0,0.1523748620161588,0.1,0.0030357837677001953,0.05915355682373047,0.050088223,0.8348271,1.821446618191825,0.0,0.01550789208182929,0.0,300,0.017263412475585938,0.7053552070175051,0.2689244675769535,38100,2.5627339644265317,0.0
127,1.7668366432189941,3.1153142373313276,1.1625647896001265,4.784693745555501,1.5708175392801313,0.0,0.15541064188568357,0.1,0.009753227233886719,0.079315185546875,0.049702194,1.2709272,1.9508333801057753,0.0,0.0415280724117366,0.0,300,0.021196842193603516,0.3912547937849998,0.39688914111384227,38400,1.8333156554374537,0.0
128,1.7554354667663574,2.268522888128725,0.9020507614597995,3.7069802977220263,1.425579347914464,0.0,0.15333726700837488,0.1,0.0029184818267822266,0.0566251277923584,0.04992458,1.2164795,1.9826023309080705,0.0,0.030246412555144563,0.0,300,0.017879009246826172,0.2562170609915421,0.21177530432797131,38700,4.917229784182314,0.0
129,1.7789666652679443,2.118992183915865,0.4467916030013114,2.667849541637413,1.4301271030771256,0.0,0.15195207423250026,0.1,0.0029630661010742188,0.0885777473449707,0.049581084,1.0997299,1.9962413162088501,0.0,0.028153925018040225,0.0,300,0.023594141006469727,0.15647811697968733,0.13523554768946858,39000,3.8523297303007644,0.0
130,1.8218629360198975,1.7012541056485415,0.43180319699921127,2.1805053532792105,1.0001680654690792,0.0,0.13924582330137197,0.1,0.0029921531677246094,0.06079506874084473,0.04950527,0.9616635,1.9667425951528195,0.0,0.022563224963129236,0.0,300,0.036371707916259766,0.22526144676725418,0.22043921316981294,39300,2.200499396900302,0.0
131,1.7943408489227295,2.122485210482295,1.4179443524619506,4.1291003125374575,0.16859490005575797,0.0,0.155385554512075,0.1,0.002901792526245117,0.066070556640625,0.050425034,0.79977435,1.982316856685767,0.0,0.028031977145531396,0.0,300,0.022364377975463867,0.36909220171374807,0.36795279038587786,39600,2.177293912748052,0.0
132,1.8569386005401611,2.0338950786739503,1.5634863877293637,3.8149124848613196,0.17204176089101714,0.0,0.15926517154846218,0.1,0.002810955047607422,0.05644822120666504,0.05017091,0.74393636,1.9874746788845854,0.0,0.02710986192788366,0.0,300,0.017946720123291016,0.4175106731309059,0.4149108112488573,39900,15.138016263640225,0.0
133,1.7825093269348145,1.1967933107022455,0.7556306532140447,2.3352945139809016,0.21013458259999934,0.0,0.14452915828140636,0.1,0.003604412078857422,0.07257628440856934,0.049681377,0.9601425,1.9084065420663516,0.0,0.01595399414906381,0.0,300,0.021188020706176758,0.6039297955790676,0.5064269555115383,40200,2.0223293578131774,0.0
134,1.815671682357788,2.2409455703262267,1.6012836795477108,4.6084415360812505,0.5319390651253291,0.0,0.14853217028121288,0.1,0.006817340850830078,0.056868553161621094,0.05001211,0.85655403,1.9416604448923391,0.0,0.029676794467228707,0.0,300,0.017299890518188477,0.3999439609337461,0.39747891778977595,40500,1.398842265833183,0.0
135,1.8153269290924072,0.8932883518999482,0.8127920851118723,2.2028795178451377,0.20336091016382032,0.0,0.14974935403759404,0.1,0.002892017364501953,0.05648064613342285,0.050018128,0.69593465,1.8368232355931,0.0,0.011902357019429766,0.0,300,0.019811391830444336,1.010984078129474,0.8588419116252289,40800,2.0232199034338256,0.0
136,1.8102970123291016,2.1994405126867655,1.4321963396970598,3.6658290545028547,0.06327534287668031,0.0,0.15363498570949463,0.1,0.0028519630432128906,0.05656576156616211,0.05021439,1.0216407,1.8730849633024667,0.0,0.029217945539442184,0.0,300,0.021498680114746094,0.37300419099438287,0.37991316101156053,41100,2.337145990576238,0.0
137,1.8100190162658691,1.3902497380243626,1.3045223088436804,3.602197893617607,0.2368838105988396,0.0,0.15780747712063006,0.1,0.002864837646484375,0.05575895309448242,0.050000336,0.78718144,1.8248014407746562,0.0,0.018440908963223514,0.0,300,0.017321109771728516,0.5037134112362928,0.4926199178824736,41400,4.4339635853327115,0.0
138,1.836578607559204,1.559775962738637,0.5499629444212829,2.2456981625176677,0.84383469543235,0.0,0.15457784531479396,0.1,0.002959728240966797,0.05935192108154297,0.05018775,1.0388104,1.7982988929710544,0.0,0.020655703880241537,0.0,300,0.017270326614379883,0.17330066685298182,0.17027796694516426,41700,2.781526971634456,0.0
139,1.8443002700805664,2.935315637042899,1.363020920842172,4.1907283738038,0.8540189792137663,0.0,0.1427611965367887,0.1,0.0030057430267333984,0.05706000328063965,0.049666334,1.2646378,1.912000567378239,0.0,0.03905038226544804,0.0,300,0.03396868705749512,0.3688620427315017,0.33162003327309225,42000,3.0899949929643853,0.0
140,1.8670892715454102,1.885767661333635,0.9237060882157422,3.1466841378021657,0.6437713147305049,0.0,0.1551966270637865,0.1,0.0027675628662109375,0.05587959289550781,0.049416512,1.0618883,1.9093772767737787,0.0,0.02508823643020597,0.0,300,0.01717090606689453,0.1969129031861848,0.1962110781216848,42300,4.744659571856738,0.0
141,1.7579727172851562,2.003264699834693,1.1738904564205535,3.278552729525163,0.6737934645918071,0.0,0.15090994720780831,0.1,0.00308990478515625,0.07556438446044922,0.049418308,0.9060905,1.91876601907987,0.0,0.02649682057194032,0.0,300,0.018060922622680664,0.2624231202050002,0.2582017474036028,42600,0.49221652111928654,0.0
142,1.792574405670166,2.6171887019551305,1.9475362067950306,4.877992670279744,0.42270573162466474,0.0,0.15442383756751674,0.1,0.0030002593994140625,0.07254600524902344,0.04998681,0.88603556,1.9886082873673963,0.0,0.03480351533159662,0.0,300,0.01775836944580078,0.41843562152764624,0.3925147598028673,42900,0.6723406917791038,0.0
143,1.785886287689209,0.9441417304981137,0.3500424834586293,1.326524411232623,0.39290582985190126,0.0,0.14215769140843282,0.1,0.024375438690185547,0.058113813400268555,0.049974844,0.7034651,1.8841616316804681,0.0,0.01235219091756742,0.0,300,0.017752647399902344,1.8454595175247024,1.5696774489462513,43200,0.756091861166766,0.0
144,1.7794904708862305,2.1526803198827436,1.6984242512168823,4.84534499270061,0.6097179284780684,0.0,0.14888951999958305,0.1,0.002877473831176758,0.08180928230285645,0.050449073,1.0814273,1.9110135005006956,0.0,0.028693906562303362,0.0,300,0.020551681518554688,0.36523064860762566,0.3703092094754837,43500,0.79159436631861,0.0
145,1.8936057090759277,2.2792325418486534,1.2689054292018005,3.5436921835831563,0.24901126566238835,0.0,0.1504182974569611,0.1,0.003635883331298828,0.09065651893615723,0.04965997,0.91371185,1.9478354046354913,0.0,0.03020327446462423,0.0,300,0.022246837615966797,0.2815735871137528,0.28030747093650765,43800,2.572623699938538,0.0
146,1.825648546218872,1.634407486771968,0.8929378081142565,2.4164793293958686,0.13065248717635206,0.0,0.15553559743702353,0.1,0.0029845237731933594,0.05723834037780762,0.0498415,0.70439136,1.9164926128491389,0.0,0.021763744548725462,0.0,300,0.017386913299560547,0.26666568119574524,0.2502792061979961,44100,2.4370737846316426,0.0
147,1.7819738388061523,0.9870918405563004,0.6390501771734898,1.8410224947191376,0.05994401461495486,0.0,0.143920831059311,0.1,0.0028145313262939453,0.08076238632202148,0.049949314,1.065496,1.823552535619855,0.0,0.013157713232338025,0.0,300,0.017632722854614258,0.8195899184108003,0.56708604629557,44400,2.595703739856688,0.0
148,1.8588919639587402,1.2089155251851342,0.7037145720801133,1.8809046702028793,0.199372495758425,0.0,0.1468921769722855,0.1,0.002935171127319336,0.056365013122558594,0.049847584,0.6958382,1.762088834576383,0.0,0.016088542347266983,0.0,300,0.04029393196105957,0.30463414067927624,0.22915927281539475,44700,3.7010397119176663,0.0
149,1.8442153930664062,1.4682979230089583,1.074827507184028,3.080197518178368,0.1818758392035414,0.0,0.14717569438882633,0.1,0.0028531551361083984,0.05644488334655762,0.049889978,0.9028181,1.7327097434196406,0.0,0.019490039921709466,0.0,300,0.01773238182067871,0.3403593638723048,0.35040498336781617,45000,2.5137699643692555,0.0
150,1.8924751281738281,4.715298228998006,3.815398184960972,10.288637917325445,0.4045952419281934,0.0,0.1592148890493953,0.1,0.0029206275939941406,0.055997610092163086,0.050038304,1.2497112,2.0309685919774774,0.0,0.05952022578488146,0.0,300,0.03540754318237305,0.7584915271129404,0.6736980011584988,45300,2.883033660664491,0.0
151,1.853644609451294,3.1126107494790594,0.531885394437429,4.030235746891793,2.72975940519474,0.0,0.14801859802619916,0.1,0.0031414031982421875,0.05700826644897461,0.04910748,1.4796034,2.1391328077276355,0.0,0.04144689757203815,0.0,300,0.027682781219482422,0.19882179261485386,0.08680913391411862,45600,3.5702338984275226,0.0
152,1.8445861339569092,2.4519910949597867,0.8423795741183137,3.8873166816917712,1.7326622140466632,0.0,0.1544513607218425,0.1,0.0028831958770751953,0.056794166564941406,0.049752552,1.3309674,2.170418636450851,0.0,0.0326367117750012,0.0,300,0.022942781448364258,0.13769788976343925,0.1862099468630192,45900,4.560221078657707,0.0
153,1.8544671535491943,2.2700769112561208,1.3843390083651574,3.8111339202426464,0.11834614183135102,0.0,0.14674354963272984,0.1,0.002972126007080078,0.056040287017822266,0.04985199,0.8920288,2.180384463931378,0.0,0.030247634607817916,0.0,300,0.01789999008178711,0.3993734649628204,0.3658509262307955,46200,3.917848267848091,0.0
154,1.8783159255981445,2.5251384310936746,0.5025396481162977,3.369066655019071,2.080236291207839,0.0,0.15257109042407244,0.1,0.002772808074951172,0.06096959114074707,0.049728613,0.96891856,2.2148598606476075,0.0,0.03365993763809875,0.0,300,0.019261598587036133,0.2028144155067523,0.14979116440725176,46500,4.6869116923578655,0.0
155,1.8941318988800049,1.2806361082947226,0.7846183229838145,2.2185212589195635,0.41623151553955656,0.0,0.14565438513020942,0.1,0.003576517105102539,0.05645346641540527,0.04983697,0.747997,2.121437485412319,0.0,0.01704658411607036,0.0,300,0.017268657684326172,0.9239993090075678,0.5118328351056232,46800,6.4988888617507135,0.0
156,1.9302582740783691,1.3565804270622221,0.9268935232529943,2.420771426643039,0.06228223570219564,0.0,0.1534407784758039,0.1,0.0028438568115234375,0.0727243423461914,0.05001777,0.97236836,2.0449517795773096,0.0,0.0180596727798871,0.0,300,0.01769566535949707,0.6662268453532387,0.3982862203105559,47100,6.588746152667912,0.0
157,1.9488403797149658,2.3620395557552407,0.9702999092170819,3.239991079247232,0.731653535013082,0.0,0.15389393534267007,0.1,0.0029320716857910156,0.0623013973236084,0.050056685,0.80622244,2.076660557195103,0.0,0.03136311977072782,0.0,300,0.0178530216217041,0.24405804203841636,0.27938334697768036,47400,4.3500595327313,0.0
158,1.851058006286621,2.297476122107075,2.1007857239430594,5.407219386134488,0.16440931481303867,0.0,0.15505549839301538,0.1,0.003149271011352539,0.05735206604003906,0.049489006,0.9921436,2.0987421136863,0.0,0.03033593716229562,0.0,300,0.017774105072021484,0.5480327980567793,0.5308425470069673,47700,3.1983242002147123,0.0
159,1.8558592796325684,1.8249931647415003,1.2824835620081911,4.014393897058031,0.8649734551294384,0.0,0.14437808817039446,0.1,0.002963542938232422,0.058385610580444336,0.049241558,1.6566943,2.07136721879182,0.0,0.024322138450266907,0.0,300,0.01867365837097168,0.39964551310685204,0.3880294525255098,48000,3.7776122746553704,0.0
160,1.889206886291504,1.582975869269146,1.2086152065940057,3.352092701039052,0.3157042417564437,0.0,0.1660225964192989,0.1,0.0030295848846435547,0.05703449249267578,0.050235875,0.92923015,2.022528083839553,0.0,0.0210741966596299,0.0,300,0.017846107482910156,0.41527669565167535,0.4151307968703547,48300,5.551292683082593,0.0
161,1.8426506519317627,2.6953585460016773,1.2979297623969228,4.737453084162477,1.1333722395912118,0.0,0.15404003444395764,0.1,0.0028786659240722656,0.0722968578338623,0.050524272,1.0233784,2.0898111300557654,0.0,0.03592247678753042,0.0,300,0.017735719680786133,0.3493382417459114,0.33246886492455624,48600,4.712997108032966,0.0
162,1.8636770248413086,1.8049239115681859,1.7747768762567797,4.754931467438168,0.19809818067670962,0.0,0.16713863216158173,0.1,0.0028209686279296875,0.05766892433166504,0.050719067,0.79229933,2.0613224082070074,0.0,0.02388007517037988,0.0,300,0.03433680534362793,0.4977567120824169,0.5012987911404435,48900,3.180569545382721,0.0
163,1.8468763828277588,1.0754064187520402,0.649887132286747,2.0979652351267988,0.41314290942028775,0.0,0.16677854565357522,0.1,0.002987384796142578,0.05937528610229492,0.050228246,0.63797224,1.9627308092615108,0.0,0.014247366303954054,0.0,300,0.036701202392578125,0.7405547194548143,0.6216034660669337,49200,15.065822070734468,0.0
164,1.900357961654663,1.7745916704384146,0.7123285547151109,2.9677031720819387,1.1726841723241956,0.0,0.14659266111589547,0.1,0.0035026073455810547,0.08486151695251465,0.050001916,1.3622859,1.9439168953792012,0.0,0.023459627877964448,0.0,300,0.02390003204345703,0.23456580812350755,0.2245646338137264,49500,3.8284309327984687,0.0
165,1.859898567199707,2.4522134550176418,1.0015051360268756,3.75052217713746,1.0811325207782796,0.0,0.145571646766482,0.1,0.0030434131622314453,0.05689859390258789,0.05010313,0.8552789,1.9947465513430453,0.0,0.03251370040784088,0.0,300,0.021082401275634766,0.24280491936167053,0.23409867768574136,49800,4.083491164585205,0.0
166,1.8921592235565186,2.4406254307235415,1.10068866228006,3.93339489372933,1.337455225690722,0.0,0.1540846021425717,0.1,0.003544330596923828,0.0798804759979248,0.05016351,0.98613596,2.039334439281095,0.0,0.03243267089079871,0.0,300,0.01781439781188965,0.27148798555398623,0.23228673524673749,50100,3.43740023825654,0.0
167,1.8839201927185059,3.1965426431313397,3.6255199185620475,9.39211560114168,0.21385483640024383,0.0,0.14316445993371493,0.1,0.002873659133911133,0.056677818298339844,0.04982118,1.8535994,2.155055259666119,0.0,0.04261821247201923,0.0,300,0.0184326171875,0.6726888517158396,0.6217263623131805,50400,3.4898179072305884,0.0
168,1.8818888664245605,1.690816140905252,1.5597429726087206,4.279790518231026,0.23278593468524178,0.0,0.15928860580772308,0.1,0.0029828548431396484,0.05626845359802246,0.04966313,0.8676061,2.1086313477900327,0.0,0.022524195552054316,0.0,300,0.027902603149414062,0.5476389107566453,0.6157627248649181,50700,3.151582875176185,0.0
169,1.91790771484375,1.7781868162835148,1.0190428180628794,3.4253278883190075,0.6318969800466548,0.0,0.143747284128465,0.1,0.0029642581939697266,0.06906414031982422,0.050152034,1.0374905,2.0755868946393807,0.0,0.023694933893473206,0.0,300,0.017542123794555664,0.6198151340065738,0.46034207343970446,51000,3.410444730506549,0.0
170,1.9020299911499023,1.5075582523620066,0.9083639745910034,2.8487239466187133,0.2951661011133014,0.0,0.1573585610782037,0.1,0.002872943878173828,0.05588936805725098,0.05061373,0.79113305,2.018784030411643,0.0,0.020078869536066378,0.0,300,0.019153594970703125,0.5139556640829354,0.33791692927662337,51300,3.378415914694372,0.0
171,1.940403699874878,2.7891442656772183,1.6711543947012908,5.23987670729292,0.9440908428688465,0.0,0.15414811163419548,0.1,0.005145072937011719,0.08646154403686523,0.050025653,0.7970094,2.095820053938201,0.0,0.036957692105732784,0.0,300,0.01721787452697754,0.3303546122808073,0.3463535023103739,51600,4.0083555539545985,0.0
172,1.829810619354248,1.697759191259962,0.8750293560637359,2.8941014710505075,0.833124803643679,0.0,0.14176167743283344,0.1,0.003108978271484375,0.06593847274780273,0.05001057,0.94044465,2.056013967670377,0.0,0.022551237834494572,0.0,300,0.019206523895263672,0.21924819780058696,0.21707771687381422,51900,3.0222848076781896,0.0
173,1.8308970928192139,1.171992414665797,0.5717034542443181,1.8996183209737774,0.3863771417818814,0.0,0.15204019961981838,0.1,0.0030274391174316406,0.07822132110595703,0.049363993,0.88200855,1.9676118123699189,0.0,0.01561840762073324,0.0,300,0.018460512161254883,0.7576052602420251,0.5778409770054048,52200,2.9852235428440133,0.0
174,1.9397788047790527,2.250631817296292,1.1841278845697707,4.2414252197503695,1.1460851229517928,0.0,0.14626666354717593,0.1,0.0029401779174804688,0.058942317962646484,0.050510094,1.2318854,1.9959138128625562,0.0,0.029857892291714323,0.0,300,0.019275188446044922,0.3005750125729233,0.30734452798611755,52500,2.8503007456958467,0.0
175,1.9355096817016602,1.2192720334583727,0.6068342018380706,1.957410060031441,0.3354702311493815,0.0,0.1537146071821011,0.1,0.002936124801635742,0.06969356536865234,0.049750004,0.9522537,1.9182496349221378,0.0,0.016242595533790705,0.0,300,0.017696619033813477,0.39113175536034295,0.36949704440377945,52800,2.7249076290289627,0.0
176,1.9135968685150146,2.889657283524449,1.7534933548126115,5.119340910337794,0.2871314902728441,0.0,0.14587331943451118,0.1,0.0029783248901367188,0.05688643455505371,0.050425995,1.1233151,2.015390399782369,0.0,0.0384195399134641,0.0,300,0.030065298080444336,0.45511400355582204,0.43072128938705245,53100,2.4147413679409113,0.0
177,1.8595614433288574,1.5343945986171041,1.0231737358503046,3.2500239543941722,0.6827286173398043,0.0,0.13962409369858259,0.1,0.0031363964080810547,0.07527279853820801,0.04972064,2.0662043,1.9672908196658425,0.0,0.020348677864880038,0.0,300,0.017565250396728516,0.2781841917033579,0.28518736697212604,53400,5.6204664776096465,0.0
178,1.8790504932403564,2.587479774619327,1.3174982109826328,4.495117036161349,1.1272380164525273,0.0,0.1480991843013038,0.1,0.002895355224609375,0.056548118591308594,0.05037516,0.9145107,2.029309715161191,0.0,0.034374307940835944,0.0,300,0.021439313888549805,0.30431340793616246,0.26793392132648736,53700,2.624121015388283,0.0
179,1.8826866149902344,1.903817311542188,1.2789778915842605,3.2456436297220916,0.3974563500833122,0.0,0.15442473311180344,0.1,0.002870321273803711,0.06222677230834961,0.049870085,0.7638333,2.0167604747992907,0.0,0.025369106978243447,0.0,300,0.024669170379638672,0.3722732915656867,0.38937686066553884,54000,1.905236419702933,0.0
180,1.8661291599273682,2.0230146479131346,1.7694500400366453,4.7980533693408365,0.3567159466605077,0.0,0.14781776036752617,0.1,0.003065347671508789,0.06724047660827637,0.05005866,1.2170676,2.017385892110675,0.0,0.026810292703785345,0.0,300,0.019028902053833008,0.45639918928183365,0.45252881781245224,54300,1.8533861114859007,0.0
181,1.8803210258483887,1.9223187750504787,1.3712100645769074,4.175488108456709,0.4673872707360527,0.0,0.15664479856059052,0.1,0.0029234886169433594,0.056281328201293945,0.0501244,1.04348,2.0078791804046556,0.0,0.02553366965875648,0.0,300,0.02735757827758789,0.36819639836066803,0.3560882305153648,54600,2.8794633442319513,0.0
182,1.8573591709136963,1.913703490771295,1.024027589148848,3.380113825229587,0.536623049290251,0.0,0.14234852882723564,0.1,0.0029251575469970703,0.05631875991821289,0.050289024,1.1808037,1.9984616114413196,0.0,0.02549772323959021,0.0,300,0.017822265625,0.2569483091790751,0.24618132520701239,54900,3.1411019723844755,0.0
183,1.8922200202941895,2.730336637546074,1.3406422814222996,4.8109610835567285,1.3799178243666554,0.0,0.1569865603025639,0.1,0.0030341148376464844,0.05787396430969238,0.04987647,0.87134844,2.071649114051795,0.0,0.036373066889012276,0.0,300,0.022225618362426758,0.3143312740441083,0.29931426432408703,55200,4.975728544154344,0.0
184,1.8698225021362305,3.038022711199482,0.8541764369054407,4.4157273537011665,2.0722735184410284,0.0,0.15340496027913741,0.1,0.0035400390625,0.07223939895629883,0.050100993,0.96914774,2.168286473766564,0.0,0.04039497612493768,0.0,300,0.025844573974609375,0.21136370249195682,0.1644923482327811,55500,2.6992263602149644,0.0
185,1.9326000213623047,2.035975364742254,1.783512468937162,4.9476460490151615,0.1414156986648026,0.0,0.1473122162317038,0.1,0.0027990341186523438,0.059519052505493164,0.050102614,0.87537324,2.155055362864133,0.0,0.02696867179300947,0.0,300,0.01788330078125,0.44614198895639356,0.4568229022024351,55800,1.5488433066117906,0.0
186,1.9174461364746094,1.8514430315929467,0.656728090332956,2.6444169016148553,0.8802299211592788,0.0,0.13900141637969277,0.1,0.003665447235107422,0.07202887535095215,0.049752306,0.6642598,2.1246941297370143,0.0,0.02455001518104623,0.0,300,0.0197603702545166,0.22005525348511495,0.18287317546971776,56100,0.8019961819826983,0.0
187,1.9419467449188232,1.9693357037254147,1.1020789110056102,3.7108520781865866,0.8491417857749176,0.0,0.1413380802431169,0.1,0.00286102294921875,0.056220293045043945,0.049794193,1.2609736,2.1091582871358545,0.0,0.026139278580333023,0.0,300,0.01917576789855957,0.25603061853557113,0.2230810343173489,56400,0.6235628501238647,0.0
188,1.8702421188354492,2.187666931167593,1.8669173169716482,5.1106415467351685,0.1669119498760985,0.0,0.1478625823606016,0.1,0.0030231475830078125,0.057652950286865234,0.050094653,1.0665767,2.1170091515390284,0.0,0.02912273627744575,0.0,300,0.020603418350219727,0.44447126080182214,0.44676170515742103,56700,0.6340422603068206,0.0
189,1.827127456665039,2.460132285282601,0.4844450432521549,2.952082134907037,1.731661181986395,0.0,0.14317197415924285,0.1,0.0031173229217529297,0.05826401710510254,0.04943425,1.3260804,2.1513214649133854,0.0,0.03268736917072138,0.0,300,0.020766258239746094,0.10012837349870916,0.09957208984741157,57000,0.3585413381254976,0.0
190,1.8359270095825195,1.9554918401404782,0.3704520092353297,2.334970966275516,1.5236322920536132,0.0,0.15384958493125253,0.1,0.0029549598693847656,0.05799412727355957,0.05031181,0.98507243,2.131738502436095,0.0,0.025862800799338205,0.0,300,0.024431467056274414,0.10460085668317774,0.1034196549047999,57300,0.31553106335950265,0.0
191,1.856884479522705,1.1070297027150071,0.8179210562087874,2.3829263453592255,0.12185256803600591,0.0,0.14796080464858383,0.1,0.0031461715698242188,0.0750272274017334,0.049324557,1.0831085,2.029267622463986,0.0,0.01471005401627439,0.0,300,0.018027782440185547,0.8554273445038028,0.7146825734497562,57600,0.25871837878116816,0.0
192,1.8200645446777344,2.55155592859386,2.2395616655726536,4.842042573670599,0.11791496817678229,0.0,0.15831808831129585,0.1,0.002964496612548828,0.05662083625793457,0.049986914,0.7374522,2.0814964530769733,0.0,0.03391396401295937,0.0,300,0.017673254013061523,0.5013163045165963,0.49084889912460555,57900,0.3997642475751589,0.0
193,1.827937126159668,2.0413464061328814,0.5599061269987317,2.7072690824753836,1.297543978714974,0.0,0.14361744686664807,0.1,0.003692150115966797,0.0728147029876709,0.04974475,0.80997753,2.077481448382564,0.0,0.0271333538409901,0.0,300,0.021053075790405273,0.1406701434085146,0.12595661056603757,58200,0.3609587855527329,0.0
194,1.8544960021972656,1.0180710726459201,0.5598271317709056,1.6872377237969587,0.15185974136806152,0.0,0.15029364100063974,0.1,0.003084421157836914,0.08094263076782227,0.04981448,0.69100267,1.9715404108088999,0.0,0.013540555697682095,0.0,300,0.018832683563232422,0.979846714129246,0.8446256860134131,58500,0.3069342429272219,0.0
195,1.896183967590332,2.133794064363741,1.5227258421082326,4.304210573490963,0.4662978185473528,0.0,0.1610176894390123,0.1,0.002946615219116211,0.058290958404541016,0.050230037,0.86282194,1.987765776164384,0.0,0.028446375527227674,0.0,300,0.022873401641845703,0.3399007295255104,0.34497900201128523,58800,0.4601589735591851,0.0
196,1.87540864944458,1.6124040131993143,0.9394509522179875,2.747505786468677,0.6262578874148503,0.0,0.14101495124547966,0.1,0.0030298233032226562,0.06302261352539062,0.04952005,1.1045419,1.9502295998678774,0.0,0.021486426770045794,0.0,300,0.01891493797302246,0.2552739597011235,0.25240181812008333,59100,0.3390999939660037,0.0
197,1.8941943645477295,1.705850959981956,0.78729068618527,2.957441187036558,0.7996205738863824,0.0,0.14418008306949506,0.1,0.002766132354736328,0.05873370170593262,0.049368292,1.6259415,1.9257917358792853,0.0,0.02266176611209192,0.0,300,0.01786017417907715,0.17342972115643698,0.1718505244024005,59400,0.31673598003823183,0.0
198,1.9313597679138184,2.0731703428293184,1.1022881739156967,3.357211227598284,0.38661112512030005,0.0,0.1561992621142574,0.1,0.003141164779663086,0.05669736862182617,0.049967885,0.6718256,1.9405295965742886,0.0,0.02750971220641644,0.0,300,0.017410755157470703,0.2605615343125369,0.25378480788009067,59700,0.48387646622834873,0.0
199,1.95859694480896,1.3583959017785117,1.044312477094566,3.135545705781008,0.5889372112496606,0.0,0.16607591406729663,0.1,0.0030601024627685547,0.07830500602722168,0.05004076,0.79438084,1.882316227094711,0.0,0.018016071886676418,0.0,300,0.01734304428100586,0.510612028374022,0.4830481871753228,60000,0.34473097458084273,0.0
200,1.9257631301879883,2.036546075586893,0.8197198069386105,3.248205982104455,1.0100569325986706,0.0,0.14709640814919073,0.1,0.0030069351196289062,0.05628228187561035,0.049562134,0.9833837,1.8977392119439291,0.0,0.02714498158951883,0.0,300,0.019434690475463867,0.20047310554976622,0.2045714039889797,60300,0.5905406736722127,0.0
201,1.8979308605194092,1.719311369013894,0.6755417071731787,2.40025994051425,0.9084417497569702,0.0,0.14792340912537028,0.1,0.0030829906463623047,0.08475089073181152,0.050312966,1.1681998,1.8798964276509256,0.0,0.022909212563584337,0.0,300,0.020064115524291992,0.16259940763728029,0.1578287334005781,60600,0.47512364002489876,0.0
202,2.0133183002471924,2.175206113644937,0.8975124491819513,3.664120376680318,1.291675360856157,0.0,0.14307877375722933,0.1,0.0036077499389648438,0.0910787582397461,0.049589396,1.1343663,1.9094273962503268,0.0,0.0289936067263432,0.0,300,0.022715091705322266,0.20114934893800027,0.18950685448540264,60900,0.7057690397305141,0.0
203,1.83174729347229,2.248396607600041,1.1646747623100893,3.5982687855312556,0.4451774464765308,0.0,0.15029169039039722,0.1,0.0029363632202148438,0.059144020080566406,0.05029252,0.80975497,1.943324317385298,0.0,0.029797135009008338,0.0,300,0.017904281616210938,0.2286643207089511,0.19975736510773726,61200,4.128280373996532,0.0
204,1.8973054885864258,2.5000952594017747,1.654362599937035,4.804865013575683,0.13194637110167745,0.0,0.15993106508363128,0.1,0.003097057342529297,0.057152509689331055,0.05004815,0.8559376,1.9990014115869459,0.0,0.03310719293830596,0.0,300,0.021678924560546875,0.3569354272755999,0.33504431291352765,61500,0.5969585720013155,0.0
205,1.8159449100494385,2.469992106191575,0.7282140479289948,3.5353922026127758,1.4962060619375726,0.0,0.14705614582172344,0.1,0.0054683685302734375,0.08896279335021973,0.05014397,1.0560715,2.046100481047409,0.0,0.03258170847601272,0.0,300,0.02158975601196289,0.09427991159565972,0.0917353249662195,61800,2.7833453181953236,0.0
206,1.8716788291931152,1.5854666006994362,1.210692998543669,3.6755172071046807,0.7300851682525653,0.0,0.14401783851924707,0.1,0.0029015541076660156,0.05693364143371582,0.049946282,0.93895113,2.0000370930126117,0.0,0.021120023854353603,0.0,300,0.017593860626220703,0.6391045141496027,0.5281906022784059,62100,3.6420293000757784,0.0
207,1.8960702419281006,1.7172196991811255,1.4754049492406314,4.243185939309282,0.6514080956503768,0.0,0.14440800438451337,0.1,0.002943277359008789,0.058005571365356445,0.05010941,0.9455074,1.971755353629463,0.0,0.022726291162380823,0.0,300,0.017473697662353516,0.4949064075954517,0.45187690069832226,62400,2.5408200342466887,0.0
208,1.8374278545379639,1.6907008168284086,1.4841728761835216,4.031984715010179,0.10749035838853262,0.0,0.15272484736257963,0.1,0.0031402111053466797,0.057431697845458984,0.049846124,1.2910675,1.9436498999493574,0.0,0.022518645139002102,0.0,300,0.020651817321777344,0.4892863072888406,0.46410135589371193,62700,3.3396540903429606,0.0
209,1.8780410289764404,4.523989785349339,4.695096440449541,12.580465166572203,1.1179695220172228,0.0,0.15325071248621266,0.1,0.0033097267150878906,0.06719350814819336,0.049041342,1.5514584,2.2016838884893555,0.0,0.06029080478136433,0.0,300,0.017817258834838867,0.7341634151373708,0.6745049566694502,63000,3.097566027276997,0.0
210,1.8814740180969238,2.1535221088571874,1.362927043719619,4.499894842389963,1.1498783634103171,0.0,0.1381592030476154,0.1,0.003116607666015625,0.05596423149108887,0.04989204,1.5755091,2.196867710526139,0.0,0.028668378004272552,0.0,300,0.017594099044799805,0.23892777836467902,0.25311808460913443,63300,4.210898578181423,0.0
211,1.8940942287445068,2.1684979033867156,1.1969863891115684,3.625496659859838,0.3608549376707728,0.0,0.15365433025235184,0.1,0.003709554672241211,0.07958531379699707,0.049783602,0.6982454,2.1940307298121966,0.0,0.028892593226236756,0.0,300,0.020081758499145508,0.2938896746554572,0.3179431834049893,63600,3.9171443515146627,0.0
212,1.9095287322998047,1.2275389576645919,0.4517055569163578,1.794751283233398,0.5309403509407844,0.0,0.13915362059274086,0.1,0.003669261932373047,0.0723421573638916,0.04987141,0.7359152,2.097381552597436,0.0,0.016343566481460153,0.0,300,0.018161296844482422,1.7842763097111962,1.0145124804415417,63900,1.7525831276829866,0.0
213,1.900691032409668,1.0644041310885308,0.6103431193688339,2.0935776716177306,0.4948482442978113,0.0,0.1411311554568152,0.1,0.002925395965576172,0.05761528015136719,0.050170578,0.67819554,1.9940838104465457,0.0,0.014179377479905542,0.0,300,0.03390169143676758,1.2799534520190796,0.6490216907011491,64200,5.684905395429028,0.0
214,1.904630184173584,2.5503223175724887,1.4851660045758461,3.9897575290829583,0.1946135175477683,0.0,0.14697985346416131,0.1,0.002797842025756836,0.06010270118713379,0.049462676,0.7336155,2.04970766115914,0.0,0.03392616335138679,0.0,300,0.018040895462036133,0.33705509494795544,0.37600616485776817,64500,2.2141790762931337,0.0
215,1.9715423583984375,2.3182298315059753,1.1203325552804444,4.171288145498384,1.3216569721941687,0.0,0.15089092443638003,0.1,0.0029287338256835938,0.05749702453613281,0.04964554,0.96275616,2.0765598781938235,0.0,0.030689587271123843,0.0,300,0.019083738327026367,0.34013571499800094,0.3230312774880502,64800,4.867844371471969,0.0
216,1.9468700885772705,2.6870449109212986,1.9876447155007062,5.81329029761922,0.3368495916295449,0.0,0.14989495355219032,0.1,0.0030117034912109375,0.058455705642700195,0.049466707,0.8673633,2.137608381466571,0.0,0.03551699116263298,0.0,300,0.023345947265625,0.5023233105178934,0.4591290770186195,65100,1.2888341453014618,0.0
217,1.9631590843200684,1.637619681940755,1.3985737105091562,3.7805704591544456,0.2718263940579312,0.0,0.1570563323259618,0.1,0.003718852996826172,0.07203054428100586,0.050216783,0.7529545,2.0876095115139894,0.0,0.021797721871420966,0.0,300,0.02221202850341797,0.3903092942280954,0.4168788969169404,65400,1.6757747524871436,0.0
218,2.0707194805145264,2.1848101931067414,1.0843100423869314,3.198586785976549,0.617740685213684,0.0,0.144253799328743,0.1,0.0028917789459228516,0.055791616439819336,0.04961416,1.0733815,2.0973295796732647,0.0,0.028854738198606775,0.0,300,0.02384161949157715,0.2043454160714161,0.2016675449102755,65700,1.421154827288866,0.0
219,1.840348243713379,2.019383949321189,0.6473125494593636,2.830692290060613,1.350235332630725,0.0,0.15274462327443258,0.1,0.0038230419158935547,0.07403802871704102,0.048914168,0.8823474,2.0895350166380573,0.0,0.02688681331427384,0.0,300,0.022733211517333984,0.15453183293572947,0.14693514440473238,66000,3.8095815076750927,0.0
220,1.880028486251831,1.3273220772746435,0.3037716736080864,1.7190624656774562,0.8961070981795313,0.0,0.13909237995468657,0.1,0.003148794174194336,0.07304883003234863,0.04940059,0.563312,2.013313722701716,0.0,0.017673011399942512,0.0,300,0.020084142684936523,0.4570161928133866,0.334344803149858,66300,1.0211435782339648,0.0
221,1.8857555389404297,2.468505001433891,1.6950214315801746,4.484137796102084,0.32784151302375353,0.0,0.1501491213345142,0.1,0.0030252933502197266,0.058284759521484375,0.049874317,1.0202492,2.0588328505749334,0.0,0.03289448578000905,0.0,300,0.019716978073120117,0.4138688649495312,0.41684550953756855,66600,3.3210762148497768,0.0
222,1.9145762920379639,3.6019830094592686,1.5348887444411958,5.578747873915847,1.7466562819830027,0.0,0.15291290140808322,0.1,0.0031664371490478516,0.08204221725463867,0.049829338,0.8183848,2.213147866463367,0.0,0.04783589440033219,0.0,300,0.019710063934326172,0.37618638315960023,0.3134539383629799,66900,5.8004930533307855,0.0
223,1.8799822330474854,2.702079425485412,1.048557975368417,3.9622591650098626,1.444262927430253,0.0,0.16123423840834392,0.1,0.0031125545501708984,0.05820131301879883,0.049586605,0.81184494,2.2620410223655716,0.0,0.03601219898792136,0.0,300,0.022498369216918945,0.19835295439340364,0.18435764819931183,67200,6.412899558480224,0.0
224,1.9425907135009766,5.202921937865064,4.481950700539737,12.742050107318123,1.133547839888735,0.0,0.1504564727507465,0.1,0.003628253936767578,0.07279777526855469,0.04948171,1.6972446,2.556129113915521,0.0,0.06903100101552362,0.0,300,0.023914098739624023,0.6340004085636872,0.5417242633333371,67500,4.335679256089789,0.0
225,1.974546194076538,2.0206053242841984,1.115215714419601,3.482055170716913,0.40657163321579076,0.0,0.1405950444505337,0.1,0.00591731071472168,0.06226301193237305,0.049742095,0.75170237,2.5025767349523886,0.0,0.02685426057024628,0.0,300,0.020081758499145508,0.8953672558581686,1.0955239474877645,67800,5.33011550178302,0.0
226,1.9855568408966064,2.281415488279623,1.361391896352705,4.010206818847607,0.6369802288555726,0.0,0.13900826832142502,0.1,0.0029926300048828125,0.0691220760345459,0.049725074,0.7898884,2.480460610285112,0.0,0.03034385783462714,0.0,300,0.020644187927246094,0.6413510514399785,0.37122494220872493,68100,5.8472359883854255,0.0
227,1.9034826755523682,2.0101453930596245,1.6260708867286884,4.078428810046591,0.2737410509049398,0.0,0.15345298477877795,0.1,0.003614187240600586,0.07253122329711914,0.0495471,0.85672444,2.4334290885625633,0.0,0.026189012836827622,0.0,300,0.025988340377807617,0.7585923357428204,0.535538626543704,68400,7.121443293525316,0.0
228,1.928534746170044,1.8499498759739854,0.7327884667608224,2.604986518504024,0.6401308680209222,0.0,0.15237522471826512,0.1,0.003522634506225586,0.07393836975097656,0.049915813,0.7766548,2.3750811673037058,0.0,0.024600226981008406,0.0,300,0.025035858154296875,0.3473857711238539,0.25185868071220463,68700,7.850291639382846,0.0
229,1.8944425582885742,3.074660653456278,1.4636912592714904,4.749501426098614,0.7334081840794727,0.0,0.1629764267741423,0.1,0.0030612945556640625,0.07297849655151367,0.049641714,0.80191326,2.4450391159189633,0.0,0.04074655189022011,0.0,300,0.020418167114257812,0.3683024808066295,0.38175315039889546,69000,6.898990568347333,0.0
230,1.9727299213409424,2.675903432985397,1.538171284642369,3.976227486059996,0.054318098555194406,0.0,0.14773114412499944,0.1,0.0030503273010253906,0.058818817138671875,0.049761076,0.8109758,2.4681255476256068,0.0,0.03541551730247236,0.0,300,0.04292035102844238,0.34920626723628906,0.32883074692957276,69300,4.159232046495547,0.0
231,2.0490710735321045,3.11908853058805,2.0032968516855565,5.543475853349792,0.8129435452802145,0.0,0.14959710546188568,0.1,0.003125429153442383,0.05723881721496582,0.050408456,0.82597923,2.533221845921851,0.0,0.04140785468056521,0.0,300,0.02368307113647461,0.41739127139264043,0.3570080734679748,69600,7.3414657937223735,0.0
232,1.9639475345611572,1.665075845719366,0.6348036279090743,2.560717867830839,0.9528866275723248,0.0,0.15696100635541324,0.1,0.0030243396759033203,0.05697822570800781,0.049736854,0.8969213,2.446407245901603,0.0,0.02192899453967026,0.0,300,0.020807981491088867,0.3001816399518463,0.3797723412714431,69900,5.19395635019825,0.0
233,1.9930830001831055,2.1346225196028854,1.2967094018388745,3.5904140429362204,0.553642206076635,0.0,0.1407578022975345,0.1,0.0029647350311279297,0.05757594108581543,0.04984399,1.0436054,2.415228773271731,0.0,0.028406128132470673,0.0,300,0.02097344398498535,0.306934638172673,0.3013651043331786,70200,3.634717246324023,0.0
234,2.0098378658294678,3.7821468522080783,1.260881003978996,5.716260998557761,2.390599274303241,0.0,0.14746845177077367,0.1,0.002941131591796875,0.05584144592285156,0.049595706,1.4233325,2.551920581165366,0.0,0.050186304527922096,0.0,300,0.021116018295288086,0.22266425151910998,0.19440549509897018,70500,2.319243175587705,0.0
235,1.9814724922180176,1.99604154430248,1.7562708254423092,4.9442785285893125,0.4763035035744592,0.0,0.14971429050512222,0.1,0.002948760986328125,0.05679130554199219,0.049905635,1.1923192,2.4963326774790775,0.0,0.026609914530711726,0.0,300,0.024052858352661133,0.5728726653688752,0.5798267149946106,70800,3.7786073952695527,0.0
236,1.8989160060882568,1.8709766773055796,0.9345820918573238,3.325524601699905,0.8752092413779171,0.0,0.14427054927317018,0.1,0.0030269622802734375,0.05880260467529297,0.04998361,1.2516133,2.433797077461728,0.0,0.024812715192533325,0.0,300,0.03144216537475586,0.4284353824437481,0.3234070745346963,71100,3.9589644866945597,0.0
237,1.9068145751953125,2.5884289486431786,0.5005709111874321,3.3425959344736618,1.9698021418267961,0.0,0.1510551485769681,0.1,0.0030193328857421875,0.05861163139343262,0.04979926,0.94606006,2.449260264579873,0.0,0.034410888252636745,0.0,300,0.022020816802978516,0.09027140929035227,0.0903397825934444,71400,4.505610437022677,0.0
238,1.936640739440918,1.5331782014436126,1.2610897034835369,3.4587119864455844,0.34120590919906224,0.0,0.14411529217105848,0.1,0.003225088119506836,0.07085013389587402,0.049488172,0.9523456,2.357652058266247,0.0,0.0203797932034103,0.0,300,0.021981477737426758,0.49095235661181946,0.44044590002193235,71700,3.4172047110183628,0.0
239,1.891366958618164,2.3167250088705615,1.2286113617135228,4.427626082828278,1.3591647765608037,0.0,0.1440086024504819,0.1,0.003032207489013672,0.07880210876464844,0.04917154,1.2879633,2.3535593533266788,0.0,0.03079329096860224,0.0,300,0.02447366714477539,0.2594298253354631,0.26265619085205705,72000,10.464538613514124,0.0
240,1.903019666671753,3.190441419291031,2.027554109290376,5.8016357559613105,0.7158007120923109,0.0,0.16387342309884723,0.1,0.0036308765411376953,0.07429146766662598,0.049362317,0.84335786,2.437247559923114,0.0,0.04219596021451495,0.0,300,0.02581310272216797,0.432293524179342,0.38429864839428435,72300,2.612288769206842,0.0
241,1.9532790184020996,1.7558403336605475,1.442648734320475,4.182016089616409,0.43322842884626744,0.0,0.14430661724408625,0.1,0.002857685089111328,0.05735588073730469,0.049733493,1.7281663,2.369106837296857,0.0,0.023380444372123204,0.0,300,0.02300715446472168,0.46333298142801643,0.49356584030989753,72600,2.0395011259167743,0.0
242,1.9008851051330566,2.628540713417445,2.0083511072230182,5.215686127402369,0.5115340906822443,0.0,0.14433709125661323,0.1,0.004380702972412109,0.05957746505737305,0.050007418,0.76257616,2.395050224908916,0.0,0.0345270007479639,0.0,300,0.022980690002441406,0.4018119968217913,0.39544663941663555,72900,3.5653142741767834,0.0
243,1.9517064094543457,1.8015544120716058,0.8038711031354345,2.8330153666120705,0.5801477568621781,0.0,0.14873414158304302,0.1,0.0032835006713867188,0.0895543098449707,0.05009577,0.92973816,2.335700643625185,0.0,0.02389418644293321,0.0,300,0.024300575256347656,0.36005215452254424,0.33248762298851753,73200,2.784998664303379,0.0
244,1.9569330215454102,1.6537720165165344,1.5504903042085405,4.336897647961142,0.6592189901680835,0.0,0.14052707146330454,0.1,0.0030531883239746094,0.07331657409667969,0.049481697,1.5900548,2.26750778091432,0.0,0.0219948803887198,0.0,300,0.023090124130249023,0.5217785730143847,0.48318307627254353,73500,3.4132604994926443,0.0
245,1.93452787399292,3.135088219211532,1.266279443202963,3.9109095769503717,0.9432057298972258,0.0,0.14365625012644825,0.1,0.003704547882080078,0.07723689079284668,0.05010343,0.7462201,2.354265824744042,0.0,0.0415186312084895,0.0,300,0.03596377372741699,0.25759118330235203,0.24522066875869447,73800,2.099108461222109,0.0
246,1.966585636138916,2.7608911345144236,0.6436206811516976,3.5149326061438817,1.7694775491564227,0.0,0.14564316596583038,0.1,0.0031790733337402344,0.057253122329711914,0.049820337,1.0519856,2.39492835572108,0.0,0.03627605731512685,0.0,300,0.02200031280517578,0.1604470015370732,0.1417126309374939,74100,0.907683480467416,0.0
247,1.9740965366363525,2.576886231477143,1.3864499640882293,4.269460121140067,0.4470233959084523,0.0,0.14252962201657443,0.1,0.002946615219116211,0.05693411827087402,0.050099492,0.9419335,2.4131241432966863,0.0,0.0341127035133535,0.0,300,0.02294778823852539,0.24557200485066139,0.24277873471021008,74400,4.006599064494898,0.0
248,1.9502434730529785,2.4057259585477557,1.2017408883015095,3.373299668791832,0.40158641770744496,0.0,0.1457509416579367,0.1,0.002920389175415039,0.056647300720214844,0.0499568,0.9657612,2.4123843248217933,0.0,0.03157787055644096,0.0,300,0.04118847846984863,0.22504305890437704,0.22401207394816958,74700,4.299875979367343,0.0
249,1.9857079982757568,1.667027909303715,0.8821607816945065,2.6024676154362183,0.43470297680363423,0.0,0.1429323756927261,0.1,0.0029706954956054688,0.05717182159423828,0.050352037,0.6141945,2.337848683269985,0.0,0.022132128828924666,0.0,300,0.025960683822631836,0.4851206941569547,0.36173810045310506,75000,5.117643465744311,0.0
250,2.001530885696411,3.4253239618777336,1.0094654979860458,4.641575367428082,2.0180656382381286,0.0,0.14649905565017252,0.1,0.0030875205993652344,0.0571589469909668,0.049930725,1.2188678,2.4465962111307604,0.0,0.045329780737502254,0.0,300,0.0239107608795166,0.16938369337415382,0.16604164026950136,75300,2.61490563536058,0.0
251,2.013803243637085,1.7420688530902049,1.201240603625542,3.193877970819876,0.23284596274531907,0.0,0.14218636473128723,0.1,0.0046844482421875,0.07282733917236328,0.049675886,0.88120115,2.376143475326705,0.0,0.023128246359460522,0.0,300,0.023998498916625977,0.4264294623711383,0.42375698337103007,75600,3.031442986283007,0.0
252,1.996809959411621,4.76904277763351,3.61141769917191,10.76170494633603,1.1940226945860781,0.0,0.16566013691603318,0.1,0.002869844436645508,0.07556724548339844,0.050089885,1.2921573,2.615433405557386,0.0,0.06349502564096283,0.0,300,0.02346491813659668,0.5564984295021862,0.5014907601597353,75900,3.0745657452436173,0.0
253,1.9618160724639893,5.239926531462903,4.285014628604441,9.615931270398828,0.28318382755137383,0.0,0.14517029942559162,0.1,0.0029516220092773438,0.05751371383666992,0.049274135,1.6343734,2.8778827181479376,0.0,0.06972695307713082,0.0,300,0.023608922958374023,0.5942050108086024,0.4753774704907639,76200,3.5101323999843363,0.0
254,2.0118985176086426,1.630152535241466,0.7380460482980806,2.696537871562654,0.8894713858524167,0.0,0.1564502876730312,0.1,0.0074253082275390625,0.05786418914794922,0.05016161,0.68445873,2.7531096998572906,0.0,0.021631608724171913,0.0,300,0.02381277084350586,1.8746356119627603,2.0147501146248668,76500,2.7893607597882126,0.0
255,1.8945136070251465,2.9550965160513525,0.6315812416759755,3.6991892669917745,1.9538465351491634,0.0,0.1535004766511418,0.1,0.003101348876953125,0.05712747573852539,0.04998194,0.7619494,2.773308381476697,0.0,0.039326607060966426,0.0,300,0.023939847946166992,0.32035655433500526,0.11529035165861762,76800,2.4344759641434695,0.0
256,1.9841485023498535,1.5249545824257302,0.6671273620272669,2.424522383349649,0.8021157674682847,0.0,0.14712129660364848,0.1,0.0029168128967285156,0.05807304382324219,0.049791895,0.6382447,2.6484730015716007,0.0,0.019834189021462494,0.0,300,0.024295568466186523,1.3773956978078412,0.4510314919895083,77100,3.257043625107728,0.0
257,1.9310109615325928,1.5737038429008443,1.3386950695544642,3.206651962499231,0.08150316204025804,0.0,0.15280626838621436,0.1,0.0030705928802490234,0.0598602294921875,0.04945894,0.8074132,2.540996085704525,0.0,0.020797606192040408,0.0,300,0.04344034194946289,0.8003017483780689,0.4585494795779052,77400,2.331325665282528,0.0
258,2.0491387844085693,3.241294541774751,0.8528537881729285,4.044849582028582,1.9318743505955223,0.0,0.15881548699229325,0.1,0.008862733840942383,0.06602072715759277,0.049268737,0.8583254,2.611025931311548,0.0,0.04291448625319208,0.0,300,0.02406001091003418,0.3488017246218753,0.3545688498557169,77700,3.268805482593231,0.0
259,1.9465184211730957,1.3668048553144487,1.0306071694961936,3.0573008251018563,0.4798846080932418,0.0,0.15090807902023323,0.1,0.003003835678100586,0.05954861640930176,0.04952069,1.368048,2.4866038237118384,0.0,0.01817656366011728,0.0,300,0.024287700653076172,0.4537388971816122,0.47283822792185926,78000,2.48683557716495,0.0
260,1.987870693206787,2.6922624135946367,1.3089627669135244,4.556353763012003,1.2531034794386968,0.0,0.14785890600817678,0.1,0.0049190521240234375,0.0602567195892334,0.049787298,0.9730167,2.5071696827001184,0.0,0.035739598444468355,0.0,300,0.02710723876953125,0.3070033674444652,0.27740859961059366,78300,2.9495431505062832,0.0
261,1.9952540397644043,2.6196206662057655,0.25743159944761457,2.9456042814547145,2.2358037527548698,0.0,0.15133763120595703,0.1,0.0030601024627685547,0.06825804710388184,0.049876247,1.2324914,2.518414781050683,0.0,0.03491163494101401,0.0,300,0.025089740753173828,0.135405106089018,0.08247199273029542,78600,5.653563182699635,0.0
262,2.031761646270752,4.365981274498218,5.200015674547765,13.330451182289247,0.87784333391814,0.0,0.1426606956970074,0.1,0.003679037094116211,0.07432937622070312,0.049754284,1.8994871,2.703171430395437,0.0,0.057857085434243755,0.0,300,0.024686098098754883,0.7610062037968602,0.7113698717818564,78900,1.6707646684486086,0.0
263,2.070004463195801,1.0427438704134233,0.7002736356815441,2.172341673439693,0.2691347116076739,0.0,0.13961005221694844,0.1,0.0029494762420654297,0.05761575698852539,0.049287837,1.7901143,2.5371286743972354,0.0,0.013872537528473089,0.0,300,0.026537418365478516,2.4794825423623923,2.702939905320531,79200,2.582644655672212,0.0
264,2.095466375350952,3.128873646921548,1.0828040217350428,4.450419546627426,1.5225016213014047,0.0,0.15395674814594584,0.1,0.00454258918762207,0.05624866485595703,0.04991305,1.1687716,2.5963031716496667,0.0,0.041670417918150945,0.0,300,0.02510547637939453,0.1706929403969193,0.1660548575597023,79500,2.403859954752847,0.0
265,1.9915025234222412,2.714037792199584,0.6684433605031114,3.608746911793758,1.8088555078248387,0.0,0.15653608859154786,0.1,0.0028967857360839844,0.05691170692443848,0.050167527,0.9647892,2.608076633704658,0.0,0.036128689586518214,0.0,300,0.02655339241027832,0.0845410149665072,0.07766223624361485,79800,1.8811351014697477,0.0
266,2.0290117263793945,1.7057584948753952,0.568874039436412,2.370859050405334,0.9780088064242715,0.0,0.15227353347670433,0.1,0.0031430721282958984,0.05711936950683594,0.049988415,0.78415287,2.5178448198217316,0.0,0.022711509346293096,0.0,300,0.025971174240112305,0.538370505119583,0.41191483297000614,80100,10.83549822109674,0.0
267,2.027158737182617,2.879123353551626,1.4075881865483084,4.602467318351097,0.6977419915649125,0.0,0.15188124810852469,0.1,0.0029113292694091797,0.07295012474060059,0.05001526,0.9435147,2.553972673194721,0.0,0.038182632615738815,0.0,300,0.025924205780029297,0.21606244329923993,0.22459974193050222,80400,2.853547304933327,0.0
268,1.960965871810913,2.5888361957291637,1.4434248669980196,4.253537364978699,0.5422667374668373,0.0,0.15306950785144782,0.1,0.004488706588745117,0.0599980354309082,0.04991503,0.89962405,2.5574590254481655,0.0,0.03431825790652878,0.0,300,0.028879404067993164,0.3063042283483291,0.3029710488055237,80700,2.580025854725832,0.0
269,1.9727749824523926,2.2183894801277444,0.9447535441059103,3.3779220782790507,0.7639094365856336,0.0,0.15343632566632873,0.1,0.0030226707458496094,0.05717921257019043,0.0500571,1.1743499,2.5235520709161237,0.0,0.029400490813311028,0.0,300,0.028682470321655273,0.18966626956680388,0.185260790852145,81000,2.203853333251083,0.0
270,1.9920496940612793,1.3993773323345104,1.079876309483086,2.9732588549014363,0.05773722798482426,0.0,0.1475983155074077,0.1,0.0037474632263183594,0.08617258071899414,0.049674675,1.1110348,2.4111345970579623,0.0,0.01864924936211665,0.0,300,0.033809661865234375,0.7879479020002692,0.6847694426759822,81300,1.4228235116877492,0.0
271,1.9945998191833496,2.4080351898091346,1.0114105096844679,3.5455391081916003,0.7729563486928354,0.0,0.15170167270450702,0.1,0.0029222965240478516,0.07243967056274414,0.049795147,0.742461,2.4108246563330797,0.0,0.03206840738144953,0.0,300,0.029345273971557617,0.22685179944526954,0.23577867736291291,81600,3.3036701321675843,0.0
272,2.0106492042541504,3.1288661533378486,0.5623257433682102,3.7213284313687436,2.3231748979459788,0.0,0.1465321778548299,0.1,0.0035948753356933594,0.07338976860046387,0.050290767,1.250926,2.482628806033557,0.0,0.04161665338990695,0.0,300,0.03843045234680176,0.1815348009390936,0.15851541101058209,81900,5.4120692545211,0.0
273,1.947153091430664,5.770259255752062,5.306239525255803,14.775646135317812,1.040343826127991,0.0,0.14698437314625518,0.1,0.0028505325317382812,0.0566103458404541,0.05022174,3.8511581,2.8113918510054074,0.0,0.07692336681104248,0.0,300,0.027353525161743164,0.7106703091450846,0.6366100927665089,82200,4.27265964976509,0.0
274,1.9605610370635986,1.812957472973531,1.047170186961808,3.5513473190450373,0.7500877403521087,0.0,0.14505839114522315,0.1,0.0029549598693847656,0.05676722526550293,0.04986335,0.9564091,2.7115484132022196,0.0,0.024037084536700656,0.0,300,0.028379440307617188,0.7152080775171872,1.0675772518109499,82500,1.8818152510781265,0.0
275,2.0217177867889404,2.329547454240142,2.2033371296222444,6.138973948895915,0.8494212979459645,0.0,0.15419624329698203,0.1,0.003123760223388672,0.05643296241760254,0.04976464,0.9409089,2.673348317306012,0.0,0.030952764349568933,0.0,300,0.04749894142150879,0.6484447397579126,0.5912188753299585,82800,2.6740971831349944,0.0
276,2.0492842197418213,2.417957473463947,1.550486248272412,4.568356829072174,0.23092782957188945,0.0,0.14428468389259436,0.1,0.002972841262817383,0.05784797668457031,0.050455824,1.0195988,2.6478092329218055,0.0,0.03185867407729868,0.0,300,0.03274106979370117,0.359487454821995,0.3023872746231411,83100,1.6080339705291908,0.0
277,2.123753786087036,2.641025399783133,1.4871709368446526,4.120566609423941,0.17360451082178552,0.0,0.14928450863130585,0.1,0.0031180381774902344,0.057602643966674805,0.050195295,0.78930455,2.6471308496079384,0.0,0.03514042597410309,0.0,300,0.029482126235961914,0.22647950792680824,0.23245509965619582,83400,2.170058969649614,0.0
278,2.0685837268829346,3.2880373211517573,1.831013072437363,6.439979112514031,1.9077212753681643,0.0,0.13608515964939874,0.1,0.002967357635498047,0.05706501007080078,0.04995512,3.4502597,2.7112214967623203,0.0,0.04378606989624468,0.0,300,0.030574321746826172,0.3341984995881101,0.32549743751411553,83700,2.1918366200730817,0.0
279,2.0444750785827637,1.9089215638907546,0.7427557886055909,2.640050385876468,0.9682501580187269,0.0,0.14648458251950958,0.1,0.0029549598693847656,0.05584311485290527,0.0501801,0.7794303,2.6309915034751636,0.0,0.025438552646639766,0.0,300,0.030265331268310547,0.25902361783176003,0.2385256148526396,84000,2.359340968817473,0.0
280,2.074352264404297,4.936634116093448,4.441498980917408,12.420584399462097,1.568071380317291,0.0,0.1705037772008251,0.1,0.003644704818725586,0.0721733570098877,0.050523177,1.1496884,2.8615557647369925,0.0,0.06569263611450908,0.0,300,0.03599071502685547,0.7049538014552724,0.6504191218217206,84300,8.854456722239464,0.0
281,1.96962571144104,2.4119522732221044,1.1888665658231365,3.824512336950266,0.6051108879385365,0.0,0.15095547704308207,0.1,0.0031948089599609375,0.05793285369873047,0.05004655,0.7806612,2.8165954155855033,0.0,0.03209048643885662,0.0,300,0.048346757888793945,0.32620699770293277,0.4388736672587697,84600,1.871622883894054,0.0
282,1.9786558151245117,2.473890460148077,0.8471690784642317,3.7728059286169087,1.3983917828996293,0.0,0.15411774784517304,0.1,0.006549835205078125,0.07718157768249512,0.050185315,0.720812,2.7823249200417606,0.0,0.03293524392256568,0.0,300,0.03467583656311035,0.2966002870218054,0.26296291096405944,84900,1.8506102018297552,0.0
283,2.101212978363037,2.8561175679923676,1.2933221600406255,4.508497888498399,1.374702324737206,0.0,0.14879610574246083,0.1,0.003025054931640625,0.07770895957946777,0.050002065,0.9874928,2.7897041848368214,0.0,0.03741745469695171,0.0,300,0.030318021774291992,0.15256888701368343,0.1456412660623036,85200,2.2030359461015494,0.0
284,2.0223560333251953,4.8742288372559734,3.887376703895097,11.581375263084404,2.355350223187899,0.0,0.15383073936884825,0.1,0.003278017044067383,0.07079935073852539,0.049671162,1.5024171,2.9981566500787364,0.0,0.06492109570127584,0.0,300,0.031374216079711914,0.550379505180617,0.528723359192395,85500,2.1233904862151856,0.0
285,2.0689520835876465,2.5459054931754572,2.012604053703869,5.100728983764497,0.3007959881934161,0.0,0.15648142102027263,0.1,0.0029449462890625,0.05683541297912598,0.050119627,0.7209572,2.9529315343884086,0.0,0.03361741566101674,0.0,300,0.030864953994750977,0.5012183952693813,0.5162270718518711,85800,6.997456503789085,0.0
286,1.9925761222839355,1.2932054927533534,0.9441307529912689,2.821647476870416,0.4381785885550123,0.0,0.14335751778606912,0.1,0.003625154495239258,0.09387946128845215,0.049733736,1.6922011,2.786958930224903,0.0,0.01723182647374998,0.0,300,0.030507802963256836,1.9301116776186158,1.3478157656147083,86100,6.79435851680326,0.0
287,2.004350423812866,2.218431972297302,1.040451395392727,3.499119376570481,0.6064568081459463,0.0,0.14760728586488764,0.1,0.003020763397216797,0.05987977981567383,0.049717624,0.8699693,2.730106234432143,0.0,0.029518471315170967,0.0,300,0.03236699104309082,0.4116149735627016,0.3022742250773997,86400,13.15328959025201,0.0
288,2.0097928047180176,1.6845834038696428,1.5241792192898798,4.099817992666559,0.12842513225407803,0.0,0.14993689438683597,0.1,0.0029420852661132812,0.05664420127868652,0.049588773,1.0178032,2.625553951375893,0.0,0.02236479357233722,0.0,300,0.0322113037109375,0.455048130330046,0.4003484751659517,86700,1.431993558232094,0.0
289,2.019646406173706,2.3166340499771705,0.7526157196688035,3.3413685076961217,1.2347236606968701,0.0,0.14629610466375775,0.1,0.0030345916748046875,0.05789470672607422,0.04963701,1.0358859,2.594661961236021,0.0,0.030788767354800052,0.0,300,0.03275322914123535,0.1379988785440853,0.136836427520065,87000,1.710071177446564,0.0
290,2.0170094966888428,2.4369982371376566,1.1470570197470082,3.82947242277001,0.8938270671149096,0.0,0.1420835638079526,0.1,0.002902507781982422,0.07087445259094238,0.04973039,1.4152333,2.5788955888261844,0.0,0.03241904128642871,0.0,300,0.030983686447143555,0.2320851009561324,0.23509322852318576,87300,1.9080666947539624,0.0
291,2.075451612472534,5.716241380702154,3.626801833847996,11.852583792616091,2.7289378906045436,0.0,0.14866869004974054,0.1,0.002995014190673828,0.05671381950378418,0.049668614,1.5937871,2.8926301680137816,0.0,0.07608664293076911,0.0,300,0.030896902084350586,0.6493509314625644,0.5896355960570782,87600,4.477901757251131,0.0
292,2.036465644836426,2.7148990750264628,1.363378198154956,4.437439993848475,1.3543032699123347,0.0,0.15121700809545327,0.1,0.003224611282348633,0.061133384704589844,0.05045699,1.1452987,2.8748570587150497,0.0,0.036036990012461675,0.0,300,0.03368115425109863,0.2800142957466524,0.2666022330919685,87900,1.7454670866983772,0.0
293,2.074920892715454,1.8788721192229274,1.7514512513823868,4.224968224057425,0.14395608507708063,0.0,0.15320478943621102,0.1,0.002907276153564453,0.07221508026123047,0.049599346,0.88676167,2.7752585647658377,0.0,0.025033546037901973,0.0,300,0.030138015747070312,0.5864239424549637,0.6207603743612908,88200,0.9308331521184106,0.0
294,2.1553235054016113,3.0604479119711865,1.498801292253817,4.589103124722345,1.0384195907569043,0.0,0.14815486051792764,0.1,0.003108978271484375,0.057572126388549805,0.050076146,0.781622,2.8037774994863724,0.0,0.040591987164664035,0.0,300,0.05073094367980957,0.21536290809593864,0.2142485962075961,88500,1.5855378907171012,0.0
295,2.097590923309326,3.403885434170097,2.0730071284978417,5.469012059107558,1.0144141739112025,0.0,0.1593394115247533,0.1,0.003023386001586914,0.0570216178894043,0.049919285,0.82364166,2.8637882929547454,0.0,0.04460102216739937,0.0,300,0.031035423278808594,0.30748451274313715,0.2980631123726597,88800,1.2812184316366884,0.0
296,2.060818672180176,3.002046787522441,0.8962284584180651,4.118544873117557,1.6578126523881946,0.0,0.14592283993918548,0.1,0.003052234649658203,0.07386136054992676,0.04906447,1.0035617,2.877614142411515,0.0,0.03951408063677252,0.0,300,0.03373575210571289,0.1098410495587986,0.11208856769802118,89100,1.0741290243285768,0.0
297,2.048900604248047,1.6775259155305997,0.8380057754502424,2.804920968960335,0.4412088668086332,0.0,0.14842002877371774,0.1,0.0032198429107666016,0.056456565856933594,0.050088998,0.6332391,2.7576053197234236,0.0,0.022293565867329165,0.0,300,0.044986724853515625,0.941739556199437,0.7566545121724576,89400,0.9505795883893368,0.0
298,2.0649075508117676,2.623319711027155,0.4281864091955405,3.2703876693926834,2.086894852408108,0.0,0.1478308915004914,0.1,0.0031175613403320312,0.05641961097717285,0.049849708,1.038853,2.744176758853797,0.0,0.034856603588845715,0.0,300,0.03160834312438965,0.07258159201781424,0.058859714617997126,89700,11.914284493430168,0.0
299,2.1258604526519775,1.1409874644760452,0.7499721410778175,2.0674051128783817,0.31964309566367954,0.0,0.14347641089905563,0.1,0.003129243850708008,0.05722784996032715,0.051506225,0.56789416,2.5838578294160217,0.0,0.015170784668346812,0.0,300,0.03094172477722168,1.9960492973353468,1.3438150097657762,90000,2.630268919168803,0.0
300,2.1299726963043213,3.032976384876714,1.1074425546729305,3.8626776777366554,1.1569092057201626,0.0,0.1529973731196545,0.1,0.002936840057373047,0.0628213882446289,0.050371706,0.5729471,2.6287696849620907,0.0,0.04031175817182886,0.0,300,0.04579472541809082,0.1970784970395076,0.2247659117982199,90300,0.5359982476706594,0.0
301,2.1248981952667236,1.4790165085600373,0.978232721861442,3.020841168131925,0.36317309173750423,0.0,0.15059158162995942,0.1,0.0038614273071289062,0.07223892211914062,0.0499378,0.8686546,2.5137943673218857,0.0,0.01969528629008286,0.0,300,0.03461432456970215,0.4553934861372788,0.41718852473746926,90600,0.5397480553972749,0.0
302,2.0005600452423096,3.1249322857010142,1.4955389604127478,5.6869860628071125,2.0326634810874795,0.0,0.15449086204023635,0.1,0.0035452842712402344,0.05802583694458008,0.049598463,1.0839976,2.5749081591597984,0.0,0.04142311869406934,0.0,300,0.05290842056274414,0.3166158738489329,0.3111035694969712,90900,1.0826975338768123,0.0
303,2.0587875843048096,1.7326226238422249,0.9811146481817759,3.280748275584093,0.7770036495063418,0.0,0.14624418235839376,0.1,0.0032389163970947266,0.05780839920043945,0.049561217,0.9338844,2.490679605628041,0.0,0.022920877849537283,0.0,300,0.049167633056640625,0.30153568612969006,0.30777922393590207,91200,1.1443536526188516,0.0
304,2.0341711044311523,1.3088510302429124,1.1935098945958107,3.32115880379978,0.3223469048194196,0.0,0.14941711033074487,0.1,0.0031142234802246094,0.05880260467529297,0.050208583,0.9807303,2.372496748089528,0.0,0.017442624115159223,0.0,300,0.03144669532775879,0.6703918163670968,0.6233917129963523,91500,16.172098148147963,0.0
305,2.045060396194458,1.9961691248853541,1.5767909381621006,4.50665513913116,0.20643343796067942,0.0,0.15708165563830087,0.1,0.0030732154846191406,0.056963205337524414,0.049595866,1.9911045,2.334863985769111,0.0,0.026615426825584567,0.0,300,0.030981063842773438,0.4078592806926518,0.39444047081156774,91800,1.49755019558959,0.0
306,2.0296294689178467,1.8498504922220316,0.5905967617835338,2.847945411714048,1.321436499179436,0.0,0.14278209531788827,0.1,0.0031304359436035156,0.058225154876708984,0.049997926,0.8270812,2.2863626364144034,0.0,0.02454077065497672,0.0,300,0.03217625617980957,0.16168369694331244,0.16201229044426876,92100,1.5663517117440866,0.0
307,2.0303754806518555,3.290679039481554,1.1389683410838018,5.067492927174135,2.186735519682815,0.0,0.15545578321959672,0.1,0.0030841827392578125,0.056543827056884766,0.04955872,0.99733377,2.386794276721119,0.0,0.04362337100403232,0.0,300,0.03130292892456055,0.27575304788900407,0.2517186755619865,92400,4.008354486000672,0.0
308,2.058124542236328,3.141890085249929,0.5751577836793869,3.880225751691222,2.2713069976693148,0.0,0.15208400954117693,0.1,0.0030748844146728516,0.06618452072143555,0.049686678,0.9019115,2.462303857574,0.0,0.041768645889690655,0.0,300,0.03151988983154297,0.2044216148243658,0.15708200346485854,92700,5.970233806933208,0.0
309,2.060889720916748,2.7907999773335175,1.5019871693112732,4.497560616692619,0.5888397396344387,0.0,0.14865027509856343,0.1,0.0029449462890625,0.056806325912475586,0.050014783,1.0267608,2.495153469549952,0.0,0.03709407007784869,0.0,300,0.03282570838928223,0.230240086701724,0.1966945464179556,93000,3.985554153099924,0.0
310,2.1038997173309326,2.605106234440807,0.980557435077412,3.960634796620027,1.5165779805783448,0.0,0.15493535754044796,0.1,0.003104686737060547,0.059358835220336914,0.05009845,0.753704,2.5061487460390377,0.0,0.03457330488611313,0.0,300,0.05029296875,0.1635201044690459,0.17230298021282708,93300,2.4994955270446044,0.0
311,2.0929317474365234,4.144008967218975,2.5912585903651952,8.332688744119684,1.7630136864228032,0.0,0.15901919056770045,0.1,0.0034766197204589844,0.07262563705444336,0.0494189,1.5115751,2.669934768157032,0.0,0.05509063015831682,0.0,300,0.044724464416503906,0.48726828093227864,0.4495800993836417,93600,2.339948792848979,0.0
312,2.0798897743225098,3.7779937583690417,1.4956729470304722,5.559785136121068,2.003646116625127,0.0,0.16753746524799684,0.1,0.0029261112213134766,0.07252120971679688,0.049798526,0.63958806,2.780740667178233,0.0,0.04981226173426611,0.0,300,0.0313570499420166,0.17102510148940905,0.1430095508105059,93900,4.7076660326768485,0.0
313,2.1548423767089844,3.028764763773086,1.1966262894520814,5.06664050729645,2.0025146259412154,0.0,0.1586246338499092,0.1,0.0029664039611816406,0.07226419448852539,0.049766216,0.8248428,2.805543076837718,0.0,0.04030848933052178,0.0,300,0.03150534629821777,0.25191879303028836,0.24425793035983565,94200,5.989839791655073,0.0
314,2.094452381134033,2.349897292194395,1.570940339169281,4.367786074106061,0.0988861708087299,0.0,0.14710023281747137,0.1,0.0030546188354492188,0.058673858642578125,0.04981866,0.85030013,2.759978498373386,0.0,0.031264695564846665,0.0,300,0.03099679946899414,0.5627925997136862,0.3800457745113272,94500,3.861781684262128,0.0
315,2.1128530502319336,1.6708119609483691,0.48109220720583945,2.20608371025938,0.9157442041963497,0.0,0.14275169381890063,0.1,0.0045435428619384766,0.05691981315612793,0.049600318,1.0285889,2.6510618446308842,0.0,0.022184613339173917,0.0,300,0.030830860137939453,0.8978475666525244,0.39436365581501787,94800,3.3173431993303653,0.0
316,2.12105655670166,3.042874564647078,1.6121712561092167,4.457317478073217,0.3086242755131638,0.0,0.1461444251337299,0.1,0.003077268600463867,0.06258773803710938,0.050107364,0.68249875,2.690243116632504,0.0,0.04048039982682405,0.0,300,0.034696102142333984,0.29473353352240333,0.31820406593809386,95100,2.5490104995660308,0.0
317,2.1375038623809814,2.2026632584131067,1.0467178316714272,4.004462151051736,1.4727033099946814,0.0,0.1482202177226152,0.1,0.0030345916748046875,0.05756711959838867,0.049650636,1.1457866,2.6414851308105645,0.0,0.029222127490629028,0.0,300,0.03077840805053711,0.2797707964710333,0.2804451334743822,95400,2.4994138578396528,0.0
318,2.092416524887085,2.907245904410982,1.3275341787921104,4.697229403805326,0.9499723190893129,0.0,0.1565259020602087,0.1,0.0030698776245117188,0.05707502365112305,0.049600635,0.9579769,2.6680612081706063,0.0,0.0387586102844162,0.0,300,0.04763054847717285,0.19043058082982633,0.18327475009402217,95700,2.3006589765842027,0.0
319,2.125600576400757,3.0988933442114783,2.2715891241261335,6.9680730898320915,1.137841319300338,0.0,0.1465844601883548,0.1,0.003195524215698242,0.05726981163024902,0.04974009,1.3508804,2.7111444217746934,0.0,0.04095523185046421,0.0,300,0.032231807708740234,0.5047607723301967,0.48583680745860314,96000,2.5308166497160838,0.0
320,2.0864412784576416,1.943526534297059,1.0398052622519205,3.2108919767167863,0.3966617095552803,0.0,0.15024819775625903,0.1,0.002946615219116211,0.07492256164550781,0.050203875,0.9223883,2.63438263302693,0.0,0.02589901042720074,0.0,300,0.031729698181152344,0.3675774642074527,0.3765397276557773,96300,3.803687950835944,0.0
321,2.1172468662261963,3.5820259691291234,0.8025488354267891,4.532949222817934,2.357282931791574,0.0,0.15483310354088198,0.1,0.0029268264770507812,0.05627584457397461,0.049935225,0.9131326,2.7291469666371495,0.0,0.047700430900288096,0.0,300,0.03112626075744629,0.15283540343292273,0.1411144306968876,96600,3.5182410312609758,0.0
322,2.112175703048706,3.0042474309545018,1.3008361448427286,4.8231852590780155,1.4245290057833042,0.0,0.15414890632735118,0.1,0.0030794143676757812,0.057144880294799805,0.049739838,1.0853034,2.7566570130688848,0.0,0.04003505189636514,0.0,300,0.030932903289794922,0.22258243373852618,0.2157978955476361,96900,6.347950429216766,0.0
323,2.09401535987854,3.084414734589072,2.0804175200850756,6.1701971555189505,0.752545997657844,0.0,0.15205803422184053,0.1,0.0028100013732910156,0.05576443672180176,0.0499136,0.94296396,2.7894327852209035,0.0,0.04081508339569119,0.0,300,0.04849576950073242,0.3595036897812526,0.35282917223263743,97200,4.97012012580325,0.0
324,2.1341805458068848,1.8748539161996816,0.35734759790454673,2.2433649971994423,1.330710508021323,0.0,0.15062555427108776,0.1,0.0030274391174316406,0.0628213882446289,0.049977608,0.735627,2.6979748983187815,0.0,0.02491335057603147,0.0,300,0.048047780990600586,0.437099257445187,0.36836162187682425,97500,4.520921123534392,0.0
325,2.047517776489258,2.3924922815161005,0.9419543148758547,3.2264761580812586,0.9022888272919161,0.0,0.1565349089003754,0.1,0.0032341480255126953,0.05878853797912598,0.05051137,0.6370566,2.6674266366385133,0.0,0.03183624960703433,0.0,300,0.035886526107788086,0.1808306886320924,0.15966861029384685,97800,4.448494480948923,0.0
326,2.0249528884887695,1.9141170214621637,0.7438369119475152,3.180041002158218,1.2918285475831597,0.0,0.15513694058522637,0.1,0.0030448436737060547,0.05851268768310547,0.04973494,1.0443286,2.5920956751208784,0.0,0.0253395779099869,0.0,300,0.03181791305541992,0.4456371399341872,0.307004183746165,98100,4.25503655179299,0.0
327,2.0409295558929443,2.8865124981192016,1.9023385221249605,4.846962351904227,0.7002300744794865,0.0,0.15043998310800988,0.1,0.003019571304321289,0.05710792541503906,0.049970444,0.76035243,2.621537357420711,0.0,0.03827112788753217,0.0,300,0.03346824645996094,0.3725457557907288,0.38320974957659654,98400,4.417014928007413,0.0
328,2.0059688091278076,2.0649654727037667,0.9633235088263954,3.5605868971512002,0.9022899983110215,0.0,0.147760640247619,0.1,0.002997159957885742,0.05996894836425781,0.0492015,2.2435644,2.5658801689490165,0.0,0.02748998365625727,0.0,300,0.031216144561767578,0.2579499872783922,0.255689186253027,98700,3.8299573370755042,0.0
329,2.037050724029541,2.900142685125274,1.1292315062595981,4.251879171457652,1.1410814747226743,0.0,0.14411451432567796,0.1,0.0028858184814453125,0.057204246520996094,0.04998963,1.4383603,2.5993064205666423,0.0,0.03861959360863341,0.0,300,0.031546592712402344,0.20237874687135946,0.19141225828877265,99000,4.6720497539635,0.0
330,2.071990489959717,3.8358134877051464,1.4884925952916845,5.727227104583843,1.5539494123464932,0.0,0.15999914551465766,0.1,0.003091573715209961,0.05675244331359863,0.050721895,0.8641753,2.722957127280493,0.0,0.05092662053216315,0.0,300,0.03131818771362305,0.2906771244830326,0.24074658694636863,99300,7.487960095101756,0.0
331,2.0366806983947754,2.673154267917844,1.0880686114694906,4.456524205656962,1.6087910719576872,0.0,0.14212299146621069,0.1,0.002920866012573242,0.062394142150878906,0.0501027,2.2971394,2.7179768413442282,0.0,0.035589353910589275,0.0,300,0.0413670539855957,0.16230566963357043,0.1695020782415968,99600,3.842806988274426,0.0
332,2.0299618244171143,3.811567760213788,1.743586134763266,5.912933829247395,1.215469266682293,0.0,0.1457659294350464,0.1,0.0029990673065185547,0.06023359298706055,0.049578167,0.853307,2.8273359332311845,0.0,0.050745228378695294,0.0,300,0.03141069412231445,0.23547095135600607,0.20602310034609558,99900,4.3761490287615095,0.0
333,2.0672805309295654,2.3730822886875256,1.465602399827873,3.9801110805609996,0.5093822695515126,0.0,0.142947819837323,0.1,0.0029740333557128906,0.0566558837890625,0.049641278,0.7517301,2.7819105687768184,0.0,0.03123534866069993,0.0,300,0.034863948822021484,0.3736516463444613,0.39738902196429804,100200,4.271205627167943,0.0
334,2.084876298904419,3.049209369157592,0.6134915833397631,4.054628588552766,2.4542920732180105,0.0,0.16319829168819044,0.1,0.0029184818267822266,0.07667899131774902,0.04969315,0.9519807,2.808640448814896,0.0,0.04062156334535429,0.0,300,0.031749725341796875,0.09339782858003765,0.09140357977524698,100500,3.6057132794268494,0.0
335,2.081526756286621,2.384275876106037,0.9542819854178755,3.698655588225902,1.0325196492309754,0.0,0.14351048405648908,0.1,0.003660917282104492,0.07269716262817383,0.049898025,0.6390165,2.7662039915440104,0.0,0.03169302794050906,0.0,300,0.033295392990112305,0.3319952107946918,0.2775651170960321,100800,6.005300770222761,0.0
336,2.132279872894287,4.6280887168285405,1.0331853388373053,6.276168532216651,3.4772148641114944,0.0,0.14869985674692296,0.1,0.002961397171020508,0.057502031326293945,0.04994101,0.9735188,2.9523924640724637,0.0,0.06165690197965539,0.0,300,0.05417919158935547,0.21381453430221845,0.20110745968566493,101100,4.858603925340481,0.0
337,2.1549389362335205,2.423184044262429,1.1121006222183387,4.244068012663357,1.5032013780500852,0.0,0.1432914159345183,0.1,0.003029346466064453,0.06380462646484375,0.050011884,0.69783634,2.8994716220914603,0.0,0.03187693229621292,0.0,300,0.030992746353149414,0.33918002249992013,0.3441971227244652,101400,3.8301045896504724,0.0
338,2.1083343029022217,4.2712012275395015,0.9078106104069524,5.645619194323629,3.312861717383217,0.0,0.14862673961788708,0.1,0.005081892013549805,0.059005022048950195,0.049825896,1.1011572,3.0366445826362645,0.0,0.05668420246328114,0.0,300,0.031847476959228516,0.12961131433347525,0.11205979593768076,101700,2.946373976259473,0.0
339,2.089618444442749,2.453647229935109,1.8328917639643871,5.0198805313743655,0.43116324992261623,0.0,0.15007113089109905,0.1,0.0029630661010742188,0.05709242820739746,0.049350828,0.6537628,2.9783448473661487,0.0,0.03266089271614151,0.0,300,0.05366706848144531,0.48160368214759325,0.47520217240921336,102000,3.271302481844278,0.0
340,2.1671347618103027,2.9560466283883446,1.6220996461122765,5.093821091790186,1.0490019616846915,0.0,0.14016661358191834,0.1,0.002991199493408203,0.05723094940185547,0.04991669,0.7933129,2.9761150254683684,0.0,0.03934031667267861,0.0,300,0.031073570251464844,0.2373697439683495,0.23245159383027217,102300,4.003749420353864,0.0
341,2.1430132389068604,2.3587236564054153,0.6283135785765108,3.2418406128588693,1.7241676054623791,0.0,0.148995521512307,0.1,0.0031137466430664062,0.07367968559265137,0.049869582,0.6694383,2.914375888562073,0.0,0.03142717813082053,0.0,300,0.03139638900756836,0.23845277490731823,0.18078261123214262,102600,4.2798964346212225,0.0
342,2.1884782314300537,1.7176539838374292,0.5355954911310243,2.3261838234796866,0.8731326938184796,0.0,0.15266405568241107,0.1,0.0029778480529785156,0.056199073791503906,0.049807265,0.82033825,2.794703698089609,0.0,0.0228983091248822,0.0,300,0.031389474868774414,0.6777372797794253,0.39087889804236287,102900,2.6477201369377896,0.0
343,1.977632761001587,2.2001966612910824,1.44296263983658,3.8688995230801,0.3021658952127468,0.0,0.14844607881596164,0.1,0.0030744075775146484,0.05959653854370117,0.049706273,0.7455778,2.7352529944097563,0.0,0.029082213783642723,0.0,300,0.031290292739868164,0.344600561191363,0.3242430495610554,103200,3.475154037164684,0.0
344,2.0176403522491455,3.577193806998187,1.5680240338646643,5.728971889861631,2.0595376299834065,0.0,0.14028454238426175,0.1,0.00897836685180664,0.07501220703125,0.04996938,1.3083669,2.8194470756685996,0.0,0.04755336101142772,0.0,300,0.031929731369018555,0.2882426540705457,0.2946718802574043,103500,3.224997301948356,0.0
345,2.1220736503601074,2.2911209602600344,1.4386135850481891,3.811782147243793,0.3935077890927391,0.0,0.14413862625104515,0.1,0.007539987564086914,0.059891700744628906,0.050684497,0.77695817,2.766614464127743,0.0,0.030433761954721618,0.0,300,0.03378558158874512,0.2763644290852344,0.27133793395658456,103800,3.6027788206275915,0.0
346,2.0602424144744873,2.806350376035702,1.2250974079858061,4.709861334224058,1.3905462352784193,0.0,0.1477609632956533,0.1,0.0031502246856689453,0.07413315773010254,0.050131805,1.5996866,2.770588055318539,0.0,0.0370601890518065,0.0,300,0.03107309341430664,0.19792972728744138,0.1884009440148452,104100,3.004499889098238,0.0
347,2.088468074798584,2.9545073538937086,1.3224469898712403,4.566456604333315,0.8839915595441384,0.0,0.14772882270893475,0.1,0.004521608352661133,0.07904911041259766,0.049930524,0.5809418,2.788979985176056,0.0,0.0392851739603046,0.0,300,0.031578779220581055,0.21222682296572526,0.19659923483249184,104400,2.975419836324612,0.0
348,2.119666576385498,2.4711073879210765,1.0780872401712518,3.633014000663739,0.8611134347280411,0.0,0.13998867094240883,0.1,0.0030879974365234375,0.05687665939331055,0.04943574,0.8501757,2.757192725450558,0.0,0.032820862513288196,0.0,300,0.031706809997558594,0.1809530039102578,0.18212819451844112,104700,2.1633687560632633,0.0
349,2.0617949962615967,2.390187814686445,1.1670395363475679,4.200913579040034,1.0291992587817766,0.0,0.1574713501820647,0.1,0.0029573440551757812,0.05679130554199219,0.05025686,0.7968314,2.720492234374147,0.0,0.031557772877414375,0.0,300,0.03146505355834961,0.2525068934020797,0.2506474069427188,105000,4.445381637956035,0.0
350,2.060642957687378,2.343141635732679,0.6175539308617561,3.245690561816064,1.5040081383853274,0.0,0.1444999508138127,0.1,0.002946615219116211,0.07343506813049316,0.049929276,1.0934656,2.68275717451,0.0,0.030867696547221046,0.0,300,0.030810117721557617,0.1840651435142352,0.1666518132021015,105300,4.287915161321107,0.0
351,2.090467691421509,2.4897537525229416,1.1469718213334,4.272429618031029,1.120124179696948,0.0,0.1401374780094567,0.1,0.0029668807983398438,0.057633161544799805,0.049650185,2.4561224,2.663456832311294,0.0,0.033187311485405865,0.0,300,0.032140254974365234,0.26803266775966417,0.26033371357153423,105600,7.663774432264759,0.0
352,2.058363676071167,3.1418538858842573,0.8630471393920703,4.060081452277682,1.7533155166083483,0.0,0.1345568970640649,0.1,0.002963542938232422,0.07885098457336426,0.04982904,1.3852516,2.7112965376685905,0.0,0.041725976736047096,0.0,300,0.03265047073364258,0.1672404384322123,0.15636610889959532,105900,3.386211590239619,0.0
353,2.0941197872161865,1.8411902275482381,1.0023949827904604,3.521772927357128,1.0393786272551135,0.0,0.14841941297040886,0.1,0.002948284149169922,0.07992410659790039,0.049571853,0.879509,2.624285906656555,0.0,0.024486054490585246,0.0,300,0.032974958419799805,0.31919399246633773,0.31922175089087135,106200,3.800429712911544,0.0
354,2.1262171268463135,3.280402793303145,0.861959385344548,4.393352815077909,2.1879979864889307,0.0,0.150255726980543,0.1,0.0030765533447265625,0.06904244422912598,0.049957618,1.1433752,2.6898975953212143,0.0,0.04370090127630066,0.0,300,0.030864238739013672,0.15701100548708682,0.149322292232844,106500,3.7424809974058264,0.0
355,2.100674629211426,2.7268953429934006,1.2492901994734622,4.090666678125702,1.2851462909148332,0.0,0.14211193226452204,0.1,0.003099679946899414,0.05740547180175781,0.050107893,0.8834143,2.693597370088433,0.0,0.03616665477984957,0.0,300,0.04544329643249512,0.22625802604997203,0.22319379865148636,106800,5.9258311070801275,0.0
356,2.1149377822875977,3.6125143281349965,1.6228633554879652,4.999371924442086,0.8980580419440052,0.0,0.14405548479603383,0.1,0.0031380653381347656,0.05916881561279297,0.04998422,0.734203,2.7854890658930893,0.0,0.04793405068297535,0.0,300,0.030620336532592773,0.24526247300920984,0.21816867169071494,107100,5.136838121447766,0.0
357,2.166250705718994,3.163769609975327,0.31795099127790977,3.4755097554980536,2.6582935999307673,0.0,0.15251883873615457,0.1,0.0035789012908935547,0.0719749927520752,0.050268255,0.8597903,2.823317120301313,0.0,0.04197249234880814,0.0,300,0.0352475643157959,0.03525229547869704,0.02584065210333942,107400,3.2605780315318564,0.0
358,2.115338087081909,2.6946881048218105,1.4299823161109706,4.788778895406837,0.7679421423378934,0.0,0.14026408287273937,0.1,0.0029485225677490234,0.05755162239074707,0.04955946,1.0210154,2.810454218753363,0.0,0.035604212023196476,0.0,300,0.0439755916595459,0.2840139792244915,0.2878814593792603,107700,2.810604050286401,0.0
359,2.0700528621673584,4.223784330999979,0.5262451951726207,4.6468799485113115,3.32487149735415,0.0,0.15261333554536458,0.1,0.0032563209533691406,0.07144975662231445,0.05009079,0.9812651,2.9517872299780246,0.0,0.05601038224690577,0.0,300,0.029843568801879883,0.0910338802958309,0.06763310913063761,108000,3.8664537364566933,0.0
360,2.077815532684326,2.688922103102165,1.7993514532102617,4.962859145609988,0.38801170207833036,0.0,0.14066902886949353,0.1,0.0031576156616210938,0.05740022659301758,0.04989378,0.8066384,2.9255007172904386,0.0,0.03545610477142489,0.0,300,0.030823230743408203,0.32621423177922765,0.33289484351916426,108300,3.134707446301339,0.0
361,2.110126495361328,2.363761373761614,1.5698439560820963,4.664767268127372,0.24965882796550773,0.0,0.14069932739504365,0.1,0.0036809444427490234,0.07603240013122559,0.0500984,0.8019758,2.869326782937556,0.0,0.031509757012821875,0.0,300,0.031404733657836914,0.47458121577201445,0.38472976773020734,108600,1.8142987205394592,0.0
362,2.0822885036468506,3.1809859064250046,1.1202028098144574,4.963235647754438,1.907230818819045,0.0,0.14960407420179886,0.1,0.0032012462615966797,0.05771517753601074,0.0503344,1.7117658,2.9004926952863013,0.0,0.04233124157751916,0.0,300,0.03186678886413574,0.21876748017311187,0.22651424572431367,108900,4.8602853284630765,0.0
363,2.1126344203948975,2.4801834466470467,1.6584575986145822,4.068079006385145,0.10852959894251522,0.0,0.1447745540407649,0.1,0.003036975860595703,0.058658599853515625,0.050067894,0.7012508,2.8584617704223763,0.0,0.03306723879131417,0.0,300,0.03274083137512207,0.3482209784239049,0.3282685197616362,109200,5.191809056811984,0.0
