iteration,time_sampling,stoc_pol_mean,stoc_pol_std,stoc_pol_max,stoc_pol_min,rollout_success,alpha,delta,time_vpg,time_npg,kl_dist,surr_improvement,running_score,rwd_sparse,rwd_dense,success_percentage,num_samples,time_VF,VF_error_before,VF_error_after,env_samples,eval_score,eval_success
0,1.143165111541748,0.03080217527177784,0.01711607710320856,0.057851550560875396,0.014671686977371602,0.0,0.14358716515818382,0.1,0.014885187149047852,0.04930400848388672,0.05445284,0.93885267,0.03080217527177784,0.0,0.000615206009746912,0.0,200,0.3766319751739502,31.86245872651228,4.215084586760305,200,0.023231799519148638,0.0
1,1.089773178100586,0.028523344340439464,0.006977622592500405,0.037825893595186635,0.021563579399536847,0.0,0.1443390771808423,0.1,0.050385475158691406,0.04867386817932129,0.047992896,0.67832685,0.030574292178644005,0.0,0.0005636114981632319,0.0,200,0.17759251594543457,5.350453094566142,1.872792575641087,400,0.02198870443527735,0.0
2,1.1604127883911133,0.01529486447677281,0.00941068187237535,0.030794282125896143,0.00755584268705783,0.0,0.161710384753629,0.1,0.002298116683959961,0.03405141830444336,0.0593651,0.9132725,0.029046349408456885,0.0,0.0003022648630884005,0.0,200,0.1524348258972168,9.26318877862872,11.289591579335427,600,0.018413550658900834,0.0
3,1.2355356216430664,0.06732877877637472,0.050392551081264426,0.1521932240394379,0.025745168966702803,0.0,0.1491348187185117,0.1,0.09831666946411133,0.055945634841918945,0.052663,0.92358667,0.03287459234524867,0.0,0.001340890866884292,0.0,200,0.31435155868530273,0.533321205772567,0.5501909867190983,800,0.023860960657793532,0.0
4,1.2070319652557373,0.06011521020497376,0.04143111473415112,0.12502056979114573,0.018309772335466136,0.0,0.14158907489441122,0.1,0.0315546989440918,0.04415559768676758,0.048526186,1.0702821,0.03559865413122118,0.0,0.0012014725724376263,0.0,200,0.2523353099822998,0.5208917273815836,0.5052955366302408,1000,0.025659437718363858,0.0
5,1.0619163513183594,0.04305102050550143,0.028612691217745692,0.09259726964044179,0.02572795111372471,0.0,0.13768182498591228,0.1,0.002183198928833008,0.0337679386138916,0.050511986,1.6602956,0.03634389076864921,0.0,0.0008538576192263414,0.0,200,0.15277695655822754,0.521899341565375,0.44045452578725997,1200,0.04496721036188262,0.0
6,1.2195613384246826,0.025217512431383204,0.016507504586599293,0.05004431905958544,0.007114744694096051,0.0,0.15049801722779527,0.1,0.031522274017333984,0.04346609115600586,0.05351989,1.0824995,0.03523125293492261,0.0,0.0005017042200465657,0.0,200,0.07821154594421387,0.8768209485949802,0.5346233775611077,1400,0.055228165628560914,0.0
7,1.2049436569213867,0.02115824599374859,0.005436809295197839,0.02878937991564144,0.015233821622464363,0.0,0.13989736176433856,0.1,0.0024194717407226562,0.05008363723754883,0.050606776,0.8951792,0.033823952240805207,0.0,0.0004123142350227234,0.0,200,0.05855917930603027,0.421703974133311,0.3882385164502484,1600,0.0630140506587455,0.0
8,1.4523978233337402,0.10340166804419046,0.08360961457168858,0.20204413573934552,0.009452663449415722,0.0,0.1425668176384447,0.1,0.0028989315032958984,0.05463552474975586,0.05216649,1.5408407,0.04078172382114373,0.0,0.0020667087362189617,0.0,200,0.04264712333679199,0.8623529218175574,0.6968746190745311,1800,0.0695053486741455,0.0
9,1.3028714656829834,0.04896063941091166,0.034541411164817196,0.10338918242805106,0.00747419829658575,0.0,0.15421225057329505,0.1,0.12474775314331055,0.28237295150756836,0.05244366,1.0709704,0.041599615380120525,0.0,0.0009664717547122619,0.0,200,0.04012179374694824,0.5458443891959843,0.5745897099114748,2000,0.060671285716952204,0.0
10,1.1596009731292725,0.06975751516443462,0.05183746980047125,0.15909604221637624,0.03473814529781535,0.0,0.13635909893463585,0.1,0.14932680130004883,0.12410211563110352,0.04828344,2.4691446,0.04441540535855194,0.0,0.0013935973551212964,0.0,200,0.16019010543823242,0.5006494806160162,0.5240650534517496,2200,0.054725020784455174,0.0
11,1.1649057865142822,0.06774728908007896,0.039642809783316135,0.11869943892718883,0.0215830388060593,0.0,0.14295874099128766,0.1,0.002415895462036133,0.041153907775878906,0.050119057,1.1757501,0.04674859373070465,0.0,0.0013414091214040517,0.0,200,0.059317588806152344,0.41671788256633935,0.38233518379457804,2400,0.06168845794544275,0.0
12,1.1851475238800049,0.137941123671604,0.09176647586842689,0.23061358007284682,0.02090334817117348,0.0,0.13988278740338267,0.1,0.13987374305725098,0.14385700225830078,0.05088864,1.060179,0.055867846724794584,0.0,0.0027413460421940295,0.0,200,0.08041524887084961,0.5362992414311544,0.46387557505524774,2600,0.08672385156928812,0.0
13,1.2285282611846924,0.04612797263467773,0.03055419637036032,0.09738812107579002,0.016852234657763695,0.0,0.14194420553551337,0.1,0.002649068832397461,0.051110029220581055,0.050731637,1.40545,0.054893859315782896,0.0,0.0009212801271948863,0.0,200,0.03126049041748047,1.5387315171191662,1.2904241693612801,2800,0.07864563408248536,0.0
14,1.2215301990509033,0.13854400984344484,0.10219404183841745,0.2892427062972356,0.04365984003022621,0.0,0.14130475719768068,0.1,0.13468408584594727,0.16545724868774414,0.050599836,1.3403609,0.0632588743685491,0.0,0.0027435237246386185,0.0,200,0.3238954544067383,0.5147315396462879,0.5061008759903711,3000,0.11246704990444427,0.0
15,1.168118953704834,0.07913974186748773,0.03061644413284095,0.1108850362529719,0.028553815913931697,0.0,0.13794257402526977,0.1,0.1260387897491455,0.032813072204589844,0.049790338,0.9968827,0.06484696111844296,0.0,0.0015686579410093535,0.0,200,0.2496192455291748,0.3752499533039097,0.33985789322854754,3200,0.35401446006729137,0.0
16,1.2816429138183594,0.08262472520312833,0.047265447567825025,0.16192199353546077,0.045317497608832163,0.0,0.1371768979195382,0.1,0.16024279594421387,0.21298480033874512,0.04878865,2.9095237,0.06662473752691149,0.0,0.0016114334384653404,0.0,200,0.3170628547668457,0.35672549021980465,0.3577777732766763,3400,0.3789215151460556,0.0
17,1.7460410594940186,0.13540051650772272,0.08002931852488288,0.25114258240445153,0.025109127821973665,0.0,0.14044794034846247,0.1,0.002673625946044922,0.04837465286254883,0.051228113,1.2362074,0.07350231542499261,0.0,0.002686481644888223,0.0,200,0.3493528366088867,0.4490640795913925,0.38431023100600514,3600,0.40137117485900636,0.0
18,1.214266300201416,0.13581094438735564,0.11239037976128399,0.2623522566376671,0.01951416359292797,0.0,0.13516956956571388,0.1,0.13805365562438965,0.3187222480773926,0.050193433,1.1542292,0.07973317832122892,0.0,0.002710767994120074,0.0,200,0.07792353630065918,0.5112346639963012,0.49122909888816885,3800,0.3605164965013161,0.0
19,1.0998327732086182,0.19347843643290252,0.08003233972087181,0.31503231131712583,0.10300669401993633,0.0,0.13717706408761043,0.1,0.006150960922241211,0.03864789009094238,0.049157932,1.8654163,0.09110770413239629,0.0,0.0038111829351402376,0.0,200,0.030850887298583984,0.28477558528757074,0.2381091670478986,4000,0.38240658116429155,0.0
20,1.3029041290283203,0.09597392398755802,0.04672250194169482,0.15071466652878865,0.027370182378169353,0.0,0.13977409019840922,0.1,0.003372669219970703,0.048126935958862305,0.049055766,1.3279152,0.09159432611791246,0.0,0.0019173554496468956,0.0,200,0.08498096466064453,1.457669415779999,0.5591601178438764,4200,0.3585784175015679,0.0
21,1.3159294128417969,0.10177929761866225,0.05651784697051581,0.17343901889037552,0.016755570089087454,0.0,0.13662408186221076,0.1,0.002396821975708008,0.04655861854553223,0.049582224,0.89852273,0.09261282326798745,0.0,0.002018776495254374,0.0,200,0.1903069019317627,0.5204262109865871,0.34169002299498447,4400,0.43137495903572526,0.0
22,1.3132929801940918,0.1326558643698607,0.12114310014703032,0.33176330648037083,0.01925760930817042,0.0,0.14445246803221207,0.1,0.0023856163024902344,0.04388999938964844,0.04880993,1.1403306,0.09661712737817478,0.0,0.002600866489375039,0.0,200,0.259310245513916,0.6399527731332063,0.6847546325495726,4600,0.42222518874479437,0.0
23,1.1544508934020996,0.20508640825505242,0.08221656626726485,0.2870729233227077,0.07373909426357043,0.0,0.13694422859254973,0.1,0.002103567123413086,0.03885936737060547,0.04966341,1.1044242,0.10746405546586255,0.0,0.0040911848505485095,0.0,200,0.1287388801574707,0.616926649985941,0.40806950937486886,4800,0.43896076010020013,0.0
24,2.743450880050659,0.09182632841234847,0.06692678563687583,0.1889491451232394,0.016492643129938315,0.0,0.14480995887289394,0.1,0.031681060791015625,0.0494387149810791,0.04934399,1.1564481,0.10590028276051114,0.0,0.0018083693016581717,0.0,200,0.05514073371887207,0.4976564564107898,0.6487999589968685,5000,0.4007002728730836,0.0
25,1.4109268188476562,0.09400699335176532,0.03482627983569344,0.12598922143967983,0.03836801275396848,0.0,0.14311460497260184,0.1,0.002741575241088867,0.049906015396118164,0.050008472,1.2925525,0.10471095381963656,0.0,0.001846016018949784,0.0,200,0.04183650016784668,0.5599612519904812,0.4743048384280301,5200,0.43219834945153107,0.0
26,1.2726035118103027,0.07604298530813214,0.06400312508477171,0.18462308022824828,0.019642294134533802,0.0,0.14694144921032815,0.1,0.09889650344848633,0.05035400390625,0.049205944,0.93554807,0.10184415696848612,0.0,0.0015164125740918639,0.0,200,0.04070115089416504,0.869518096410798,0.5519810163185892,5400,0.45073889800467243,0.0
27,1.1550688743591309,0.11823349629792092,0.08649395800990518,0.2641518876785369,0.04499616259890235,0.0,0.12596862612313836,0.1,0.1474778652191162,0.5799121856689453,0.05032984,2.7738276,0.1034830909014296,0.0,0.0023628656228582706,0.0,200,0.19224190711975098,0.44014209132154053,0.497516290145126,5600,0.34413104743737505,0.0
28,1.2886474132537842,0.11482794012820138,0.038229204499301214,0.16709148944335614,0.07369491107655925,0.0,0.13395230886888757,0.1,0.0027916431427001953,0.0482783317565918,0.049028788,1.1735133,0.10461757582410677,0.0,0.0022825496001197404,0.0,200,0.041750431060791016,0.2834831147141578,0.2851180070089481,5800,0.22985621675234033,0.0
29,1.213423252105713,0.17946130071937844,0.13733281228851513,0.3753527442514168,0.020786007888039453,0.0,0.1411429525743386,0.1,0.0026726722717285156,0.050095558166503906,0.05003045,1.0824828,0.11210194831363395,0.0,0.0035308712122485587,0.0,200,0.033751487731933594,0.6218720261276616,0.5233981299777076,6000,0.314414669716025,0.0
30,1.2292983531951904,0.16676900873051048,0.15671398349753352,0.4347702553782563,0.03692900034147474,0.0,0.1333760898030268,0.1,0.05204653739929199,0.04952836036682129,0.04906954,1.7897569,0.1175686543553216,0.0,0.0033351291101909246,0.0,200,0.2396831512451172,0.5757797032639907,0.531618233437185,6200,0.34632953284542894,0.0
31,1.2427325248718262,0.194775019211007,0.10199392783712186,0.3343771450271926,0.04982933670497533,0.0,0.14094037323795428,0.1,0.1517930030822754,1.238074779510498,0.049654856,0.9044119,0.12528929084089013,0.0,0.003837499089339608,0.0,200,0.21790218353271484,0.3548720645984734,0.31807062661811886,6400,0.4142289313173198,0.0
32,1.280625581741333,0.14220032605927282,0.053722641156577704,0.20532886395777053,0.06648129400171217,0.0,0.13966166445551753,0.1,0.028203248977661133,0.04501676559448242,0.0491568,0.910266,0.1269803943627284,0.0,0.0027877195099852096,0.0,200,0.3803560733795166,0.41661121045514055,0.39004732440880807,6600,0.5047844033598154,0.0
33,1.1115083694458008,0.159613718693693,0.0706750806778932,0.23386589912815137,0.0492356156157406,0.0,0.14831816698295855,0.1,0.15088677406311035,0.4883267879486084,0.05061168,0.8059761,0.13024372679582485,0.0,0.003162222955663373,0.0,200,0.31450653076171875,0.34115872678529857,0.2534278899505421,6800,0.45296343137444933,0.0
34,1.2358710765838623,0.1920897512003198,0.13455626048176444,0.34682400357208454,0.05196741734982502,0.0,0.1326269661775614,0.1,0.14670610427856445,0.6693038940429688,0.049508248,1.0634743,0.13642832923627435,0.0,0.003759133971064856,0.0,200,0.1473698616027832,0.40130259497124715,0.4142856421381013,7000,0.5433666484535408,0.0
35,4.660120010375977,0.16536911592801426,0.10110089623866174,0.2990134395188581,0.04975718994477279,0.0,0.13399779189080405,0.1,0.0020313262939453125,0.044423818588256836,0.05001458,1.2330185,0.13932240790544834,0.0,0.0032553338895751766,0.0,200,0.158308744430542,0.3926375579353357,0.3632602111571571,7200,0.5433080308199257,0.0
36,1.202667236328125,0.0949743682494238,0.03736964232328096,0.12973556926486568,0.03216857184696476,0.0,0.13273308400145586,0.1,0.1473674774169922,0.3576502799987793,0.04988045,1.1133615,0.1348876039398459,0.0,0.0018965007944400465,0.0,200,0.28514742851257324,0.7596605723068585,0.6160539828479255,7400,0.4798153594008896,0.0
37,1.296299934387207,0.099041673738425,0.04250465047399946,0.1647449779424108,0.0508021807373835,0.0,0.13956908102724286,0.1,0.13105988502502441,0.22098708152770996,0.049374115,0.9143191,0.1313030109197038,0.0,0.0019493427582017583,0.0,200,0.09196090698242188,0.5455383898059988,0.2694609533958879,7600,0.4663166810071262,0.0
38,1.3150999546051025,0.18373626654393316,0.10761303491411325,0.3355948714187366,0.04498148436019516,0.0,0.14099449130416508,0.1,0.0021927356719970703,0.04364800453186035,0.04938787,1.1090325,0.13654633648212675,0.0,0.003655702489355914,0.0,200,0.31177520751953125,0.42771504418327616,0.4453770194384059,7800,0.3498467833051158,0.0
39,1.2824571132659912,0.23314768974534783,0.17279191354339885,0.49753413209808617,0.022127206357505105,0.0,0.1456684293136561,0.1,0.16327667236328125,0.27735471725463867,0.049588032,0.92672884,0.14620647180844887,0.0,0.004587743948312065,0.0,200,0.03457784652709961,0.5890727479360937,0.4871130953915411,8000,0.39851184047655025,0.0
40,1.274564266204834,0.2588464052767728,0.1586479541134709,0.4953899313919528,0.056717168750430556,0.0,0.13439488546633685,0.1,0.15556836128234863,0.34395456314086914,0.04957438,1.6530185,0.15747046515528126,0.0,0.005095809050590155,0.0,200,0.24883174896240234,0.47285674440730613,0.34780738191494176,8200,0.5371239629011314,0.0
41,1.1887331008911133,0.22384711251683143,0.07013466277342914,0.3019786213363069,0.12844874294005273,0.0,0.14034683808468199,0.1,0.0020036697387695312,0.03578615188598633,0.050468262,0.9605678,0.16410812989143628,0.0,0.004352285035417124,0.0,200,0.28646159172058105,0.18483021229933674,0.2714158680047661,8400,0.5101722523935132,0.0
42,1.2176570892333984,0.165458307672232,0.11503168695748428,0.35801291247792827,0.06551909216143115,0.0,0.14196596176460283,0.1,0.15500664710998535,0.3625142574310303,0.04966129,2.9612653,0.16424314766951587,0.0,0.0032959647796584578,0.0,200,0.16868948936462402,0.8416949209974036,0.5098405787424545,8600,0.5293206103822554,0.0
43,1.2228214740753174,0.16175910618030181,0.04472622932243139,0.20812743170707548,0.10923367150109065,0.0,0.1310436583843999,0.1,0.0026311874389648438,0.05210065841674805,0.049362183,1.0487063,0.16399474352059445,0.0,0.0031685564960836506,0.0,200,0.3663308620452881,0.4165987747900589,0.19147518956466805,8800,0.5706728860413525,0.0
44,1.234316110610962,0.13671177388746641,0.12166435741548638,0.3467884182205697,0.054999535037182606,0.0,0.13957089601732012,0.1,0.1184549331665039,0.04963850975036621,0.04990288,1.5128677,0.16126644655728167,0.0,0.0027004137866644433,0.0,200,0.2118978500366211,0.5549165522708234,0.5489217162596383,9000,0.3943980028486534,0.0
45,1.2039806842803955,0.18746140219154858,0.1862402003222508,0.5004895244413947,0.0444524981406338,0.0,0.13530286160434352,0.1,0.0022301673889160156,0.034558773040771484,0.050287843,1.6912987,0.16388594212070837,0.0,0.0037417970513176062,0.0,200,0.11436223983764648,0.6240469575489139,0.6425418615234446,9200,0.42011878250954987,0.0
46,1.2677907943725586,0.19065592635685003,0.11999705273960812,0.33722326361055,0.021032086197736,0.0,0.13239842921915942,0.1,0.14962339401245117,0.2363877296447754,0.049620394,0.9892384,0.16656294054432252,0.0,0.003800290180120045,0.0,200,0.28436946868896484,0.5267044650184716,0.47126014702062097,9400,0.4124473459811691,0.0
47,1.2822978496551514,0.15287388887818062,0.08312599516878802,0.2835159625624511,0.07054231843270015,0.0,0.12676836723519042,0.1,0.0784919261932373,0.042269229888916016,0.049355697,2.1236432,0.16519403537770833,0.0,0.0030274996899073573,0.0,200,0.18037009239196777,0.32640848449741605,0.2835044426408819,9600,0.35230370194266697,0.0
48,1.3216865062713623,0.24929992459669034,0.12609312982495,0.3961833775373098,0.1010745044309983,0.0,0.1360130658597143,0.1,0.14166951179504395,0.6662731170654297,0.049771085,1.4891392,0.17360462429960655,0.0,0.00496116659312699,0.0,200,0.31154513359069824,0.3877185821163176,0.30513267558619406,9800,0.5949453006486765,0.0
49,1.2821900844573975,0.21508767630508074,0.14243179188087401,0.41874505800096784,0.056713979532930316,0.0,0.13463322651356321,0.1,0.002407073974609375,0.041352272033691406,0.049546696,1.2324816,0.17775292950015398,0.0,0.004263603960080285,0.0,200,0.33515381813049316,0.4069994466955346,0.4029688954998285,10000,0.5765418059552897,0.0
50,1.3588502407073975,0.22403987833237718,0.07170602619206634,0.30937280798074746,0.13042689742139307,0.0,0.13411533432988754,0.1,0.16471123695373535,1.9171311855316162,0.050291978,0.8897577,0.1823816243833763,0.0,0.004408176365912286,0.0,200,0.16115283966064453,0.17879989368320895,0.18998785019105266,10200,0.5831921496685563,0.0
51,1.3389666080474854,0.12020678536065926,0.03646162264687492,0.16233151761889514,0.06404171199133106,0.0,0.14378340036764842,0.1,0.16297602653503418,0.8173832893371582,0.0482336,0.94856966,0.1761641404811046,0.0,0.002397776776612395,0.0,200,0.25923728942871094,1.449521635495328,0.7093693492514185,10400,0.4763128563347581,0.0
52,1.431119441986084,0.18383349200812682,0.07124289976413255,0.26524233946712833,0.0741431119916075,0.0,0.13091720084395686,0.1,0.1597883701324463,0.5962553024291992,0.051129736,0.97913116,0.17693107563380683,0.0,0.0036169311434595423,0.0,200,0.3335120677947998,0.24341805440303782,0.19605258083640056,10600,0.5497216674672138,0.0
53,1.4648277759552002,0.2089085467744311,0.11885685771538039,0.34346428171540605,0.02823216856980432,0.0,0.12878788532229785,0.1,0.15270638465881348,0.49291038513183594,0.049307555,1.1927311,0.18012882274786926,0.0,0.004140444255966826,0.0,200,0.29959559440612793,0.3683548104955089,0.40114073768062036,10800,0.3402404904909318,0.0
54,1.2936599254608154,0.2213883509826416,0.13762549933180662,0.4397579349809811,0.05996158165325697,0.0,0.1337501378541336,0.1,0.14003229141235352,0.05702972412109375,0.050430465,1.2878326,0.1842547755713465,0.0,0.004386444904557944,0.0,200,0.34427428245544434,0.4489592104613701,0.40355061464886005,11000,0.44480151372346927,0.0
55,1.3157472610473633,0.21921788307439305,0.13324378500703438,0.4466753711078766,0.10901490739707756,0.0,0.12793834457618178,0.1,0.15914702415466309,0.10423517227172852,0.049464904,1.6031538,0.18775108632165116,0.0,0.004292339178377503,0.0,200,0.32168030738830566,0.4001993197370684,0.346368014891783,11200,0.3251503028529639,0.0
56,1.337857723236084,0.2583481476200804,0.06795421621580959,0.3569874947914444,0.18784558460570278,0.0,0.13565592068667967,0.1,0.0027761459350585938,0.0875699520111084,0.049650807,1.0598767,0.1948107924514941,0.0,0.005011000861556721,0.0,200,0.3529984951019287,0.21444290307021652,0.15361385746993592,11400,0.29884266588453545,0.0
57,1.3470087051391602,0.21446088997311347,0.15096292957117566,0.40297132398195384,0.009079812097200943,0.0,0.1300628153886679,0.1,0.10229611396789551,0.04451441764831543,0.0499375,0.93360627,0.19677580220365604,0.0,0.004226251264357187,0.0,200,0.2947239875793457,0.37440691893750355,0.4023592752341429,11600,0.48610074013519516,0.0
58,1.3398711681365967,0.08948217456282362,0.03433944274435514,0.14116411718767022,0.04455155483299325,0.0,0.13005311726133947,0.1,0.002369403839111328,0.04131031036376953,0.04940014,1.0813359,0.1860464394395728,0.0,0.0017876940882517569,0.0,200,0.1982738971710205,4.6810533236336855,1.9483656065836938,11800,0.5858339944182351,0.0
59,1.4048032760620117,0.22558410940766807,0.14558268226293214,0.4592413226962724,0.08084551952556439,0.0,0.13298418129968956,0.1,0.15122199058532715,0.050415754318237305,0.049419366,1.4543492,0.19000020643638232,0.0,0.004495419849763408,0.0,200,0.3185741901397705,0.35623367101786685,0.42113952083799844,12000,0.28484837964359777,0.0
60,1.336737871170044,0.15058492274477348,0.08064069263366344,0.27402269838488913,0.04781822530229943,0.0,0.13966904323419582,0.1,0.0024476051330566406,0.04564023017883301,0.05087317,1.028156,0.18605867806722143,0.0,0.0029872469351259917,0.0,200,0.1377124786376953,0.3695077620248807,0.38103774495536485,12200,0.3057196173443107,0.0
61,1.461545705795288,0.37760456246870766,0.0840162202809117,0.48167278118979406,0.25349594462117075,0.0,0.14006236991622634,0.1,0.15713763236999512,0.2425980567932129,0.04929023,0.9284017,0.20521326650737007,0.0,0.007448491562262054,0.0,200,0.32140326499938965,0.5036741666368802,0.4201448714175729,12400,0.4059674661099491,0.0
62,1.3212733268737793,0.23202605357925016,0.09846184889428185,0.374684858934247,0.09637310905208456,0.0,0.13072359184883817,0.1,0.15364956855773926,0.05335283279418945,0.04898885,1.4391476,0.20789454521455808,0.0,0.004630334651840876,0.0,200,0.32560038566589355,0.30197446214159457,0.23448512018163523,12600,0.602093125297234,0.0
63,1.5297210216522217,0.24188044149431526,0.11238848256190341,0.41587129897087804,0.10665154039254679,0.0,0.1390611584065633,0.1,0.17854809761047363,0.3335840702056885,0.049462296,0.87231505,0.21129313484253381,0.0,0.004680943406011997,0.0,200,0.42180967330932617,0.26178129880536305,0.24599510004171368,12800,0.7099467235373159,0.0
64,1.4805595874786377,0.23101922824950522,0.08337230134715858,0.3425466364868947,0.13900687508410633,0.0,0.13048422890411365,0.1,0.17334532737731934,0.7699840068817139,0.049302053,1.1110932,0.21326574418323097,0.0,0.004598031306509229,0.0,200,0.47679781913757324,0.22101171269589404,0.24409104509718993,13000,0.6804370574411674,0.0
65,1.394730567932129,0.3144084279890792,0.16424144167706728,0.4985084221675375,0.055323274206739215,0.0,0.12431735218529541,0.1,0.0026526451110839844,0.04910588264465332,0.049867526,0.96367186,0.2233800125638158,0.0,0.006125308486657554,0.0,200,0.3514564037322998,0.27628345455452524,0.26999052522755557,13200,0.2801640991179416,0.0
66,1.2765452861785889,0.3679632688317283,0.15739903867350372,0.5461331148992572,0.11528950192139634,0.0,0.13744157950436775,0.1,0.11257743835449219,0.045108795166015625,0.049347006,1.0130051,0.23783833819060704,0.0,0.00733985723377484,0.0,200,0.28545069694519043,0.27411433019598963,0.2485493445067587,13400,0.5356948499124431,0.0
67,1.2965450286865234,0.19101284368585852,0.15572499702454123,0.46027420033252825,0.08666881627719472,0.0,0.1366774186836066,0.1,0.1426246166229248,0.179473876953125,0.049324833,1.2207398,0.23315578874013218,0.0,0.003751971404494074,0.0,200,0.2891857624053955,0.7191134857915649,0.6111654619057247,13600,0.38699145701985627,0.0
68,1.4152603149414062,0.2851896391630167,0.03140303254646724,0.3247716083709163,0.25436317904762373,0.0,0.1283660542964877,0.1,0.0027208328247070312,0.049024105072021484,0.051034488,0.6948553,0.23835917378242064,0.0,0.0056252486639398885,0.0,200,0.03628683090209961,0.11375316525042516,0.11937615610029742,13800,0.3061046350250585,0.0
69,1.4040501117706299,0.20555934394622788,0.1502061273966844,0.434261982982172,0.030633953247137125,0.0,0.12668464181570568,0.1,0.002824068069458008,0.04840993881225586,0.04955474,2.3533251,0.23507919079880135,0.0,0.004038272441972094,0.0,200,0.026744604110717773,0.42125077015502194,0.4158120192177351,14000,0.1474218194579307,0.0
70,1.3036489486694336,0.4240440116143753,0.1413720781937014,0.5566184335134473,0.19012739121689057,0.0,0.1270020434232592,0.1,0.0020346641540527344,0.03593325614929199,0.0501369,1.250702,0.25397567288035877,0.0,0.008357403568726359,0.0,200,0.15620684623718262,0.348148761625532,0.27578510497406505,14200,0.11860528622375209,0.0
71,1.3792951107025146,0.29079415155151767,0.11327396809565908,0.3868663605323953,0.10018520066415383,0.0,0.13947228268873835,0.1,0.14043545722961426,0.15342140197753906,0.050086487,0.73907334,0.25765752074747467,0.0,0.005669917864464922,0.0,200,0.11858153343200684,0.21927107541022345,0.2154526649532436,14400,0.11741496999570063,0.0
72,1.4530038833618164,0.4358239515952815,0.19068685584462947,0.7185225392605572,0.23748615711768578,0.0,0.13695561285342472,0.1,0.1445481777191162,0.7199242115020752,0.050448146,1.2403072,0.27547416383225537,0.0,0.00851813805013639,0.0,200,0.14316129684448242,0.2988756648495631,0.2420212956300354,14600,0.14273492593429388,0.0
73,1.485360860824585,0.1996585231738004,0.0560286417935607,0.2519913403833027,0.10533830200817916,0.0,0.13099121259790034,0.1,0.0020775794982910156,0.32042360305786133,0.049480215,0.8757161,0.2678925997664099,0.0,0.003920911013588317,0.0,200,0.13489747047424316,1.1698083241921142,0.860398514231849,14800,0.14602913605103282,0.0
74,1.3971540927886963,0.3196651670340028,0.07951573647398244,0.37722656898550605,0.18355512190791626,0.0,0.12968352074249134,0.1,0.14395785331726074,0.33720993995666504,0.049635172,1.1775688,0.27306985649316917,0.0,0.006295085948412717,0.0,200,0.29095959663391113,0.208688872210285,0.13953615392552843,15000,0.12862621882509134,0.0
75,1.4120025634765625,0.13132022549981764,0.0682479222824027,0.23951789543780325,0.056283088340625606,0.0,0.13385892535497668,0.1,0.002786874771118164,0.043174028396606445,0.049594756,0.83575964,0.25889489339383404,0.0,0.0025839213494392088,0.0,200,0.12886357307434082,2.0406017722098446,0.7272728797776122,15200,0.15834164475255588,0.0
76,1.4157869815826416,0.16694725086723047,0.056456419259927795,0.24665249820220905,0.09581337736199924,0.0,0.13000109703022064,0.1,0.14393019676208496,0.09486198425292969,0.049897585,1.3137941,0.24970012914117368,0.0,0.0033011658093932777,0.0,200,0.04756927490234375,0.18993219683798304,0.20207747968619033,15400,0.17432598661097362,0.0
77,1.2707948684692383,0.17470390711933406,0.166878088580344,0.45555341032582086,0.018041202882471352,0.0,0.12856242530244125,0.1,0.0022809505462646484,0.03978538513183594,0.049926236,1.6822653,0.24220050693898973,0.0,0.003427932505794351,0.0,200,0.042333364486694336,0.5537651980509433,0.596557855024105,15600,0.19018189649101572,0.0
78,1.3577485084533691,0.2541156409237192,0.07049595946690732,0.35825398891575677,0.1639625713536334,0.0,0.13132512106931168,0.1,0.05705618858337402,0.3635108470916748,0.049513463,1.1984383,0.24339202033746268,0.0,0.0049026437230579485,0.0,200,0.17885804176330566,0.4241978769797383,0.396750626317855,15800,0.25860547979751397,0.0
79,1.4422330856323242,0.2245667574952122,0.08384423019872739,0.3264611224313241,0.10679354790873678,0.0,0.13458496050798885,0.1,0.002217531204223633,0.03924894332885742,0.050027836,0.9896292,0.24150949405323766,0.0,0.004364946160302829,0.0,200,0.1709280014038086,0.3762153745617711,0.3038122962661478,16000,0.12892380872245066,0.0
80,1.3942019939422607,0.18430674449424345,0.06380197105734167,0.2859516648449605,0.11961073314280266,0.0,0.1494682516963447,0.1,0.026761293411254883,0.055480241775512695,0.04951694,1.0466229,0.23578921909733824,0.0,0.00363941210486956,0.0,200,0.03195452690124512,0.29790205113970614,0.27477058750134914,16200,0.3683745702729558,0.0
81,1.376732349395752,0.3168049962916777,0.18209576816368261,0.5346750235880713,0.032788856079694575,0.0,0.12968058290233378,0.1,0.019999265670776367,0.05146503448486328,0.0504232,0.86872953,0.2438907968167722,0.0,0.006162308656108943,0.0,200,0.2817957401275635,0.46965748769571997,0.39188017651086504,16400,0.5568028514280431,0.0
82,1.3658339977264404,0.2606330620074211,0.08909060674852007,0.3148297854183372,0.10637649874285565,0.0,0.12626294550960437,0.1,0.0022606849670410156,0.03904867172241211,0.04994103,1.2323527,0.24556502333583707,0.0,0.005161070893747327,0.0,200,0.1666407585144043,0.21718283301808936,0.1978540353646121,16600,0.5090842129288929,0.0
83,1.4001502990722656,0.3015082259448633,0.06656514819765572,0.4008310922345024,0.2250559039336238,0.0,0.13830744328462644,0.1,0.16475987434387207,0.6426029205322266,0.04994297,0.8625504,0.2511593435967397,0.0,0.00567954151927776,0.0,200,0.32366442680358887,0.15342068576451842,0.13945443619292955,16800,0.5981375795027618,0.0
84,1.322878360748291,0.4193139197186777,0.15602568726366003,0.5772850127240869,0.2372065962150653,0.0,0.1304108664791011,0.1,0.1483619213104248,0.24670982360839844,0.050141435,1.1459155,0.2679748012089335,0.0,0.008182130826526874,0.0,200,0.2574927806854248,0.24853297605126068,0.20010991982768248,17000,0.7310551537476774,0.0
85,1.3538408279418945,0.23242167413884962,0.09459818216051485,0.33629357508103486,0.10362770680984347,0.0,0.1363604348874515,0.1,0.15429353713989258,0.5873808860778809,0.050003864,0.8245806,0.26441948850192515,0.0,0.004521137234864008,0.0,200,0.3233959674835205,0.7049497699516456,0.4831871283125398,17200,0.4688155360466358,0.0
86,1.3676731586456299,0.3261867278778623,0.16051870344497257,0.5994292045512712,0.19187029767611852,0.0,0.13704593011255586,0.1,0.07999968528747559,0.03646516799926758,0.049917232,1.2392094,0.27059621243951887,0.0,0.006379170077667648,0.0,200,0.2681281566619873,0.27943805981265135,0.26222474696981574,17400,0.42600454611061317,0.0
87,1.5867023468017578,0.1689457878095694,0.060249600471139815,0.23067289813912567,0.09570117536259089,0.0,0.13371401405175792,0.1,0.16018939018249512,1.1353816986083984,0.049750794,0.81984955,0.26043116997652394,0.0,0.0032835653001388864,0.0,200,0.3231215476989746,0.6416983754962536,0.30234424684991873,17600,0.6384579127037967,0.0
88,1.3866517543792725,0.2366543476480758,0.06909029767188653,0.330560086849542,0.15321398218629476,0.0,0.1321223396955218,0.1,0.007076740264892578,0.09198737144470215,0.04964552,0.8728284,0.25805348774367914,0.0,0.004665424838138868,0.0,200,0.28698158264160156,0.17060231119856722,0.1758715216537201,17800,0.4214158772926573,0.0
89,1.4746379852294922,0.288960474111135,0.11606499710631991,0.41948131594296983,0.12283427826115008,0.0,0.13195864784006683,0.1,0.0024328231811523438,0.045617103576660156,0.049568307,1.1057779,0.26114418638042475,0.0,0.005679096744993968,0.0,200,0.158799409866333,0.2544454612064593,0.2719843428843156,18000,0.42893221086016114,0.0
90,2.331207513809204,0.3224346820432089,0.15915424410284043,0.5587431426446358,0.12847174985593146,0.0,0.13444696817980428,0.1,0.002735137939453125,0.056459665298461914,0.04979054,1.0460442,0.26727323594670316,0.0,0.0062496334933696525,0.0,200,0.11895155906677246,0.37487960407486337,0.34486950213627426,18200,0.6270327568400694,0.0
91,1.3111956119537354,0.2065215806534129,0.14910525147675285,0.434737630803506,0.02788227413269924,0.0,0.13185808636913635,0.1,0.14586400985717773,0.3808591365814209,0.050052132,1.5927092,0.26119807041737414,0.0,0.004023139884709409,0.0,200,0.17220115661621094,0.4012838258256128,0.4086917834056904,18400,0.25552276219258196,0.0
92,1.4727888107299805,0.23522120756023213,0.0727552415246158,0.30595435721317954,0.1174916702609156,0.0,0.13189312024465,0.1,0.13112783432006836,1.8135266304016113,0.05008198,0.9822523,0.2586003841316599,0.0,0.004599657030718025,0.0,200,0.24440884590148926,0.1845982770842132,0.18211341036656872,18600,0.31644019765345144,0.0
93,1.482795238494873,0.2758692742072365,0.0827782410178264,0.3690520678909014,0.14215952664226741,0.0,0.12684180162754696,0.1,0.12498879432678223,0.04588627815246582,0.04914621,1.0439836,0.2603272731392176,0.0,0.005401322618127424,0.0,200,0.09222817420959473,0.17973736516459926,0.17182896383406218,18800,0.6227386979432916,0.0
94,1.4846410751342773,0.2576333778942414,0.05656720380053458,0.34971561926128847,0.1954299645801487,0.0,0.12653994210576383,0.1,0.008467674255371094,0.07021880149841309,0.04989365,1.13008,0.26005788361472,0.0,0.005016961999189047,0.0,200,0.32837653160095215,0.10595133847448003,0.10251828328018239,19000,0.5516622943118514,0.0
95,1.3380837440490723,0.32265885532971084,0.08596365427815066,0.42610253072525917,0.2048354994306592,0.0,0.1360459885602566,0.1,0.0025784969329833984,0.04204916954040527,0.05075359,1.0687481,0.2663179807862191,0.0,0.0063090869412344985,0.0,200,0.29193663597106934,0.18953589523681272,0.17223753153815033,19200,0.3570293452640416,0.0
96,1.4247410297393799,0.40391262341786643,0.11086848751850181,0.5357712731344371,0.24436179747871808,0.0,0.13254466874587237,0.1,0.0024759769439697266,0.04754137992858887,0.04971726,1.1341916,0.28007744504938387,0.0,0.007971998707163669,0.0,200,0.30481529235839844,0.21474006355974956,0.16658860310870272,19400,0.5607703263107782,0.0
97,1.5110228061676025,0.3887385611749548,0.11581844230334114,0.5442725260111363,0.24333699840993148,0.0,0.13229149953193386,0.1,0.145127534866333,0.8121733665466309,0.049476434,0.89005435,0.290943556661941,0.0,0.007576780677753394,0.0,200,0.4234757423400879,0.15895282091033133,0.1347725410758552,19600,0.6411497284538291,0.0
98,1.381727695465088,0.5612890466596756,0.2372361402692022,0.8503086395595472,0.18958242254109964,0.0,0.12421359569168558,0.1,0.10078096389770508,0.049829959869384766,0.050387353,1.1756145,0.31797810566171447,0.0,0.011065693453842932,0.0,200,0.05008530616760254,0.2762591764915704,0.20754087086499856,19800,0.8375877159607351,0.0
99,1.38034987449646,0.29596926562210624,0.18544581496572404,0.5965699490928202,0.11631511787815743,0.0,0.13385996041541565,0.1,0.0021910667419433594,0.03917098045349121,0.050462727,1.2907006,0.3157772216577537,0.0,0.005679543994151915,0.0,200,0.06934165954589844,0.7407939670989476,0.6281482469802218,20000,0.7984587264972823,0.0
100,1.4514110088348389,0.2751994508875445,0.05698642063504276,0.3263154071359528,0.1828134882214182,0.0,0.1305339095336095,0.1,0.0027573108673095703,0.043604135513305664,0.049737185,1.0064759,0.31171944458073275,0.0,0.005433568821474997,0.0,200,0.32990050315856934,0.6151973394622265,0.19283173794397152,20200,0.8044563074838318,0.0
101,1.398998498916626,0.2538734120596568,0.0713963250978779,0.364277550574724,0.1784972207038405,0.0,0.13358876859138755,0.1,0.14562559127807617,2.3237504959106445,0.050059967,1.4256335,0.3059348413286252,0.0,0.004967689346554456,0.0,200,0.050794363021850586,0.3117244860716589,0.1540263230379446,20400,0.7935597830457825,0.0
102,1.4143645763397217,0.302652246988258,0.15063858632644908,0.5403501855922105,0.13084985350770012,0.0,0.13533598623612011,0.1,0.0022056102752685547,0.04185652732849121,0.050283536,1.5232028,0.3056065818945885,0.0,0.005899053399588079,0.0,200,0.015654563903808594,0.3075788501411792,0.3614154507460733,20600,0.7843021501425612,0.0
103,1.491727590560913,0.28499464947238407,0.14159938031360378,0.4621820375650948,0.12790161261803357,0.0,0.13410872643180236,0.1,0.14504718780517578,0.0900881290435791,0.049550463,1.0519898,0.3035453886523681,0.0,0.005532283637154009,0.0,200,0.15743255615234375,0.3564620527348557,0.33824963871693237,20800,0.516459971840784,0.0
104,1.4859960079193115,0.3289498182579267,0.046226377332726595,0.3897649051631741,0.26852671658764693,0.0,0.1282250119370406,0.1,0.0027184486389160156,0.04898333549499512,0.049750317,0.90337676,0.3060858316129239,0.0,0.0064940412671184115,0.0,200,0.31347060203552246,0.21014708409468336,0.15977282256224137,21000,0.49816910594480546,0.0
105,1.487534999847412,0.29333892465057065,0.16431642819920714,0.5055144194680111,0.055920351911100424,0.0,0.13109798825278307,0.1,0.12127089500427246,0.04866528511047363,0.050674368,1.0656399,0.3048111409166886,0.0,0.005705035875058922,0.0,200,0.030622005462646484,0.3113307069383468,0.27903816466062265,21200,0.8602235968565584,0.0
106,1.3801066875457764,0.23260792471677444,0.05514707099096763,0.3123239868979557,0.17898460490641263,0.0,0.1401930344237648,0.1,0.05763649940490723,0.04079937934875488,0.050045058,0.9394774,0.2975908192966972,0.0,0.004623843427490475,0.0,200,0.05356788635253906,0.18394766117025044,0.21999630954604074,21400,0.9030837439598635,0.0
107,1.5106723308563232,0.36184342420016646,0.11004403422531833,0.5037006993304938,0.24731042177183848,0.0,0.1379757658802537,0.1,0.1511223316192627,0.2345900535583496,0.04961002,0.8414939,0.30401607978704415,0.0,0.007054180907581443,0.0,200,0.027917146682739258,0.19572385461953515,0.18298253484995164,21600,0.9146411409774732,0.0
108,1.4498615264892578,0.351886309780185,0.05313402460333648,0.4166343624740062,0.298653668386217,0.0,0.13660607570421635,0.1,0.0023980140686035156,0.0432584285736084,0.049705133,0.7357196,0.30880310278635825,0.0,0.006806397011143753,0.0,200,0.2798750400543213,0.12006172104287652,0.10472662936577898,21800,0.6903203999693304,0.0
109,1.473181962966919,0.24401476820498394,0.07401680462740963,0.3362754869076092,0.13690755792647036,0.0,0.133686907645031,0.1,0.0024785995483398438,0.0505375862121582,0.050402265,0.94541824,0.3023242693282209,0.0,0.004668699699119039,0.0,200,0.03608965873718262,0.25352015485511675,0.2592817555426816,22000,0.8826873965809879,0.0
110,1.4497644901275635,0.2969669651221245,0.03671507370963038,0.35005261973413093,0.24661844413401504,0.0,0.12998167294223145,0.1,0.15043354034423828,0.8346412181854248,0.049658295,0.8848846,0.30178853890761126,0.0,0.0058748182367988405,0.0,200,0.33060383796691895,0.12018057036029592,0.10996020325628188,22200,0.6445901269017107,0.0
111,1.519660472869873,0.37491560135052293,0.12836206030072603,0.5088790093155011,0.16297093706948584,0.0,0.13724953396015668,0.1,0.14386820793151855,0.23544955253601074,0.049818568,0.9529145,0.3091012451519024,0.0,0.007286020716521915,0.0,200,0.3176414966583252,0.20510112380634893,0.2052490675906212,22400,0.7351705704485557,0.0
112,1.3728117942810059,0.10466841577310043,0.0511476676057688,0.18556154835863725,0.05842944007299622,0.0,0.13399303673848137,0.1,0.0026199817657470703,0.047219038009643555,0.04987483,1.0140153,0.28865796221402223,0.0,0.0020673072935100227,0.0,200,0.4235038757324219,3.5667433547950496,2.570254160474919,22600,0.9443009491996385,0.0
113,1.263660192489624,0.36689382569987455,0.16495290459992096,0.5724799823295825,0.13251725245611046,0.0,0.13984544875107124,0.1,0.15842056274414062,0.5565521717071533,0.049220204,1.0440298,0.29648154856260744,0.0,0.007220037990042475,0.0,200,0.2177896499633789,0.28209823064465134,0.3092795492520214,22800,0.9142353016162273,0.0
114,1.3646326065063477,0.28350010425005195,0.11821760381245787,0.4802471436701917,0.18894602390901086,0.0,0.13526486353149106,0.1,0.1503736972808838,0.5290243625640869,0.049703084,1.2013739,0.2951834041313519,0.0,0.005523993184174824,0.0,200,0.03300309181213379,0.21293134005895809,0.21576165489091997,23000,0.8724483427188613,0.0
115,1.446629285812378,0.33257757726140935,0.09825019442407876,0.48641467386147963,0.23597197119494237,0.0,0.1280490281546826,0.1,0.1505870819091797,0.2529611587524414,0.049254484,1.2737725,0.29892282144435767,0.0,0.006465638577044545,0.0,200,0.09688925743103027,0.21742406522081095,0.19975294841758715,23200,0.7345197949327978,0.0
116,1.4298937320709229,0.27443026666419246,0.1453467217280265,0.5230286061836551,0.1563758225527479,0.0,0.1337476450273302,0.1,0.002656221389770508,0.0402369499206543,0.04954112,1.4110974,0.29647356596634117,0.0,0.005384925131164798,0.0,200,0.14495110511779785,0.30372657198920006,0.306733196672717,23400,0.4994681126162724,0.0
117,1.4344933032989502,0.29468862343365554,0.169515505184716,0.5699669371471962,0.10665810376009938,0.0,0.12068514333011589,0.1,0.13079333305358887,1.7897398471832275,0.049395476,1.4331354,0.2962950717130726,0.0,0.005650059982718473,0.0,200,0.03767704963684082,0.31358018463755943,0.30855632824484575,23600,0.4123496053092008,0.0
118,1.511744737625122,0.21455358246071038,0.07277578380611222,0.31833409627043646,0.11861766470077476,0.0,0.1273336989678004,0.1,0.15792155265808105,0.41043901443481445,0.049022216,1.0564089,0.2881209227878364,0.0,0.004259939635876999,0.0,200,0.32424211502075195,0.382104583338422,0.342315577930856,23800,0.5977977683795699,0.0
119,1.3951129913330078,0.2903577009315138,0.29738408316949333,0.7995867442071326,0.05534212070176524,0.0,0.12560227982261973,0.1,0.12766027450561523,0.049416542053222656,0.04954298,2.0621982,0.2883446006022042,0.0,0.005720279689401712,0.0,200,0.33163905143737793,0.5631466353663759,0.5629263278453107,24000,0.5788152732114288,0.0
120,1.4998650550842285,0.3722533126292391,0.1291660927564352,0.570125043477885,0.21055056108554104,0.0,0.12640446641068814,0.1,0.1579265594482422,0.39803385734558105,0.04953739,1.2523054,0.2967354718049077,0.0,0.007299839860745193,0.0,200,0.3063380718231201,0.25874217762917884,0.24414829993848555,24200,0.7976805397059005,0.0
121,1.405564785003662,0.35285371331547855,0.11681382073933999,0.5323077816769489,0.2116660371424882,0.0,0.13434129667937342,0.1,0.06064653396606445,0.04109668731689453,0.05016828,1.3068045,0.3023472959559648,0.0,0.006932475692865004,0.0,200,0.314286470413208,0.18953466157490617,0.1663295643942701,24400,0.3695157891827348,0.0
122,1.47477126121521,0.31392189515543584,0.17647669722403067,0.5599150413737277,0.06892233606895683,0.0,0.13083067489728523,0.1,0.002247333526611328,0.03923201560974121,0.04982398,1.113976,0.3035047558759119,0.0,0.006107029458889949,0.0,200,0.3022420406341553,0.28529255790767505,0.2855781489523526,24600,0.8273259406337855,0.0
123,1.4093430042266846,0.2951467581923605,0.13264953741309446,0.4538323716607399,0.1037540054403012,0.0,0.12411232285168657,0.1,0.11867117881774902,0.05071282386779785,0.049825314,1.352515,0.3026689561075568,0.0,0.005823019505307573,0.0,200,0.02714252471923828,0.21243543980385993,0.21011609628493413,24800,0.352127084136634,0.0
124,1.5388963222503662,0.3753921083295247,0.165092360428316,0.6265970574468167,0.16286192504795105,0.0,0.13127180281518389,0.1,0.0028748512268066406,0.36725926399230957,0.05029976,1.251605,0.3099412713297536,0.0,0.007361973016220041,0.0,200,0.289165735244751,0.2361902738630646,0.23162191211938246,25000,0.6094723027120865,0.0
125,1.4003474712371826,0.3729050761793946,0.18429195055168446,0.5893278550164526,0.14862550624222848,0.0,0.12628944537264683,0.1,0.14885258674621582,0.4984095096588135,0.049698062,1.0922781,0.3162376518147177,0.0,0.007219544383946123,0.0,200,0.3206155300140381,0.2534139582189411,0.2462215296943045,25200,0.5428344974764344,0.0
126,1.525238275527954,0.5032991538519243,0.24285154125943306,0.8261961657307945,0.23155975989751681,0.0,0.13156245009142167,0.1,0.0056879520416259766,0.033966779708862305,0.049458917,1.6529825,0.3349438020184384,0.0,0.009728802738616005,0.0,200,0.2658119201660156,0.3469171286660105,0.29638306240471635,25400,0.5485944343787014,0.0
127,1.5473246574401855,0.2700387407745687,0.11571818854196805,0.40149687495336417,0.14651390369491252,0.0,0.1290229227946948,0.1,0.002775430679321289,0.052132368087768555,0.049764946,1.1045201,0.3284532958940514,0.0,0.005214783086239539,0.0,200,0.04802751541137695,0.4579879752903503,0.5015285914063733,25600,0.5812741753942704,0.0
128,1.478266716003418,0.40698750502598247,0.12906713154374516,0.6081091452638812,0.284263521690891,0.0,0.13346130120664398,0.1,0.1514909267425537,0.049671173095703125,0.050171234,1.4355288,0.33630671680724455,0.0,0.007750594722338654,0.0,200,0.15538787841796875,0.13504845454294512,0.12754214801359984,25800,0.45544398364961064,0.0
129,7.992279052734375,0.4042963112131797,0.15588654251199896,0.5851359186867984,0.15565535023584676,0.0,0.12866998381992406,0.1,0.17633509635925293,0.28433895111083984,0.049746003,1.0602187,0.3431056762478381,0.0,0.007917873412150857,0.0,200,0.3359811305999756,0.1672995794072755,0.16633398409905087,26000,0.42328453280832673,0.0
130,1.4948129653930664,0.3302518639371491,0.18167462105631435,0.5756253875017592,0.13037753819491907,0.0,0.12793368157625315,0.1,0.05427265167236328,0.04836773872375488,0.049542636,1.2162831,0.34182029501676925,0.0,0.006508032982959353,0.0,200,0.32277870178222656,0.3236585693702211,0.2935667763845328,26200,0.8850837061208258,0.0
131,1.543653964996338,0.4020079231853335,0.10235309859579779,0.5397220754411073,0.25166387556670866,0.0,0.13059079335040658,0.1,0.002661466598510742,0.0456235408782959,0.05030676,1.0922663,0.3478390578336257,0.0,0.007748798940548466,0.0,200,0.3044886589050293,0.12977165126834173,0.13701299218787724,26400,1.00942420485161,0.0
132,1.5381267070770264,0.36299035162958243,0.02908118662320379,0.3944274191537089,0.315646990611456,0.0,0.13525065716051585,0.1,0.002716064453125,0.04683494567871094,0.049961366,0.94329065,0.34935418721322137,0.0,0.0070147805506532,0.0,200,0.08749032020568848,0.07365726982536103,0.07215986243372184,26600,1.0744928228579216,0.0
133,1.4040040969848633,0.520991781044015,0.2798430393254954,0.8773603877862564,0.11410716423280923,0.0,0.12669466265281526,0.1,0.1567068099975586,0.27904272079467773,0.049854383,1.3174121,0.36651794659630077,0.0,0.010237424733533078,0.0,200,0.3304920196533203,0.3491648804346795,0.31250278084816574,26800,1.1652033518931602,0.0
134,1.5434162616729736,0.35199214026408476,0.029633457616731848,0.38845105071633734,0.3159086112645241,0.0,0.1352365496147215,0.1,0.0024192333221435547,0.04613852500915527,0.050127603,0.81720114,0.36506536596307915,0.0,0.006873152286400528,0.0,200,0.32964301109313965,0.0837129991024178,0.1064771144147274,27000,1.0553137747539707,0.0
135,1.550840139389038,0.28566497516903183,0.13949511742761556,0.4066060827655403,0.05661190793800583,0.0,0.13356425479794617,0.1,0.0023255348205566406,0.042156219482421875,0.04930459,0.94595695,0.3571253268836744,0.0,0.0056169904167612085,0.0,200,0.32798075675964355,0.42970570835925587,0.3453031476027437,27200,0.6729079998321593,0.0
136,8.107477188110352,0.3136298193935104,0.13012235274184336,0.5273188921062906,0.20823320430610343,0.0,0.13286840540847256,0.1,0.15952420234680176,0.3505082130432129,0.049893912,1.4508837,0.352775776134658,0.0,0.0060869242184394675,0.0,200,0.3309500217437744,0.2365906453561979,0.20754018908489022,27400,0.5581501685328231,0.0
137,1.5666170120239258,0.4042587701837567,0.03931363806346245,0.45115289497751015,0.35513918852770354,0.0,0.13308007138869798,0.1,0.15254759788513184,0.18797540664672852,0.049147703,1.3836658,0.3579240755395679,0.0,0.007948887039588095,0.0,200,0.06832122802734375,0.10890062736624025,0.12041757209388702,27600,0.6133781503258341,0.0
138,1.697798490524292,0.4956749445226003,0.20618245610815153,0.7012435330275141,0.1705610106874305,0.0,0.13541415912495422,0.1,0.15994930267333984,0.29056406021118164,0.050133057,0.8795485,0.37169916243787116,0.0,0.009671854200854648,0.0,200,0.3088195323944092,0.2977336222595235,0.24894302338520205,27800,0.4754827196790296,0.0
139,1.4607484340667725,0.25444054614270595,0.08108181409175605,0.3738963563700386,0.159735028734134,0.0,0.12192851141968444,0.1,0.002408742904663086,0.052720069885253906,0.050666604,1.4158969,0.3599733008083546,0.0,0.004969181592513289,0.0,200,0.1518242359161377,0.3471798255730359,0.4041839012123864,28000,0.5191347029560313,0.0
140,1.5442051887512207,0.4184944886141732,0.15145412024635352,0.5577247412734486,0.170344492126675,0.0,0.1299760761895372,0.1,0.09087681770324707,0.041036367416381836,0.0502728,0.78500456,0.3658254195889365,0.0,0.008154942728091363,0.0,200,0.20557308197021484,0.15541764996085852,0.15103515554606886,28200,0.6015516528424928,0.0
141,1.4671142101287842,0.2823110975585195,0.1277342443303637,0.45454599524232275,0.14783367561933436,0.0,0.13520252566375066,0.1,0.19601678848266602,0.6126375198364258,0.049631853,0.94820714,0.3574739873858948,0.0,0.005399969611736119,0.0,200,0.3833954334259033,0.2714521548706429,0.2521797016297643,28400,0.5852778523590364,0.0
142,1.8226301670074463,0.4161771501095388,0.18335243945886262,0.6252998267756703,0.2157790058145213,0.0,0.13045290956918215,0.1,0.002855539321899414,1.715531349182129,0.05072498,1.2757376,0.36334430365825926,0.0,0.008214682951579611,0.0,200,0.6688940525054932,0.24735353777970034,0.2485930299144703,28600,0.6905407395161182,0.0
143,1.71982741355896,0.22309767875491193,0.06080689909872802,0.32303711301632937,0.15890928540205204,0.0,0.12974819336830626,0.1,0.16520261764526367,0.3584873676300049,0.049491223,1.4635118,0.3493196411679246,0.0,0.004373739903621006,0.0,200,0.058780670166015625,0.4793428798113163,0.3404911729613705,28800,0.7593926471487792,0.0
144,4.566798686981201,0.3114183977452145,0.10360839040764974,0.4537843867233711,0.1971331711792915,0.0,0.13736407134880183,0.1,0.1470947265625,0.2247939109802246,0.04904539,1.2670734,0.3455295168256536,0.0,0.006126605534138515,0.0,200,0.14117836952209473,0.15992795202999108,0.16049883241985902,29000,0.5084854726119551,0.0
145,1.6395206451416016,0.4272776288903107,0.165328228082334,0.7045567866032397,0.2745321652683261,0.0,0.1350866234404135,0.1,0.0888667106628418,0.0445401668548584,0.049991798,1.1387916,0.3537043280321193,0.0,0.008431657027138915,0.0,200,0.0521388053894043,0.29660939938966,0.2880298297460013,29200,0.5982058191324534,0.0
146,1.596634864807129,0.18737171971449665,0.09659016295437743,0.30672775640546285,0.037245784393347615,0.0,0.12702793633492954,0.1,0.02254939079284668,0.0494692325592041,0.049457632,1.1769688,0.337071067200357,0.0,0.0036661933471541213,0.0,200,0.319446325302124,0.504289247547872,0.4568158382500059,29400,0.4959860096922508,0.0
147,1.521303415298462,0.5084492896945033,0.159526419557488,0.6734796989412225,0.253052022164994,0.0,0.13187936473873774,0.1,0.1665034294128418,0.05524086952209473,0.049197927,0.9463648,0.3542088894497717,0.0,0.009958549911368996,0.0,200,0.026433229446411133,0.2886299527550593,0.250029302308529,29600,0.48650069004039215,0.0
148,1.4658136367797852,0.4807015049395288,0.14251202652493958,0.7131994215520138,0.3379801405235009,0.0,0.13393671896542844,0.1,0.15538811683654785,0.26408839225769043,0.050056413,1.1723057,0.3668581509987474,0.0,0.009466228300684498,0.0,200,0.1005399227142334,0.2314691486169017,0.16091443208759273,29800,0.7993641620960078,0.0
149,1.473137617111206,0.47108423408565914,0.184700251446652,0.7897382348729414,0.33897848300706035,0.0,0.13411509852211473,0.1,0.002668142318725586,0.04530000686645508,0.04942322,1.1979964,0.3772807593074386,0.0,0.00925472122536393,0.0,200,0.316042423248291,0.22042748174372911,0.21226147502630938,30000,1.0265657226553684,0.0
150,1.4462387561798096,0.3329766217469575,0.15557825769673406,0.47396810113092896,0.09818525008782888,0.0,0.14205692100836245,0.1,0.0019040107727050781,0.03856921195983887,0.049633455,0.98217225,0.3728503455513905,0.0,0.0065886767603430905,0.0,200,0.13731598854064941,0.44561931898359347,0.4223508709679131,30200,0.7927170400733207,0.0
151,1.5770447254180908,0.4392664547172528,0.052049184961154286,0.4950218925774035,0.3871246087325372,0.0,0.12960434692548806,0.1,0.141859769821167,0.2266066074371338,0.04983579,0.9828817,0.37949195646797673,0.0,0.008608675820614217,0.0,200,0.3159358501434326,0.10050042994385087,0.09827821102384482,30400,0.6114786104920933,0.0
152,1.5616145133972168,0.566359740300689,0.2888274194940342,0.934858841319455,0.1407395907326236,0.0,0.1329898728944367,0.1,0.002347707748413086,0.04003190994262695,0.04959254,1.1524426,0.398178734851248,0.0,0.011090709226651778,0.0,200,0.1363227367401123,0.3086687392417408,0.29547101578914725,30600,0.8871586162999794,0.0
153,1.5461921691894531,0.5500108462204021,0.21015143953976917,0.8701829971774895,0.28307475053504216,0.0,0.1372180213872836,0.1,0.0028133392333984375,0.047061920166015625,0.050468512,0.91817313,0.41336194598816345,0.0,0.010703420620378584,0.0,200,0.30651354789733887,0.21639578447727528,0.1859249867853761,30800,1.0198405692047605,0.0
154,1.5164361000061035,0.42464837130405786,0.1965315580523714,0.5827207092242707,0.08874437545036003,0.0,0.12656712435787593,0.1,0.0026848316192626953,0.047173500061035156,0.049121078,1.0754375,0.4144905885197529,0.0,0.008395308699673565,0.0,200,0.07207751274108887,0.2829158982431114,0.2825212492237695,31000,0.6888063703879198,0.0
155,1.5317087173461914,0.23844822723973913,0.13850876121760508,0.4558069636257306,0.08566130596969455,0.0,0.13183974668974005,0.1,0.0027153491973876953,0.050559043884277344,0.04997729,0.89884543,0.3968863523917515,0.0,0.0046999055763814945,0.0,200,0.3068430423736572,1.5176524184254792,0.7596810568455672,31200,0.7426569279271956,0.0
156,1.4114317893981934,0.4921417070209028,0.2658856856888981,0.8011041059282443,0.15658385617009854,0.0,0.13068886412625394,0.1,0.15003037452697754,0.10161280632019043,0.05021923,0.9112063,0.40641188785466664,0.0,0.009547707283763045,0.0,200,0.3130919933319092,0.2815065105833666,0.3326833191586487,31400,0.6416107178769996,0.0
157,1.4714381694793701,0.6867142610178099,0.30320360033442145,0.9977268568996737,0.2395104010483686,0.0,0.1244044317879787,0.1,0.1489260196685791,0.616870641708374,0.04955425,1.0423229,0.434442125170981,0.0,0.013304730014391315,0.0,200,0.17306017875671387,0.43622204634392603,0.35567595818704145,31600,0.6590203231309824,0.0
158,1.5866942405700684,0.5595496926165249,0.253065471522919,0.8964740437385827,0.2144139814285922,0.0,0.13443832986710097,0.1,0.12430763244628906,0.0465085506439209,0.049771115,0.9964523,0.44695288191553545,0.0,0.010903275674031829,0.0,200,0.13417506217956543,0.2900205929654444,0.2308710358484378,31800,0.5178687774838856,0.0
159,1.5617961883544922,0.8508608753316981,0.13049366250512148,0.9839502364753953,0.6349593921830776,0.0,0.1327180607933573,0.1,0.002052783966064453,0.034139394760131836,0.050075274,0.9922869,0.4873436812571517,0.0,0.016554577218195816,0.0,200,0.25864315032958984,0.23111989015012047,0.11652564242846374,32000,0.4619023591378088,0.0
160,1.6147253513336182,0.3863777007711933,0.14837187931379586,0.5681619009292839,0.17375529031302436,0.0,0.1374365782129242,0.1,0.12185263633728027,0.04519462585449219,0.049444273,1.2322901,0.47724708320855586,0.0,0.007627836153930737,0.0,200,0.3186671733856201,1.1768817251982822,1.1697183345618272,32200,0.5378360634282462,0.0
161,1.6034832000732422,0.40231692821680487,0.18526906467499887,0.6879851843206772,0.2067950104549002,0.0,0.14053679854374926,0.1,0.024755477905273438,0.5562751293182373,0.049572878,1.0833008,0.4697540677093808,0.0,0.007931214525356205,0.0,200,0.08748364448547363,0.9148618839199115,0.3923101526861274,32400,0.866881988844788,0.0
162,1.533390998840332,0.39244609301811184,0.14188647973842028,0.6052682831586739,0.23369627735082452,0.0,0.12721846646899698,0.1,0.0027158260345458984,0.048558712005615234,0.049949694,1.9849468,0.46202327024025386,0.0,0.007659406395498915,0.0,200,0.03391218185424805,0.30305315481334055,0.16306699965106755,32600,0.8628089311919728,0.0
163,1.6369719505310059,0.6162891817609536,0.22298481537230574,0.9952392080618087,0.4269825690637502,0.0,0.13787649957610357,0.1,0.0026254653930664062,0.04127621650695801,0.05053857,1.0600857,0.4774498613923238,0.0,0.01207540348847061,0.0,200,0.17657017707824707,0.2607354497653894,0.31403703650857284,32800,0.8515410564634189,0.0
164,1.5578901767730713,0.4141274801926823,0.16361914432595082,0.6722684155961546,0.268931629035984,0.0,0.13104029451644014,0.1,0.0026404857635498047,0.2077023983001709,0.04824356,1.996789,0.4711176232723597,0.0,0.007990004700952201,0.0,200,0.10102081298828125,0.19699565264118435,0.20252948928483344,33000,0.7655406548549628,0.0
165,1.6882593631744385,0.414522865350131,0.17588050735808777,0.6091686684531845,0.13495090620393266,0.0,0.13117940539312065,0.1,0.16216015815734863,0.26407384872436523,0.050392408,1.0339868,0.4654581474801368,0.0,0.008067435705541326,0.0,200,0.28019165992736816,0.2602466089326838,0.2555343389762169,33200,0.5756426197899243,0.0
166,1.4341046810150146,0.6758354559846435,0.08937054985271763,0.7868372899086463,0.5614723356020537,0.0,0.1325606494611938,0.1,0.1626429557800293,0.1057429313659668,0.049292654,0.9134712,0.4864958783305875,0.0,0.013080694920904861,0.0,200,0.10405707359313965,0.2828411372081075,0.218010649173373,33400,0.8002902332993663,0.0
167,1.5874760150909424,0.438820195848729,0.2940523422636963,0.8737161094434647,0.1548848507193606,0.0,0.1352498136505425,0.1,0.0768883228302002,0.04062485694885254,0.05047253,0.9424869,0.4817283100824017,0.0,0.008551667516225481,0.0,200,0.2541933059692383,0.33592559980272163,0.32758983365050964,33600,0.7515899958836307,0.0
168,1.645341157913208,0.47611530869984225,0.18236853312050214,0.7514244902773554,0.23842070945616464,0.0,0.1318478281023193,0.1,0.03526568412780762,0.04401278495788574,0.04963177,0.9974196,0.48116700994414574,0.0,0.00931654554534558,0.0,200,0.15310096740722656,0.19013417070247346,0.19702490858853852,33800,0.732415316175765,0.0
169,1.5541882514953613,0.8565060193228947,0.10263480452686119,0.9599807497098694,0.6877219036942411,0.0,0.13699725479889183,0.1,0.002471446990966797,0.04362893104553223,0.050256733,0.86370134,0.5187009108820206,0.0,0.016662576415614336,0.0,200,0.29443907737731934,0.19979130214495602,0.1174361500173195,34000,0.7220149243824207,0.0
170,1.6077392101287842,0.36447116707772265,0.16527496188254187,0.6254569857666268,0.17762534391291546,0.0,0.13438079520712445,0.1,0.002534151077270508,0.8170132637023926,0.050133925,1.1767566,0.5032779365015908,0.0,0.007246257442454997,0.0,200,0.2809574604034424,0.8158932301251335,0.8363245327834611,34200,0.7961668384777084,0.0
171,1.607299566268921,0.5449071470127334,0.1416435728550765,0.7047159401791973,0.36397093068340985,0.0,0.1273662036679307,0.1,0.04194450378417969,0.04579782485961914,0.05022234,0.9676871,0.5074408575527051,0.0,0.010620484751425019,0.0,200,0.18037152290344238,0.21963563592820998,0.16385735645336075,34400,0.8723118338115988,0.0
172,1.5345137119293213,0.43215568921842273,0.14031384806764333,0.609953192898416,0.24012678669385476,0.0,0.12895659260491507,0.1,0.03671121597290039,0.0381929874420166,0.049909625,1.0714515,0.4999123407192768,0.0,0.008474497553523528,0.0,200,0.12429285049438477,0.293545310395446,0.19163193799058734,34600,0.515282743005997,0.0
173,1.5271098613739014,0.3200201721273659,0.1607850219918276,0.5265471173608458,0.1218858190149192,0.0,0.1244595436426602,0.1,0.15758275985717773,0.08235716819763184,0.049490213,1.4978915,0.48192312386008573,0.0,0.00618888232446333,0.0,200,0.08763837814331055,0.4924127697952908,0.2999115765761863,34800,0.35750485878123933,0.0
174,1.5981135368347168,0.5577889530477849,0.3450608006476931,0.9994863753404728,0.07425728314755609,0.0,0.13219536392678413,0.1,0.15020990371704102,0.7310700416564941,0.04955902,1.0307271,0.48950970677885564,0.0,0.010843410343113705,0.0,200,0.15927362442016602,0.39829402387634166,0.42415011753553367,35000,0.2702495859068009,0.0
175,1.6463043689727783,0.42111830997413313,0.13053484937470725,0.6401505468372678,0.3037526839576875,0.0,0.1307644241901362,0.1,0.03799247741699219,0.04166722297668457,0.049246516,0.90812737,0.4826705670983834,0.0,0.008195876850753498,0.0,200,0.10111021995544434,0.1402553251107333,0.14107343881317666,35200,0.5316174347456946,0.0
176,1.6238176822662354,0.7296989269305326,0.2867430784537789,1.0402949053736623,0.32507732977489084,0.0,0.13148658837532903,0.1,0.03158378601074219,0.2104194164276123,0.04953994,1.0445576,0.5073734030815984,0.0,0.014183551974565669,0.0,200,0.18222546577453613,0.3781740134179678,0.31896269787587395,35400,0.12257475919331683,0.0
177,1.5772972106933594,0.535733150814964,0.2905560174077344,0.8767789952401802,0.07320705050122302,0.0,0.13199314240470014,0.1,0.17096519470214844,0.30994105339050293,0.049563184,0.83661,0.5102093778549349,0.0,0.010529695313833073,0.0,200,0.03946328163146973,0.2949376778017657,0.26845634438386956,35600,0.11585152116979769,0.0
178,1.6617300510406494,0.7534007485940937,0.15901116990919625,0.9152861894900254,0.5819104191829287,0.0,0.13520115864048102,0.1,0.002710580825805664,0.048525333404541016,0.050163284,0.8304496,0.5345285149288508,0.0,0.01468755576753887,0.0,200,0.11080574989318848,0.20047900057909512,0.12636567037315402,35800,0.0974050918167511,0.0
179,1.5886421203613281,0.6258675251650024,0.21019813628596695,0.9623623436193522,0.4103987098350332,0.0,0.13382434183919864,0.1,0.1521897315979004,1.6285369396209717,0.05015161,0.96619666,0.5436624159524659,0.0,0.01224779965496628,0.0,200,0.3305494785308838,0.15844504531088793,0.18075549448272857,36000,0.09952155147030661,0.0
180,1.6345422267913818,0.34349489623000884,0.09234944997733156,0.5033246182764114,0.2843060151361898,0.0,0.13511851903255573,0.1,0.004050254821777344,0.049944162368774414,0.049345437,1.2174278,0.5236456639802203,0.0,0.006723311198495008,0.0,200,0.11137580871582031,1.5760960464134353,1.1008418252319423,36200,0.0801917378121895,0.0
181,1.5365064144134521,0.4876368870236102,0.20552852525598686,0.7783611002735371,0.26123958596772856,0.0,0.1289414609645899,0.1,0.0025103092193603516,0.04135847091674805,0.051000703,1.5644497,0.5200447862845593,0.0,0.00954814811227515,0.0,200,0.16068506240844727,0.295826939268156,0.21003249891586018,36400,0.04621333983964266,0.0
182,1.390547752380371,0.3513545929234507,0.1134750451225874,0.5176297732158153,0.2211299305265237,0.0,0.12505700704450415,0.1,0.14755034446716309,0.17429399490356445,0.05005236,2.882055,0.5031757669484485,0.0,0.006895713310653722,0.0,200,0.3159670829772949,0.3503340678716041,0.1577403253294579,36600,0.06041345464707546,0.0
183,1.6075990200042725,0.4425709554213692,0.1400491818647591,0.6685968889181346,0.28487752202967254,0.0,0.13160466615571947,0.1,0.17289352416992188,0.5545778274536133,0.049527965,1.3053378,0.49711528579574055,0.0,0.008662821035669536,0.0,200,0.14316487312316895,0.18534929310852175,0.23361151629143775,36800,0.07014616570260412,0.0
184,1.5341780185699463,0.18765945611299298,0.0869460036948689,0.30537362670261614,0.06026154587899397,0.0,0.12913133420107095,0.1,0.16496610641479492,0.25780153274536133,0.050135884,1.4005662,0.4661697028274658,0.0,0.0035921450452886215,0.0,200,0.16996121406555176,0.6453489530178295,0.3918517949000046,37000,0.07401752593349133,0.0
185,1.5420687198638916,0.3585815934122192,0.14871645404761846,0.4924955313357644,0.12899542110881074,0.0,0.12323959352621315,0.1,0.1543745994567871,1.9974825382232666,0.050222564,0.79260004,0.45541089188594114,0.0,0.0069963619974616285,0.0,200,0.3503603935241699,0.27578791709429823,0.263028533588173,37200,0.041088304407708276,0.0
186,1.657813310623169,0.6294539595569516,0.1861514657269076,0.9189587648372153,0.45101059130488474,0.0,0.1343387995540396,0.1,0.03328824043273926,0.05010271072387695,0.05017653,1.282164,0.47281519865304217,0.0,0.012291122753224006,0.0,200,0.12086820602416992,0.43371906762972423,0.30986020072138315,37400,0.06209924007229281,0.0
187,1.48036527633667,0.4470759283970344,0.19945025807125047,0.5914492824632916,0.10365917143242118,0.0,0.125055090600978,0.1,0.14921307563781738,0.3352048397064209,0.050164983,0.98922724,0.4702412716274414,0.0,0.008784382995341011,0.0,200,0.2588372230529785,0.2574541563388972,0.23638933661386188,37600,0.02551131730765176,0.0
188,1.5255911350250244,0.5599241508397027,0.26849311922884606,0.8812355842395349,0.23788553922849978,0.0,0.1242380256831553,0.1,0.14371585845947266,1.3079502582550049,0.04951441,1.4432112,0.47920955954866756,0.0,0.010982974635026403,0.0,200,0.11541318893432617,0.29825233023579184,0.2616231678110585,37800,0.0352409913982375,0.0
189,1.7467873096466064,0.6313410818862346,0.16380447048000124,0.7609817598143584,0.3599264459026087,0.0,0.12696286288763553,0.1,0.0026874542236328125,0.0486445426940918,0.05001775,1.0057187,0.4944227117824243,0.0,0.01240660560693881,0.0,200,0.18166518211364746,0.17745832713022808,0.13462130016376367,38000,0.02796824853170177,0.0
190,1.6066288948059082,0.5735366078257558,0.17709073219073093,0.8741062778147362,0.4426393711761774,0.0,0.1352435261643944,0.1,0.16319847106933594,0.6209757328033447,0.05042012,1.067287,0.5023341013867575,0.0,0.011224945764988267,0.0,200,0.0875699520111084,0.1557034125271942,0.1634953099567788,38200,0.03309894676734515,0.0
191,1.9250376224517822,0.365560135638352,0.15576978910295342,0.5092461033960419,0.10331147690522441,0.0,0.13062811065162525,0.1,0.0023505687713623047,0.04512214660644531,0.05047466,1.0580117,0.488656704811917,0.0,0.007237289057254877,0.0,200,0.019982576370239258,0.7998847950400186,0.6450259778470988,38400,0.026716836224841545,0.0
192,1.7124717235565186,0.4061088472493917,0.22732136073606582,0.7073547542133081,0.06738968851430392,0.0,0.13721638904331857,0.1,0.0028438568115234375,0.050594329833984375,0.049223803,1.0313612,0.4804019190556645,0.0,0.007888363563281616,0.0,200,0.03596639633178711,0.48526241480843674,0.3543382196725208,38600,0.024927160176696578,0.0
193,1.7149789333343506,0.4066301385903799,0.361131254924289,1.013698368311061,0.0631870989449528,0.0,0.13000033749950232,0.1,0.0027587413787841797,0.050385236740112305,0.05007033,1.4343873,0.473024741009136,0.0,0.007931175281664789,0.0,200,0.028063297271728516,0.5414777403231102,0.5125431295902754,38800,0.02560737903466753,0.0
194,1.5937325954437256,0.5451976717666657,0.2463924619419074,0.8725927542578835,0.18008292840776888,0.0,0.13309291325766173,0.1,0.0027468204498291016,0.04427981376647949,0.049974237,1.1031917,0.48024203408488897,0.0,0.010726988722378938,0.0,200,0.021042346954345703,0.2666102936450574,0.2858088406416405,39000,0.03294772721078783,0.0
195,5.071653366088867,0.49597479076119766,0.24944232264682803,0.8018997867493114,0.1393240346146426,0.0,0.12749953056818222,0.1,0.0025985240936279297,0.04466700553894043,0.050467804,1.4971651,0.48181530975251985,0.0,0.009642515914848805,0.0,200,0.027235746383666992,0.2935272986073518,0.2929761026919079,39200,0.1224511422462145,0.0
196,1.6755802631378174,0.40226489640097296,0.12719937571182338,0.5354002248507798,0.2269904933836423,0.0,0.12374000741236046,0.1,0.002565622329711914,0.048970699310302734,0.049935233,1.2624558,0.47386026841736517,0.0,0.007917040050420989,0.0,200,0.14946651458740234,0.13271693975757354,0.13121455095899495,39400,0.4678288618863666,0.0
197,1.636357069015503,0.4131760384211589,0.13787570597695956,0.6224288984824118,0.2585097996196945,0.0,0.1279526912408845,0.1,0.0022864341735839844,0.04178214073181152,0.0497747,1.4548966,0.4677918454177446,0.0,0.008069858768478223,0.0,200,0.05047798156738281,0.15384042961312477,0.15175389394099298,39600,0.041753592586321074,0.0
198,1.8100605010986328,0.5536307474958253,0.2472844237507512,0.927993179898287,0.26835941421286597,0.0,0.12809250017240217,0.1,0.1491851806640625,0.0433955192565918,0.04930069,1.6055523,0.4763757356255527,0.0,0.010796430401598901,0.0,200,0.0205690860748291,0.26402558618175453,0.2471727333975932,39800,0.1327135154342276,0.0
199,1.8012940883636475,0.44873802490554493,0.25735009872583586,0.8732442147034333,0.19182521004936784,0.0,0.13230050902657137,0.1,0.006397724151611328,0.049234867095947266,0.050777473,1.8765031,0.4736119645535519,0.0,0.008875424191883387,0.0,200,0.020891427993774414,0.33119124280603135,0.33097698744708903,40000,0.02718863672599538,0.0
200,1.6662449836730957,0.3644190810513144,0.11461850489680019,0.5060492878701179,0.19280366600473064,0.0,0.12979404000816394,0.1,0.0025200843811035156,0.04891014099121094,0.050768457,1.0583389,0.46269267620332816,0.0,0.00719524663696922,0.0,200,0.02898716926574707,0.18181145112233948,0.17526823212383685,40200,0.016876068748735696,0.0
201,1.6168925762176514,0.47154492730438524,0.16739344895378977,0.7284609760811308,0.30557118663323823,0.0,0.12923583525937077,0.1,0.0026056766510009766,0.04863739013671875,0.049480904,1.6885761,0.4635779013134339,0.0,0.009248060983644042,0.0,200,0.02933526039123535,0.1640653179448089,0.16147691650335003,40400,0.017812036533659335,0.0
202,1.8404197692871094,0.40495265190245733,0.10525731200607984,0.5634775664873403,0.2739480088796933,0.0,0.13202494805367251,0.1,0.002679109573364258,0.04813790321350098,0.049507342,1.2163877,0.4577153763723363,0.0,0.007939713407966148,0.0,200,0.020992755889892578,0.10844649967171222,0.10397142009532953,40600,0.018787176738527873,0.0
203,1.7622461318969727,0.42043342952622004,0.07633317558069173,0.4851570868106167,0.29393982738717617,0.0,0.13604358726363167,0.1,0.0028290748596191406,0.05819201469421387,0.05027105,0.8721205,0.4539871816877247,0.0,0.008232439065388012,0.0,200,0.042768001556396484,0.07650035829134486,0.07562029901012611,40800,0.030864214549943828,0.0
204,1.7124361991882324,0.6341795328042159,0.08849252679850646,0.7432590246894648,0.49692208634156554,0.0,0.1309259484962469,0.1,0.0027883052825927734,0.06306052207946777,0.04961858,1.0324188,0.47200641679937383,0.0,0.012401660191653594,0.0,200,0.051323890686035156,0.17759214171490165,0.1416885204863748,41000,0.04360924826525112,0.0
205,1.6950323581695557,0.5136055021092655,0.2790916922460921,0.7715434142662576,0.05041371235266031,0.0,0.12730784987523028,0.1,0.0042057037353515625,0.057573556900024414,0.04901963,0.9562596,0.476166325330363,0.0,0.01007604750499715,0.0,200,0.06351757049560547,0.2746868385661347,0.2696616093428736,41200,0.06648319773694057,0.0
206,1.759805679321289,0.29610956387851917,0.15674832043672854,0.5385280304463357,0.11088496126575793,0.0,0.1376091593534427,0.1,0.0028066635131835938,0.056569576263427734,0.050122127,0.9432815,0.4581606491851787,0.0,0.005851315866439451,0.0,200,0.3180215358734131,0.7355244652998877,0.6745232251036203,41400,0.12071522208309642,0.0
207,1.7021052837371826,0.31724277888601193,0.25044788412860763,0.7506225463897713,0.15512720172684707,0.0,0.1326735340031261,0.1,0.0027022361755371094,0.053984642028808594,0.049872912,1.321076,0.44406886215526203,0.0,0.006199717333806607,0.0,200,0.02472996711730957,0.6103081501307805,0.5050076373247004,41600,0.10275672097186522,0.0
208,1.7462472915649414,0.3660332285017996,0.16481810920261922,0.6296316685996384,0.18365081052067705,0.0,0.13219441106441218,0.1,0.002809762954711914,0.05086159706115723,0.050330944,1.4581943,0.4362652987899158,0.0,0.007069277959622945,0.0,200,0.0685124397277832,0.2444811455465269,0.2307963932114476,41800,0.07154485514923646,0.0
209,1.733048439025879,0.4890393143639826,0.06302446199920653,0.5377031181731642,0.383733260190313,0.0,0.13228516859255873,0.1,0.002652406692504883,0.046869754791259766,0.050167903,0.9306677,0.4415427003473225,0.0,0.009523672204361433,0.0,200,0.04420351982116699,0.11418750963002633,0.12608896185224663,42000,0.04497855383236576,0.0
210,1.727102518081665,0.6610790962157639,0.08930392130490579,0.7953102889573446,0.5518127962467231,0.0,0.12302063934444994,0.1,0.0025811195373535156,0.05026435852050781,0.050076053,2.1193466,0.4634963399341666,0.0,0.012913141516471402,0.0,200,0.3420829772949219,0.26829991735282155,0.21808019776487045,42200,0.04957207953508535,0.0
211,1.73323655128479,0.4906859819195728,0.13217765373832965,0.6484205143397826,0.3186174974868658,0.0,0.12351041021953633,0.1,0.0026335716247558594,0.05437946319580078,0.04929907,1.107206,0.4662153041327073,0.0,0.009589035316246743,0.0,200,0.0596308708190918,0.1830320260207782,0.16229963806024125,42400,0.03536057481320993,0.0
212,1.7610371112823486,0.48244505587869996,0.1593511424149532,0.6839982021476689,0.24395391321041965,0.0,0.12812058017191794,0.1,0.002733945846557617,0.04772472381591797,0.050059363,0.97130233,0.4678382793073066,0.0,0.009259195728010679,0.0,200,0.14597368240356445,0.14438498529273397,0.14022367709594472,42600,0.06096505693446505,0.0
213,1.7383317947387695,0.5858373906851408,0.19504404079243415,0.9174831022657874,0.4397419654565116,0.0,0.1349364684349745,0.1,0.002610921859741211,0.04475736618041992,0.049972232,1.0924088,0.47963819044509004,0.0,0.011332218096393596,0.0,200,0.06475424766540527,0.17450225787980014,0.1630286833268868,42800,0.14522559303510293,0.0
214,1.8475267887115479,0.4641995282851732,0.22608944509688866,0.7935104667959335,0.2478234206538569,0.0,0.13024550701303197,0.1,0.0035126209259033203,0.05523824691772461,0.05008285,1.5970819,0.47809432422909837,0.0,0.009042473381369246,0.0,200,0.04278111457824707,0.28250981774259365,0.29111640375879466,43000,0.5225570787714985,0.0
215,1.763200044631958,0.48787756017262696,0.16992245089023922,0.7377698433438381,0.3103903533930391,0.0,0.13502479567937606,0.1,0.0030002593994140625,0.0615842342376709,0.04998035,0.971602,0.47907264782345127,0.0,0.009608121612210668,0.0,200,0.02801203727722168,0.18673901969097534,0.1762911109388153,43200,0.46016883145795884,0.0
216,1.7395102977752686,0.4350621777694473,0.18720078700542025,0.6389214397280446,0.1987217215901862,0.0,0.12870414303346184,0.1,0.002790689468383789,0.051779747009277344,0.05033495,1.1662948,0.4746716008180509,0.0,0.008551802867121826,0.0,200,0.020589113235473633,0.30009208753584005,0.2532296032125307,43400,0.08198132443907977,0.0
217,1.6777143478393555,0.49861733079660164,0.17506455614291966,0.7705695598997421,0.31612346494118393,0.0,0.1331286708861449,0.1,0.0024166107177734375,0.047910451889038086,0.0498203,1.3044972,0.477066173815906,0.0,0.009748354051752384,0.0,200,0.3107790946960449,0.1804297079069983,0.17646833038286816,43600,0.0475333170946368,0.0
218,1.9641690254211426,0.4882868262054761,0.28527611798922786,0.8759499802991744,0.17441617677216797,0.0,0.12941624278571262,0.1,0.002919912338256836,0.06037187576293945,0.05008384,1.3925159,0.478188239054863,0.0,0.00949149745148455,0.0,200,0.03161787986755371,0.3068014441612746,0.30787386827835944,43800,0.033017476732997555,0.0
219,1.9781923294067383,0.5245929850629635,0.22285397651217123,0.9091199785325992,0.3798327392574332,0.0,0.1369533467978973,0.1,0.0030493736267089844,0.05578899383544922,0.04988679,1.2681626,0.48282871365567304,0.0,0.010323367914641998,0.0,200,0.06013798713684082,0.21031117717788667,0.20599627798596168,44000,0.033006262022347334,0.0
220,1.9376065731048584,0.32318364238799463,0.19975917095631082,0.6266257062642744,0.11113128464608071,0.0,0.1325013921523823,0.1,0.002865314483642578,0.0553131103515625,0.049688477,0.92433715,0.4668642065289052,0.0,0.00633797137487899,0.0,200,0.3462800979614258,0.45142643576787583,0.43486321067488587,44200,0.06561595126341854,0.0
221,1.7241339683532715,0.48987522429179053,0.13799794739397195,0.6121688310059409,0.25777189746362367,0.0,0.13967227831402146,0.1,0.0027604103088378906,0.05241894721984863,0.04976141,0.8599443,0.46916530830519376,0.0,0.009570266435942928,0.0,200,0.024970293045043945,0.1292694549848795,0.1308744192826825,44400,0.06601741056968104,0.0
222,1.726853370666504,0.47606822424547424,0.1918270009167553,0.7028728166925597,0.2672810161518339,0.0,0.12811727597897649,0.1,0.002614736557006836,0.049546003341674805,0.04976094,1.1039081,0.4698555998992218,0.0,0.009200087350335695,0.0,200,0.08341121673583984,0.20908942709333936,0.20791583005770264,44600,0.061654039083287905,0.0
223,1.6575419902801514,0.457307727625006,0.255298322403896,0.8870342158587393,0.2304184620637752,0.0,0.13278948185486034,0.1,0.00244903564453125,0.043372392654418945,0.050260395,2.004555,0.46860081267180026,0.0,0.008944889445907123,0.0,200,0.024991989135742188,0.2898563825284188,0.2872857516612252,44800,0.046502214699905904,0.0
224,1.7675158977508545,0.5864398130954755,0.3110656246971291,0.9291261100908877,0.10765014579163183,0.0,0.1338538819233476,0.1,0.0027115345001220703,0.05334830284118652,0.05018681,0.83838725,0.4803847127141678,0.0,0.01148265638690232,0.0,200,0.02204751968383789,0.30499936843424136,0.29018384547560866,45000,0.04170860865004645,0.0
225,1.671064853668213,0.4918990452244853,0.16512446077270726,0.62231567394061,0.21746404365181485,0.0,0.13554381274074215,0.1,0.0021588802337646484,0.04758310317993164,0.050210614,0.85995895,0.4815361459651996,0.0,0.009587336120434291,0.0,200,0.022684812545776367,0.12962835084795726,0.1274821173506908,45200,0.04881702929158036,0.0
226,1.8346045017242432,0.3540361917823295,0.17482173398364517,0.6536316198810894,0.23103139782816534,0.0,0.13078362002631932,0.1,0.002627849578857422,0.049353837966918945,0.04999118,1.1481739,0.4687861505469126,0.0,0.0069625243449084875,0.0,200,0.023799896240234375,0.3758107786735409,0.3615096603762909,45400,0.05977001051390151,0.0
227,1.7709391117095947,0.41409656413325013,0.1511491020806873,0.6452912384092593,0.26676377788670547,0.0,0.13202027366693575,0.1,0.005659580230712891,0.03790688514709473,0.050007176,1.4011782,0.4633171919055463,0.0,0.008048069992077165,0.0,200,0.24518060684204102,0.1849649958868375,0.16586216240688012,45600,0.1370334049585984,0.0
228,1.7581291198730469,0.3697154190163927,0.17199817674085657,0.5538933603273589,0.09169598651506089,0.0,0.1301954865825442,0.1,0.0027801990509033203,0.04935860633850098,0.04994817,1.0553936,0.45395701461663096,0.0,0.007241090216753192,0.0,200,0.06987237930297852,0.2914195378147382,0.23764341549603366,45800,0.08293749089534742,0.0
229,1.8442068099975586,0.24995166413216477,0.17874877156886887,0.5112424991189204,0.06770156157387351,0.0,0.1306382144002727,0.1,0.002560138702392578,0.04575157165527344,0.050180074,1.5270076,0.4335564795681843,0.0,0.0049661174211095725,0.0,200,0.03304934501647949,0.7013934335313831,0.4992621256680317,46000,0.0638858699597749,0.0
230,1.7451777458190918,0.279009153532282,0.2051778720336981,0.6012523311761948,0.089762697974185,0.0,0.13109704817983653,0.1,0.0027229785919189453,0.05585622787475586,0.050138842,1.2149166,0.4181017469645941,0.0,0.0054039550136813835,0.0,200,0.14506220817565918,0.4383752408345973,0.40877333895854406,46200,0.07390143397799473,0.0
231,1.846841812133789,0.40057916085527806,0.3106047165501874,0.9335991996188873,0.16460467110433707,0.0,0.13138919962936563,0.1,0.0025811195373535156,0.04915213584899902,0.049283933,1.34403,0.4163494883536625,0.0,0.0077934825655424115,0.0,200,0.022138357162475586,0.4697559481515229,0.48142408975794426,46400,0.06983543463153365,0.0
232,1.7762353420257568,0.36517858548409127,0.1793473534799442,0.5736650772393083,0.08246637515334514,0.0,0.13947963795909069,0.1,0.0026183128356933594,0.04656028747558594,0.05032562,0.94347954,0.41123239806670536,0.0,0.007124648236897202,0.0,200,0.0547327995300293,0.292709979566647,0.27719789038235915,46600,0.11840895331322572,0.0
233,1.7849047183990479,0.36047828245777513,0.15751218711127637,0.5920742697476667,0.17378647649297624,0.0,0.14051321882356807,0.1,0.002434968948364258,0.05076241493225098,0.05014099,0.88003165,0.40615698650581233,0.0,0.007058644039193087,0.0,200,0.030059099197387695,0.22127437615478138,0.21330280501569585,46800,0.0998916167897772,0.0
234,1.793313980102539,0.4351613895825559,0.322866788920849,0.9712516930868318,0.14589880415648127,0.0,0.1250663060772971,0.1,0.0024633407592773438,0.044579505920410156,0.048944544,2.0481765,0.40905742681348667,0.0,0.008584863487357111,0.0,200,0.014578104019165039,0.43893343507889565,0.42356751948606747,47000,0.06451615763060446,0.0
235,1.9197208881378174,0.3043543742009346,0.04222580382244137,0.36631290837864633,0.26056028443849033,0.0,0.1224511672268993,0.1,0.002583742141723633,0.04825544357299805,0.050168734,1.1431259,0.39858712155223147,0.0,0.005944307983388639,0.0,200,0.01631641387939453,0.13924971967236893,0.16905603764454724,47200,0.08082323018872083,0.0
236,1.7791755199432373,0.37368040572096567,0.22396906502562244,0.693818803350438,0.14439845547038485,0.0,0.12180520577416581,0.1,0.0025739669799804688,0.04950141906738281,0.04998376,1.8133311,0.3960964499691049,0.0,0.007202077784386695,0.0,200,0.029474496841430664,0.29122679300597154,0.28971160704416465,47400,0.08102762262658789,0.0
237,1.8549354076385498,0.5987171212221043,0.2167291690048381,0.9233720562812957,0.3454808172770972,0.0,0.13995843692358356,0.1,0.002693653106689453,0.06607818603515625,0.049949847,1.0069889,0.41635851709440486,0.0,0.011633862495865347,0.0,200,0.15081048011779785,0.3116269773803564,0.2716847968512576,47600,0.07343599921571396,0.0
238,1.8252782821655273,0.5327575274886636,0.45476291566536703,1.0973254698994976,0.04042296925772803,0.0,0.12933323468296742,0.1,0.0025997161865234375,0.04685163497924805,0.04974752,1.2202146,0.42799841813383077,0.0,0.01037526471038739,0.0,200,0.03937125205993652,0.4824079071565929,0.4574967244901165,47800,0.041917263881745444,0.0
239,1.741783857345581,0.5778172739061302,0.13353467348535428,0.7556634545166846,0.4422753112379062,0.0,0.13647125000332272,0.1,0.0028069019317626953,0.05295515060424805,0.05037589,0.8548537,0.44298030371106073,0.0,0.011223037856557998,0.0,200,0.037661075592041016,0.13205353338998926,0.10925598309489912,48000,0.0293972053852969,0.0
240,1.745983362197876,0.4234989639946315,0.17967848959581356,0.6630010499769712,0.22461773837238733,0.0,0.13298933454482495,0.1,0.0028307437896728516,0.05038881301879883,0.049735732,1.1002662,0.44103216973941783,0.0,0.008312023238933777,0.0,200,0.18059682846069336,0.3023309259605168,0.32109534706173154,48200,0.04366150790764852,0.0
241,1.7041735649108887,0.6382879947625997,0.2945876643624443,0.9750205260321988,0.3093465023118541,0.0,0.13487935686270244,0.1,0.0028066635131835938,0.05797529220581055,0.04972671,1.0279573,0.46075775224173604,0.0,0.012471208812249598,0.0,200,0.031237363815307617,0.23999887415772314,0.230708720540461,48400,0.0612937026159994,0.0
242,1.7922108173370361,0.5638028923630902,0.17710265585398086,0.8446173851095721,0.3867140516138444,0.0,0.13421932587797406,0.1,0.0026810169219970703,0.04979205131530762,0.04998069,0.98186857,0.4710622662538715,0.0,0.011038150783072248,0.0,200,0.06548094749450684,0.1333018110862882,0.1302306781506198,48600,0.04011195114341433,0.0
243,1.7375187873840332,0.5315521140372227,0.2211722887601993,0.8047663176301791,0.20135378794805542,0.0,0.13465750124820955,0.1,0.016617536544799805,0.05079245567321777,0.04991295,0.8218399,0.4771112510322066,0.0,0.010460226994686909,0.0,200,0.051087141036987305,0.21858979454137714,0.21169995121755972,48800,0.06583850289463802,0.0
244,1.8211960792541504,0.5471350721183117,0.1288464507099504,0.6967606109210885,0.34283257365347475,0.0,0.13057706969324878,0.1,0.06659102439880371,0.05115151405334473,0.049290027,1.4562004,0.48411363314081707,0.0,0.010690330191454385,0.0,200,0.08289790153503418,0.10783981785102349,0.09994606421131934,49000,0.05684511485787543,0.0
245,1.7007272243499756,0.5018940458676618,0.12255147129769903,0.611025128494437,0.29569275677263496,0.0,0.12684359216873656,0.1,0.002398967742919922,0.04811978340148926,0.049092155,2.0343761,0.48589167441350156,0.0,0.009798202015585372,0.0,200,0.29315924644470215,0.09787401503266169,0.0885290175468618,49200,0.07563735946786175,0.0
246,1.677274227142334,0.5427656176112656,0.32132155207339924,1.0349724896416155,0.1937775136215907,0.0,0.12188958279450478,0.1,0.0032913684844970703,0.05002403259277344,0.05001502,2.4985418,0.49157906873327795,0.0,0.010671145650056668,0.0,200,0.06471776962280273,0.31455968389903355,0.31154628264794865,49400,0.11887915538001487,0.0
247,1.9493896961212158,0.42759749440494865,0.08045108273668888,0.5605820011712673,0.35985604071770116,0.0,0.12889943727238828,0.1,0.0027375221252441406,0.04732179641723633,0.05007948,1.1069882,0.48518091130044505,0.0,0.008405344458138186,0.0,200,0.05851387977600098,0.08448186943035037,0.07475494165092123,49600,0.13080597095941818,0.0
248,1.9612441062927246,0.47594974500896586,0.1818579845042366,0.7376925269683767,0.23134968082011706,0.0,0.13500524367275119,0.1,0.0025429725646972656,0.047803401947021484,0.04950129,0.9428236,0.48425779467129715,0.0,0.009379515278484272,0.0,200,0.02021312713623047,0.1512739208524528,0.1503687579099367,49800,0.06719676569244264,0.0
249,1.8124163150787354,0.3895713094464267,0.09650501079877898,0.5440365595410993,0.2783528339855056,0.0,0.132845074091931,0.1,0.002746105194091797,0.048902034759521484,0.04997405,1.225282,0.47478914614881007,0.0,0.007687242962199027,0.0,200,0.07212686538696289,0.1589252030546688,0.1338745260351616,50000,0.03900503330908827,0.0
250,1.7883524894714355,0.7394004276793553,0.19626970428065868,1.0133779690007843,0.4848332087868058,0.0,0.1378194565880857,0.1,0.0026955604553222656,0.047066450119018555,0.04993512,0.9351807,0.5012502743018645,0.0,0.014443959927199263,0.0,200,0.0796198844909668,0.27364734303486665,0.22925367347749734,50200,0.0594365086021682,0.0
251,1.8313086032867432,0.5329917034185543,0.15983819283877715,0.6389072383209058,0.25715550673899695,0.0,0.1263391006943505,0.1,0.0026922225952148438,0.04924607276916504,0.05057914,0.9014922,0.5044244172135335,0.0,0.01037301324071405,0.0,200,0.050643205642700195,0.11485566925366944,0.11661728993350103,50400,0.05011225089179679,0.0
252,1.7411434650421143,0.48487067732266753,0.27193500122575076,0.9453829432319625,0.23927019815856318,0.0,0.12998341651241707,0.1,0.10340547561645508,0.051096439361572266,0.049985167,1.8874756,0.502469043224447,0.0,0.009589221590599394,0.0,200,0.07626533508300781,0.31139761894275086,0.3184208345869855,50600,0.082055932420792,0.0
253,1.8065950870513916,0.7341480004769119,0.16069985705182585,0.8857265478716371,0.4692971422441363,0.0,0.12900091396075467,0.1,0.0027141571044921875,0.04946589469909668,0.050500065,0.90465564,0.5256369389496935,0.0,0.014313583349944781,0.0,200,0.019170522689819336,0.1390504641336627,0.1187135930345889,50800,0.06954999244963542,0.0
254,1.6862170696258545,0.45335863567982015,0.2913936171125821,0.784537884548684,0.0864389617347483,0.0,0.12805885556861898,0.1,0.006740093231201172,0.044206857681274414,0.050007697,0.8982656,0.5184091086227062,0.0,0.008704435885966408,0.0,200,0.029997587203979492,0.35401801441414066,0.354344086434834,51000,0.15486758631936617,0.0
255,1.8815162181854248,0.40566171459597755,0.14796840914249937,0.5796301476261119,0.1858864166185825,0.0,0.13289792122116856,0.1,0.002694845199584961,0.04755663871765137,0.050337344,0.9413806,0.5071343692200333,0.0,0.007915296351318032,0.0,200,0.01706528663635254,0.33245683474309484,0.22939880249758693,51200,0.13770484048675136,0.0
256,1.8426320552825928,0.6242390473524742,0.15591639854991093,0.8153524814694462,0.39464573148243537,0.0,0.1331515835065857,0.1,0.002607107162475586,0.050611019134521484,0.050553963,0.7650891,0.5188448370332774,0.0,0.012172817655145272,0.0,200,0.10117006301879883,0.1164454142423169,0.12962866964730904,51400,0.06449537306369993,0.0
257,1.7530512809753418,0.6600424541548466,0.27103531848540874,1.016601736133062,0.3121993823894636,0.0,0.13123481503396778,0.1,0.0024328231811523438,0.0435636043548584,0.049509555,1.0416614,0.5329645987454343,0.0,0.012729774544039334,0.0,200,0.018909215927124023,0.22125489567281903,0.21545922898344697,51600,0.06876039714031931,0.0
258,1.728384017944336,0.3469963468617206,0.2048825154571519,0.7009540230553569,0.20507754378881202,0.0,0.11915229319570811,0.1,0.002752542495727539,0.05206465721130371,0.04943962,1.4501224,0.514367773557063,0.0,0.00674667264769983,0.0,200,0.020904064178466797,0.43831033321419843,0.4130421460284163,51800,0.07850740161270565,0.0
259,1.7886638641357422,0.6175939077784675,0.3795894176546612,1.0542612103104143,0.06894785038841762,0.0,0.1332886080355888,0.1,0.0025920867919921875,0.0532071590423584,0.05063689,0.74625885,0.5246903869792034,0.0,0.012104561540389585,0.0,200,0.03693652153015137,0.338349060481217,0.3365879586874048,52000,0.14397441804781544,0.0
260,1.83729887008667,0.657256621188574,0.22707211520474319,1.0336345732119365,0.425672174970569,0.0,0.1309984904386027,0.1,0.002657651901245117,0.051483154296875,0.0498003,1.1874598,0.5379470104001405,0.0,0.012919173629140105,0.0,200,0.08307695388793945,0.19846664367594638,0.17927651142234302,52200,0.10125853105976983,0.0
261,1.7820477485656738,0.5338284415839989,0.13453993328147754,0.6810061630883035,0.3149940617626045,0.0,0.1357030009850588,0.1,0.002462625503540039,0.0491480827331543,0.05032515,0.96613866,0.5375351535185263,0.0,0.010484471942910039,0.0,200,0.13754844665527344,0.0849694160079375,0.08812808863721687,52400,0.17151622313623002,0.0
262,1.880828619003296,0.46258227554444536,0.10565426829730191,0.5928245880536472,0.3256586467977321,0.0,0.140032258345883,0.1,0.17985224723815918,0.16858696937561035,0.050513573,0.7798731,0.5300398657211183,0.0,0.00898894663900914,0.0,200,0.21389532089233398,0.11759696368416077,0.10899196398995173,52600,0.20376881427843005,0.0
263,1.869286298751831,0.5393680278129332,0.22779299386707094,0.7888012492363674,0.22719929439807862,0.0,0.13138036961318242,0.1,0.002562284469604492,0.045557498931884766,0.04949273,1.3785123,0.5309726819302998,0.0,0.010568860713297152,0.0,200,0.039739131927490234,0.21209024897786732,0.2045229007189544,52800,0.203920685016675,0.0
264,1.7007508277893066,0.7685716252263923,0.10275852520863459,0.8827811273290941,0.6378101820745739,0.0,0.13437555372024068,0.1,0.010153532028198242,0.04813551902770996,0.049799573,0.79910684,0.5547325762599091,0.0,0.015128147403160106,0.0,200,0.09939360618591309,0.13740736767482656,0.11895419745613868,53000,0.16114522932146966,0.0
265,1.9237937927246094,0.4840487257086188,0.13781593014956608,0.5886822260081919,0.24934455163071728,0.0,0.133761297386898,0.1,0.002596139907836914,0.049254655838012695,0.050240893,0.8077991,0.54766419120478,0.0,0.009427129695130073,0.0,200,0.15807867050170898,0.14199015313690147,0.1549727169749573,53200,0.09258271145426743,0.0
266,1.8333327770233154,0.7309637490970959,0.21152638540007787,0.9680620992540936,0.42836700692823343,0.0,0.13248987404072543,0.1,0.002488851547241211,0.04560136795043945,0.050288558,0.9992592,0.5659941469940116,0.0,0.014196500997771365,0.0,200,0.021665334701538086,0.13148746359939623,0.11833662681117843,53400,0.1108166499201453,0.0
267,1.7466440200805664,0.6704116321229825,0.027710317347954403,0.7113310175459614,0.6366942058204388,0.0,0.12912379337780006,0.1,0.13959383964538574,0.09227442741394043,0.049491145,4.0718904,0.5764358955069088,0.0,0.013222671512929088,0.0,200,0.1607656478881836,0.05579947829007965,0.04878068126840606,53600,0.14631606296902544,0.0
268,1.8599843978881836,0.51916964185786,0.32394480928622477,0.8723247616667835,0.08468839385820934,0.0,0.132901945084976,0.1,0.002568483352661133,0.04608321189880371,0.050391674,0.82148653,0.5707092701420039,0.0,0.0102042575862759,0.0,200,0.09381556510925293,0.36534521963420946,0.352579249840664,53800,0.15113505458355084,0.0
269,1.802757978439331,0.5811487397735793,0.17020800109157233,0.8610810719571727,0.4051889885837597,0.0,0.13604984290717367,0.1,0.002594470977783203,0.049959659576416016,0.049839355,1.4171566,0.5717532171051615,0.0,0.01142321296906626,0.0,200,0.06505441665649414,0.14262691459367013,0.13021328023922327,54000,0.17993584331263332,0.0
270,1.6851487159729004,0.2024501310024004,0.10851036412443467,0.3800650159686972,0.11074641661964835,0.0,0.13373172730853697,0.1,0.0025527477264404297,0.04541969299316406,0.050354317,0.83483696,0.5348229084948855,0.0,0.003984951000517441,0.0,200,0.014778852462768555,3.698680379514812,1.8910141699981622,54200,0.1978546916887063,0.0
271,1.7927532196044922,0.6044967301255003,0.28790626350611576,1.098014527076311,0.4019866168329766,0.0,0.13453638061073483,0.1,0.0026416778564453125,0.051193952560424805,0.049519677,1.1581424,0.5417902906579469,0.0,0.01190184140100568,0.0,200,0.023677587509155273,0.25687398913614196,0.3147713648686534,54400,0.2201617521299619,0.0
272,1.8247272968292236,0.7949277341912739,0.2684820170497107,1.1980750721090359,0.5502117248799977,0.0,0.13320897321178998,0.1,0.0031049251556396484,0.04926633834838867,0.04962759,1.1759765,0.5671040350112796,0.0,0.01553194721456172,0.0,200,0.15949654579162598,0.3852624425439965,0.32389309058505317,54600,0.19645995868246216,0.0
273,1.8124792575836182,0.42452253978274235,0.14224129925863305,0.5914989308295612,0.2254735685263781,0.0,0.12502831623713898,0.1,0.0028977394104003906,0.04884791374206543,0.04977134,0.8378604,0.5528458854884258,0.0,0.008372604299250073,0.0,200,0.22787880897521973,0.147293473340696,0.16469296602548542,54800,0.13876931395905134,0.0
274,1.75242280960083,0.5573166997724568,0.17890912634789202,0.7002871695080922,0.26166790803696494,0.0,0.13371820941074078,0.1,0.0027565956115722656,0.05042529106140137,0.04965515,0.8150522,0.5532929669168289,0.0,0.010740286214223805,0.0,200,0.03792452812194824,0.1344207714985458,0.12127664766610294,55000,0.1678904557720314,0.0
275,1.8495535850524902,0.6148279695290004,0.18636001429329882,0.8768098537395851,0.4186182572162345,0.0,0.1333681822413849,0.1,0.002705097198486328,0.051142215728759766,0.04981163,1.8047786,0.5594464671780461,0.0,0.012101608177609708,0.0,200,0.2568552494049072,0.12616584576663142,0.1185803215411329,55200,0.14415836307489066,0.0
276,1.792142629623413,0.44381554170441895,0.11304549583703824,0.5661782428206014,0.275274677055567,0.0,0.14367267962448577,0.1,0.0026547908782958984,0.048955678939819336,0.050588533,0.75091416,0.5478833746306834,0.0,0.008724224860149503,0.0,200,0.020962238311767578,0.2379053718798009,0.23309035691155647,55400,0.27100173824184104,0.0
277,1.818366527557373,0.47732060323977366,0.22709506930544662,0.8450764746414569,0.23229501151396476,0.0,0.13018157155950294,0.1,0.002722024917602539,0.05084872245788574,0.049925327,1.2414092,0.5408270974915924,0.0,0.009343244152452707,0.0,200,0.057851552963256836,0.2472851341276761,0.22137917097434856,55600,0.17551895174399057,0.0
278,1.731628179550171,0.42611219184928506,0.11206855814762663,0.5973019029191107,0.299722595637002,0.0,0.13345824075881252,0.1,0.0025835037231445312,0.04606366157531738,0.04976564,0.9726393,0.5293556069273617,0.0,0.008344748852865179,0.0,200,0.02887272834777832,0.15445950058729632,0.11505984040991588,55800,0.14085664168791753,0.0
279,1.8069448471069336,0.5471278139307617,0.15049881107061047,0.7400383614667311,0.356037772185416,0.0,0.13273482914258253,0.1,0.002433300018310547,0.05415058135986328,0.05043124,1.8625655,0.5311328276277018,0.0,0.010765175416020541,0.0,200,0.1295318603515625,0.11464655789580676,0.123597412438473,56000,0.17045810689901497,0.0
280,1.7584364414215088,0.6526154809781007,0.19740620702639222,0.8913984809656675,0.3713262206441168,0.0,0.13102844524950152,0.1,0.16117620468139648,0.4195210933685303,0.050000384,1.5255101,0.5432810929627416,0.0,0.012791614090202325,0.0,200,0.12493681907653809,0.17836108102893652,0.16629665839016622,56200,0.13163002268298785,0.0
281,1.8608508110046387,0.6924510006736373,0.13890507078358974,0.8646471154024477,0.4824166152377715,0.0,0.13040442103354175,0.1,0.0024352073669433594,0.0435788631439209,0.05003374,1.7964076,0.5581980837338312,0.0,0.013476954333406004,0.0,200,0.023032665252685547,0.16673070275587606,0.12161772305206878,56400,0.1748609138066459,0.0
282,1.8850624561309814,0.6612574280432078,0.30681224038025634,1.0743190504513387,0.26305668870398174,0.0,0.1310245569873887,0.1,0.0027589797973632812,0.05298733711242676,0.049687687,1.1538072,0.5685040181647689,0.0,0.012996085703891231,0.0,200,0.044425249099731445,0.23611498804310185,0.21905935441623542,56600,0.18590712620506777,0.0
283,1.7822275161743164,0.5047599558102038,0.0831955238143016,0.5965936056199104,0.3704293735884656,0.0,0.13322364511496157,0.1,0.0024077892303466797,0.04301929473876953,0.049745593,0.92098594,0.5621296119293124,0.0,0.009910861565816092,0.0,200,0.07547974586486816,0.13416830741565286,0.15185624613792822,56800,0.2530549658240307,0.0
284,1.8155369758605957,0.7382109547906415,0.21258869015240853,1.0031174689297666,0.4131021414415487,0.0,0.130564639847885,0.1,0.002645730972290039,0.05628228187561035,0.050029058,0.8564296,0.5797377462154454,0.0,0.014359427136062801,0.0,200,0.018477439880371094,0.14194850201749304,0.13190418835444057,57000,0.1720589457586529,0.0
285,1.8563077449798584,0.6011600945675181,0.17089405197229893,0.8960228563748381,0.4851431482220647,0.0,0.13875538107214375,0.1,0.0027625560760498047,0.05108380317687988,0.049906556,1.0386137,0.5818799810506526,0.0,0.011730917231368217,0.0,200,0.038866519927978516,0.10723484768902011,0.10975806523282763,57200,0.2651823893791362,0.0
286,1.8233704566955566,0.5422063687583714,0.2536273280860806,0.8697996182921959,0.264350527544054,0.0,0.13456236892913517,0.1,0.0027320384979248047,0.0506129264831543,0.049989175,0.96866715,0.5779126198214245,0.0,0.010606363990888202,0.0,200,0.0986630916595459,0.23837058496597413,0.22411860127134658,57400,0.2434946631413374,0.0
287,1.882699728012085,0.542044257467016,0.06100512547537571,0.6303779128561653,0.466395220312957,0.0,0.13239665304770384,0.1,0.002670764923095703,0.05067300796508789,0.04995755,2.409847,0.5743257835859836,0.0,0.010658127292837336,0.0,200,0.03868699073791504,0.09627878182016994,0.06488565726325891,57600,0.16934661390236094,0.0
288,1.8470664024353027,0.36843172403140756,0.19458156015606154,0.5439775622636751,0.05598924636862704,0.0,0.1349650162713605,0.1,0.0025718212127685547,0.04866528511047363,0.05019936,0.79899526,0.553736377630526,0.0,0.007235040519212911,0.0,200,0.05009770393371582,0.4923953312832313,0.33441711988907935,57800,0.11273089040146096,0.0
289,1.8684773445129395,0.3536831911997092,0.08247778167954485,0.47002226913464745,0.2735771764815156,0.0,0.1270150709524887,0.1,0.0024912357330322266,0.04993891716003418,0.050197247,0.9551109,0.5337310589874443,0.0,0.006974480776081011,0.0,200,0.02481532096862793,0.32691041268674587,0.15856259398617903,58000,0.34077597988293057,0.0
290,1.9031002521514893,0.7259899993511576,0.21191182559262695,1.0274006248375647,0.47458223713862857,0.0,0.13672422422949357,0.1,0.0025911331176757812,0.050881385803222656,0.04958955,1.2970356,0.5529569530238156,0.0,0.01428089856919916,0.0,200,0.3002784252166748,0.26530002888046844,0.27907321280833336,58200,0.31981184335713275,0.0
291,1.8882615566253662,0.5301700081808953,0.07722417719624326,0.5900098873492207,0.3989356764958148,0.0,0.13698498375784052,0.1,0.0027768611907958984,0.0528106689453125,0.050465927,0.92585313,0.5506782585395237,0.0,0.01033718130253333,0.0,200,0.03901863098144531,0.10664987269231625,0.07914645953289173,58400,0.30219137817421865,0.0
292,1.9032270908355713,0.5297611621804184,0.13703256213241646,0.6930384578110937,0.31346966895493256,0.0,0.1228848216034525,0.1,0.0026063919067382812,0.050252676010131836,0.050191056,1.1952702,0.5485865489036131,0.0,0.010369562338563685,0.0,200,0.04837799072265625,0.10418776708353462,0.08567559803242593,58600,0.31573000387899613,0.0
293,1.8459203243255615,0.5869371005478733,0.15724730829642816,0.831894881720525,0.43899187461378214,0.0,0.1317920316381331,0.1,0.0027451515197753906,0.05087614059448242,0.05035728,1.0335388,0.5524216040680392,0.0,0.01148291152802614,0.0,200,0.055991172790527344,0.11053763472043703,0.09313402185764992,58800,0.2918998968018491,0.0
294,1.8604164123535156,0.4268186396386351,0.20244520803461336,0.6440991712666201,0.17719605512983544,0.0,0.13296346782238214,0.1,0.002561330795288086,0.04435229301452637,0.04987059,0.82161325,0.5398613076250988,0.0,0.00841676924784539,0.0,200,0.019337892532348633,0.2571082566079002,0.274375482813561,59000,0.27125444873104826,0.0
295,1.72892427444458,0.5673255400758013,0.2292026052238735,0.8581365831268191,0.21568563459482562,0.0,0.13423134136239107,0.1,0.002315998077392578,0.04582667350769043,0.04982438,0.9859957,0.542607730870169,0.0,0.011069198290225183,0.0,200,0.01920604705810547,0.17761604668342795,0.17579307427330168,59200,0.31526444537335946,0.0
296,1.7876660823822021,0.510611997522486,0.09347788825689782,0.6621895986603281,0.4290283618554787,0.0,0.12447129848908431,0.1,0.002459287643432617,0.04529929161071777,0.04983664,2.0663052,0.5394081575354007,0.0,0.010100797584048023,0.0,200,0.019522428512573242,0.0724962286186623,0.06470838975380416,59400,0.32172696411799867,0.0
297,2.136043071746826,0.5613555077190934,0.24264490473935132,0.9418166557041865,0.3348672334464094,0.0,0.13059913583811594,0.1,0.0028867721557617188,0.054718732833862305,0.04993408,1.2322896,0.54160289255377,0.0,0.010932355099589383,0.0,200,0.023557424545288086,0.1981550453468139,0.19507301083785739,59600,0.30504475150559435,0.0
298,2.0836076736450195,0.6740904542867506,0.2190813264253729,0.8918969500211111,0.3383693995610504,0.0,0.12986791150453317,0.1,0.07965326309204102,0.052693843841552734,0.050143078,0.96538955,0.5548516487270682,0.0,0.013164602822233345,0.0,200,0.13796210289001465,0.17876550135522223,0.16585640207650892,59800,0.4295054673170484,0.0
299,1.9686939716339111,0.6599814115790044,0.15631856448146528,0.8389067246032877,0.420875336366874,0.0,0.1420000757482181,0.1,0.002670764923095703,0.052963972091674805,0.049661804,0.9688129,0.5653646250122618,0.0,0.012985934276047346,0.0,200,0.016007423400878906,0.11561789485407031,0.09418462954704865,60000,0.37463384572737884,0.0
300,1.8922710418701172,0.4780453488949291,0.2964544844811375,0.7842719942192126,0.17310464787092655,0.0,0.1348667161876794,0.1,0.002626657485961914,0.05505871772766113,0.050304458,2.6085076,0.5566326974005286,0.0,0.009361433271393528,0.0,200,0.21607613563537598,0.35205105004064996,0.36373959878251405,60200,0.5708710865235281,0.0
301,1.8802812099456787,0.4969278259592258,0.12598257433369855,0.628648632666669,0.3077535101318918,0.0,0.13779850948282107,0.1,0.002579927444458008,0.04808211326599121,0.049645834,0.8725905,0.5506622102563983,0.0,0.009728769598430727,0.0,200,0.1900343894958496,0.14692582613520921,0.12697073253799868,60400,0.45357594559537184,0.0
302,1.927112340927124,0.6035729762497433,0.15407547515343328,0.8581356393162406,0.47963575295958744,0.0,0.13672795368723406,0.1,0.002728700637817383,0.04927253723144531,0.05073918,1.10581,0.5559532868557329,0.0,0.011831634708455328,0.0,200,0.14249038696289062,0.08362638201471262,0.08507630362077194,60600,0.34091523841694255,0.0
303,1.9108142852783203,0.5598364897088661,0.2460472320515443,0.9058861314683874,0.21049567776026992,0.0,0.1348991761241393,0.1,0.0025627613067626953,0.04719042778015137,0.049638003,0.85513633,0.5563416071410462,0.0,0.010961447043621434,0.0,200,0.273944616317749,0.196331135545209,0.1956791157927626,60800,0.3892383133308322,0.0
304,1.9236574172973633,0.3643937856744817,0.1638329047805608,0.6395422903043504,0.23104177045829208,0.0,0.13458237421821964,0.1,0.18528532981872559,0.23042941093444824,0.050109256,1.3279823,0.5371468249943897,0.0,0.0072121081592485935,0.0,200,0.06368756294250488,0.37936903170297986,0.2978143597732425,61000,0.3412103795726264,0.0
305,1.91633939743042,0.42772621515641224,0.26149793037645547,0.8609496877861671,0.1647359311917684,0.0,0.13032874405015943,0.1,0.0026137828826904297,0.05041170120239258,0.049672145,1.6275595,0.526204764010592,0.0,0.008429331737169518,0.0,200,0.30364513397216797,0.32202577190485526,0.29758593903190916,61200,0.31248346756791173,0.0
306,1.9111289978027344,0.42326016467381117,0.12069167439285376,0.6292849173690209,0.3222765549104589,0.0,0.1281201339154509,0.1,0.0025849342346191406,0.04635167121887207,0.05025446,1.1752492,0.515910304076914,0.0,0.00831125431448985,0.0,200,0.14513134956359863,0.13231513024577723,0.12481990433952797,61400,0.29882995900401527,0.0
307,1.9053969383239746,0.557174921532682,0.12427791145125357,0.7706733276548294,0.4626653780812274,0.0,0.13146091139514754,0.1,0.0024259090423583984,0.04636120796203613,0.04953847,1.3253856,0.5200367658224908,0.0,0.010900808997035782,0.0,200,0.035082101821899414,0.12948437100119992,0.1295766929117852,61600,0.34340602363985967,0.0
308,1.8469202518463135,0.5397087527933689,0.2383659618318941,0.8174762188515454,0.15915150345079138,0.0,0.13411055515179612,0.1,0.0027620792388916016,0.049928903579711914,0.04986017,1.1562874,0.5220039645195786,0.0,0.010627066249853333,0.0,200,0.15040063858032227,0.24116106373378088,0.22239401484200766,61800,0.30123989727713235,0.0
309,1.890348196029663,0.706631844163147,0.238028140816024,0.9925252458210796,0.3316250137471386,0.0,0.12963810274137685,0.1,0.002679586410522461,0.04699587821960449,0.05040515,1.1246265,0.5404667524839355,0.0,0.013864263718037163,0.0,200,0.035210371017456055,0.25939269474811,0.20979650334001848,62000,0.334022067443506,0.0
310,1.8853247165679932,0.5074361327120581,0.18673326344248228,0.7806978638830936,0.2725729129547647,0.0,0.1292048661069087,0.1,0.0027179718017578125,0.04975152015686035,0.050306752,1.8340143,0.5371636905067478,0.0,0.00986117248766345,0.0,200,0.0269317626953125,0.14931722706857153,0.1663630410553918,62200,0.286252118857999,0.0
311,2.1276960372924805,0.6081830598017155,0.2246463011866899,0.8520085205420497,0.2807459217702199,0.0,0.131386317376929,0.1,0.00273895263671875,0.046990156173706055,0.049850896,0.9988401,0.5442656274362446,0.0,0.011808003168231563,0.0,200,0.01635265350341797,0.1764921020444172,0.17589575292794415,62400,0.23053745065956488,0.0
312,1.9411594867706299,0.4503962013302066,0.21593881669622061,0.6872579173694252,0.13627105646021195,0.0,0.13046583698196526,0.1,0.16616058349609375,0.2531607151031494,0.050135087,0.8150136,0.5348786848256408,0.0,0.008865276028037033,0.0,200,0.3751044273376465,0.32915491366265465,0.31063569379535705,62600,0.27057238655050997,0.0
313,1.884028673171997,0.5111447654654283,0.3593509859036192,1.0575506176925697,0.07237148743826378,0.0,0.1283481149933629,0.1,0.002338886260986328,0.0491490364074707,0.050248396,1.3179713,0.5325052928896196,0.0,0.009965271522335034,0.0,200,0.14971613883972168,0.3554538385970594,0.34291031553380824,62800,0.22386923268689884,0.0
314,1.8559305667877197,0.4960028868332859,0.29406514162921127,0.9695095217613272,0.17023485672941857,0.0,0.1303768522955435,0.1,0.002733945846557617,0.05589866638183594,0.04988398,1.446199,0.5288550522839862,0.0,0.009816394198269303,0.0,200,0.15169382095336914,0.33234364767531205,0.3125513804801689,63000,0.20122370704654716,0.0
315,2.0531294345855713,0.6166288435764825,0.33418054234919015,1.0406063356286566,0.13531901160872195,0.0,0.1263344565402895,0.1,0.0027899742126464844,0.05222201347351074,0.04971926,1.266825,0.5376324314132358,0.0,0.012151666272606896,0.0,200,0.037224769592285156,0.3065268171565915,0.3059205053811717,63200,0.17488408181680812,0.0
316,1.854057788848877,0.6890018933864831,0.10881837559973877,0.8741933905339314,0.5948106133733763,0.0,0.13091383600618664,0.1,0.002660512924194336,0.05364394187927246,0.049892273,1.4683175,0.5527693776105606,0.0,0.013547508876423281,0.0,200,0.07270121574401855,0.12505448236038194,0.09125066475266548,63400,0.2693063260914839,0.0
317,1.8845689296722412,0.6487111041649827,0.2505967509110255,1.0514113442471893,0.4247108541960834,0.0,0.12627877621136688,0.1,0.002607107162475586,0.049025535583496094,0.049566817,1.746701,0.5623635502660028,0.0,0.012716365447370875,0.0,200,0.3297159671783447,0.20797216874156962,0.18591615729783156,63600,0.24843744591264552,0.0
318,1.891836404800415,0.5798141174003335,0.31097116804228625,1.0477906021980752,0.1759574031174682,0.0,0.13255541261376025,0.1,0.0028412342071533203,0.04941844940185547,0.049748775,1.1346327,0.5641086069794359,0.0,0.011392623397792226,0.0,200,0.06675171852111816,0.2394380624408136,0.24238635889063326,63800,0.2867988065565227,0.0
319,1.825423240661621,0.4159883826724066,0.1465184130075169,0.6652675170365275,0.2882641167535928,0.0,0.13043628745238894,0.1,0.002821683883666992,0.049562931060791016,0.049912985,1.1615316,0.549296584548733,0.0,0.008153063883239352,0.0,200,0.031232118606567383,0.4831790800156351,0.28482247642741243,64000,0.3066013376461,0.0
320,1.8075346946716309,0.3769982890727838,0.2250218176491879,0.6437683966286512,0.05718054080176099,0.0,0.1327826493645876,0.1,0.0024967193603515625,0.04537153244018555,0.04961743,0.7097179,0.5320667550011381,0.0,0.007494710664186884,0.0,200,0.09280514717102051,0.5921309119948052,0.371008647813045,64200,0.20198618252878076,0.0
321,1.865123987197876,0.6519729865309501,0.26647611365827645,1.0624593719982904,0.401510205287505,0.0,0.12912516387167708,0.1,0.003424406051635742,0.04740595817565918,0.049891796,1.3600982,0.5440573781541193,0.0,0.012769004701157992,0.0,200,0.01868748664855957,0.23634729422666284,0.26585945743538547,64400,0.12270519322468076,0.0
322,1.96659255027771,0.4127220754904979,0.14228653400744826,0.6118833039195302,0.233195953252514,0.0,0.12977170200298316,0.1,0.002366304397583008,0.05061030387878418,0.050120655,1.3852363,0.5309238478877571,0.0,0.008106865825543907,0.0,200,0.03021979331970215,0.16064832282500663,0.15390599654702636,64600,0.19807284054487131,0.0
323,1.9023311138153076,0.731715455944235,0.21025401682084652,0.9302771021136091,0.4221963688394495,0.0,0.12655363493913904,0.1,0.17978596687316895,0.12061095237731934,0.05012134,0.9728337,0.5510030086934049,0.0,0.014317667262454672,0.0,200,0.11491084098815918,0.25379561005881507,0.2132718247583816,64800,0.07197518382658906,0.0
324,1.8808972835540771,0.48337741508676,0.09439718473156816,0.5897454328520286,0.34690841651217025,0.0,0.13380456411923197,0.1,0.0025033950805664062,0.04825949668884277,0.04997405,0.8424145,0.5442404493327404,0.0,0.009424524804897853,0.0,200,0.09309625625610352,0.06958457902516087,0.07773140909300937,65000,0.09232558226122518,0.0
325,1.9228224754333496,0.5762453590876923,0.24423782959571771,0.8437942616936884,0.17986596244735203,0.0,0.13649813955014822,0.1,0.0023946762084960938,0.04439210891723633,0.050106507,0.9172148,0.5474409403082356,0.0,0.011283677378344894,0.0,200,0.023784875869750977,0.18452430957376414,0.1779694951443002,65200,0.08726785130780805,0.0
326,1.887648105621338,0.6131381903860428,0.0684808984590007,0.6715241515956096,0.49633465401821714,0.0,0.1351903240909789,0.1,0.0026290416717529297,0.05111503601074219,0.049968604,0.90681475,0.5540106653160164,0.0,0.01213345408956849,0.0,200,0.037384033203125,0.07893134111503095,0.07675598069062767,65400,0.10499537393956711,0.0
327,1.724437952041626,0.5206157701811909,0.19603546304395672,0.8258658011276336,0.3350791433735205,0.0,0.1348953602226427,0.1,0.002498149871826172,0.06795096397399902,0.050118994,0.9029782,0.5506711758025338,0.0,0.010183972686768607,0.0,200,0.04254651069641113,0.2101128387092868,0.19729227413978187,65600,0.0748146382214214,0.0
328,1.784099817276001,0.6102440430689606,0.1847996654830772,0.8062447819849443,0.3063456325465498,0.0,0.13902067483496863,0.1,0.002512216567993164,0.04716372489929199,0.049305834,0.9820626,0.5566284625291765,0.0,0.011807135268683497,0.0,200,0.02015829086303711,0.13406420917026424,0.13444611516729277,65800,0.09036503467276803,0.0
329,1.893859624862671,0.6019842650810996,0.28578919160889793,1.0871861692145675,0.36412890064630676,0.0,0.14288664360634373,0.1,0.002330303192138672,0.045538902282714844,0.04995808,1.0839094,0.5611640427843688,0.0,0.011849505870105002,0.0,200,0.03973507881164551,0.24705767460054154,0.24472302331671425,66000,0.07767645569204587,0.0
330,1.772925615310669,0.6057886649781187,0.20635067602480384,0.800552073680257,0.2586528487893646,0.0,0.133928155715805,0.1,0.0026035308837890625,0.047234535217285156,0.049896285,0.8390286,0.5656265050037438,0.0,0.01190328562207939,0.0,200,0.30472850799560547,0.12499873136698071,0.12298967757512257,66200,0.07797839361023383,0.0
331,1.7756989002227783,0.7480245147488003,0.17699646856187404,1.0078534850351026,0.5085136446234605,0.0,0.12994909208509434,0.1,0.0027344226837158203,0.050063133239746094,0.04920609,1.4070569,0.5838663059782495,0.0,0.0146768150079915,0.0,200,0.07803964614868164,0.12951987427886308,0.1100023603001899,66400,0.061241822046059574,0.0
332,1.906667947769165,0.558124365037295,0.330461553630756,1.081005649542056,0.20115941465268913,0.0,0.134713369599205,0.1,0.00542449951171875,0.05150628089904785,0.050429896,1.0148296,0.5812921118841541,0.0,0.01097467429229729,0.0,200,0.09634184837341309,0.3109977926372252,0.3156660755522943,66600,0.06365640484856214,0.0
333,1.8178372383117676,0.48658125251802964,0.14633565539673563,0.7179733813332912,0.3460158764965848,0.0,0.12396389033014414,0.1,0.002518892288208008,0.0454556941986084,0.050458904,1.2784948,0.5718210259475416,0.0,0.009570269982257244,0.0,200,0.2829020023345947,0.19909803611617624,0.16606722410456826,66800,0.09392790969446295,0.0
334,1.926990032196045,0.7206903261142135,0.14308450452813395,0.9405898530439373,0.5755015761661824,0.0,0.1344429182202419,0.1,0.0026702880859375,0.04883170127868652,0.049602784,1.3467805,0.5867079559642089,0.0,0.014062709456038987,0.0,200,0.32639646530151367,0.0899544260264865,0.09303237690015968,67000,0.0975885204143806,0.0
335,1.8899383544921875,0.8371569653839213,0.15037419715802242,1.0935041142996476,0.7109717736261127,0.0,0.13084656164172948,0.1,0.13724160194396973,0.06355547904968262,0.05001072,1.1513547,0.6117528569061802,0.0,0.01623218203139802,0.0,200,0.031086206436157227,0.1304373897433439,0.10033432136103192,67200,0.08182598378860874,0.0
336,1.840719223022461,0.4356156867082729,0.18739746683177852,0.7266979608909311,0.23848509386037098,0.0,0.1312932248454706,0.1,0.0025954246520996094,0.05391955375671387,0.05011117,1.4307175,0.5941391398863894,0.0,0.008500070885530914,0.0,200,0.15065789222717285,0.4723769085033033,0.4760547558067925,67400,0.07859008933022892,0.0
337,1.8850507736206055,0.45041373044844407,0.11318323518613932,0.5357036562612759,0.25611777820983184,0.0,0.1240782513398875,0.1,0.002573251724243164,0.048931121826171875,0.049767848,1.3163922,0.579766598942595,0.0,0.008849413833185889,0.0,200,0.061806440353393555,0.3396552258762266,0.19408559661256367,67600,0.11042709768865162,0.0
338,1.7920315265655518,0.6481259502010699,0.2523891376072085,1.0330217863313427,0.32516775295300865,0.0,0.13104674349901593,0.1,0.0026557445526123047,0.05385637283325195,0.049838617,1.098665,0.5866025340684424,0.0,0.01267544710292122,0.0,200,0.017322540283203125,0.18057032732252132,0.19675659778706672,67800,0.18990104999244747,0.0
339,1.815526008605957,0.4724291323236611,0.27230707379696795,0.8522494547383682,0.18268466879978748,0.0,0.13123533235613327,0.1,0.0024712085723876953,0.06868267059326172,0.04970184,1.2266793,0.5751851938939643,0.0,0.009347849320146822,0.0,200,0.11185312271118164,0.2803678560222958,0.26797298885219956,68000,0.15659630570842206,0.0
340,1.8779199123382568,0.8143904187190103,0.1711950207410595,1.0120736576726408,0.5893339083238014,0.0,0.1293115255113491,0.1,0.0026395320892333984,0.053194522857666016,0.05048917,0.94045806,0.5991057163764688,0.0,0.01589829818100048,0.0,200,0.03951311111450195,0.19556681807483503,0.16580997854312782,68200,0.09609235318925884,0.0
341,1.7956390380859375,0.5243677740113086,0.22512247033557792,0.8932394993350308,0.28246272052754495,0.0,0.12901523710920337,0.1,0.0025453567504882812,0.045699357986450195,0.050054546,1.1476636,0.5916319221399527,0.0,0.010248012910101308,0.0,200,0.01731085777282715,0.1855188709138772,0.19717274626428857,68400,0.10073425130179897,0.0
342,1.8577485084533691,0.40789285845717976,0.1846623277542504,0.664226233830189,0.20916264629284273,0.0,0.13268894869175082,0.1,0.13577032089233398,0.04848051071166992,0.05010219,0.93267626,0.5732580157716755,0.0,0.007935368141491705,0.0,200,0.031485557556152344,0.368085861916571,0.3424830641369622,68600,0.12527401632417529,0.0
343,1.8751747608184814,0.3857701048992214,0.1851352613751615,0.6333420092054806,0.1200267049794407,0.0,0.13552890697615624,0.1,0.002520322799682617,0.049149513244628906,0.049655005,1.1139418,0.5545092246844301,0.0,0.0075583226870375815,0.0,200,0.022480010986328125,0.47526822402999414,0.35114728879661544,68800,0.1580793211262437,0.0
344,1.8434836864471436,0.7984746243342219,0.20908361155347294,1.0782539804294105,0.4885249359383776,0.0,0.12910639138790317,0.1,0.0024764537811279297,0.04865670204162598,0.050396908,1.6498832,0.5789057646494092,0.0,0.015646781548444046,0.0,200,0.02751016616821289,0.2008122350320717,0.20373696835181773,69000,0.1832354243475355,0.0
345,1.8472859859466553,0.6835850556905391,0.17739201992526302,0.9396103616776066,0.49774595891766155,0.0,0.14063418057266466,0.1,0.189223051071167,0.8125958442687988,0.05007772,1.084434,0.5893736937535222,0.0,0.013334849650294169,0.0,200,0.10460734367370605,0.14244535682455375,0.11995885628245216,69200,0.11860584418318382,0.0
346,1.848078966140747,0.6958382057992061,0.2570860008764832,1.0205556401063465,0.3111512485738013,0.0,0.12989133376178272,0.1,0.002694845199584961,0.048862457275390625,0.05033488,1.1128964,0.6000201449580906,0.0,0.013633277202280556,0.0,200,0.018168210983276367,0.18300012649074385,0.1616898829986562,69400,0.13785559260736785,0.0
347,1.73618745803833,0.5280141322483354,0.29345903667789924,1.0339984727132676,0.31475313067324096,0.0,0.1270648635581132,0.1,0.18706274032592773,0.19295167922973633,0.050396778,1.5203774,0.5928195436871152,0.0,0.010331135446983858,0.0,200,0.15071845054626465,0.2888593743238224,0.3007894543922885,69600,0.14429325115363284,0.0
348,1.8492214679718018,0.42625273028492877,0.3159946906285825,0.969754424573475,0.19577297266376698,0.0,0.12649138144704056,0.1,0.002704620361328125,0.04862666130065918,0.0499044,1.8470851,0.5761628623468965,0.0,0.00835958813222223,0.0,200,0.021360158920288086,0.6041493894187183,0.5174083912731743,69800,0.20403460620828848,0.0
349,1.7690551280975342,0.5723136271611481,0.2586998072818908,0.9605462280484562,0.23768535208160554,0.0,0.12934708579260443,0.1,0.0024721622467041016,0.050270795822143555,0.049802113,1.0777422,0.5757779388283217,0.0,0.011347549607997052,0.0,200,0.03230142593383789,0.2258051616031671,0.21469838649564416,70000,0.2536411217069343,0.0
350,1.780714988708496,0.4803711957847425,0.2847266538375166,0.7593297580966941,0.10995009563392649,0.0,0.1330822741935316,0.1,0.0026082992553710938,0.0446319580078125,0.049661234,0.9593274,0.5662372645239638,0.0,0.009439182969716561,0.0,200,0.030197620391845703,0.3004073417679548,0.2918211821490936,70200,0.27173444314019585,0.0
351,1.81777024269104,0.4932828494469415,0.32221493103379917,0.8865443961115316,0.11941052056639487,0.0,0.12645214120161627,0.1,0.0028612613677978516,0.05303049087524414,0.05010911,1.0130862,0.5589418230162617,0.0,0.009621517961081334,0.0,200,0.04354667663574219,0.33659574403330667,0.33728907251569246,70400,0.41860436175495935,0.0
352,1.909269094467163,0.46513535452357896,0.11840620414104451,0.5910006332999933,0.2717275723196175,0.0,0.12952773748409838,0.1,0.0027229785919189453,0.05045628547668457,0.050048545,1.013839,0.5495611761669935,0.0,0.009175095723643292,0.0,200,0.05263352394104004,0.08078525170101188,0.07659817605632883,70600,0.3603768966310877,0.0
353,1.786055088043213,0.6018645137107087,0.16222913559320767,0.8726765944560395,0.4606731682316903,0.0,0.1265852217418444,0.1,0.002433300018310547,0.0471348762512207,0.049614158,1.8466667,0.5547915099213651,0.0,0.011779620207696106,0.0,200,0.10167503356933594,0.18057772186355686,0.1703981135259784,70800,0.3182745421101804,0.0
354,1.850167989730835,0.7655074563744111,0.1723429234009084,0.8943504552830356,0.47104851926322155,0.0,0.13218268097900665,0.1,0.0023419857025146484,0.04487442970275879,0.050259247,0.8120198,0.5758631045666697,0.0,0.014895237609545055,0.0,200,0.02137589454650879,0.21966364033603963,0.17135561105962455,71000,0.36659073329464587,0.0
355,1.864990234375,0.22376698258048747,0.08464222613212492,0.3556642530731298,0.12743872726339914,0.0,0.13166696174951473,0.1,0.002739429473876953,0.05362749099731445,0.05024585,0.86720794,0.5406534923680515,0.0,0.004459938015851327,0.0,200,0.04314565658569336,2.1101131264552073,2.148522984666163,71200,0.50425314135571,0.0
356,1.9221956729888916,0.5183827958681242,0.16392493174934958,0.7192868615881924,0.35596236850295476,0.0,0.1367156817526672,0.1,0.002545595169067383,0.04477214813232422,0.050304294,0.8547775,0.5384264227180589,0.0,0.010138655440152876,0.0,200,0.03085947036743164,0.1192542366900198,0.11879660540020322,71400,0.37560884334659833,0.0
357,1.8705203533172607,0.7921375454947782,0.2850832142000225,1.0413887817357652,0.317062063018657,0.0,0.12902391624802267,0.1,0.0248565673828125,0.054915666580200195,0.049530674,0.7845822,0.5637975349957308,0.0,0.015482547644356536,0.0,200,0.09215784072875977,0.2624576036960943,0.24429810239901403,71600,0.2106799720542497,0.0
358,1.7917516231536865,0.7278714231737261,0.2176149062172101,0.9603949659352974,0.42106908250021824,0.0,0.12507334468831485,0.1,0.0024995803833007812,0.04751110076904297,0.05015397,1.0965153,0.5802049238135304,0.0,0.01421453632591776,0.0,200,0.024571657180786133,0.1639202422608724,0.13158093462507733,71800,0.22082440492044206,0.0
359,1.8496756553649902,0.6253572369310862,0.16181987195674508,0.8848693661928074,0.4439051290686162,0.0,0.13270629664036263,0.1,0.0031278133392333984,0.06352829933166504,0.049581766,1.2275637,0.5847201551252861,0.0,0.012281813985967319,0.0,200,0.0750732421875,0.1176412036188887,0.12395842920260233,72000,0.3055554103181318,0.0
