iteration,time_sampling,stoc_pol_mean,stoc_pol_std,stoc_pol_max,stoc_pol_min,rollout_success,alpha,delta,time_vpg,time_npg,kl_dist,surr_improvement,running_score,rwd_sparse,rwd_dense,success_percentage,num_samples,time_VF,VF_error_before,VF_error_after,env_samples,eval_score,eval_success
0,1.5510008335113525,-0.9999999343074322,3.386597289834305e-09,-0.9999999303193499,-0.9999999391156495,0.0,20.347904720039672,0.1,0.03007197380065918,0.0060231685638427734,0.049334377,0.008512799,-0.9999999343074322,0.0,-0.01999984175523316,0.0,4,0.001367807388305664,1.091093905951024,1.091093905951024,4,-0.9999999299357002,0.0
1,1.3425559997558594,-0.9999999245007916,2.993133279465551e-09,-0.9999999215277529,-0.9999999294574904,0.0,20.16087699211326,0.1,0.0015077590942382812,0.010998964309692383,0.05088821,0.0054182666,-0.9999999333267682,0.0,-0.01999984175523316,0.0,4,0.0011525154113769531,1.091093905951024,1.091093905951024,8,-0.999999929688519,0.0
2,1.3813145160675049,-0.999999933000284,2.6018303989791975e-09,-0.9999999291661632,-0.999999936210324,0.0,24.039136459207292,0.1,0.0013651847839355469,0.01244354248046875,0.049708396,0.009362384,-0.9999999332941197,0.0,-0.01999984175523316,0.0,4,0.0012142658233642578,1.091093905951024,1.091093905951024,12,-0.9999999295053567,0.0
3,1.306715965270996,-0.9999999308540758,3.0174169348770307e-09,-0.9999999278754848,-0.9999999355933165,0.0,25.566672859144372,0.1,0.0014009475708007812,0.013587474822998047,0.050700873,0.0033193186,-0.9999999330501153,0.0,-0.01999984175523316,0.0,4,0.0013422966003417969,1.091093905951024,1.091093905951024,16,-0.9999999292960241,0.0
4,1.5475995540618896,-0.9999999269472111,2.9808543203700454e-09,-0.9999999226988869,-0.9999999309915204,0.0,20.736096642515218,0.1,0.0014891624450683594,0.0143585205078125,0.04768917,0.019525358,-0.9999999324398249,0.0,-0.01999984175523316,0.0,4,0.0012612342834472656,1.091093905951024,1.091093905951024,20,-0.9999999290815894,0.0
5,1.7903761863708496,-0.9999999338848982,1.2552339860354991e-09,-0.9999999322278685,-0.9999999357630396,0.0,62.4677393444525,0.1,0.0015261173248291016,0.012449264526367188,0.049534917,0.0028944004,-0.9999999325843323,0.0,-0.01999984175523316,0.0,4,0.0013108253479003906,1.091093905951024,1.091093905951024,24,-0.9999999289549345,0.0
6,1.5249991416931152,-0.9999999271616966,2.2067073822192367e-09,-0.9999999238419495,-0.9999999298425977,0.0,30.71448605521801,0.1,0.0014500617980957031,0.014748573303222656,0.05030054,0.004640636,-0.9999999320420687,0.0,-0.01999984175523316,0.0,4,0.0012722015380859375,1.091093905951024,1.091093905951024,28,-0.9999999287962656,0.0
7,1.4898805618286133,-0.9999999279543637,2.6946437596169785e-09,-0.9999999249453129,-0.9999999320850221,0.0,28.148444306799288,0.1,0.0016071796417236328,0.015215635299682617,0.049362093,0.006257044,-0.9999999316332983,0.0,-0.01999984175523316,0.0,4,0.0012183189392089844,1.091093905951024,1.091093905951024,32,-0.999999928575681,0.0
8,1.696314811706543,-0.9999999286997316,4.519766164787945e-09,-0.9999999221865397,-0.999999933842993,0.0,18.328113283950515,0.1,0.0014083385467529297,0.016719341278076172,0.050388634,0.007023466,-0.9999999313399416,0.0,-0.01999984175523316,0.0,4,0.0013544559478759766,1.091093905951024,1.091093905951024,36,-0.9999999281769779,0.0
9,1.4640324115753174,-0.9999999249549635,1.2735113738653387e-09,-0.9999999236383863,-0.999999926996439,0.0,50.386319972411165,0.1,0.0014858245849609375,0.01387786865234375,0.049374163,0.0036635657,-0.9999999307014438,0.0,-0.01999984175523316,0.0,4,0.0012772083282470703,1.091093905951024,1.091093905951024,40,-0.9999999280138261,0.0
10,1.4642767906188965,-0.9999999325379016,1.4880688908327182e-09,-0.9999999300538664,-0.9999999339137047,0.0,54.94104478059245,0.1,0.0016257762908935547,0.014396905899047852,0.04919991,0.0034677812,-0.9999999308850895,0.0,-0.01999984175523316,0.0,4,0.0011415481567382812,1.091093905951024,1.091093905951024,44,-0.9999999278919472,0.0
11,2.065105438232422,-0.999999925929385,6.42175315679489e-09,-0.999999919649063,-0.9999999350881033,0.0,9.929861100988992,0.1,0.0015463829040527344,0.016907691955566406,0.05052203,0.012721384,-0.9999999303895191,0.0,-0.01999984175523316,0.0,4,0.0011775493621826172,1.091093905951024,1.091093905951024,48,-0.9999999273789548,0.0
12,1.3220643997192383,-0.9999999260208605,3.0198883527243027e-09,-0.9999999210547401,-0.9999999292083066,0.0,24.0460044627805,0.1,0.0015819072723388672,0.017751693725585938,0.049498856,0.008146171,-0.9999999299526532,0.0,-0.01999984175523316,0.0,4,0.0011968612670898438,1.091093905951024,1.091093905951024,52,-0.999999927173604,0.0
13,1.7236957550048828,-0.9999999257409442,3.236545106312263e-09,-0.9999999228025711,-0.9999999312015089,0.0,20.661357724614504,0.1,0.0015501976013183594,0.016927003860473633,0.05166483,0.0044124057,-0.9999999295314823,0.0,-0.01999984175523316,0.0,4,0.001247406005859375,1.091093905951024,1.091093905951024,56,-0.9999999268786373,0.0
14,1.3532383441925049,-0.9999999243674642,5.527133106018992e-09,-0.9999999192640243,-0.9999999329027471,0.0,11.054896357940905,0.1,0.0016031265258789062,0.01955413818359375,0.050417602,0.008522375,-0.9999999290150805,0.0,-0.01999984175523316,0.0,4,0.0011997222900390625,1.091093905951024,1.091093905951024,60,-0.9999999265714656,0.0
15,1.46700119972229,-0.9999999242426532,3.717608837354227e-09,-0.9999999198470315,-0.9999999291303818,0.0,19.580563784291108,0.1,0.0015609264373779297,0.01683783531188965,0.050436735,0.005813939,-0.9999999285378378,0.0,-0.01999984175523316,0.0,4,0.00113677978515625,1.091093905951024,1.091093905951024,64,-0.9999999263540079,0.0
16,1.5778648853302002,-0.9999999245512545,3.4765648835118628e-09,-0.9999999219551163,-0.9999999305167626,0.0,19.231155534146037,0.1,0.0014739036560058594,0.016988515853881836,0.05098541,0.0049752695,-0.9999999281391795,0.0,-0.01999984175523316,0.0,4,0.0011878013610839844,1.091093905951024,1.091093905951024,68,-0.9999999260044419,0.0
17,1.5017573833465576,-0.9999999263264185,4.606820071404967e-09,-0.9999999230713195,-0.9999999341928534,0.0,14.724400127290297,0.1,0.0014383792877197266,0.016281843185424805,0.050790414,0.007722753,-0.9999999279579035,0.0,-0.01999984175523316,0.0,4,0.0012047290802001953,1.091093905951024,1.091093905951024,72,-0.9999999256884986,0.0
18,1.6181385517120361,-0.9999999275634928,2.677541263221192e-09,-0.9999999236743695,-0.9999999302736613,0.0,22.701265721768227,0.1,0.0014007091522216797,0.016135215759277344,0.048495486,0.013897562,-0.9999999279184625,0.0,-0.01999984175523316,0.0,4,0.0011243820190429688,1.091093905951024,1.091093905951024,76,-0.9999999254899451,0.0
19,1.5399646759033203,-0.999999924748949,5.533534117399561e-09,-0.9999999183640651,-0.9999999334771077,0.0,11.519895757640509,0.1,0.0014674663543701172,0.016261816024780273,0.049426645,0.018509733,-0.9999999276015111,0.0,-0.01999984175523316,0.0,4,0.0010716915130615234,1.091093905951024,1.091093905951024,80,-0.9999999250646056,0.0
20,1.314528226852417,-0.9999999240879482,1.5560153800226778e-09,-0.9999999225623772,-0.9999999262643258,0.0,47.016054876604365,0.1,0.0013592243194580078,0.01646590232849121,0.051775873,0.0016095848,-0.9999999272501549,0.0,-0.01999984175523316,0.0,4,0.0011150836944580078,1.091093905951024,1.091093905951024,84,-0.9999999249025789,0.0
21,1.6417293548583984,-0.9999999270970167,2.9260259327059062e-09,-0.9999999229806331,-0.999999930801575,0.0,25.100308716642477,0.1,0.0014421939849853516,0.016429901123046875,0.0500194,0.0054064747,-0.999999927234841,0.0,-0.01999984175523316,0.0,4,0.0010159015655517578,1.091093905951024,1.091093905951024,88,-0.9999999247158708,0.0
22,1.41693115234375,-0.9999999288508551,4.020653223094637e-09,-0.9999999221704923,-0.9999999326178135,0.0,16.200862316828363,0.1,0.0014545917510986328,0.021203279495239258,0.049932867,0.013693439,-0.9999999273964425,0.0,-0.01999984175523316,0.0,4,0.00131988525390625,1.091093905951024,1.091093905951024,92,-0.9999999243904577,0.0
23,1.674398422241211,-0.9999999257356624,1.7594747236217911e-09,-0.999999924064068,-0.9999999283813776,0.0,38.55858179757024,0.1,0.0015578269958496094,0.018308639526367188,0.049358547,0.004240821,-0.9999999272303646,0.0,-0.01999984175523316,0.0,4,0.001302957534790039,1.091093905951024,1.091093905951024,96,-0.9999999241465721,0.0
24,1.6920125484466553,-0.9999999238664834,1.047626370226702e-09,-0.9999999222136704,-0.9999999250941627,0.0,82.14671267635528,0.1,0.0013844966888427734,0.017046451568603516,0.04969789,0.0021852737,-0.9999999268939765,0.0,-0.01999984175523316,0.0,4,0.0012021064758300781,1.091093905951024,1.091093905951024,100,-0.9999999240318668,0.0
25,1.4949531555175781,-0.9999999236460182,3.9692222475349815e-09,-0.9999999167858551,-0.9999999262301353,0.0,16.658914972422394,0.1,0.0014715194702148438,0.018836498260498047,0.04963526,0.014056448,-0.9999999265691808,0.0,-0.01999984175523316,0.0,4,0.001272439956665039,1.091093905951024,1.091093905951024,104,-0.9999999235248427,0.0
26,1.6627964973449707,-0.9999999233790149,2.7339154279614404e-09,-0.9999999189897009,-0.9999999257694865,0.0,26.410838814581968,0.1,0.0015730857849121094,0.019049406051635742,0.0502968,0.006185104,-0.9999999262501642,0.0,-0.01999984175523316,0.0,4,0.0012538433074951172,1.091093905951024,1.091093905951024,108,-0.9999999231765387,0.0
27,1.6175389289855957,-0.9999999226719225,1.5311169380760863e-09,-0.9999999212160393,-0.9999999252469498,0.0,51.73352524959931,0.1,0.0015571117401123047,0.01643061637878418,0.05242362,0.0010880278,-0.9999999258923401,0.0,-0.01999984175523316,0.0,4,0.0011510848999023438,1.091093905951024,1.091093905951024,112,-0.9999999229892397,0.0
28,1.9050006866455078,-0.9999999236179198,2.663406919060617e-09,-0.9999999206653698,-0.9999999279417524,0.0,27.645048189428504,0.1,0.0016446113586425781,0.020094871520996094,0.050636023,0.004208784,-0.9999999256648981,0.0,-0.01999984175523316,0.0,4,0.0012176036834716797,1.091093905951024,1.091093905951024,116,-0.999999922750563,0.0
29,1.6487679481506348,-0.9999999231278476,2.117039718442873e-09,-0.999999921397974,-0.9999999267521096,0.0,28.457448402738294,0.1,0.0014722347259521484,0.019219636917114258,0.051808797,0.0024582532,-0.9999999254111931,0.0,-0.01999984175523316,0.0,4,0.0012009143829345703,1.091093905951024,1.091093905951024,120,-0.9999999225842272,0.0
30,1.4964849948883057,-0.9999999235978494,5.504043508983961e-09,-0.999999917671325,-0.9999999319477528,0.0,10.990834623640064,0.1,0.001592397689819336,0.022719144821166992,0.050537705,0.01209807,-0.9999999252298588,0.0,-0.01999984175523316,0.0,4,0.0013113021850585938,1.091093905951024,1.091093905951024,124,-0.9999999220458656,0.0
31,1.6050057411193848,-0.9999999232214847,3.9848027464284556e-09,-0.9999999195947702,-0.9999999299504401,0.0,14.714026073363735,0.1,0.0014274120330810547,0.022383928298950195,0.051900655,0.004054197,-0.9999999250290215,0.0,-0.01999984175523316,0.0,4,0.0011210441589355469,1.091093905951024,1.091093905951024,128,-0.9999999218579059,0.0
32,1.5761044025421143,-0.999999919892681,9.114688739822147e-10,-0.999999918645295,-0.9999999210984902,0.0,85.27480099201065,0.1,0.0014684200286865234,0.019727706909179688,0.050750617,0.0013262641,-0.9999999245153874,0.0,-0.01999984175523316,0.0,4,0.0011959075927734375,1.091093905951024,1.091093905951024,132,-0.9999999217010381,0.0
33,1.3904972076416016,-0.9999999223618625,1.7618392816900527e-09,-0.9999999195658353,-0.9999999242671582,0.0,48.135665226742006,0.1,0.001436471939086914,0.0226590633392334,0.05041097,0.0035985573,-0.999999924300035,0.0,-0.01999984175523316,0.0,4,0.001161336898803711,1.091093905951024,1.091093905951024,136,-0.9999999215590498,0.0
34,1.4605493545532227,-0.9999999225733407,2.607003742421366e-09,-0.999999918760218,-0.9999999256756398,0.0,24.836528579704403,0.1,0.0014643669128417969,0.022017478942871094,0.049319603,0.006969091,-0.9999999241273656,0.0,-0.01999984175523316,0.0,4,0.0011844635009765625,1.091093905951024,1.091093905951024,140,-0.9999999212036381,0.0
35,1.4839301109313965,-0.9999999218612663,1.6876056892758856e-09,-0.9999999191374418,-0.9999999233846815,0.0,30.201759468145575,0.1,0.001409292221069336,0.018869638442993164,0.048963804,0.013878794,-0.9999999239007558,0.0,-0.01999984175523316,0.0,4,0.001146078109741211,1.091093905951024,1.091093905951024,144,-0.9999999211140823,0.0
36,1.4932923316955566,-0.9999999235317645,4.150692707748794e-09,-0.9999999176147474,-0.999999928701149,0.0,14.447894013288773,0.1,0.001470327377319336,0.02482151985168457,0.05022628,0.01422048,-0.9999999238638567,0.0,-0.01999984175523316,0.0,4,0.0012023448944091797,1.091093905951024,1.091093905951024,148,-0.9999999207530624,0.0
37,1.5940403938293457,-0.9999999201709473,1.0582430857102057e-09,-0.9999999184259796,-0.9999999212113153,0.0,75.06962467026986,0.1,0.0014967918395996094,0.016474246978759766,0.048740394,0.0032033152,-0.9999999234945658,0.0,-0.01999984175523316,0.0,4,0.0012183189392089844,1.091093905951024,1.091093905951024,152,-0.9999999207185121,0.0
38,1.4870595932006836,-0.99999992399925,2.203556314528194e-09,-0.9999999212833146,-0.9999999265315096,0.0,30.613625121371047,0.1,0.001512765884399414,0.019489526748657227,0.04954852,0.005780013,-0.9999999235450342,0.0,-0.01999984175523316,0.0,4,0.0013070106506347656,1.091093905951024,1.091093905951024,156,-0.999999920523457,0.0
39,1.6703648567199707,-0.9999999236539905,1.994784582731433e-09,-0.9999999219617626,-0.9999999270180364,0.0,32.86726007983054,0.1,0.0014507770538330078,0.019331693649291992,0.052646965,0.002185631,-0.9999999235559298,0.0,-0.01999984175523316,0.0,4,0.0011565685272216797,1.091093905951024,1.091093905951024,160,-0.9999999202639099,0.0
40,1.3813107013702393,-0.9999999213881436,1.662191494333858e-09,-0.9999999188861111,-0.9999999235238091,0.0,46.85528628167635,0.1,0.0014638900756835938,0.018952369689941406,0.050192825,0.003968547,-0.9999999233391512,0.0,-0.01999984175523316,0.0,4,0.0011637210845947266,1.091093905951024,1.091093905951024,164,-0.9999999200187286,0.0
41,1.5094850063323975,-0.9999999213936945,1.224519300590256e-09,-0.9999999197706706,-0.999999922933881,0.0,61.585230272283916,0.1,0.0014977455139160156,0.019328594207763672,0.05034782,0.0019385042,-0.9999999231446056,0.0,-0.01999984175523316,0.0,4,0.0012178421020507812,1.091093905951024,1.091093905951024,168,-0.9999999199558985,0.0
42,1.4000248908996582,-0.9999999224681223,2.134822198460301e-09,-0.999999918877581,-0.9999999244343567,0.0,30.5844580227183,0.1,0.0016846656799316406,0.022877216339111328,0.049482003,0.009327805,-0.9999999230769573,0.0,-0.01999984175523316,0.0,4,0.001482248306274414,1.091093905951024,1.091093905951024,172,-0.9999999197562456,0.0
43,1.7965784072875977,-0.9999999219029926,4.372719697159064e-09,-0.9999999159423079,-0.9999999281364365,0.0,15.270215041966022,0.1,0.0014700889587402344,0.025458574295043945,0.050424874,0.00831476,-0.9999999229595609,0.0,-0.01999984175523316,0.0,4,0.0013933181762695312,1.091093905951024,1.091093905951024,176,-0.9999999195248087,0.0
44,1.395906925201416,-0.9999999209298952,3.4604812946141993e-09,-0.9999999161906854,-0.9999999254810523,0.0,22.541141695362597,0.1,0.0014827251434326172,0.02512049674987793,0.050325498,0.0074400953,-0.9999999227565943,0.0,-0.01999984175523316,0.0,4,0.001176595687866211,1.091093905951024,1.091093905951024,180,-0.9999999194519448,0.0
45,1.5330874919891357,-0.9999999209378436,2.869245682627519e-09,-0.9999999167766305,-0.9999999248863904,0.0,27.196706296729374,0.1,0.0014185905456542969,0.02485060691833496,0.049741536,0.006806759,-0.9999999225747194,0.0,-0.01999984175523316,0.0,4,0.0012192726135253906,1.091093905951024,1.091093905951024,184,-0.9999999191604779,0.0
46,1.4428131580352783,-0.9999999212425381,1.4066726443726674e-09,-0.9999999191525557,-0.9999999226452156,0.0,52.032435853242326,0.1,0.0014910697937011719,0.02256464958190918,0.051021054,0.0019361058,-0.9999999224415013,0.0,-0.01999984175523316,0.0,4,0.001134634017944336,1.091093905951024,1.091093905951024,188,-0.999999919014057,0.0
47,1.6615979671478271,-0.999999920975556,3.728325260718397e-10,-0.9999999204609815,-0.9999999214550044,0.0,188.3558997961538,0.1,0.001562356948852539,0.01934647560119629,0.049097493,0.0010169895,-0.9999999222949068,0.0,-0.01999984175523316,0.0,4,0.0012269020080566406,1.091093905951024,1.091093905951024,192,-0.9999999189481222,0.0
48,1.5496091842651367,-0.9999999221857879,3.0348021422998917e-09,-0.9999999189258229,-0.9999999268759547,0.0,17.213899630655185,0.1,0.0013980865478515625,0.025275707244873047,0.053702086,0.0033905674,-0.9999999222839949,0.0,-0.01999984175523316,0.0,4,0.0012505054473876953,1.091093905951024,1.091093905951024,196,-0.9999999188042284,0.0
49,1.4418611526489258,-0.9999999216684188,4.937421080237935e-09,-0.9999999177178831,-0.9999999301289757,0.0,12.091960561897425,0.1,0.0014886856079101562,0.02523636817932129,0.051835515,0.007309367,-0.9999999222224373,0.0,-0.01999984175523316,0.0,4,0.0012214183807373047,1.091093905951024,1.091093905951024,200,-0.9999999186297798,0.0
50,1.6478087902069092,-0.9999999195210518,3.0046900077725876e-09,-0.9999999158091935,-0.9999999241519737,0.0,21.04733264431569,0.1,0.0014455318450927734,0.024133920669555664,0.051531717,0.0039078775,-0.9999999219522987,0.0,-0.01999984175523316,0.0,4,0.0011324882507324219,1.091093905951024,1.091093905951024,204,-0.9999999184973221,0.0
51,1.5258326530456543,-0.9999999203065919,1.7003113432702795e-09,-0.99999991893323,-0.9999999232169143,0.0,47.83694237860003,0.1,0.0014622211456298828,0.02233123779296875,0.050897084,0.0019516763,-0.9999999217877281,0.0,-0.01999984175523316,0.0,4,0.0011227130889892578,1.091093905951024,1.091093905951024,208,-0.9999999184708891,0.0
52,1.5704505443572998,-0.9999999205373955,5.380938789201364e-10,-0.9999999200430629,-0.9999999214224873,0.0,114.4633292546477,0.1,0.0014009475708007812,0.019277334213256836,0.052089527,0.00061712204,-0.9999999216626949,0.0,-0.01999984175523316,0.0,4,0.0012123584747314453,1.091093905951024,1.091093905951024,212,-0.9999999184481497,0.0
53,1.8206758499145508,-0.9999999180276036,1.928099283478536e-09,-0.9999999159575561,-0.9999999199936691,0.0,44.75453478408457,0.1,0.0015118122100830078,0.021757841110229492,0.050778054,0.002606018,-0.9999999212991859,0.0,-0.01999984175523316,0.0,4,0.0011057853698730469,1.091093905951024,1.091093905951024,216,-0.9999999183347846,0.0
54,1.4554228782653809,-0.9999999201071964,1.4963664616521533e-09,-0.9999999178110917,-0.9999999219534839,0.0,48.2391483537841,0.1,0.0014514923095703125,0.022641897201538086,0.05089104,0.003259889,-0.9999999211799869,0.0,-0.01999984175523316,0.0,4,0.001188516616821289,1.091093905951024,1.091093905951024,220,-0.9999999182076089,0.0
55,1.6228911876678467,-0.9999999197584204,1.5552704111909578e-09,-0.9999999182724191,-0.9999999222911005,0.0,65.1305446806355,0.1,0.001506805419921875,0.022385597229003906,0.050224587,0.0016673923,-0.9999999210378303,0.0,-0.01999984175523316,0.0,4,0.0011839866638183594,1.091093905951024,1.091093905951024,224,-0.9999999178702503,0.0
56,1.6435563564300537,-0.9999999206627068,2.310600542934744e-09,-0.999999917691262,-0.9999999241780178,0.0,26.903873053026643,0.1,0.0013680458068847656,0.024376392364501953,0.049635462,0.007134106,-0.9999999210003181,0.0,-0.01999984175523316,0.0,4,0.0011472702026367188,1.091093905951024,1.091093905951024,228,-0.9999999177763838,0.0
57,1.5914781093597412,-0.9999999197080613,1.1215212434264071e-09,-0.9999999178912578,-0.9999999208352437,0.0,66.91629538557768,0.1,0.00157928466796875,0.021914243698120117,0.050709248,0.0025930612,-0.9999999208710925,0.0,-0.01999984175523316,0.0,4,0.0011339187622070312,1.091093905951024,1.091093905951024,232,-0.9999999176365129,0.0
58,1.3392629623413086,-0.9999999224265695,3.302269372921718e-09,-0.9999999190787257,-0.9999999279123852,0.0,18.411508541013955,0.1,0.0015604496002197266,0.025695085525512695,0.0362989,0.0049223723,-0.9999999210266403,0.0,-0.01999984175523316,0.0,4,0.0011692047119140625,1.091093905951024,1.091093905951024,236,-0.999999917643042,0.0
59,1.5081031322479248,-0.9999999191083083,1.0444267758649798e-09,-0.9999999177244656,-0.9999999206680139,0.0,76.3281256810526,0.1,0.0014884471893310547,0.02241230010986328,0.051100563,0.0015513578,-0.9999999208348072,0.0,-0.01999984175523316,0.0,4,0.0011970996856689453,1.091093905951024,1.091093905951024,240,-0.9999999175104989,0.0
60,1.616490125656128,-0.9999999194889517,2.577445350919132e-09,-0.9999999168814286,-0.9999999232472929,0.0,24.851796371406955,0.1,0.001432180404663086,0.02494668960571289,0.05142054,0.0030824332,-0.9999999207002217,0.0,-0.01999984175523316,0.0,4,0.0011343955993652344,1.091093905951024,1.091093905951024,244,-0.9999999174445332,0.0
61,1.4790818691253662,-0.9999999190904101,1.5363318957371785e-09,-0.9999999165957274,-0.9999999207948811,0.0,45.63180558710264,0.1,0.001497030258178711,0.02431797981262207,0.049457923,0.0065461053,-0.9999999205392405,0.0,-0.01999984175523316,0.0,4,0.0011658668518066406,1.091093905951024,1.091093905951024,248,-0.9999999173087377,0.0
62,1.628138542175293,-0.9999999195298511,2.0158308154658012e-10,-0.9999999193218589,-0.9999999198230416,0.0,294.4063168758662,0.1,0.001434326171875,0.019089221954345703,0.050241753,0.0006270563,-0.9999999204383015,0.0,-0.01999984175523316,0.0,4,0.0011124610900878906,1.091093905951024,1.091093905951024,252,-0.999999917321512,0.0
63,1.587637186050415,-0.9999999186320438,2.9474834662145206e-09,-0.9999999155135892,-0.9999999233360741,0.0,23.24068622852107,0.1,0.0015175342559814453,0.02565741539001465,0.05363597,0.0026118732,-0.9999999202576758,0.0,-0.01999984175523316,0.0,4,0.0012812614440917969,1.091093905951024,1.091093905951024,256,-0.9999999169762543,0.0
64,1.628124475479126,-0.9999999188174626,2.1727377774191948e-10,-0.999999918496546,-0.9999999190641513,0.0,253.86957410217286,0.1,0.001377105712890625,0.019608020782470703,0.04978314,0.0007913622,-0.9999999201136545,0.0,-0.01999984175523316,0.0,4,0.0011296272277832031,1.091093905951024,1.091093905951024,260,-0.9999999169957637,0.0
65,1.6950974464416504,-0.9999999184382174,1.091640897121567e-09,-0.9999999168184135,-0.9999999198354481,0.0,50.5207803800036,0.1,0.001417398452758789,0.022089242935180664,0.05093357,0.0047491617,-0.9999999199461107,0.0,-0.01999984175523316,0.0,4,0.0011987686157226562,1.091093905951024,1.091093905951024,264,-0.9999999169740711,0.0
66,1.5360050201416016,-0.999999919358294,8.446272327060173e-10,-0.9999999181411123,-0.9999999205011958,0.0,71.83189418305527,0.1,0.0014836788177490234,0.024899721145629883,0.049999684,0.0026932282,-0.9999999198873291,0.0,-0.01999984175523316,0.0,4,0.0011706352233886719,1.091093905951024,1.091093905951024,268,-0.9999999170119055,0.0
67,1.5271785259246826,-0.9999999181100789,1.0840227885713929e-09,-0.9999999164924915,-0.9999999191957809,0.0,63.40109110102316,0.1,0.0014231204986572266,0.024476289749145508,0.049872622,0.003183628,-0.9999999197096041,0.0,-0.01999984175523316,0.0,4,0.0011496543884277344,1.091093905951024,1.091093905951024,272,-0.9999999168118018,0.0
68,1.3613166809082031,-0.9999999197271787,1.4550183220575394e-09,-0.999999918301707,-0.9999999221050646,0.0,51.55453001083489,0.1,0.001477956771850586,0.0245363712310791,0.05131439,0.0017211806,-0.9999999197113616,0.0,-0.01999984175523316,0.0,4,0.0012028217315673828,1.091093905951024,1.091093905951024,276,-0.9999999168000501,0.0
69,1.6214892864227295,-0.9999999186235743,1.4180172581469262e-09,-0.9999999169091396,-0.9999999204756713,0.0,46.69465554335774,0.1,0.0014636516571044922,0.024185895919799805,0.050252587,0.0021781477,-0.9999999196025828,0.0,-0.01999984175523316,0.0,4,0.0012054443359375,1.091093905951024,1.091093905951024,280,-0.9999999166665248,0.0
70,1.6807806491851807,-0.9999999172812597,9.66830713256102e-10,-0.9999999158821726,-0.9999999185114814,0.0,70.96622758909407,0.1,0.0013773441314697266,0.02193450927734375,0.047757626,0.0025734936,-0.9999999193704506,0.0,-0.01999984175523316,0.0,4,0.0011103153228759766,1.091093905951024,1.091093905951024,284,-0.9999999165389631,0.0
71,1.4623396396636963,-0.9999999186911266,1.5360713494407015e-09,-0.9999999172501162,-0.9999999212761173,0.0,44.70953522655331,0.1,0.0014309883117675781,0.02686595916748047,0.050159648,0.0026387437,-0.9999999193025183,0.0,-0.01999984175523316,0.0,4,0.0011577606201171875,1.091093905951024,1.091093905951024,288,-0.9999999165356886,0.0
72,1.5148296356201172,-0.9999999171035425,9.510715536057274e-10,-0.9999999160622641,-0.9999999186358488,0.0,58.251521859323844,0.1,0.0014607906341552734,0.025176286697387695,0.051685214,0.0014349717,-0.9999999190826208,0.0,-0.01999984175523316,0.0,4,0.0012040138244628906,1.091093905951024,1.091093905951024,292,-0.9999999164705926,0.0
73,1.548123836517334,-0.9999999187697151,1.7180872336742344e-09,-0.9999999160855149,-0.999999920772346,0.0,31.08862306050384,0.1,0.0015115737915039062,0.02545166015625,0.049936377,0.008611538,-0.9999999190513302,0.0,-0.01999984175523316,0.0,4,0.00124359130859375,1.091093905951024,1.091093905951024,296,-0.9999999163860377,0.0
74,1.3737475872039795,-0.9999999165501989,6.799603431110409e-10,-0.9999999153859567,-0.9999999170357534,0.0,93.88161269301692,0.1,0.0016744136810302734,0.025519847869873047,0.04861266,0.004651907,-0.9999999188012172,0.0,-0.01999984175523316,0.0,4,0.0011289119720458984,1.091093905951024,1.091093905951024,300,-0.9999999163533492,0.0
75,1.7061009407043457,-0.9999999202439498,2.2561722977766526e-09,-0.999999917360423,-0.9999999236327164,0.0,28.65909163990365,0.1,0.0014972686767578125,0.02523326873779297,0.052101813,0.0030736597,-0.9999999189454906,0.0,-0.01999984175523316,0.0,4,0.00118255615234375,1.091093905951024,1.091093905951024,304,-0.9999999163076297,0.0
76,1.6431546211242676,-0.9999999175208732,1.1234339350140856e-09,-0.9999999159633655,-0.9999999188849045,0.0,56.87917130047464,0.1,0.0014858245849609375,0.02529311180114746,0.049654268,0.0033422639,-0.9999999188030289,0.0,-0.01999984175523316,0.0,4,0.0014841556549072266,1.091093905951024,1.091093905951024,308,-0.9999999162738925,0.0
77,1.5356316566467285,-0.9999999174749509,5.916119612405482e-10,-0.9999999168546534,-0.9999999183952735,0.0,130.98191950819344,0.1,0.0014405250549316406,0.022337913513183594,0.050050646,0.0009792326,-0.9999999186702211,0.0,-0.01999984175523316,0.0,4,0.001329660415649414,1.091093905951024,1.091093905951024,312,-0.9999999162389094,0.0
78,1.6006231307983398,-0.9999999171169947,1.5695448366776967e-09,-0.9999999158422586,-0.999999919786656,0.0,48.78042876907137,0.1,0.0015475749969482422,0.027440786361694336,0.050790593,0.0011793117,-0.9999999185148984,0.0,-0.01999984175523316,0.0,4,0.001314401626586914,1.091093905951024,1.091093905951024,316,-0.9999999161628369,0.0
79,1.5621981620788574,-0.9999999174969838,1.464435806659303e-09,-0.9999999158431583,-0.999999918976793,0.0,42.6673694360368,0.1,0.0015118122100830078,0.025068283081054688,0.048551388,0.004431478,-0.9999999184131071,0.0,-0.01999984175523316,0.0,4,0.0011675357818603516,1.091093905951024,1.091093905951024,320,-0.9999999160664984,0.0
80,1.4864022731781006,-0.999999916366656,9.666741290163653e-10,-0.9999999151214924,-0.9999999176290355,0.0,85.1498757069612,0.1,0.0015909671783447266,0.02518320083618164,0.052254975,0.00076951226,-0.999999918208462,0.0,-0.01999984175523316,0.0,4,0.001157522201538086,1.091093905951024,1.091093905951024,324,-0.9999999159773254,0.0
81,1.5744059085845947,-0.9999999185866106,1.9554963683994612e-09,-0.9999999153487664,-0.9999999203467587,0.0,35.18054796689208,0.1,0.0013971328735351562,0.02712106704711914,0.04958591,0.006462141,-0.9999999182462769,0.0,-0.01999984175523316,0.0,4,0.0011315345764160156,1.091093905951024,1.091093905951024,328,-0.9999999158792079,0.0
82,1.5242445468902588,-0.9999999167122009,4.3438450082401524e-10,-0.9999999162228661,-0.9999999173578655,0.0,161.79152829491423,0.1,0.0014390945434570312,0.024702787399291992,0.05136034,0.00065364875,-0.9999999180928693,0.0,-0.01999984175523316,0.0,4,0.0012264251708984375,1.091093905951024,1.091093905951024,332,-0.9999999158816997,0.0
83,1.332827091217041,-0.9999999167714357,8.484877339556918e-10,-0.9999999158737372,-0.9999999181598138,0.0,88.43956721240177,0.1,0.0015323162078857422,0.02498483657836914,0.051666804,0.0008066254,-0.999999917960726,0.0,-0.01999984175523316,0.0,4,0.0011246204376220703,1.091093905951024,1.091093905951024,336,-0.9999999158344864,0.0
84,1.5411882400512695,-0.9999999157932364,7.303344455475104e-10,-0.9999999148939596,-0.9999999167144391,0.0,79.44465241002449,0.1,0.001432180404663086,0.02690744400024414,0.05070278,0.001999705,-0.9999999177439771,0.0,-0.01999984175523316,0.0,4,0.0011255741119384766,1.091093905951024,1.091093905951024,340,-0.99999991577111,0.0
85,1.4628100395202637,-0.9999999160725612,6.680468996615153e-10,-0.9999999150326881,-0.9999999167385167,0.0,107.57314103171284,0.1,0.0014641284942626953,0.025445222854614258,0.046965413,0.0021448212,-0.9999999175768356,0.0,-0.01999984175523316,0.0,4,0.0012989044189453125,1.091093905951024,1.091093905951024,344,-0.9999999157027913,0.0
86,1.6030583381652832,-0.9999999186237514,2.0277141913755956e-09,-0.9999999161140991,-0.9999999213870396,0.0,37.69564558959311,0.1,0.0014009475708007812,0.02793431282043457,0.05137227,0.0021035431,-0.9999999176815272,0.0,-0.01999984175523316,0.0,4,0.0012850761413574219,1.091093905951024,1.091093905951024,348,-0.9999999156490557,0.0
87,1.5523293018341064,-0.9999999160420058,1.4379603665930505e-09,-0.9999999144729641,-0.9999999183150332,0.0,47.67279423700701,0.1,0.0015714168548583984,0.029442787170410156,0.052085638,0.0016080508,-0.9999999175175751,0.0,-0.01999984175523316,0.0,4,0.0012276172637939453,1.091093905951024,1.091093905951024,352,-0.9999999156211562,0.0
88,1.5298423767089844,-0.9999999177530218,6.806785351697148e-10,-0.9999999170665175,-0.9999999186836923,0.0,103.45323663406319,0.1,0.0016434192657470703,0.02536940574645996,0.05061746,0.00090213673,-0.9999999175411198,0.0,-0.01999984175523316,0.0,4,0.0012619495391845703,1.091093905951024,1.091093905951024,356,-0.9999999155473566,0.0
89,1.373525857925415,-0.9999999172189578,5.155406456030781e-10,-0.999999916451535,-0.999999917875571,0.0,107.76034608879293,0.1,0.0014967918395996094,0.028538227081298828,0.048458856,0.002786751,-0.9999999175089036,0.0,-0.01999984175523316,0.0,4,0.0011792182922363281,1.091093905951024,1.091093905951024,360,-0.9999999155223379,0.0
90,1.4274826049804688,-0.9999999172853957,8.816683376825204e-10,-0.9999999159950235,-0.9999999184631876,0.0,75.32037867086824,0.1,0.0013909339904785156,0.02891826629638672,0.0500577,0.0030407852,-0.9999999174865528,0.0,-0.01999984175523316,0.0,4,0.0012323856353759766,1.091093905951024,1.091093905951024,364,-0.999999915463746,0.0
91,1.4024930000305176,-0.9999999156175654,5.929073858516844e-10,-0.9999999149470471,-0.999999916572426,0.0,137.8061207146966,0.1,0.0014958381652832031,0.02669668197631836,0.050732207,0.000656322,-0.9999999172996541,0.0,-0.01999984175523316,0.0,4,0.0011401176452636719,1.091093905951024,1.091093905951024,368,-0.9999999153577018,0.0
92,1.3906941413879395,-0.9999999155500157,5.933537677241048e-10,-0.9999999151480079,-0.9999999165737807,0.0,118.55120206601542,0.1,0.0014109611511230469,0.02694869041442871,0.051267162,0.0007169954,-0.9999999171246903,0.0,-0.01999984175523316,0.0,4,0.0011637210845947266,1.091093905951024,1.091093905951024,372,-0.9999999153047515,0.0
93,1.4927434921264648,-0.9999999164557734,3.852063440142664e-10,-0.9999999161525419,-0.9999999171144913,0.0,270.25561926783047,0.1,0.0015749931335449219,0.024533510208129883,0.04916396,0.00022173158,-0.9999999170577987,0.0,-0.01999984175523316,0.0,4,0.0013303756713867188,1.091093905951024,1.091093905951024,376,-0.9999999152545481,0.0
94,1.5738589763641357,-0.999999918260178,2.0259449248331635e-09,-0.9999999165587361,-0.9999999215589863,0.0,28.94905552639031,0.1,0.0013794898986816406,0.027205467224121094,0.0508437,0.0025563904,-0.9999999171780366,0.0,-0.01999984175523316,0.0,4,0.0011267662048339844,1.091093905951024,1.091093905951024,380,-0.9999999151750033,0.0
95,1.2839412689208984,-0.9999999167305316,1.4838303468151714e-09,-0.999999915078488,-0.9999999184690134,0.0,43.095408832228145,0.1,0.0014047622680664062,0.026787281036376953,0.049613707,0.0034868836,-0.9999999171332862,0.0,-0.01999984175523316,0.0,4,0.0011401176452636719,1.091093905951024,1.091093905951024,384,-0.9999999150773392,0.0
96,1.4530603885650635,-0.9999999152415122,8.293134121915624e-10,-0.9999999139974716,-0.999999916331408,0.0,72.07424247434373,0.1,0.0013966560363769531,0.027852773666381836,0.050723076,0.0023283057,-0.9999999169441087,0.0,-0.01999984175523316,0.0,4,0.001299142837524414,1.091093905951024,1.091093905951024,388,-0.9999999150352354,0.0
97,1.3895070552825928,-0.9999999172914228,3.9317929509146425e-10,-0.9999999167292359,-0.9999999178381027,0.0,144.31510978289984,0.1,0.0015413761138916016,0.026398420333862305,0.047526345,0.0011619226,-0.9999999169788402,0.0,-0.01999984175523316,0.0,4,0.0011849403381347656,1.091093905951024,1.091093905951024,392,-0.9999999150999108,0.0
98,1.6324961185455322,-0.9999999183375379,5.752336107330865e-10,-0.9999999176615484,-0.9999999192400761,0.0,110.36946279836322,0.1,0.0013949871063232422,0.027620315551757812,0.05188854,0.0010010117,-0.99999991711471,0.0,-0.01999984175523316,0.0,4,0.0011792182922363281,1.091093905951024,1.091093905951024,396,-0.999999915136175,0.0
99,2.046999216079712,-0.999999916885098,2.028115084835897e-09,-0.9999999149508665,-0.9999999202894481,0.0,34.35908785495121,0.1,0.001516103744506836,0.028419017791748047,0.05099202,0.0034083924,-0.9999999170917488,0.0,-0.01999984175523316,0.0,4,0.0012052059173583984,1.091093905951024,1.091093905951024,400,-0.9999999149982713,0.0
100,1.7492589950561523,-0.9999999187024773,3.715003220524847e-09,-0.9999999147715222,-0.9999999242840463,0.0,13.330208924371329,0.1,0.0013852119445800781,0.02733922004699707,0.029085182,0.004095655,-0.9999999172528218,0.0,-0.01999984175523316,0.0,4,0.0011911392211914062,1.091093905951024,1.091093905951024,404,-0.9999999149795027,0.0
101,1.600144624710083,-0.9999999169517316,8.062878855433434e-10,-0.9999999163367428,-0.9999999183270649,0.0,120.8110829782243,0.1,0.0013842582702636719,0.02739262580871582,0.05019613,0.0006320851,-0.9999999172227128,0.0,-0.01999984175523316,0.0,4,0.001129150390625,1.091093905951024,1.091093905951024,408,-0.9999999149061849,0.0
102,1.6346180438995361,-0.999999916368141,1.265883272554635e-09,-0.9999999151470362,-0.9999999182660402,0.0,69.43698493800366,0.1,0.0014424324035644531,0.02727341651916504,0.050568815,0.0015868236,-0.9999999171372556,0.0,-0.01999984175523316,0.0,4,0.0011184215545654297,1.091093905951024,1.091093905951024,412,-0.9999999148371118,0.0
103,1.5698046684265137,-0.9999999165899838,1.3310402078480064e-09,-0.9999999143402922,-0.9999999177098706,0.0,45.844314881127595,0.1,0.0014348030090332031,0.02702951431274414,0.047970034,0.008778497,-0.9999999170825284,0.0,-0.01999984175523316,0.0,4,0.0012578964233398438,1.091093905951024,1.091093905951024,416,-0.9999999147993391,0.0
104,1.5952966213226318,-0.9999999159588427,5.194239593433269e-10,-0.9999999152172185,-0.9999999166734717,0.0,118.99852711682367,0.1,0.0016074180603027344,0.027571439743041992,0.04901881,0.0016943524,-0.9999999169701599,0.0,-0.01999984175523316,0.0,4,0.0012314319610595703,1.091093905951024,1.091093905951024,420,-0.9999999147702695,0.0
105,1.4554939270019531,-0.9999999161768174,7.337595397481663e-10,-0.9999999150001309,-0.9999999170214182,0.0,88.30130434568022,0.1,0.001569509506225586,0.027774572372436523,0.048932,0.0036825899,-0.9999999168908256,0.0,-0.01999984175523316,0.0,4,0.0014309883117675781,1.091093905951024,1.091093905951024,424,-0.9999999147639561,0.0
106,1.7056047916412354,-0.9999999163352112,9.081096265369063e-10,-0.9999999154648482,-0.9999999178509746,0.0,80.00098532023426,0.1,0.0015568733215332031,0.029656648635864258,0.052717417,0.0007912787,-0.9999999168352641,0.0,-0.01999984175523316,0.0,4,0.0012903213500976562,1.091093905951024,1.091093905951024,428,-0.9999999147148947,0.0
107,1.5627660751342773,-0.9999999164498703,9.22256595209872e-10,-0.99999991496034,-0.9999999174874246,0.0,73.66384161856956,0.1,0.0014104843139648438,0.02760481834411621,0.050690584,0.0021383264,-0.9999999167967248,0.0,-0.01999984175523316,0.0,4,0.0011556148529052734,1.091093905951024,1.091093905951024,432,-0.999999914698361,0.0
108,1.7702348232269287,-0.9999999165922704,1.9793867540883037e-09,-0.9999999152482348,-0.9999999200127612,0.0,38.0882988432355,0.1,0.0015254020690917969,0.027690887451171875,0.047582623,0.0016467522,-0.9999999167762794,0.0,-0.01999984175523316,0.0,4,0.0011749267578125,1.091093905951024,1.091093905951024,436,-0.9999999146814457,0.0
109,1.437668800354004,-0.9999999170714808,1.0522230648260187e-09,-0.999999915579614,-0.9999999185053934,0.0,68.35170376645246,0.1,0.001561880111694336,0.0287320613861084,0.047894847,0.002596129,-0.9999999168057996,0.0,-0.01999984175523316,0.0,4,0.0012881755828857422,1.091093905951024,1.091093905951024,440,-0.9999999147065216,0.0
110,1.5042030811309814,-0.9999999154203592,7.057126457681282e-10,-0.9999999144086249,-0.999999916398717,0.0,99.16930359398393,0.1,0.001466989517211914,0.02706122398376465,0.05314453,0.0008630515,-0.9999999166672555,0.0,-0.01999984175523316,0.0,4,0.0012192726135253906,1.091093905951024,1.091093905951024,444,-0.9999999146423729,0.0
111,1.6063265800476074,-0.999999915775609,1.0467816842969624e-09,-0.999999914150693,-0.9999999167653328,0.0,60.80491760572675,0.1,0.0014243125915527344,0.026624679565429688,0.04850085,0.0053457646,-0.9999999165780908,0.0,-0.01999984175523316,0.0,4,0.0010731220245361328,1.091093905951024,1.091093905951024,448,-0.9999999145790978,0.0
112,1.4562416076660156,-0.9999999161685107,7.576246780060218e-10,-0.9999999152991295,-0.9999999173537115,0.0,100.79976798653608,0.1,0.0013587474822998047,0.026026010513305664,0.050699085,0.0012121487,-0.9999999165371329,0.0,-0.01999984175523316,0.0,4,0.001161813735961914,1.091093905951024,1.091093905951024,452,-0.9999999145397972,0.0
113,1.434938669204712,-0.9999999158249456,1.3232645874329862e-09,-0.9999999142650666,-0.9999999177177674,0.0,56.832267269614846,0.1,0.0014905929565429688,0.02752399444580078,0.049712334,0.002094292,-0.9999999164659141,0.0,-0.01999984175523316,0.0,4,0.0012273788452148438,1.091093905951024,1.091093905951024,456,-0.9999999144656608,0.0
114,1.5439927577972412,-0.9999999160602839,9.6802683375684e-10,-0.9999999150932144,-0.999999917422373,0.0,72.73173682643505,0.1,0.0014879703521728516,0.027949094772338867,0.05005665,0.0016426292,-0.9999999164253512,0.0,-0.01999984175523316,0.0,4,0.001253366470336914,1.091093905951024,1.091093905951024,460,-0.9999999144607137,0.0
115,1.6608531475067139,-0.9999999152597305,6.233000073455225e-10,-0.999999914593589,-0.9999999162042454,0.0,115.40542814122244,0.1,0.0014951229095458984,0.027511119842529297,0.04908359,0.001427836,-0.9999999163087891,0.0,-0.01999984175523316,0.0,4,0.0011293888092041016,1.091093905951024,1.091093905951024,464,-0.9999999144328204,0.0
116,1.4092364311218262,-0.9999999156527846,7.467849491396241e-10,-0.9999999148454175,-0.9999999167955758,0.0,85.27266077531665,0.1,0.0014417171478271484,0.02694416046142578,0.050298627,0.0015121449,-0.9999999162431887,0.0,-0.01999984175523316,0.0,4,0.0011959075927734375,1.091093905951024,1.091093905951024,468,-0.9999999144150923,0.0
117,1.4435110092163086,-0.9999999159187927,4.71668907576149e-10,-0.9999999154829649,-0.9999999166873497,0.0,118.140308177419,0.1,0.0015537738800048828,0.027468442916870117,0.049540095,0.001543184,-0.9999999162107491,0.0,-0.01999984175523316,0.0,4,0.0012440681457519531,1.091093905951024,1.091093905951024,472,-0.9999999144509332,0.0
118,1.4699220657348633,-0.9999999157625528,9.257762958793376e-10,-0.9999999142505467,-0.9999999166915154,0.0,72.476772464458,0.1,0.001369476318359375,0.026935100555419922,0.050148923,0.0025009166,-0.9999999161659295,0.0,-0.01999984175523316,0.0,4,0.0010738372802734375,1.091093905951024,1.091093905951024,476,-0.9999999143982093,0.0
119,1.5334067344665527,-0.9999999156270598,8.023106980215042e-10,-0.9999999143972906,-0.9999999166437108,0.0,69.87451799416911,0.1,0.0014483928680419922,0.026909351348876953,0.050260734,0.0032153015,-0.9999999161120426,0.0,-0.01999984175523316,0.0,4,0.0014219284057617188,1.091093905951024,1.091093905951024,480,-0.9999999143500956,0.0
120,1.5051393508911133,-0.9999999163114698,8.176686011470525e-10,-0.9999999151106915,-0.9999999172040186,0.0,73.98775764737466,0.1,0.0016629695892333984,0.028064250946044922,0.050528713,0.0018370228,-0.9999999161319855,0.0,-0.01999984175523316,0.0,4,0.0012841224670410156,1.091093905951024,1.091093905951024,484,-0.9999999143464358,0.0
121,1.8150126934051514,-0.9999999160412226,6.668823902938163e-10,-0.999999914960706,-0.999999916786297,0.0,78.84209699400957,0.1,0.0017218589782714844,0.02804112434387207,0.046612877,0.0077221207,-0.9999999161229092,0.0,-0.01999984175523316,0.0,4,0.0014426708221435547,1.091093905951024,1.091093905951024,488,-0.9999999143263164,0.0
122,1.6930983066558838,-0.9999999175998366,3.119766143393108e-09,-0.999999915112139,-0.9999999227641523,0.0,16.359519297507656,0.1,0.0018374919891357422,0.0290830135345459,0.03458593,0.0024316318,-0.9999999162706019,0.0,-0.01999984175523316,0.0,4,0.0012123584747314453,1.091093905951024,1.091093905951024,492,-0.9999999143437956,0.0
123,2.1225082874298096,-0.9999999150885608,6.989151045116335e-10,-0.999999914573261,-0.9999999162879458,0.0,87.59080111715168,0.1,0.0015876293182373047,0.028370141983032227,0.05187966,0.00065391196,-0.9999999161523978,0.0,-0.01999984175523316,0.0,4,0.0012445449829101562,1.091093905951024,1.091093905951024,496,-0.9999999143579213,0.0
124,1.4799771308898926,-0.9999999160333033,9.247018987353209e-10,-0.9999999154166914,-0.9999999176324799,0.0,87.21900869769114,0.1,0.00146484375,0.028116226196289062,0.050653033,0.0008319806,-0.9999999161404884,0.0,-0.01999984175523316,0.0,4,0.0012364387512207031,1.091093905951024,1.091093905951024,500,-0.9999999143294289,0.0
125,1.4688549041748047,-0.999999915610073,9.45322644796639e-10,-0.9999999145092484,-0.9999999169580893,0.0,68.33864376657957,0.1,0.0013997554779052734,0.02724170684814453,0.04977441,0.0019363137,-0.9999999160874469,0.0,-0.01999984175523316,0.0,4,0.0013530254364013672,1.091093905951024,1.091093905951024,504,-0.9999999143371684,0.0
126,1.3675799369812012,-0.9999999151481099,9.463551216495084e-10,-0.9999999144061122,-0.9999999167564659,0.0,55.02874541637332,0.1,0.0014081001281738281,0.02670431137084961,0.03810851,0.00071091205,-0.9999999159935132,0.0,-0.01999984175523316,0.0,4,0.0011055469512939453,1.091093905951024,1.091093905951024,508,-0.9999999143077482,0.0
127,1.5490562915802002,-0.9999999159078852,8.166572827333496e-10,-0.9999999147577405,-0.9999999167268929,0.0,87.49705179133308,0.1,0.0014812946319580078,0.027128219604492188,0.05066222,0.0011891201,-0.9999999159849504,0.0,-0.01999984175523316,0.0,4,0.0011892318725585938,1.091093905951024,1.091093905951024,512,-0.9999999142936908,0.0
128,1.8165092468261719,-0.9999999154704147,1.7885354334491943e-09,-0.9999999141698541,-0.9999999185500439,0.0,32.50507142545822,0.1,0.0014944076538085938,0.026581764221191406,0.04551686,0.0019283341,-0.9999999159334969,0.0,-0.01999984175523316,0.0,4,0.0011839866638183594,1.091093905951024,1.091093905951024,516,-0.9999999142628155,0.0
129,1.6059064865112305,-0.9999999147516545,4.072555813082586e-10,-0.9999999141251699,-0.9999999152520256,0.0,163.53720646457074,0.1,0.0014615058898925781,0.026883602142333984,0.04924886,0.0011478676,-0.9999999158153127,0.0,-0.01999984175523316,0.0,4,0.0010876655578613281,1.091093905951024,1.091093905951024,520,-0.999999914225985,0.0
130,1.7188303470611572,-0.9999999162062129,1.70240407037686e-09,-0.999999914541984,-0.9999999190266506,0.0,34.42120243761537,0.1,0.0014786720275878906,0.02752852439880371,0.046665512,0.00530971,-0.9999999158544026,0.0,-0.01999984175523316,0.0,4,0.001397848129272461,1.091093905951024,1.091093905951024,524,-0.9999999141967701,0.0
131,1.4418952465057373,-0.9999999147972973,5.425524472073344e-10,-0.9999999141897911,-0.9999999153949106,0.0,151.51886324179395,0.1,0.0013804435729980469,0.027437686920166016,0.04999072,0.00095766434,-0.9999999157486921,0.0,-0.01999984175523316,0.0,4,0.001116037368774414,1.091093905951024,1.091093905951024,528,-0.9999999141617391,0.0
132,1.6195003986358643,-0.9999999151137042,5.124839126817557e-10,-0.9999999144900584,-0.9999999158272048,0.0,112.51404833770133,0.1,0.0015156269073486328,0.027715444564819336,0.044838022,0.00055424083,-0.9999999156851933,0.0,-0.01999984175523316,0.0,4,0.0013136863708496094,1.091093905951024,1.091093905951024,532,-0.9999999141737151,0.0
133,1.4790778160095215,-0.9999999157036661,8.786060256675208e-10,-0.9999999145791245,-0.9999999167730116,0.0,57.170290148485456,0.1,0.001394510269165039,0.02766132354736328,0.051518112,0.0014867774,-0.9999999156870406,0.0,-0.01999984175523316,0.0,4,0.0014562606811523438,1.091093905951024,1.091093905951024,536,-0.9999999141750062,0.0
134,1.665207862854004,-0.9999999147837335,8.89283063685098e-10,-0.999999913921163,-0.9999999161116857,0.0,70.49534378602931,0.1,0.0014400482177734375,0.02694559097290039,0.05131038,0.0012953652,-0.9999999155967099,0.0,-0.01999984175523316,0.0,4,0.0010797977447509766,1.091093905951024,1.091093905951024,540,-0.9999999141602687,0.0
135,1.5175261497497559,-0.9999999150490988,5.979563858568015e-10,-0.9999999141835634,-0.9999999157613928,0.0,118.32000989864991,0.1,0.0014216899871826172,0.027077674865722656,0.051416837,0.0009997317,-0.9999999155419488,0.0,-0.01999984175523316,0.0,4,0.0010900497436523438,1.091093905951024,1.091093905951024,544,-0.9999999141501448,0.0
136,1.4607181549072266,-0.9999999155709067,9.376164006359394e-10,-0.9999999140837414,-0.999999916656737,0.0,70.99251954740102,0.1,0.0014274120330810547,0.027926921844482422,0.04705299,0.003261617,-0.9999999155448447,0.0,-0.01999984175523316,0.0,4,0.0012216567993164062,1.091093905951024,1.091093905951024,548,-0.9999999141318058,0.0
137,1.5172584056854248,-0.9999999149570007,2.2182874639123592e-10,-0.9999999145774288,-0.9999999151175973,0.0,319.32776458285736,0.1,0.0015714168548583984,0.027939796447753906,0.048858393,0.0007983979,-0.9999999154860603,0.0,-0.01999984175523316,0.0,4,0.001210927963256836,1.091093905951024,1.091093905951024,552,-0.999999914124333,0.0
138,1.5073151588439941,-0.9999999146054057,5.750042250272006e-10,-0.9999999140857503,-0.9999999155277173,0.0,109.11738496494509,0.1,0.0015523433685302734,0.027927637100219727,0.050909534,0.0004986992,-0.9999999153979948,0.0,-0.01999984175523316,0.0,4,0.001294851303100586,1.091093905951024,1.091093905951024,556,-0.9999999141020975,0.0
139,1.6207730770111084,-0.9999999146345797,4.0037719264459843e-10,-0.9999999142231337,-0.9999999152546715,0.0,174.00122258504172,0.1,0.001554250717163086,0.0278165340423584,0.047775846,0.00088757364,-0.9999999153216533,0.0,-0.01999984175523316,0.0,4,0.001190185546875,1.091093905951024,1.091093905951024,560,-0.9999999140916125,0.0
140,1.448265790939331,-0.9999999147711607,7.778431610450365e-10,-0.9999999139489495,-0.9999999156460209,0.0,77.63178073636831,0.1,0.0014736652374267578,0.02761101722717285,0.04993939,0.0011229783,-0.9999999152666041,0.0,-0.01999984175523316,0.0,4,0.0015392303466796875,1.091093905951024,1.091093905951024,564,-0.9999999140744361,0.0
141,1.5118181705474854,-0.9999999148220062,5.255131428232443e-10,-0.9999999143083087,-0.9999999155036539,0.0,121.42767555968244,0.1,0.0015969276428222656,0.0268709659576416,0.05064431,0.0006066996,-0.9999999152221444,0.0,-0.01999984175523316,0.0,4,0.0012826919555664062,1.091093905951024,1.091093905951024,568,-0.9999999140557416,0.0
142,1.3297948837280273,-0.999999915165813,9.637336852953282e-10,-0.9999999138972397,-0.999999916554432,0.0,57.730596339500785,0.1,0.0015761852264404297,0.028012752532958984,0.04356668,0.0020850624,-0.9999999152165113,0.0,-0.01999984175523316,0.0,4,0.0011627674102783203,1.091093905951024,1.091093905951024,572,-0.999999914034816,0.0
143,1.5187256336212158,-0.9999999145336504,2.460749606047864e-10,-0.9999999141419929,-0.9999999148185765,0.0,298.2935571970262,0.1,0.0014607906341552734,0.0268251895904541,0.043849703,0.00048607422,-0.9999999151482253,0.0,-0.01999984175523316,0.0,4,0.001180887222290039,1.091093905951024,1.091093905951024,576,-0.9999999140306141,0.0
144,1.406111478805542,-0.9999999157060996,1.001418686958831e-09,-0.9999999143780569,-0.9999999172005971,0.0,57.16492740225309,0.1,0.0014977455139160156,0.027751445770263672,0.041736417,0.0010587771,-0.9999999152040127,0.0,-0.01999984175523316,0.0,4,0.0012297630310058594,1.091093905951024,1.091093905951024,580,-0.9999999140194724,0.0
145,1.524930477142334,-0.999999915000946,3.507183195016067e-10,-0.99999991445085,-0.9999999154167638,0.0,180.00085946031302,0.1,0.0013470649719238281,0.0272824764251709,0.048877943,0.0018631296,-0.999999915183706,0.0,-0.01999984175523316,0.0,4,0.0010721683502197266,1.091093905951024,1.091093905951024,584,-0.9999999139985857,0.0
146,1.6804885864257812,-0.999999914875358,7.21950169272094e-10,-0.9999999141193168,-0.9999999157987911,0.0,76.62805763892584,0.1,0.0014977455139160156,0.030610084533691406,0.050066296,0.0010329726,-0.9999999151528712,0.0,-0.01999984175523316,0.0,4,0.0014910697937011719,1.091093905951024,1.091093905951024,588,-0.9999999139913401,0.0
147,1.367734432220459,-0.9999999156203228,1.439537563358458e-09,-0.9999999144522973,-0.9999999180622432,0.0,46.80296532778382,0.1,0.001390218734741211,0.026800870895385742,0.045690037,0.0010731975,-0.9999999151996164,0.0,-0.01999984175523316,0.0,4,0.0011069774627685547,1.091093905951024,1.091093905951024,592,-0.9999999139707615,0.0
148,1.442284345626831,-0.9999999148962333,3.6589094015068063e-10,-0.9999999142993949,-0.9999999152892209,0.0,198.2842731187029,0.1,0.0015311241149902344,0.030020713806152344,0.049272172,0.0009293373,-0.9999999151692781,0.0,-0.01999984175523316,0.0,4,0.0012233257293701172,1.091093905951024,1.091093905951024,596,-0.9999999139597193,0.0
149,1.5135788917541504,-0.9999999151147094,1.8958710373066177e-09,-0.999999913672653,-0.9999999183590553,0.0,25.811150841777682,0.1,0.0013871192932128906,0.027305126190185547,0.04725454,0.0018073987,-0.9999999151638213,0.0,-0.01999984175523316,0.0,4,0.0011970996856689453,1.091093905951024,1.091093905951024,600,-0.9999999139361117,0.0
150,1.6168115139007568,-0.9999999151577742,1.2885589424096979e-09,-0.9999999137585305,-0.9999999170498965,0.0,51.84620598216372,0.1,0.001558542251586914,0.027059078216552734,0.041563116,0.002724465,-0.9999999151632166,0.0,-0.01999984175523316,0.0,4,0.0012118816375732422,1.091093905951024,1.091093905951024,604,-0.9999999139010831,0.0
151,1.4156227111816406,-0.9999999152035166,4.387272465074436e-10,-0.9999999146822682,-0.9999999158634818,0.0,130.05438368720203,0.1,0.0016868114471435547,0.02936387062072754,0.03762062,0.00048328532,-0.9999999151672466,0.0,-0.01999984175523316,0.0,4,0.0012235641479492188,1.091093905951024,1.091093905951024,608,-0.9999999138888208,0.0
152,1.633134126663208,-0.999999914225915,2.488143627492484e-10,-0.9999999139502715,-0.9999999146150267,0.0,272.00073011001143,0.1,0.0014691352844238281,0.027969837188720703,0.049897604,0.0003081431,-0.9999999150731135,0.0,-0.01999984175523316,0.0,4,0.0011138916015625,1.091093905951024,1.091093905951024,612,-0.9999999138677929,0.0
153,1.6182539463043213,-0.9999999141141356,3.444850335612642e-10,-0.9999999138418987,-0.9999999147054344,0.0,168.8513184199875,0.1,0.0015957355499267578,0.026990413665771484,0.054267712,0.00023168794,-0.9999999149772157,0.0,-0.01999984175523316,0.0,4,0.0011467933654785156,1.091093905951024,1.091093905951024,616,-0.9999999138548393,0.0
154,1.819789171218872,-0.9999999142830772,2.5956552595779707e-10,-0.9999999138942652,-0.9999999146251652,0.0,277.5291607415233,0.1,0.0016050338745117188,0.02775406837463379,0.048120193,0.00083646877,-0.9999999149078019,0.0,-0.01999984175523316,0.0,4,0.0011394023895263672,1.091093905951024,1.091093905951024,620,-0.9999999138438898,0.0
155,1.4089457988739014,-0.9999999143237365,3.445369416595941e-10,-0.999999913781604,-0.9999999146985212,0.0,196.86187424550113,0.1,0.0016467571258544922,0.028505563735961914,0.049633093,0.00078104605,-0.9999999148493954,0.0,-0.01999984175523316,0.0,4,0.0012478828430175781,1.091093905951024,1.091093905951024,624,-0.9999999138167972,0.0
156,1.584296703338623,-0.9999999145275535,6.124941301080183e-10,-0.9999999141275142,-0.9999999155845114,0.0,87.54542809577764,0.1,0.001413106918334961,0.027127742767333984,0.04994026,0.0004931143,-0.9999999148172113,0.0,-0.01999984175523316,0.0,4,0.0011219978332519531,1.091093905951024,1.091093905951024,628,-0.9999999138189519,0.0
157,1.2775659561157227,-0.9999999147011391,4.525313012435513e-10,-0.9999999139802855,-0.9999999151272301,0.0,144.38711208731175,0.1,0.0015292167663574219,0.027224063873291016,0.049293846,0.00149265,-0.9999999148056041,0.0,-0.01999984175523316,0.0,4,0.0011992454528808594,1.091093905951024,1.091093905951024,632,-0.9999999137957034,0.0
158,1.3417689800262451,-0.9999999143925207,4.4067713749060363e-10,-0.9999999138585804,-0.9999999150844936,0.0,152.68958812463205,0.1,0.0013637542724609375,0.02683091163635254,0.050381005,0.0009093997,-0.9999999147642958,0.0,-0.01999984175523316,0.0,4,0.001180410385131836,1.091093905951024,1.091093905951024,636,-0.9999999137925606,0.0
159,1.4694547653198242,-0.9999999148355077,6.185521980539664e-10,-0.9999999138667155,-0.9999999155038439,0.0,111.25923513706675,0.1,0.0014348030090332031,0.027564048767089844,0.04934589,0.0015650769,-0.999999914771417,0.0,-0.01999984175523316,0.0,4,0.0011248588562011719,1.091093905951024,1.091093905951024,640,-0.9999999137783395,0.0
160,1.3978099822998047,-0.9999999139957175,4.0833434419245546e-10,-0.9999999134959447,-0.9999999145043437,0.0,187.42959576010102,0.1,0.0014204978942871094,0.0273587703704834,0.051240683,0.00040796062,-0.9999999146938471,0.0,-0.01999984175523316,0.0,4,0.0014255046844482422,1.091093905951024,1.091093905951024,644,-0.9999999137489746,0.0
161,1.460301160812378,-0.9999999141671809,3.8562173849538696e-10,-0.9999999138445574,-0.9999999148196239,0.0,154.56226966230054,0.1,0.0015213489532470703,0.028469324111938477,0.053194247,0.0004059028,-0.9999999146411805,0.0,-0.01999984175523316,0.0,4,0.001293182373046875,1.091093905951024,1.091093905951024,648,-0.999999913722672,0.0
162,1.401860237121582,-0.9999999144144187,3.146609844329371e-10,-0.9999999139480122,-0.9999999148181209,0.0,239.03003713376756,0.1,0.0015072822570800781,0.026801109313964844,0.050138578,0.00069544005,-0.9999999146185043,0.0,-0.01999984175523316,0.0,4,0.001088857650756836,1.091093905951024,1.091093905951024,652,-0.9999999137271806,0.0
163,1.4948930740356445,-0.9999999146192089,5.283152728360314e-10,-0.9999999138839513,-0.9999999152932766,0.0,116.49481103469094,0.1,0.0014693737030029297,0.027168750762939453,0.04647898,0.002455507,-0.9999999146185747,0.0,-0.01999984175523316,0.0,4,0.0012013912200927734,1.091093905951024,1.091093905951024,656,-0.9999999137359943,0.0
164,1.6007850170135498,-0.9999999137747366,3.0246782291611565e-10,-0.9999999132708417,-0.9999999140777049,0.0,209.11462783327596,0.1,0.0014643669128417969,0.028331995010375977,0.048637964,0.0017551149,-0.9999999145341909,0.0,-0.01999984175523316,0.0,4,0.0013365745544433594,1.091093905951024,1.091093905951024,660,-0.9999999137050746,0.0
165,1.4411847591400146,-0.9999999149556349,2.353231754745948e-10,-0.9999999147545715,-0.9999999153519525,0.0,255.5259495924372,0.1,0.0014586448669433594,0.02773761749267578,0.050537087,0.00028060254,-0.9999999145763353,0.0,-0.01999984175523316,0.0,4,0.001313924789428711,1.091093905951024,1.091093905951024,664,-0.9999999137123585,0.0
166,1.374727725982666,-0.9999999143698353,1.5224953908485308e-10,-0.9999999141538176,-0.9999999145655409,0.0,451.4741810754958,0.1,0.0015451908111572266,0.027703046798706055,0.0460662,0.00039887178,-0.9999999145556854,0.0,-0.01999984175523316,0.0,4,0.001199960708618164,1.091093905951024,1.091093905951024,668,-0.9999999137025725,0.0
167,1.4492957592010498,-0.9999999144685332,8.922072063594317e-10,-0.9999999138864204,-0.9999999160119533,0.0,69.1804016950423,0.1,0.0014853477478027344,0.02753305435180664,0.052044157,0.00085234176,-0.9999999145469702,0.0,-0.01999984175523316,0.0,4,0.0011410713195800781,1.091093905951024,1.091093905951024,672,-0.9999999137040124,0.0
168,1.3017387390136719,-0.9999999141156335,6.880775499869044e-10,-0.999999913644205,-0.9999999152992651,0.0,74.55162407168969,0.1,0.0014107227325439453,0.027626991271972656,0.039775398,0.0005865379,-0.9999999145038366,0.0,-0.01999984175523316,0.0,4,0.0010561943054199219,1.091093905951024,1.091093905951024,676,-0.9999999136917235,0.0
169,1.4148199558258057,-0.9999999143987872,6.343726729231613e-10,-0.9999999135847135,-0.9999999153527199,0.0,102.7070887869235,0.1,0.0014314651489257812,0.026900529861450195,0.043669384,0.0007796327,-0.9999999144933317,0.0,-0.01999984175523316,0.0,4,0.0011706352233886719,1.091093905951024,1.091093905951024,680,-0.9999999137232628,0.0
170,1.413672685623169,-0.9999999140449003,1.5140273576302955e-10,-0.9999999138976323,-0.9999999142843117,0.0,486.69174726945846,0.1,0.0013535022735595703,0.027585744857788086,0.04809361,0.00032989297,-0.9999999144484886,0.0,-0.01999984175523316,0.0,4,0.0011773109436035156,1.091093905951024,1.091093905951024,684,-0.9999999137214602,0.0
171,1.5013823509216309,-0.9999999145447505,6.915188963406305e-10,-0.9999999138205975,-0.9999999156663826,0.0,97.9296986047083,0.1,0.0014667510986328125,0.027344465255737305,0.051929362,0.000808341,-0.9999999144581148,0.0,-0.01999984175523316,0.0,4,0.0011234283447265625,1.091093905951024,1.091093905951024,688,-0.9999999137117186,0.0
172,1.3696670532226562,-0.9999999148235952,4.3842589738896835e-10,-0.9999999142039884,-0.9999999152988055,0.0,138.71083202721653,0.1,0.0014081001281738281,0.027124404907226562,0.05060574,0.0007537702,-0.9999999144946627,0.0,-0.01999984175523316,0.0,4,0.001157999038696289,1.091093905951024,1.091093905951024,692,-0.9999999137022044,0.0
173,1.466904878616333,-0.9999999138011728,1.808973495358787e-10,-0.9999999136161812,-0.9999999140979441,0.0,354.4319349351053,0.1,0.0015032291412353516,0.027324914932250977,0.05139052,0.00018422499,-0.9999999144253138,0.0,-0.01999984175523316,0.0,4,0.0011959075927734375,1.091093905951024,1.091093905951024,696,-0.9999999136846687,0.0
174,1.5595412254333496,-0.9999999141779976,2.9430772478052917e-10,-0.9999999136972022,-0.9999999144242562,0.0,245.42328233801638,0.1,0.0014929771423339844,0.027596235275268555,0.0482685,0.0005040128,-0.9999999144005822,0.0,-0.01999984175523316,0.0,4,0.001222848892211914,1.091093905951024,1.091093905951024,700,-0.9999999136632791,0.0
175,1.454979658126831,-0.9999999141363926,5.096553802510549e-10,-0.9999999133167226,-0.9999999146047582,0.0,141.92470652866862,0.1,0.0014913082122802734,0.027762174606323242,0.047176696,0.001327363,-0.9999999143741632,0.0,-0.01999984175523316,0.0,4,0.0011794567108154297,1.091093905951024,1.091093905951024,704,-0.9999999136206627,0.0
176,1.8695614337921143,-0.999999914180085,3.680743815105796e-10,-0.9999999136084805,-0.9999999145668852,0.0,175.68141227449314,0.1,0.0016803741455078125,0.02763199806213379,0.0446299,0.0008851452,-0.9999999143547554,0.0,-0.01999984175523316,0.0,4,0.0011622905731201172,1.091093905951024,1.091093905951024,708,-0.9999999135975023,0.0
177,1.571465253829956,-0.9999999140675875,1.5857400906645477e-10,-0.9999999138897202,-0.999999914285925,0.0,362.7787517666825,0.1,0.0016050338745117188,0.02792835235595703,0.04975258,0.00027772956,-0.9999999143260386,0.0,-0.01999984175523316,0.0,4,0.001161813735961914,1.091093905951024,1.091093905951024,712,-0.9999999135789053,0.0
178,1.4222922325134277,-0.9999999144445715,7.702183964040027e-10,-0.9999999135735063,-0.9999999154127011,0.0,86.83131955242669,0.1,0.0015077590942382812,0.027181148529052734,0.049605206,0.0016299423,-0.9999999143378919,0.0,-0.01999984175523316,0.0,4,0.0011277198791503906,1.091093905951024,1.091093905951024,716,-0.9999999135726463,0.0
179,0.9700193405151367,-0.9999999145341057,8.327005887340191e-10,-0.9999999136463293,-0.9999999158978159,0.0,78.11013876609002,0.1,0.001566171646118164,0.027751445770263672,0.045633726,0.00053323235,-0.9999999143575133,0.0,-0.01999984175523316,0.0,4,0.0012009143829345703,1.091093905951024,1.091093905951024,720,-0.9999999135709386,0.0
180,0.9545531272888184,-0.9999999141146042,6.518156438926847e-10,-0.9999999136479785,-0.9999999152357026,0.0,92.03737846289567,0.1,0.00140380859375,0.027429819107055664,0.03841419,0.0005427925,-0.9999999143332224,0.0,-0.01999984175523316,0.0,4,0.0012297630310058594,1.091093905951024,1.091093905951024,724,-0.9999999135356282,0.0
181,1.1008257865905762,-0.9999999140530252,6.309531346491815e-10,-0.999999913501727,-0.9999999151248957,0.0,114.49508846565543,0.1,0.0014576911926269531,0.02710103988647461,0.046173703,0.0006036874,-0.9999999143052027,0.0,-0.01999984175523316,0.0,4,0.0011126995086669922,1.091093905951024,1.091093905951024,728,-0.9999999135439488,0.0
182,1.0126557350158691,-0.999999913816005,1.3789176335389632e-10,-0.9999999136523579,-0.9999999140112843,0.0,445.72266088173234,0.1,0.0014221668243408203,0.026703596115112305,0.050053973,0.00023934655,-0.999999914256283,0.0,-0.01999984175523316,0.0,4,0.0011141300201416016,1.091093905951024,1.091093905951024,732,-0.9999999135407406,0.0
183,0.9717671871185303,-0.9999999137712154,1.467781905785692e-10,-0.9999999136067381,-0.9999999139404439,0.0,510.8769549007013,0.1,0.0014235973358154297,0.02991795539855957,0.04940194,0.00020850428,-0.9999999142077762,0.0,-0.01999984175523316,0.0,4,0.0012729167938232422,1.091093905951024,1.091093905951024,736,-0.9999999135285962,0.0
184,0.9958951473236084,-0.9999999140985516,4.582528346279773e-10,-0.9999999136769468,-0.9999999147876777,0.0,133.88182930495762,0.1,0.0014617443084716797,0.026882410049438477,0.04480835,0.0004732767,-0.9999999141968537,0.0,-0.01999984175523316,0.0,4,0.0011429786682128906,1.091093905951024,1.091093905951024,740,-0.9999999135144582,0.0
185,1.035956621170044,-0.9999999138232647,2.233340300040238e-10,-0.9999999136239637,-0.9999999141889166,0.0,320.2371843048706,0.1,0.0015172958374023438,0.027852773666381836,0.052637696,0.00019827098,-0.9999999141594949,0.0,-0.01999984175523316,0.0,4,0.0011625289916992188,1.091093905951024,1.091093905951024,744,-0.9999999135111861,0.0
186,1.0773944854736328,-0.999999913837605,1.702207971214509e-10,-0.9999999135435202,-0.9999999139538951,0.0,453.59553514933134,0.1,0.0013599395751953125,0.026667118072509766,0.046112873,0.00037476447,-0.9999999141273058,0.0,-0.01999984175523316,0.0,4,0.0010762214660644531,1.091093905951024,1.091093905951024,748,-0.9999999135134074,0.0
187,1.0937199592590332,-0.9999999136520094,3.1056814692692866e-10,-0.9999999133351407,-0.9999999139712705,0.0,214.9894556604427,0.1,0.0014903545379638672,0.02707529067993164,0.051115245,0.0005198857,-0.9999999140797762,0.0,-0.01999984175523316,0.0,4,0.0011827945709228516,1.091093905951024,1.091093905951024,752,-0.9999999134913353,0.0
188,1.009990930557251,-0.9999999138690912,1.9543377425330613e-10,-0.9999999135866533,-0.9999999141336946,0.0,424.37488752301186,0.1,0.0014066696166992188,0.02794027328491211,0.041601233,0.00018089394,-0.9999999140587077,0.0,-0.01999984175523316,0.0,4,0.0011420249938964844,1.091093905951024,1.091093905951024,756,-0.9999999134709158,0.0
189,0.9865849018096924,-0.9999999143665699,1.6437578513538695e-10,-0.9999999141192553,-0.9999999145545275,0.0,371.3087033010017,0.1,0.0014545917510986328,0.026791095733642578,0.04914297,0.0006413611,-0.999999914089494,0.0,-0.01999984175523316,0.0,4,0.0010933876037597656,1.091093905951024,1.091093905951024,760,-0.9999999134647443,0.0
190,1.0333168506622314,-0.9999999140892921,8.869487064132685e-11,-0.9999999139373084,-0.9999999141582874,0.0,797.0289531955764,0.1,0.0014295578002929688,0.02661871910095215,0.047694966,0.0001814641,-0.9999999140894739,0.0,-0.01999984175523316,0.0,4,0.0010688304901123047,1.091093905951024,1.091093905951024,764,-0.9999999134743907,0.0
191,1.0201406478881836,-0.9999999140609017,3.6445073819756864e-10,-0.9999999135418938,-0.9999999145556584,0.0,180.42879592386922,0.1,0.0015168190002441406,0.027977943420410156,0.041105445,0.0012083009,-0.9999999140866167,0.0,-0.01999984175523316,0.0,4,0.0012202262878417969,1.091093905951024,1.091093905951024,768,-0.9999999134440433,0.0
192,1.0074419975280762,-0.9999999135646211,2.0374320444088546e-10,-0.9999999133528983,-0.9999999138955737,0.0,308.8860621026252,0.1,0.0015289783477783203,0.027643918991088867,0.042864285,0.00033059032,-0.9999999140344171,0.0,-0.01999984175523316,0.0,4,0.0012903213500976562,1.091093905951024,1.091093905951024,772,-0.9999999134373123,0.0
193,0.9249022006988525,-0.9999999137389244,2.9330622485644904e-10,-0.999999913497873,-0.9999999142309892,0.0,178.59132436607538,0.1,0.0015790462493896484,0.02757740020751953,0.053276643,0.00033979327,-0.9999999140048679,0.0,-0.01999984175523316,0.0,4,0.0012500286102294922,1.091093905951024,1.091093905951024,776,-0.9999999134169343,0.0
194,0.983698844909668,-0.9999999140508418,3.8474067745406824e-10,-0.9999999134499726,-0.9999999145226863,0.0,186.14550743211802,0.1,0.0015735626220703125,0.027934551239013672,0.049288943,0.0012010671,-0.9999999140094653,0.0,-0.01999984175523316,0.0,4,0.0014104843139648438,1.091093905951024,1.091093905951024,780,-0.9999999133913701,0.0
195,0.9846570491790771,-0.999999913945161,2.2069355212140948e-10,-0.9999999136357094,-0.999999914259851,0.0,341.9523203233496,0.1,0.0015544891357421875,0.02824687957763672,0.047348447,0.0003587787,-0.9999999140030349,0.0,-0.01999984175523316,0.0,4,0.0011928081512451172,1.091093905951024,1.091093905951024,784,-0.9999999133792395,0.0
196,0.9724125862121582,-0.9999999140326152,2.1521145441974786e-10,-0.9999999138240552,-0.9999999143665439,0.0,297.8520286500958,0.1,0.0015020370483398438,0.02722620964050293,0.04849172,0.0005460302,-0.999999914005993,0.0,-0.01999984175523316,0.0,4,0.0010919570922851562,1.091093905951024,1.091093905951024,788,-0.9999999133981031,0.0
197,0.9974210262298584,-0.9999999135901954,2.405887205035544e-10,-0.9999999132920478,-0.9999999138483475,0.0,267.94408707368916,0.1,0.0016570091247558594,0.028930187225341797,0.050036173,0.00060242624,-0.9999999139644133,0.0,-0.01999984175523316,0.0,4,0.0011878013610839844,1.091093905951024,1.091093905951024,792,-0.9999999133811958,0.0
198,1.060086965560913,-0.9999999137095263,1.984316939920833e-10,-0.9999999134014124,-0.9999999139547537,0.0,353.5262353371538,0.1,0.0015399456024169922,0.02887415885925293,0.044055793,0.0005624865,-0.9999999139389246,0.0,-0.01999984175523316,0.0,4,0.0010952949523925781,1.091093905951024,1.091093905951024,796,-0.9999999133693119,0.0
199,0.9703822135925293,-0.9999999137061502,3.7346031370796754e-10,-0.999999913378671,-0.9999999143404337,0.0,207.87883337021213,0.1,0.0015664100646972656,0.027355194091796875,0.050570462,0.0003428115,-0.9999999139156471,0.0,-0.01999984175523316,0.0,4,0.0011942386627197266,1.091093905951024,1.091093905951024,800,-0.9999999133606541,0.0
200,0.9505317211151123,-0.9999999139856063,4.311803253335136e-10,-0.9999999135337583,-0.9999999146939655,0.0,154.97653837358703,0.1,0.0015385150909423828,0.027912139892578125,0.04734595,0.0006891002,-0.9999999139226431,0.0,-0.01999984175523316,0.0,4,0.0011086463928222656,1.091093905951024,1.091093905951024,804,-0.9999999133451244,0.0
201,1.1374847888946533,-0.9999999138682034,1.6883594825456361e-10,-0.9999999135956588,-0.9999999140327456,0.0,416.69592950387937,0.1,0.0015325546264648438,0.02917027473449707,0.04587736,0.00061111007,-0.9999999139171991,0.0,-0.01999984175523316,0.0,4,0.0015590190887451172,1.091093905951024,1.091093905951024,808,-0.9999999133387621,0.0
202,0.9765944480895996,-0.9999999138404856,6.694972980917856e-10,-0.9999999132479791,-0.9999999149062007,0.0,93.82875232222055,0.1,0.0014872550964355469,0.027390718460083008,0.043767564,0.0012954937,-0.9999999139095278,0.0,-0.01999984175523316,0.0,4,0.001310110092163086,1.091093905951024,1.091093905951024,812,-0.9999999133156088,0.0
203,0.9559202194213867,-0.9999999138793201,3.767793805105032e-10,-0.9999999135557338,-0.9999999144952108,0.0,171.70061151140533,0.1,0.0015630722045898438,0.02765798568725586,0.048065107,0.00047727785,-0.9999999139065071,0.0,-0.01999984175523316,0.0,4,0.0013127326965332031,1.091093905951024,1.091093905951024,816,-0.9999999132952665,0.0
204,1.0004017353057861,-0.9999999139651298,3.20633938939246e-10,-0.9999999134966067,-0.9999999143540257,0.0,189.02309565083863,0.1,0.0015773773193359375,0.027961015701293945,0.047564402,0.0004817837,-0.9999999139123693,0.0,-0.01999984175523316,0.0,4,0.0012400150299072266,1.091093905951024,1.091093905951024,820,-0.9999999132884895,0.0
205,0.9938755035400391,-0.9999999135657295,2.546344586725851e-10,-0.9999999133397297,-0.9999999139689115,0.0,245.08088594865336,0.1,0.0015571117401123047,0.0277101993560791,0.049433157,0.0005984505,-0.9999999138777054,0.0,-0.01999984175523316,0.0,4,0.0013885498046875,1.091093905951024,1.091093905951024,824,-0.9999999132691944,0.0
206,1.0220563411712646,-0.9999999138341497,3.84777198503524e-10,-0.9999999132545108,-0.9999999142082512,0.0,146.60885386621308,0.1,0.0015530586242675781,0.0281527042388916,0.048458308,0.0028302702,-0.9999999138733499,0.0,-0.01999984175523316,0.0,4,0.001378774642944336,1.091093905951024,1.091093905951024,828,-0.9999999132554539,0.0
207,0.9647276401519775,-0.9999999138159503,2.460481952868688e-10,-0.9999999133903357,-0.9999999139779545,0.0,308.52676624172426,0.1,0.001672506332397461,0.028570890426635742,0.04890903,0.00085698493,-0.9999999138676099,0.0,-0.01999984175523316,0.0,4,0.0015163421630859375,1.091093905951024,1.091093905951024,832,-0.9999999132489426,0.0
208,0.9604263305664062,-0.9999999136287056,4.1895267165069013e-10,-0.9999999130882924,-0.9999999141909992,0.0,170.27654922961827,0.1,0.0014994144439697266,0.027814865112304688,0.045788877,0.0009803657,-0.9999999138437194,0.0,-0.01999984175523316,0.0,4,0.0014157295227050781,1.091093905951024,1.091093905951024,836,-0.999999913227038,0.0
209,1.0000555515289307,-0.999999913592963,2.1648859785783283e-10,-0.9999999132374275,-0.9999999137861184,0.0,261.95326309341505,0.1,0.0014095306396484375,0.0270540714263916,0.044696845,0.001513973,-0.9999999138186438,0.0,-0.01999984175523316,0.0,4,0.0011327266693115234,1.091093905951024,1.091093905951024,840,-0.9999999132213513,0.0
210,0.968618631362915,-0.9999999141643485,8.456190982600381e-10,-0.9999999132512183,-0.9999999155299224,0.0,61.891440930037234,0.1,0.0015292167663574219,0.02680182456970215,0.02501569,0.0006194969,-0.9999999138532144,0.0,-0.01999984175523316,0.0,4,0.0012085437774658203,1.091093905951024,1.091093905951024,844,-0.9999999132191686,0.0
211,0.9855649471282959,-0.9999999137284084,3.4610537853723573e-10,-0.9999999132134247,-0.9999999140841418,0.0,211.0249925105136,0.1,0.0013570785522460938,0.026796340942382812,0.044049546,0.0007741259,-0.9999999138407338,0.0,-0.01999984175523316,0.0,4,0.0012562274932861328,1.091093905951024,1.091093905951024,848,-0.9999999131970426,0.0
212,0.9819669723510742,-0.9999999139322137,3.596320364169652e-10,-0.9999999134619333,-0.9999999144309508,0.0,183.54663531029775,0.1,0.001504659652709961,0.02843332290649414,0.045358256,0.0012686264,-0.9999999138498818,0.0,-0.01999984175523316,0.0,4,0.0012214183807373047,1.091093905951024,1.091093905951024,852,-0.999999913178199,0.0
213,1.020589828491211,-0.9999999134120838,1.519970116432663e-10,-0.9999999131902357,-0.9999999135711972,0.0,457.62213857723856,0.1,0.0014736652374267578,0.027774333953857422,0.049454432,0.00038667515,-0.9999999138061021,0.0,-0.01999984175523316,0.0,4,0.001196146011352539,1.091093905951024,1.091093905951024,856,-0.999999913179142,0.0
214,1.0592303276062012,-0.9999999134926605,7.849185872026657e-11,-0.9999999133990465,-0.9999999135931077,0.0,903.3708468819772,0.1,0.0015377998352050781,0.02732110023498535,0.048602942,0.00015148378,-0.9999999137747579,0.0,-0.01999984175523316,0.0,4,0.0013086795806884766,1.091093905951024,1.091093905951024,860,-0.9999999131761171,0.0
215,0.9874153137207031,-0.9999999140198125,1.872620994582944e-10,-0.9999999137419593,-0.9999999142475215,0.0,396.40930529999855,0.1,0.001552581787109375,0.028554201126098633,0.04728154,0.0006111699,-0.9999999137992635,0.0,-0.01999984175523316,0.0,4,0.0012481212615966797,1.091093905951024,1.091093905951024,864,-0.9999999131790765,0.0
216,1.0571765899658203,-0.9999999138167012,3.9197044411308657e-10,-0.9999999133010118,-0.9999999144024114,0.0,150.0324762836509,0.1,0.001407623291015625,0.027558565139770508,0.050620213,0.0014671297,-0.9999999138010073,0.0,-0.01999984175523316,0.0,4,0.0011909008026123047,1.091093905951024,1.091093905951024,868,-0.999999913157445,0.0
217,1.0228359699249268,-0.9999999139727764,5.149063868720753e-10,-0.999999913203214,-0.9999999146182574,0.0,135.77585296745312,0.1,0.0014462471008300781,0.0275723934173584,0.04969842,0.0013200161,-0.9999999138181842,0.0,-0.01999984175523316,0.0,4,0.0011875629425048828,1.091093905951024,1.091093905951024,872,-0.9999999131480095,0.0
218,1.0290234088897705,-0.9999999136829097,3.3909018672108333e-10,-0.999999913389856,-0.9999999142531868,0.0,152.02791553438112,0.1,0.001399993896484375,0.02725958824157715,0.047616318,0.0002665194,-0.9999999138046568,0.0,-0.01999984175523316,0.0,4,0.0012009143829345703,1.091093905951024,1.091093905951024,876,-0.9999999131364684,0.0
219,1.0454988479614258,-0.9999999135808204,4.188255809979369e-10,-0.9999999129609607,-0.9999999140086842,0.0,151.20541853149177,0.1,0.0015482902526855469,0.028409957885742188,0.04902441,0.0008055625,-0.9999999137822732,0.0,-0.01999984175523316,0.0,4,0.0012252330780029297,1.091093905951024,1.091093905951024,880,-0.9999999131238221,0.0
220,1.1924002170562744,-0.9999999135133752,3.351058760801815e-10,-0.9999999132379611,-0.9999999140649296,0.0,203.48999176603866,0.1,0.0013833045959472656,0.027610301971435547,0.047813576,0.00035618257,-0.9999999137553833,0.0,-0.01999984175523316,0.0,4,0.0012745857238769531,1.091093905951024,1.091093905951024,884,-0.9999999131097609,0.0
221,0.9468629360198975,-0.9999999135524131,1.6763290456553707e-10,-0.9999999132694228,-0.999999913701505,0.0,380.5384455829663,0.1,0.0015964508056640625,0.028165817260742188,0.047544785,0.000585533,-0.9999999137350863,0.0,-0.01999984175523316,0.0,4,0.001241922378540039,1.091093905951024,1.091093905951024,888,-0.9999999131073204,0.0
222,0.9699246883392334,-0.9999999138719904,2.1960651190918785e-10,-0.9999999135848598,-0.9999999141126841,0.0,334.0836070775585,0.1,0.0014655590057373047,0.02801203727722168,0.047340292,0.00025907968,-0.9999999137487768,0.0,-0.01999984175523316,0.0,4,0.001310110092163086,1.091093905951024,1.091093905951024,892,-0.9999999131046775,0.0
223,0.9521708488464355,-0.9999999139970563,3.293082407953372e-10,-0.9999999135527238,-0.9999999144584839,0.0,172.88568239677448,0.1,0.001600503921508789,0.02741098403930664,0.04887721,0.00055926165,-0.9999999137736048,0.0,-0.01999984175523316,0.0,4,0.0011720657348632812,1.091093905951024,1.091093905951024,896,-0.9999999131171537,0.0
224,0.9934375286102295,-0.9999999137338585,4.59222088184566e-10,-0.9999999131746122,-0.9999999144529141,0.0,149.80925224840112,0.1,0.001501321792602539,0.027187585830688477,0.04788857,0.001032962,-0.9999999137696302,0.0,-0.01999984175523316,0.0,4,0.0011851787567138672,1.091093905951024,1.091093905951024,900,-0.999999913119234,0.0
225,0.9759273529052734,-0.9999999137529318,5.133112662580428e-10,-0.9999999132154289,-0.9999999144896883,0.0,96.72050222521267,0.1,0.0014319419860839844,0.027307510375976562,0.0263707,0.00040328116,-0.9999999137679603,0.0,-0.01999984175523316,0.0,4,0.0010921955108642578,1.091093905951024,1.091093905951024,904,-0.9999999131160813,0.0
226,0.9898848533630371,-0.9999999134788685,2.407490310450535e-10,-0.9999999132416217,-0.9999999138595068,0.0,254.33564388336504,0.1,0.0014448165893554688,0.027595996856689453,0.04863726,0.00046336296,-0.9999999137390511,0.0,-0.01999984175523316,0.0,4,0.0010938644409179688,1.091093905951024,1.091093905951024,908,-0.9999999131115304,0.0
227,0.9830179214477539,-0.9999999134677908,5.141489328691607e-11,-0.9999999134079318,-0.9999999135369069,0.0,1255.252303821491,0.1,0.0014278888702392578,0.024405956268310547,0.051032152,5.64254e-05,-0.999999913711925,0.0,-0.01999984175523316,0.0,4,0.001094818115234375,1.091093905951024,1.091093905951024,912,-0.9999999131116888,0.0
228,0.9352462291717529,-0.9999999134470083,3.61032935597287e-10,-0.9999999129565202,-0.99999991390219,0.0,177.731676973747,0.1,0.001575469970703125,0.029659748077392578,0.04558859,0.0005067525,-0.9999999136854333,0.0,-0.01999984175523316,0.0,4,0.0013203620910644531,1.091093905951024,1.091093905951024,916,-0.9999999130862453,0.0
229,0.9432549476623535,-0.9999999134150035,2.93551514659203e-10,-0.9999999132361859,-0.9999999139232871,0.0,215.2051564283293,0.1,0.0015492439270019531,0.02783513069152832,0.051659964,0.0002867112,-0.9999999136583904,0.0,-0.01999984175523316,0.0,4,0.0012688636779785156,1.091093905951024,1.091093905951024,920,-0.9999999130735513,0.0
230,0.9791295528411865,-0.9999999135801577,2.407364410619232e-10,-0.9999999132018704,-0.9999999138659685,0.0,290.36247553976614,0.1,0.0015697479248046875,0.02798914909362793,0.04908165,0.0005088689,-0.9999999136505671,0.0,-0.01999984175523316,0.0,4,0.0011382102966308594,1.091093905951024,1.091093905951024,924,-0.9999999130628013,0.0
231,1.120877981185913,-0.9999999134735817,3.0002849003344177e-10,-0.9999999132031823,-0.9999999139734623,0.0,258.4686285396605,0.1,0.0014336109161376953,0.0274050235748291,0.046165656,0.0003879352,-0.9999999136328686,0.0,-0.01999984175523316,0.0,4,0.0011470317840576172,1.091093905951024,1.091093905951024,928,-0.9999999130700558,0.0
232,1.1351795196533203,-0.9999999135797927,3.4091670898677657e-10,-0.9999999131093265,-0.9999999140717528,0.0,164.34569162545918,0.1,0.0015902519226074219,0.027350902557373047,0.039485678,0.0012580046,-0.999999913627561,0.0,-0.01999984175523316,0.0,4,0.0012583732604980469,1.091093905951024,1.091093905951024,932,-0.9999999130565467,0.0
233,1.0657072067260742,-0.9999999134508595,2.0388868524250215e-10,-0.9999999132032287,-0.9999999136819953,0.0,272.4695108586836,0.1,0.0015676021575927734,0.028088092803955078,0.04897344,0.0008573336,-0.9999999136098909,0.0,-0.01999984175523316,0.0,4,0.0013880729675292969,1.091093905951024,1.091093905951024,936,-0.9999999130517377,0.0
234,0.9601759910583496,-0.9999999133946309,2.387450210041928e-10,-0.9999999131268715,-0.9999999137770896,0.0,340.5441970070649,0.1,0.0014293193817138672,0.02723240852355957,0.050601788,0.0002235093,-0.999999913588365,0.0,-0.01999984175523316,0.0,4,0.0011086463928222656,1.091093905951024,1.091093905951024,940,-0.9999999130382357,0.0
235,0.9695966243743896,-0.9999999134742192,1.6101652186221771e-10,-0.9999999132485946,-0.9999999136657294,0.0,514.1039586228732,0.1,0.00139617919921875,0.02686762809753418,0.049815953,0.00023985015,-0.9999999135769504,0.0,-0.01999984175523316,0.0,4,0.0012786388397216797,1.091093905951024,1.091093905951024,944,-0.999999913032415,0.0
236,0.967576265335083,-0.9999999135128541,2.0158664406148172e-10,-0.9999999132827948,-0.99999991381936,0.0,271.94013477722285,0.1,0.0014834403991699219,0.027630090713500977,0.041196357,0.00021525085,-0.9999999135705409,0.0,-0.01999984175523316,0.0,4,0.0012531280517578125,1.091093905951024,1.091093905951024,948,-0.9999999130195203,0.0
237,1.0598878860473633,-0.999999913388075,4.930749773448627e-11,-0.9999999133046922,-0.9999999134332387,0.0,1291.133160322254,0.1,0.0014119148254394531,0.024494647979736328,0.048208565,0.00021638614,-0.9999999135522943,0.0,-0.01999984175523316,0.0,4,0.0011906623840332031,1.091093905951024,1.091093905951024,952,-0.9999999130106438,0.0
238,1.002802848815918,-0.9999999134445126,1.4019523125428459e-10,-0.9999999132562725,-0.9999999136020568,0.0,400.7646213078737,0.1,0.0015304088592529297,0.02825450897216797,0.048540127,0.00051359297,-0.9999999135415162,0.0,-0.01999984175523316,0.0,4,0.0013382434844970703,1.091093905951024,1.091093905951024,956,-0.9999999130014241,0.0
239,0.9883010387420654,-0.9999999134636494,3.605916712987799e-10,-0.9999999131422206,-0.9999999140734874,0.0,176.158459817869,0.1,0.0015492439270019531,0.02756047248840332,0.046059996,0.0003375395,-0.9999999135337295,0.0,-0.01999984175523316,0.0,4,0.0011990070343017578,1.091093905951024,1.091093905951024,960,-0.999999912994491,0.0
240,0.972785234451294,-0.9999999132836881,2.564986468545788e-10,-0.9999999129796664,-0.999999913683774,0.0,269.48933536532013,0.1,0.001528024673461914,0.02759099006652832,0.050501086,0.0003916601,-0.9999999135087254,0.0,-0.01999984175523316,0.0,4,0.0011949539184570312,1.091093905951024,1.091093905951024,964,-0.9999999129828923,0.0
241,1.0282182693481445,-0.9999999142458245,1.5236650825800725e-09,-0.9999999130911481,-0.9999999168653411,0.0,44.633377723570504,0.1,0.001500844955444336,0.02731919288635254,0.052243903,0.0014119468,-0.9999999135824353,0.0,-0.01999984175523316,0.0,4,0.001171112060546875,1.091093905951024,1.091093905951024,968,-0.9999999129884111,0.0
242,1.03507399559021,-0.9999999134494817,3.2933648140791885e-10,-0.9999999130844714,-0.9999999139399285,0.0,207.12021898893695,0.1,0.001478433609008789,0.02770709991455078,0.049550083,0.00042272994,-0.99999991356914,0.0,-0.01999984175523316,0.0,4,0.0011692047119140625,1.091093905951024,1.091093905951024,972,-0.9999999129727476,0.0
243,0.997225284576416,-0.9999999133487523,2.9419287339913713e-10,-0.9999999129558534,-0.9999999137617113,0.0,173.03311478819364,0.1,0.0014047622680664062,0.027558565139770508,0.0503978,0.00068419846,-0.9999999135471013,0.0,-0.01999984175523316,0.0,4,0.0011706352233886719,1.091093905951024,1.091093905951024,976,-0.9999999129617393,0.0
244,1.0877995491027832,-0.9999999134334896,2.67438620245416e-10,-0.9999999130217445,-0.9999999137674733,0.0,291.28898008042296,0.1,0.0014011859893798828,0.028507232666015625,0.0450559,0.00032486662,-0.99999991353574,0.0,-0.01999984175523316,0.0,4,0.0012543201446533203,1.091093905951024,1.091093905951024,980,-0.999999912953799,0.0
245,1.005600929260254,-0.9999999134113411,3.5025886595806705e-10,-0.9999999129932418,-0.9999999139624598,0.0,148.7276312793722,0.1,0.0014910697937011719,0.027277469635009766,0.028171197,0.00053642783,-0.9999999135233002,0.0,-0.01999984175523316,0.0,4,0.0011749267578125,1.091093905951024,1.091093905951024,984,-0.9999999129461622,0.0
246,1.0377209186553955,-0.9999999132297261,1.2491007862220041e-10,-0.9999999131215622,-0.9999999134310162,0.0,669.7553216141666,0.1,0.001506805419921875,0.027615785598754883,0.048829783,0.0001527895,-0.9999999134939429,0.0,-0.01999984175523316,0.0,4,0.0011663436889648438,1.091093905951024,1.091093905951024,988,-0.9999999129374614,0.0
247,0.959054708480835,-0.9999999132648932,2.294886974485953e-10,-0.9999999130269581,-0.9999999135737043,0.0,295.09239235924866,0.1,0.0015385150909423828,0.027391672134399414,0.050003406,0.0003882097,-0.9999999134710379,0.0,-0.01999984175523316,0.0,4,0.0011796951293945312,1.091093905951024,1.091093905951024,992,-0.9999999129362087,0.0
248,0.9707190990447998,-0.9999999137512882,6.098674768979198e-10,-0.9999999131350472,-0.9999999146941172,0.0,90.25289289055024,0.1,0.00153350830078125,0.027878999710083008,0.05174908,0.0008293084,-0.9999999134990629,0.0,-0.01999984175523316,0.0,4,0.0011603832244873047,1.091093905951024,1.091093905951024,996,-0.9999999129295829,0.0
249,0.9399218559265137,-0.9999999132116388,1.7881545276678606e-10,-0.9999999130233896,-0.9999999134737461,0.0,379.1246347597743,0.1,0.0014081001281738281,0.027215003967285156,0.05049166,0.00017839219,-0.9999999134703206,0.0,-0.01999984175523316,0.0,4,0.001088857650756836,1.091093905951024,1.091093905951024,1000,-0.9999999129209023,0.0
250,0.9722235202789307,-0.9999999134816772,2.3271263872592164e-10,-0.9999999132365442,-0.9999999137710622,0.0,278.4056279090719,0.1,0.0016193389892578125,0.028030872344970703,0.049972877,0.00042573063,-0.9999999134714562,0.0,-0.01999984175523316,0.0,4,0.0012345314025878906,1.091093905951024,1.091093905951024,1004,-0.999999912910258,0.0
251,1.0519435405731201,-0.9999999132703439,1.891182791191664e-10,-0.9999999130386643,-0.999999913564608,0.0,348.9853931885797,0.1,0.0014979839324951172,0.02788066864013672,0.043860458,0.00045204122,-0.999999913451345,0.0,-0.01999984175523316,0.0,4,0.0013451576232910156,1.091093905951024,1.091093905951024,1008,-0.9999999129120795,0.0
252,0.960031270980835,-0.9999999133807381,2.322917365530951e-10,-0.999999913084888,-0.9999999137341669,0.0,312.48134046583726,0.1,0.0014791488647460938,0.028335094451904297,0.047486924,0.0003078051,-0.9999999134442843,0.0,-0.01999984175523316,0.0,4,0.001325368881225586,1.091093905951024,1.091093905951024,1012,-0.9999999129073399,0.0
253,0.9396028518676758,-0.9999999132879593,1.0702553411216074e-10,-0.9999999131455708,-0.9999999134019222,0.0,584.0307840063164,0.1,0.0015659332275390625,0.02805471420288086,0.048288412,0.0005434246,-0.9999999134286519,0.0,-0.01999984175523316,0.0,4,0.0011985301971435547,1.091093905951024,1.091093905951024,1016,-0.9999999129043874,0.0
254,0.9696991443634033,-0.999999913488926,6.468230989662963e-10,-0.999999913034261,-0.9999999145952079,0.0,101.12284679434015,0.1,0.0015325546264648438,0.02711033821105957,0.047166456,0.0007864406,-0.9999999134346793,0.0,-0.01999984175523316,0.0,4,0.0011675357818603516,1.091093905951024,1.091093905951024,1020,-0.9999999128972541,0.0
255,1.0137650966644287,-0.9999999132544484,3.033809776011142e-10,-0.9999999128042334,-0.9999999135707467,0.0,259.80443045011657,0.1,0.0014522075653076172,0.027405500411987305,0.047645375,0.00052357273,-0.9999999134166562,0.0,-0.01999984175523316,0.0,4,0.0011396408081054688,1.091093905951024,1.091093905951024,1024,-0.9999999128817038,0.0
256,1.2059168815612793,-0.9999999132648139,7.005993261267804e-11,-0.9999999131838506,-0.9999999133764814,0.0,791.2047656847661,0.1,0.0015456676483154297,0.026892423629760742,0.048593476,6.169622e-05,-0.999999913401472,0.0,-0.01999984175523316,0.0,4,0.0011985301971435547,1.091093905951024,1.091093905951024,1028,-0.9999999128880311,0.0
257,1.081841230392456,-0.9999999133636905,1.6412648305965453e-10,-0.9999999131058908,-0.999999913561799,0.0,462.34669497249905,0.1,0.0015687942504882812,0.027289867401123047,0.048264463,0.0003779876,-0.9999999133976939,0.0,-0.01999984175523316,0.0,4,0.0011510848999023438,1.091093905951024,1.091093905951024,1032,-0.9999999128803035,0.0
258,0.9718155860900879,-0.9999999134590831,6.633080873244163e-10,-0.9999999128970354,-0.9999999145730174,0.0,85.8058619057531,0.1,0.001617431640625,0.028990745544433594,0.05029594,0.00083152065,-0.9999999134038329,0.0,-0.01999984175523316,0.0,4,0.001291513442993164,1.091093905951024,1.091093905951024,1036,-0.999999912877382,0.0
259,0.959169864654541,-0.9999999132826936,5.231581292553517e-10,-0.9999999128766686,-0.9999999141777622,0.0,113.18294486948773,0.1,0.0014772415161132812,0.028090238571166992,0.05123674,0.00079642335,-0.999999913391719,0.0,-0.01999984175523316,0.0,4,0.0011889934539794922,1.091093905951024,1.091093905951024,1040,-0.9999999128823654,0.0
260,0.9871251583099365,-0.9999999133263389,1.1125384217942185e-10,-0.99999991317568,-0.9999999134745825,0.0,696.7127634478023,0.1,0.0015861988067626953,0.029174089431762695,0.049046457,0.00029415832,-0.999999913385181,0.0,-0.01999984175523316,0.0,4,0.0013048648834228516,1.091093905951024,1.091093905951024,1044,-0.9999999128739675,0.0
261,0.9798064231872559,-0.9999999132123234,1.2017445331831713e-10,-0.999999913047174,-0.9999999133828352,0.0,530.0358295596418,0.1,0.001375436782836914,0.026676416397094727,0.051300302,0.0001309848,-0.9999999133678953,0.0,-0.01999984175523316,0.0,4,0.0011322498321533203,1.091093905951024,1.091093905951024,1048,-0.9999999128744989,0.0
262,0.9828267097473145,-0.9999999131943631,2.632260745343925e-10,-0.9999999129755512,-0.9999999136203415,0.0,227.52907108957297,0.1,0.0015168190002441406,0.027171850204467773,0.04332258,0.00024522183,-0.9999999133505422,0.0,-0.01999984175523316,0.0,4,0.0011298656463623047,1.091093905951024,1.091093905951024,1052,-0.999999912870582,0.0
263,0.9447841644287109,-0.9999999132357487,9.383836582172174e-11,-0.9999999131013884,-0.9999999133659774,0.0,821.5141045801101,0.1,0.0014681816101074219,0.027787208557128906,0.049510483,0.00012687275,-0.9999999133390628,0.0,-0.01999984175523316,0.0,4,0.0012900829315185547,1.091093905951024,1.091093905951024,1056,-0.9999999128736543,0.0
264,0.9533982276916504,-0.9999999132456423,3.448773460449652e-10,-0.999999912844816,-0.999999913617055,0.0,194.04273566290408,0.1,0.001550436019897461,0.027593612670898438,0.049505174,0.00077749306,-0.9999999133297208,0.0,-0.01999984175523316,0.0,4,0.0011444091796875,1.091093905951024,1.091093905951024,1060,-0.9999999128526366,0.0
265,0.9684500694274902,-0.9999999130265047,7.776879061638526e-11,-0.9999999129258923,-0.9999999131426616,0.0,1010.6811642686108,0.1,0.0015904903411865234,0.02874755859375,0.048777312,9.692946e-05,-0.9999999132993992,0.0,-0.01999984175523316,0.0,4,0.001277923583984375,1.091093905951024,1.091093905951024,1064,-0.9999999128442026,0.0
266,0.9655203819274902,-0.999999913297935,1.3612391920482567e-10,-0.9999999130835358,-0.9999999134618809,0.0,691.826818081614,0.1,0.0014407634735107422,0.02782130241394043,0.04969217,0.00023396185,-0.9999999132992529,0.0,-0.01999984175523316,0.0,4,0.00115966796875,1.091093905951024,1.091093905951024,1068,-0.9999999128398253,0.0
267,1.0690717697143555,-0.9999999132475901,1.2379421097811634e-10,-0.9999999131146857,-0.9999999134184805,0.0,611.2819036479409,0.1,0.0015130043029785156,0.027502059936523438,0.048199303,0.00017062009,-0.9999999132940866,0.0,-0.01999984175523316,0.0,4,0.001277923583984375,1.091093905951024,1.091093905951024,1072,-0.9999999128427014,0.0
268,0.945465087890625,-0.999999913454686,2.892746968763383e-10,-0.999999913179185,-0.9999999139402107,0.0,151.61591702197686,0.1,0.0014886856079101562,0.02686929702758789,0.026071236,0.00023531342,-0.9999999133101465,0.0,-0.01999984175523316,0.0,4,0.0013813972473144531,1.091093905951024,1.091093905951024,1076,-0.9999999128428675,0.0
269,0.9551041126251221,-0.99999991319143,4.823403955959832e-11,-0.9999999131296089,-0.9999999132649031,0.0,1404.266381975998,0.1,0.0014827251434326172,0.027320146560668945,0.048551105,9.372326e-05,-0.9999999132982749,0.0,-0.01999984175523316,0.0,4,0.0010957717895507812,1.091093905951024,1.091093905951024,1080,-0.9999999128455613,0.0
270,0.9715051651000977,-0.9999999132636739,1.9586271152447418e-10,-0.9999999130301296,-0.9999999135621851,0.0,341.6616261767441,0.1,0.001458883285522461,0.028124332427978516,0.04366891,0.00029942935,-0.9999999132948147,0.0,-0.01999984175523316,0.0,4,0.0012743473052978516,1.091093905951024,1.091093905951024,1084,-0.999999912844801,0.0
271,0.948331356048584,-0.9999999131033364,2.132185092316649e-10,-0.999999912778778,-0.9999999133314539,0.0,323.74007524336963,0.1,0.0015282630920410156,0.028485536575317383,0.049174488,0.00027940545,-0.999999913275667,0.0,-0.01999984175523316,0.0,4,0.0012524127960205078,1.091093905951024,1.091093905951024,1088,-0.9999999128417625,0.0
272,0.9393889904022217,-0.9999999132428534,2.6523405414975107e-10,-0.9999999129327013,-0.9999999136503528,0.0,239.12387113469805,0.1,0.0014271736145019531,0.02722787857055664,0.04520165,0.00046729273,-0.9999999132723857,0.0,-0.01999984175523316,0.0,4,0.0011343955993652344,1.091093905951024,1.091093905951024,1092,-0.999999912832847,0.0
273,0.9910542964935303,-0.9999999134492836,3.2044746999943257e-10,-0.9999999130353316,-0.9999999138413485,0.0,168.93664655185748,0.1,0.0016651153564453125,0.028980731964111328,0.047775067,0.0005023797,-0.9999999132900754,0.0,-0.01999984175523316,0.0,4,0.0012183189392089844,1.091093905951024,1.091093905951024,1096,-0.9999999128302853,0.0
274,0.9442968368530273,-0.9999999131253323,2.6231727269287167e-10,-0.999999912795871,-0.9999999135023763,0.0,263.94790725935445,0.1,0.0015628337860107422,0.029676437377929688,0.04806877,0.00042484928,-0.9999999132736012,0.0,-0.01999984175523316,0.0,4,0.0012509822845458984,1.091093905951024,1.091093905951024,1100,-0.9999999128179655,0.0
275,1.079850435256958,-0.999999913127005,1.0908429863022658e-10,-0.9999999129866708,-0.9999999132697674,0.0,713.6250519607421,0.1,0.0014438629150390625,0.026971101760864258,0.045824423,0.00016897029,-0.9999999132589416,0.0,-0.01999984175523316,0.0,4,0.001163482666015625,1.091093905951024,1.091093905951024,1104,-0.9999999128132085,0.0
276,0.992638111114502,-0.9999999131715918,3.619524191635328e-10,-0.9999999129276569,-0.9999999137972004,0.0,178.1499972429749,0.1,0.001444101333618164,0.02743697166442871,0.045445956,0.000190402,-0.9999999132502067,0.0,-0.01999984175523316,0.0,4,0.0012826919555664062,1.091093905951024,1.091093905951024,1108,-0.9999999128095703,0.0
277,0.9632782936096191,-0.9999999130764621,2.1312376013979144e-10,-0.9999999128986357,-0.9999999134302693,0.0,281.56555914534744,0.1,0.0015804767608642578,0.02733302116394043,0.048841186,0.0002501303,-0.9999999132328322,0.0,-0.01999984175523316,0.0,4,0.0012478828430175781,1.091093905951024,1.091093905951024,1112,-0.9999999128077768,0.0
278,0.9693851470947266,-0.9999999132059287,1.8414411754089533e-10,-0.9999999129754273,-0.9999999134375184,0.0,316.13674201443905,0.1,0.0014684200286865234,0.02715897560119629,0.045431897,0.0002188858,-0.9999999132301419,0.0,-0.01999984175523316,0.0,4,0.0011141300201416016,1.091093905951024,1.091093905951024,1116,-0.9999999128026932,0.0
279,0.9438374042510986,-0.9999999130969656,1.9761106140777803e-10,-0.9999999128884793,-0.9999999134039803,0.0,307.3410718461284,0.1,0.001504659652709961,0.02749776840209961,0.05105149,0.0002211574,-0.9999999132168242,0.0,-0.01999984175523316,0.0,4,0.0011606216430664062,1.091093905951024,1.091093905951024,1120,-0.9999999127970046,0.0
280,1.0344984531402588,-0.9999999132054529,2.454772090210681e-10,-0.999999912807328,-0.9999999134755406,0.0,296.2508346414136,0.1,0.0015246868133544922,0.02788543701171875,0.047290288,0.0007122116,-0.9999999132156872,0.0,-0.01999984175523316,0.0,4,0.0013377666473388672,1.091093905951024,1.091093905951024,1124,-0.9999999127882583,0.0
281,1.0382883548736572,-0.9999999132435209,1.2575636679892203e-10,-0.9999999130986363,-0.9999999134371904,0.0,553.1632336945252,0.1,0.001581430435180664,0.027978181838989258,0.04798492,0.0001780467,-0.9999999132184706,0.0,-0.01999984175523316,0.0,4,0.0012907981872558594,1.091093905951024,1.091093905951024,1128,-0.9999999127811193,0.0
282,1.0037381649017334,-0.9999999132015036,1.6502640460992844e-10,-0.9999999129645554,-0.9999999134311501,0.0,409.5538164059233,0.1,0.0015559196472167969,0.027833938598632812,0.0467946,0.00029977015,-0.999999913216774,0.0,-0.01999984175523316,0.0,4,0.001234292984008789,1.091093905951024,1.091093905951024,1132,-0.9999999127804994,0.0
283,1.0009377002716064,-0.9999999130515085,2.765359040734242e-10,-0.9999999127129291,-0.9999999133830113,0.0,280.29826233339344,0.1,0.0014297962188720703,0.027915477752685547,0.05011601,0.00035189025,-0.9999999132002475,0.0,-0.01999984175523316,0.0,4,0.0011987686157226562,1.091093905951024,1.091093905951024,1136,-0.999999912774451,0.0
284,0.9351811408996582,-0.9999999131674149,2.7614309392290375e-10,-0.999999912881772,-0.9999999135995965,0.0,235.35276353449572,0.1,0.0015523433685302734,0.028337955474853516,0.0461972,0.00032125995,-0.9999999131969644,0.0,-0.01999984175523316,0.0,4,0.0012006759643554688,1.091093905951024,1.091093905951024,1140,-0.999999912768819,0.0
285,0.9471831321716309,-0.9999999129639021,7.49605606596573e-11,-0.9999999128773303,-0.9999999130616497,0.0,1041.661403379876,0.1,0.0015251636505126953,0.024708271026611328,0.04953204,8.13535e-05,-0.9999999131736582,0.0,-0.01999984175523316,0.0,4,0.0012388229370117188,1.091093905951024,1.091093905951024,1144,-0.9999999127581368,0.0
286,0.9833269119262695,-0.9999999130568897,2.1601943667347195e-10,-0.9999999128430728,-0.999999913405198,0.0,381.5767442132026,0.1,0.0016467571258544922,0.030648231506347656,0.05008848,0.00021105554,-0.9999999131619814,0.0,-0.01999984175523316,0.0,4,0.0013892650604248047,1.091093905951024,1.091093905951024,1148,-0.9999999127512837,0.0
287,1.0441539287567139,-0.9999999130993014,9.395746621502445e-11,-0.9999999129592014,-0.999999913224066,0.0,673.2745893371251,0.1,0.0016591548919677734,0.029616594314575195,0.04863078,0.0005148221,-0.9999999131557136,0.0,-0.01999984175523316,0.0,4,0.0013072490692138672,1.091093905951024,1.091093905951024,1152,-0.9999999127448143,0.0
288,1.00014328956604,-0.9999999128939343,1.603689464848507e-10,-0.9999999126751828,-0.9999999130949606,0.0,417.77498771008874,0.1,0.0015799999237060547,0.02818012237548828,0.049476802,0.0003127937,-0.9999999131295356,0.0,-0.01999984175523316,0.0,4,0.0012614727020263672,1.091093905951024,1.091093905951024,1156,-0.9999999127396726,0.0
289,0.9920439720153809,-0.9999999131074833,2.2699634327805897e-10,-0.999999912903043,-0.9999999134828277,0.0,288.5896204475352,0.1,0.001522064208984375,0.028731584548950195,0.046703026,0.00063319964,-0.9999999131273304,0.0,-0.01999984175523316,0.0,4,0.0012786388397216797,1.091093905951024,1.091093905951024,1160,-0.9999999127370426,0.0
290,0.974017858505249,-0.9999999130058252,3.2251598897222535e-11,-0.9999999129700552,-0.9999999130521473,0.0,1783.1652367348706,0.1,0.0015802383422851562,0.027610301971435547,0.049041405,3.4886518e-05,-0.9999999131151799,0.0,-0.01999984175523316,0.0,4,0.001176595687866211,1.091093905951024,1.091093905951024,1164,-0.9999999127388185,0.0
291,0.9587693214416504,-0.9999999130068173,6.730238422905727e-11,-0.9999999129059214,-0.9999999130882262,0.0,1022.7729913951019,0.1,0.0014684200286865234,0.026800155639648438,0.048588157,0.00021357054,-0.9999999131043437,0.0,-0.01999984175523316,0.0,4,0.0011141300201416016,1.091093905951024,1.091093905951024,1168,-0.9999999127390935,0.0
292,0.9359493255615234,-0.9999999129599502,1.624705814395274e-10,-0.9999999127601167,-0.9999999131515862,0.0,428.3833740654333,0.1,0.0013921260833740234,0.02729344367980957,0.050822385,0.00018674634,-0.9999999130899043,0.0,-0.01999984175523316,0.0,4,0.0010814666748046875,1.091093905951024,1.091093905951024,1172,-0.9999999127349741,0.0
293,0.9288845062255859,-0.9999999130376575,2.412976342300909e-10,-0.9999999127842769,-0.9999999133858313,0.0,244.01773477769692,0.1,0.001506805419921875,0.0277252197265625,0.050505333,0.00052845187,-0.9999999130846797,0.0,-0.01999984175523316,0.0,4,0.0011203289031982422,1.091093905951024,1.091093905951024,1176,-0.999999912728495,0.0
294,0.9565074443817139,-0.9999999130828989,1.6615201697436904e-10,-0.9999999128571782,-0.9999999133263706,0.0,346.89376712118667,0.1,0.0016551017761230469,0.03043341636657715,0.05173338,0.00021215537,-0.9999999130845016,0.0,-0.01999984175523316,0.0,4,0.0013737678527832031,1.091093905951024,1.091093905951024,1180,-0.9999999127259739,0.0
295,0.9719393253326416,-0.9999999129274275,8.012897928084365e-11,-0.9999999128031216,-0.9999999130126878,0.0,869.0350372096175,0.1,0.0015819072723388672,0.027927637100219727,0.048201397,0.00025857965,-0.9999999130687942,0.0,-0.01999984175523316,0.0,4,0.0012257099151611328,1.091093905951024,1.091093905951024,1184,-0.9999999127278555,0.0
296,1.0007874965667725,-0.9999999131464908,2.9314049998205596e-10,-0.9999999127547388,-0.9999999135420572,0.0,171.44028484354052,0.1,0.0014185905456542969,0.026805400848388672,0.049707055,0.0014473345,-0.9999999130765639,0.0,-0.01999984175523316,0.0,4,0.0010857582092285156,1.091093905951024,1.091093905951024,1188,-0.9999999127174317,0.0
