Iter | Sampling Pol | Evaluation Pol | Best (Sampled) 
   0 -44.95 -33.33 -100000000.00 
   1 -44.47 -33.51 -44.95 
   2 -43.60 -29.93 -44.47 
   3 -41.50 -18.76 -43.60 
   4 -40.43 -7.41 -41.50 
   5 -37.27 -2.91 -40.43 
   6 -36.71  4.86 -37.27 
   7 -37.16  0.30 -36.71 
   8 -35.23 -37.36 -36.71 
   9 -32.26 -17.80 -35.23 
  10 -29.81 -60.86 -32.26 
  11 -25.66 -64.82 -29.81 
  12 -22.94 52.16 -25.66 
  13 -17.42 83.95 -22.94 
  14 -11.76 -18.16 -17.42 
  15 -2.59 -18.72 -11.76 
  16 21.53 -19.24 -2.59 
  17 43.04 -19.13 21.53 
  18 115.46 -19.22 43.04 
  19 163.16 -19.01 115.46 
  20 211.48 -18.25 163.16 
  21 243.59 -17.74 211.48 
  22 300.08 -17.05 243.59 
  23 299.73  3.85 300.08 
  24 328.38 65.61 300.08 
  25 340.41 78.63 328.38 
  26 350.88 102.87 340.41 
  27 355.83 103.04 350.88 
  28 361.45 111.43 355.83 
  29 352.65 87.17 361.45 
  30 376.17 95.22 361.45 
  31 379.66 127.74 376.17 
  32 380.36 63.16 379.66 
  33 378.93 50.19 380.36 
  34 387.54 90.62 380.36 
  35 386.41 82.97 387.54 
  36 392.21 95.56 387.54 
  37 396.15 103.26 392.21 
  38 404.81 123.50 396.15 
  39 407.07 151.89 404.81 
  40 411.17 191.97 407.07 
  41 417.37 99.41 411.17 
  42 427.14 389.55 417.37 
  43 436.62 159.87 427.14 
  44 443.32 151.51 436.62 
  45 455.61 85.95 443.32 
  46 445.96 175.71 455.61 
  47 479.86 200.28 455.61 
  48 494.07 195.75 479.86 
  49 508.25 179.79 494.07 
  50 513.51 176.20 508.25 
  51 538.88 126.91 513.51 
  52 539.75 150.83 538.88 
  53 559.71 105.58 539.75 
  54 561.10 97.41 559.71 
  55 614.12 118.09 561.10 
  56 613.05 138.04 614.12 
  57 634.50 141.79 614.12 
  58 639.44 117.53 634.50 
  59 640.93 92.17 639.44 
  60 649.04 97.43 640.93 
  61 644.01 96.86 649.04 
  62 662.77 25.73 649.04 
  63 674.56 75.96 662.77 
  64 675.92 23.38 674.56 
  65 694.74 11.44 675.92 
  66 700.69 21.40 694.74 
  67 709.13 17.62 700.69 
  68 703.61 19.52 709.13 
  69 715.10 75.71 709.13 
  70 694.47 17.22 715.10 
  71 715.35 10.55 715.10 
  72 717.81 18.11 715.35 
  73 726.94 25.99 717.81 
  74 735.40 30.15 726.94 
  75 741.72 33.87 735.40 
  76 740.25 21.49 741.72 
  77 739.98 43.60 741.72 
  78 736.22 30.75 741.72 
  79 742.37 22.31 741.72 
  80 746.86 26.14 742.37 
  81 749.73 22.73 746.86 
  82 746.55 31.99 749.73 
  83 746.18 39.39 749.73 
  84 747.72 30.18 749.73 
  85 752.93 35.57 749.73 
  86 750.82 34.14 752.93 
  87 751.62 96.16 752.93 
  88 755.23 96.31 752.93 
  89 754.67 92.47 755.23 
  90 755.52 112.87 755.23 
  91 756.00 169.80 755.52 
  92 757.28 166.39 756.00 
  93 757.27 149.87 757.28 
  94 753.35 133.78 757.28 
  95 764.52 129.55 757.28 
  96 763.55 178.46 764.52 
  97 759.97 170.10 764.52 
  98 759.04 182.72 764.52 
  99 758.19 186.76 764.52 
 100 764.34 195.14 764.52 
 101 765.43 199.01 764.52 
 102 761.27 162.18 765.43 
 103 765.60 162.25 765.43 
 104 762.65 158.33 765.60 
 105 766.53 162.23 765.60 
 106 763.32 182.76 766.53 
 107 764.10 186.92 766.53 
 108 767.44 170.60 766.53 
 109 765.62 150.21 767.44 
 110 766.80 150.32 767.44 
 111 763.49 162.73 767.44 
 112 767.91 158.53 767.44 
 113 766.97 175.36 767.91 
 114 765.84 188.09 767.91 
 115 767.34 224.40 767.91 
 116 767.27 196.06 767.91 
 117 768.76 220.25 767.91 
 118 764.94 232.61 768.76 
 119 768.86 212.13 768.76 
 120 765.53 200.06 768.86 
 121 766.52 175.60 768.86 
 122 767.42 196.09 768.86 
 123 767.44 179.53 768.86 
 124 768.40 240.55 768.86 
 125 766.25 232.33 768.86 
 126 769.66 301.23 768.86 
 127 768.48 442.02 769.66 
 128 768.69 285.08 769.66 
 129 769.50 297.12 769.66 
 130 769.22 297.17 769.66 
 131 768.77 269.06 769.66 
 132 769.57 236.60 769.66 
 133 768.89 252.85 769.66 
 134 770.26 264.87 769.66 
 135 769.35 252.89 770.26 
 136 769.47 329.53 770.26 
 137 770.04 349.59 770.26 
 138 769.42 361.85 770.26 
 139 769.22 390.00 770.26 
 140 769.69 361.74 770.26 
 141 769.14 442.89 770.26 
 142 767.04 443.29 770.26 
 143 770.66 438.74 770.26 
 144 770.58 414.28 770.66 
 145 769.42 337.74 770.66 
 146 769.76 406.12 770.66 
 147 770.00 438.39 770.66 
 148 768.46 438.28 770.66 
 149 769.33 438.71 770.66 
 150 769.08 430.13 770.66 
 151 767.01 389.94 770.66 
 152 770.44 442.43 770.66 
 153 770.44 450.91 770.66 
 154 770.50 451.11 770.66 
 155 765.84 446.60 770.66 
 156 768.25 430.31 770.66 
 157 770.38 438.33 770.66 
 158 766.37 438.64 770.66 
 159 765.16 434.43 770.66 
 160 768.74 434.63 770.66 
 161 770.57 410.29 770.66 
 162 770.61 406.13 770.66 
 163 770.41 365.83 770.66 
 164 770.78 305.33 770.66 
 165 765.06 333.56 770.78 
 166 770.17 409.86 770.78 
 167 769.19 438.84 770.78 
 168 770.00 443.36 770.78 
 169 770.28 447.31 770.78 
 170 770.50 442.98 770.78 
 171 770.35 443.16 770.78 
 172 769.56 438.74 770.78 
 173 770.11 438.87 770.78 
 174 769.79 443.60 770.78 
 175 767.37 452.44 770.78 
 176 770.02 456.76 770.78 
 177 770.28 452.73 770.78 
 178 769.99 448.76 770.78 
 179 770.37 448.73 770.78 
 180 769.71 448.99 770.78 
 181 770.95 469.08 770.78 
 182 770.20 489.41 770.95 
 183 770.72 477.17 770.95 
 184 770.79 485.23 770.95 
 185 770.94 449.07 770.95 
 186 769.75 473.19 770.95 
 187 770.57 525.44 770.95 
 188 770.94 493.41 770.95 
 189 771.08 481.38 770.95 
 190 770.75 453.25 771.08 
 191 770.85 452.95 771.08 
 192 770.77 448.50 771.08 
 193 771.14 448.53 771.08 
 194 770.05 448.73 771.14 
 195 771.03 448.84 771.14 
 196 770.81 452.81 771.14 
 197 769.62 473.47 771.14 
 198 770.93 565.69 771.14 
 199 769.80 561.60 771.14 
 200 770.85 589.63 771.14 
 201 771.00 529.41 771.14 
 202 770.27 521.27 771.14 
 203 770.98 509.04 771.14 
 204 771.03 468.48 771.14 
 205 770.71 456.38 771.14 
 206 770.17 460.39 771.14 
 207 770.94 460.05 771.14 
 208 770.47 460.42 771.14 
 209 771.15 468.67 771.14 
 210 771.05 468.33 771.15 
 211 770.71 455.68 771.15 
 212 770.83 459.61 771.15 
 213 770.82 500.66 771.15 
 214 769.99 464.07 771.15 
 215 771.16 460.41 771.15 
 216 771.03 452.11 771.16 
 217 770.73 456.75 771.16 
 218 770.85 492.94 771.16 
 219 771.27 460.87 771.16 
 220 770.99 456.67 771.27 
 221 771.18 468.98 771.27 
 222 771.37 477.14 771.27 
 223 768.06 493.28 771.37 
 224 769.78 485.35 771.37 
 225 771.32 460.86 771.37 
 226 770.93 456.61 771.37 
 227 771.30 452.38 771.37 
 228 771.13 452.40 771.37 
 229 771.16 456.69 771.37 
 230 771.03 456.31 771.37 
 231 771.25 452.14 771.37 
 232 771.10 456.31 771.37 
 233 771.06 461.00 771.37 
 234 771.35 469.13 771.37 
 235 771.08 469.12 771.37 
 236 770.94 505.37 771.37 
 237 771.35 529.37 771.37 
 238 771.30 601.74 771.37 
 239 771.25 525.46 771.37 
 240 771.23 461.16 771.37 
 241 771.27 485.37 771.37 
 242 771.36 557.62 771.37 
 243 771.30 461.25 771.37 
 244 771.37 457.15 771.37 
 245 771.14 461.07 771.37 
 246 771.29 456.91 771.37 
 247 771.38 497.25 771.37 
 248 771.16 500.97 771.38 
 249 771.29 448.40 771.38 
 250 771.45 448.03 771.38 
 251 767.08 448.18 771.45 
 252 770.88 460.51 771.45 
 253 771.33 481.08 771.45 
 254 771.13 477.15 771.45 
 255 771.37 501.33 771.45 
 256 771.39 481.00 771.45 
 257 769.66 464.46 771.45 
 258 771.33 476.56 771.45 
 259 771.02 485.09 771.45 
 260 770.61 533.31 771.45 
 261 771.45 561.56 771.45 
 262 771.39 509.42 771.45 
 263 771.33 456.61 771.45 
 264 771.35 452.04 771.45 
 265 770.84 452.32 771.45 
 266 771.21 448.12 771.45 
 267 771.12 447.99 771.45 
 268 771.19 452.09 771.45 
 269 770.95 472.92 771.45 
 270 771.12 537.38 771.45 
 271 771.22 698.15 771.45 
 272 771.15 694.24 771.45 
 273 770.47 694.24 771.45 
 274 771.24 641.93 771.45 
 275 771.21 505.49 771.45 
 276 771.31 505.63 771.45 
 277 771.39 485.11 771.45 
 278 771.26 455.08 771.45 
 279 770.22 476.64 771.45 
 280 769.08 468.88 771.45 
 281 770.04 468.88 771.45 
 282 768.44 485.08 771.45 
 283 771.05 485.01 771.45 
 284 771.18 521.35 771.45 
 285 768.80 456.53 771.45 
 286 767.74 485.07 771.45 
 287 771.25 517.39 771.45 
 288 771.16 468.95 771.45 
 289 771.25 456.55 771.45 
 290 771.08 452.10 771.45 
 291 771.21 460.68 771.45 
 292 771.23 476.85 771.45 
 293 771.13 460.40 771.45 
 294 771.20 468.66 771.45 
 295 770.62 468.71 771.45 
 296 770.75 456.45 771.45 
 297 771.11 477.02 771.45 
 298 770.90 473.03 771.45 
 299 770.94 473.15 771.45 
 300 770.81 460.82 771.45 
 301 771.01 468.85 771.45 
 302 771.06 469.00 771.45 
 303 771.06 473.30 771.45 
 304 770.98 465.02 771.45 
 305 770.17 460.59 771.45 
 306 770.99 464.82 771.45 
 307 771.05 460.79 771.45 
 308 771.01 460.87 771.45 
 309 770.81 456.39 771.45 
 310 770.90 460.39 771.45 
 311 771.20 456.49 771.45 
 312 771.14 456.03 771.45 
 313 770.97 456.01 771.45 
 314 771.18 459.95 771.45 
 315 771.21 455.95 771.45 
 316 771.23 455.95 771.45 
 317 770.99 456.26 771.45 
 318 771.29 456.88 771.45 
 319 771.31 452.77 771.45 
 320 770.98 452.77 771.45 
 321 771.23 452.88 771.45 
 322 771.19 448.40 771.45 
 323 771.17 456.91 771.45 
 324 771.36 452.60 771.45 
 325 771.35 456.49 771.45 
 326 771.25 452.56 771.45 
 327 771.37 452.67 771.45 
 328 771.36 472.80 771.45 
 329 771.36 464.84 771.45 
 330 771.39 448.91 771.45 
 331 771.41 449.02 771.45 
 332 771.42 452.65 771.45 
 333 771.40 452.79 771.45 
 334 771.38 452.91 771.45 
 335 771.36 456.52 771.45 
 336 771.42 448.19 771.45 
 337 771.45 452.67 771.45 
 338 770.81 456.88 771.45 
 339 771.41 452.92 771.45 
 340 771.51 452.79 771.45 
 341 771.47 461.11 771.51 
 342 771.18 501.33 771.51 
 343 770.49 565.71 771.51 
 344 771.41 617.84 771.51 
 345 771.40 545.66 771.51 
 346 771.34 525.53 771.51 
 347 771.40 493.36 771.51 
 348 771.42 541.74 771.51 
 349 771.39 497.35 771.51 
 350 771.45 493.31 771.51 
 351 771.46 493.10 771.51 
 352 771.49 460.51 771.51 
 353 769.17 468.58 771.51 
 354 770.04 480.73 771.51 
 355 771.47 472.80 771.51 
 356 770.90 489.28 771.51 
 357 771.41 501.44 771.51 
 358 771.40 489.54 771.51 
 359 771.42 465.24 771.51 
 360 771.38 513.61 771.51 
 361 771.23 477.47 771.51 
 362 771.30 461.27 771.51 
 363 771.35 461.36 771.51 
 364 771.39 461.06 771.51 
 365 771.38 461.18 771.51 
 366 771.43 461.13 771.51 
 367 771.46 456.92 771.51 
 368 771.51 456.73 771.51 
 369 771.52 456.64 771.51 
 370 771.51 461.06 771.52 
 371 771.47 456.63 771.52 
 372 771.32 465.22 771.52 
 373 771.45 460.98 771.52 
 374 771.28 465.00 771.52 
 375 771.36 460.63 771.52 
 376 771.42 460.54 771.52 
 377 771.46 464.79 771.52 
 378 771.37 476.77 771.52 
 379 771.42 460.95 771.52 
 380 771.23 497.30 771.52 
 381 771.48 461.01 771.52 
 382 771.45 465.33 771.52 
 383 771.34 465.24 771.52 
 384 771.52 493.32 771.52 
 385 771.53 461.11 771.52 
 386 771.17 505.52 771.53 
 387 771.54 533.67 771.53 
 388 771.56 505.57 771.54 
 389 771.52 529.61 771.56 
 390 771.52 521.41 771.56 
 391 771.51 513.42 771.56 
 392 771.54 513.28 771.56 
 393 771.39 465.16 771.56 
 394 771.56 481.18 771.56 
 395 771.57 480.85 771.56 
 396 771.60 484.91 771.57 
 397 771.59 489.08 771.60 
 398 771.60 488.80 771.60 
 399 771.56 464.51 771.60 
 400 771.54 464.94 771.60 
 401 771.63 468.81 771.60 
 402 771.62 468.77 771.63 
 403 771.48 468.51 771.63 
 404 771.61 468.65 771.63 
 405 768.01 464.30 771.63 
 406 771.63 508.67 771.63 
 407 771.58 524.97 771.63 
 408 771.61 532.77 771.63 
 409 771.60 504.46 771.63 
 410 771.40 508.48 771.63 
 411 771.48 492.51 771.63 
 412 771.53 484.48 771.63 
 413 771.47 480.53 771.63 
 414 771.38 525.00 771.63 
 415 769.24 496.58 771.63 
 416 771.53 484.73 771.63 
 417 771.41 529.18 771.63 
 418 771.58 617.50 771.63 
 419 771.58 617.60 771.63 
 420 771.44 601.65 771.63 
 421 771.61 613.73 771.63 
 422 771.46 625.79 771.63 
 423 771.63 678.12 771.63 
 424 771.60 605.75 771.63 
 425 771.26 561.33 771.63 
 426 771.60 597.73 771.63 
 427 771.56 569.63 771.63 
 428 771.50 557.43 771.63 
 429 771.38 577.58 771.63 
 430 771.54 553.41 771.63 
 431 771.55 565.55 771.63 
 432 771.55 597.82 771.63 
 433 771.55 553.51 771.63 
 434 771.58 541.38 771.63 
 435 771.56 485.17 771.63 
 436 771.58 484.98 771.63 
 437 771.56 481.05 771.63 
 438 771.59 485.15 771.63 
 439 771.49 505.58 771.63 
 440 771.61 489.40 771.63 
 441 771.64 613.71 771.63 
 442 771.60 553.60 771.64 
 443 771.61 605.70 771.64 
 444 771.65 505.49 771.64 
 445 771.65 489.45 771.65 
 446 771.65 577.63 771.65 
 447 771.66 489.04 771.65 
 448 771.65 485.08 771.66 
 449 771.64 525.40 771.66 
 450 771.66 501.46 771.66 
 451 771.65 525.68 771.66 
 452 771.65 609.82 771.66 
 453 771.63 485.41 771.66 
 454 771.58 529.48 771.66 
 455 771.43 561.68 771.66 
 456 771.67 678.09 771.66 
 457 771.67 617.83 771.67 
 458 771.66 497.48 771.67 
 459 771.66 485.40 771.67 
 460 771.68 489.40 771.67 
 461 771.57 661.88 771.68 
 462 770.68 686.04 771.68 
 463 771.67 770.41 771.68 
 464 771.63 770.33 771.68 
 465 771.66 698.06 771.68 
 466 771.64 730.12 771.68 
 467 771.66 714.10 771.68 
 468 771.63 517.76 771.68 
 469 771.68 477.38 771.68 
 470 771.70 477.40 771.68 
 471 771.69 477.42 771.70 
 472 771.69 473.14 771.70 
 473 769.54 473.17 771.70 
 474 771.70 481.55 771.70 
 475 771.70 485.51 771.70 
 476 771.55 477.37 771.70 
 477 771.72 485.69 771.70 
 478 771.61 545.87 771.72 
 479 771.66 497.74 771.72 
 480 771.67 501.70 771.72 
 481 771.61 517.72 771.72 
 482 771.62 497.49 771.72 
 483 771.58 477.23 771.72 
 484 771.64 476.95 771.72 
 485 771.65 472.30 771.72 
 486 771.64 476.62 771.72 
 487 771.48 476.79 771.72 
 488 771.60 472.49 771.72 
 489 771.63 472.80 771.72 
 490 771.53 472.84 771.72 
 491 771.64 472.66 771.72 
 492 771.63 477.33 771.72 
 493 771.59 477.48 771.72 
 494 771.67 477.41 771.72 
 495 771.67 477.51 771.72 
 496 771.67 477.51 771.72 
 497 771.67 477.41 771.72 
 498 771.65 513.67 771.72 
 499 771.66 509.70 771.72 
 500 771.68 501.55 771.72 
 501 771.67 477.04 771.72 
 502 771.62 472.48 771.72 
 503 771.65 477.01 771.72 
 504 771.62 476.99 771.72 
 505 771.67 472.77 771.72 
 506 771.64 472.49 771.72 
 507 771.63 472.29 771.72 
 508 771.64 472.49 771.72 
 509 771.65 472.68 771.72 
 510 771.63 476.96 771.72 
 511 771.65 477.20 771.72 
 512 771.69 477.55 771.72 
 513 771.69 485.74 771.72 
 514 771.62 505.78 771.72 
 515 771.69 557.87 771.72 
 516 771.68 473.04 771.72 
 517 771.35 473.06 771.72 
 518 771.69 477.25 771.72 
 519 771.64 476.83 771.72 
 520 771.62 480.94 771.72 
 521 771.61 481.05 771.72 
 522 771.58 477.07 771.72 
 523 771.54 477.02 771.72 
 524 771.61 481.34 771.72 
 525 771.63 476.92 771.72 
 526 771.61 476.69 771.72 
 527 770.52 481.05 771.72 
 528 771.65 481.21 771.72 
 529 771.60 481.25 771.72 
 530 771.62 481.24 771.72 
 531 771.65 481.34 771.72 
 532 771.64 477.29 771.72 
 533 771.63 477.08 771.72 
 534 771.65 477.21 771.72 
 535 771.68 477.04 771.72 
 536 771.53 485.27 771.72 
 537 771.70 481.24 771.72 
 538 771.71 481.26 771.72 
 539 771.73 481.19 771.72 
 540 771.69 481.20 771.73 
 541 771.68 472.82 771.73 
 542 771.65 481.16 771.73 
 543 771.68 481.20 771.73 
 544 771.65 505.53 771.73 
 545 771.66 521.63 771.73 
 546 771.69 597.88 771.73 
 547 771.69 637.98 771.73 
 548 771.67 646.00 771.73 
 549 771.68 613.90 771.73 
 550 771.71 593.83 771.73 
 551 771.64 637.94 771.73 
 552 771.72 657.98 771.73 
 553 771.74 674.06 771.73 
 554 771.70 625.93 771.74 
 555 771.73 549.73 771.74 
 556 771.72 629.96 771.74 
 557 771.75 537.64 771.74 
 558 771.71 629.97 771.75 
 559 771.72 726.31 771.75 
 560 771.76 657.97 771.75 
 561 771.75 670.11 771.76 
 562 771.72 646.01 771.76 
 563 771.70 557.76 771.76 
 564 771.77 686.10 771.76 
 565 771.78 573.81 771.77 
 566 771.78 662.06 771.78 
 567 771.77 686.13 771.78 
 568 771.77 601.89 771.78 
 569 771.78 617.92 771.78 
 570 771.81 746.24 771.78 
 571 771.40 730.41 771.81 
 572 771.83 758.50 771.81 
 573 771.80 770.51 771.83 
 574 771.81 625.92 771.83 
 575 771.81 710.09 771.83 
 576 771.79 762.34 771.83 
 577 771.82 750.33 771.83 
 578 771.82 738.27 771.83 
 579 771.83 702.13 771.83 
 580 771.79 754.30 771.83 
 581 771.82 702.12 771.83 
 582 771.82 674.00 771.83 
 583 771.81 734.17 771.83 
 584 771.82 758.40 771.83 
 585 771.80 770.44 771.83 
 586 771.84 770.58 771.83 
 587 771.83 770.50 771.84 
 588 771.80 770.78 771.84 
 589 771.83 770.75 771.84 
 590 771.84 770.76 771.84 
 591 771.83 770.91 771.84 
 592 771.82 771.11 771.84 
 593 771.84 770.99 771.84 
 594 771.84 771.09 771.84 
 595 771.78 771.10 771.84 
 596 771.82 771.19 771.84 
 597 771.84 770.91 771.84 
 598 771.77 770.92 771.84 
 599 771.85 770.86 771.84 
 600 771.85 770.96 771.85 
 601 771.82 771.08 771.85 
 602 771.86 771.11 771.85 
 603 771.88 770.93 771.86 
 604 771.86 770.71 771.88 
 605 771.87 770.85 771.88 
 606 771.85 770.86 771.88 
 607 771.83 771.11 771.88 
 608 771.84 771.20 771.88 
 609 771.85 771.29 771.88 
 610 771.89 771.30 771.88 
 611 771.66 771.34 771.89 
 612 770.57 771.39 771.89 
 613 771.87 771.36 771.89 
 614 771.85 771.46 771.89 
 615 771.77 771.40 771.89 
 616 771.84 771.35 771.89 
 617 771.79 771.41 771.89 
 618 771.83 771.42 771.89 
 619 771.85 771.31 771.89 
 620 771.83 771.43 771.89 
 621 771.81 771.47 771.89 
 622 771.80 771.48 771.89 
 623 771.82 771.34 771.89 
 624 771.81 771.16 771.89 
 625 771.84 770.96 771.89 
 626 771.82 770.67 771.89 
 627 771.80 770.77 771.89 
 628 771.82 771.00 771.89 
 629 771.77 770.85 771.89 
 630 771.80 770.84 771.89 
 631 771.81 770.70 771.89 
 632 771.81 770.82 771.89 
 633 771.71 770.96 771.89 
 634 771.81 771.00 771.89 
 635 771.79 770.94 771.89 
 636 771.79 771.01 771.89 
 637 771.79 771.03 771.89 
 638 771.70 770.91 771.89 
 639 771.67 770.97 771.89 
 640 771.67 770.86 771.89 
 641 771.78 770.75 771.89 
 642 771.78 770.64 771.89 
 643 771.76 750.40 771.89 
 644 771.66 726.31 771.89 
 645 771.79 766.47 771.89 
 646 771.79 770.71 771.89 
 647 771.78 770.77 771.89 
 648 771.78 770.75 771.89 
 649 771.16 771.26 771.89 
 650 771.78 771.17 771.89 
 651 771.79 771.39 771.89 
 652 771.79 771.29 771.89 
 653 771.80 771.19 771.89 
 654 771.81 771.31 771.89 
 655 771.80 771.43 771.89 
 656 771.80 771.52 771.89 
 657 771.77 771.61 771.89 
 658 771.83 771.60 771.89 
 659 771.83 771.68 771.89 
 660 771.78 771.53 771.89 
 661 771.82 771.50 771.89 
 662 771.86 771.45 771.89 
 663 771.86 771.25 771.89 
 664 771.81 771.23 771.89 
 665 771.80 771.31 771.89 
 666 771.82 771.42 771.89 
 667 770.66 771.46 771.89 
 668 771.85 771.45 771.89 
 669 771.86 771.30 771.89 
 670 769.39 771.37 771.89 
 671 771.87 771.39 771.89 
 672 771.85 771.49 771.89 
 673 771.65 771.47 771.89 
 674 771.81 771.55 771.89 
 675 771.78 771.55 771.89 
 676 771.76 771.54 771.89 
 677 771.76 771.56 771.89 
 678 771.74 771.57 771.89 
 679 771.75 771.54 771.89 
 680 771.77 771.62 771.89 
 681 771.72 771.71 771.89 
 682 771.76 771.78 771.89 
 683 771.76 771.84 771.89 
 684 771.74 771.72 771.89 
 685 771.73 771.70 771.89 
 686 771.65 771.76 771.89 
 687 771.74 771.66 771.89 
 688 771.73 771.47 771.89 
 689 771.70 771.48 771.89 
 690 771.66 771.56 771.89 
 691 771.70 771.50 771.89 
 692 771.71 771.48 771.89 
 693 771.69 771.40 771.89 
 694 771.63 771.43 771.89 
 695 771.66 771.43 771.89 
 696 771.64 771.34 771.89 
 697 771.58 771.25 771.89 
 698 771.67 771.35 771.89 
 699 771.43 771.28 771.89 
 700 771.68 771.23 771.89 
 701 770.74 771.28 771.89 
 702 771.41 771.37 771.89 
 703 771.51 771.43 771.89 
 704 771.61 771.32 771.89 
 705 771.67 771.36 771.89 
 706 771.67 771.33 771.89 
 707 771.68 771.30 771.89 
 708 771.75 771.27 771.89 
 709 771.52 771.26 771.89 
 710 771.62 771.26 771.89 
 711 771.76 771.26 771.89 
 712 771.75 771.12 771.89 
 713 771.76 771.29 771.89 
 714 771.77 771.16 771.89 
 715 771.76 770.96 771.89 
 716 770.94 771.05 771.89 
 717 771.77 771.34 771.89 
 718 771.76 771.34 771.89 
 719 771.76 771.27 771.89 
 720 771.77 771.19 771.89 
 721 771.80 771.30 771.89 
 722 771.83 771.21 771.89 
 723 771.66 771.37 771.89 
 724 771.67 771.43 771.89 
 725 771.82 771.45 771.89 
 726 771.82 771.63 771.89 
 727 771.81 771.67 771.89 
 728 771.82 771.80 771.89 
 729 771.81 771.78 771.89 
 730 771.84 771.82 771.89 
 731 771.84 771.76 771.89 
 732 771.83 771.79 771.89 
 733 771.83 771.78 771.89 
 734 771.82 771.77 771.89 
 735 771.83 771.61 771.89 
 736 771.85 771.73 771.89 
 737 771.87 771.68 771.89 
 738 771.85 771.54 771.89 
 739 771.87 771.54 771.89 
 740 771.90 771.66 771.89 
 741 771.91 771.66 771.90 
 742 771.91 771.70 771.91 
 743 771.93 771.68 771.91 
 744 771.94 771.91 771.93 
 745 771.96 771.82 771.94 
 746 771.97 771.78 771.96 
 747 771.96 771.83 771.97 
 748 771.97 771.82 771.97 
 749 771.99 771.74 771.97 
 750 771.98 771.63 771.99 
 751 771.96 771.43 771.99 
 752 771.97 771.38 771.99 
 753 772.00 767.16 771.99 
 754 771.96 771.18 772.00 
 755 772.00 771.25 772.00 
 756 772.01 771.43 772.00 
 757 772.01 771.51 772.01 
 758 772.02 771.40 772.01 
 759 770.53 771.37 772.02 
 760 772.02 771.46 772.02 
 761 771.96 771.36 772.02 
 762 771.83 771.33 772.02 
 763 772.01 767.23 772.02 
 764 772.04 771.32 772.02 
 765 772.05 771.46 772.04 
 766 772.04 771.35 772.05 
 767 772.04 771.44 772.05 
 768 771.14 771.61 772.05 
 769 772.04 771.67 772.05 
 770 771.98 771.43 772.05 
 771 772.03 771.39 772.05 
 772 772.03 771.39 772.05 
 773 769.57 771.61 772.05 
 774 772.00 771.65 772.05 
 775 772.01 771.76 772.05 
 776 771.88 771.85 772.05 
 777 771.93 771.79 772.05 
 778 771.99 771.78 772.05 
 779 771.98 771.72 772.05 
 780 771.96 771.77 772.05 
 781 771.98 771.64 772.05 
 782 771.93 771.55 772.05 
 783 771.65 771.61 772.05 
 784 771.97 771.68 772.05 
 785 771.95 771.75 772.05 
 786 771.94 771.79 772.05 
 787 771.94 771.86 772.05 
 788 770.42 772.09 772.05 
 789 771.93 772.13 772.05 
 790 771.82 772.08 772.05 
 791 771.90 772.11 772.05 
 792 771.91 772.09 772.05 
 793 771.85 772.13 772.05 
 794 771.88 772.05 772.05 
 795 771.84 772.05 772.05 
 796 771.91 771.96 772.05 
 797 771.91 771.77 772.05 
 798 771.07 771.84 772.05 
 799 771.48 771.98 772.05 
 800 771.90 772.04 772.05 
 801 771.88 772.07 772.05 
 802 771.84 772.09 772.05 
 803 771.69 772.11 772.05 
 804 771.70 772.12 772.05 
 805 771.89 772.11 772.05 
 806 771.84 772.01 772.05 
 807 771.62 772.05 772.05 
 808 771.86 772.04 772.05 
 809 771.92 772.02 772.05 
 810 771.77 771.97 772.05 
 811 771.89 771.94 772.05 
 812 771.81 771.83 772.05 
 813 771.91 771.78 772.05 
 814 771.90 771.90 772.05 
 815 771.96 771.82 772.05 
 816 771.94 771.78 772.05 
 817 771.94 771.83 772.05 
 818 770.56 771.92 772.05 
 819 771.94 771.86 772.05 
 820 771.91 771.87 772.05 
 821 771.92 771.79 772.05 
 822 771.93 771.96 772.05 
 823 771.96 772.09 772.05 
 824 771.86 772.09 772.05 
 825 771.93 771.99 772.05 
 826 771.95 771.91 772.05 
 827 771.95 772.00 772.05 
 828 771.97 771.95 772.05 
 829 771.97 771.83 772.05 
 830 771.93 771.84 772.05 
 831 771.93 771.78 772.05 
 832 771.94 771.78 772.05 
 833 771.96 771.80 772.05 
 834 771.97 771.85 772.05 
 835 771.94 771.89 772.05 
 836 771.98 771.89 772.05 
 837 771.96 771.92 772.05 
 838 771.95 771.85 772.05 
 839 771.78 771.81 772.05 
 840 771.90 771.73 772.05 
 841 771.95 771.94 772.05 
 842 771.96 771.85 772.05 
 843 771.94 771.87 772.05 
 844 771.75 771.95 772.05 
 845 771.92 771.96 772.05 
 846 771.66 771.66 772.05 
 847 771.85 771.52 772.05 
 848 771.90 771.60 772.05 
 849 771.91 771.60 772.05 
 850 771.92 771.62 772.05 
 851 771.91 771.60 772.05 
 852 771.82 771.73 772.05 
 853 771.15 771.67 772.05 
 854 771.92 771.52 772.05 
 855 771.86 771.49 772.05 
 856 771.87 771.61 772.05 
 857 771.86 771.43 772.05 
 858 771.89 771.40 772.05 
 859 771.86 771.60 772.05 
 860 771.93 771.67 772.05 
 861 771.62 771.71 772.05 
 862 771.87 771.87 772.05 
 863 771.93 771.77 772.05 
 864 771.94 771.76 772.05 
 865 771.95 771.69 772.05 
 866 771.94 771.75 772.05 
 867 771.93 771.74 772.05 
 868 771.93 771.63 772.05 
 869 771.97 771.73 772.05 
 870 771.89 771.79 772.05 
 871 771.92 771.78 772.05 
 872 771.93 771.75 772.05 
 873 771.46 771.78 772.05 
 874 771.95 771.92 772.05 
 875 771.91 771.91 772.05 
 876 771.93 771.91 772.05 
 877 771.91 771.79 772.05 
 878 771.95 771.77 772.05 
 879 771.96 771.85 772.05 
 880 771.99 771.92 772.05 
 881 771.99 771.99 772.05 
 882 772.00 771.99 772.05 
 883 771.96 772.02 772.05 
 884 771.96 771.99 772.05 
 885 771.96 772.00 772.05 
 886 771.87 771.90 772.05 
 887 771.75 771.90 772.05 
 888 772.01 771.85 772.05 
 889 771.97 771.69 772.05 
 890 771.93 771.63 772.05 
 891 772.00 771.62 772.05 
 892 771.98 771.60 772.05 
 893 772.01 771.41 772.05 
 894 771.93 771.56 772.05 
 895 771.96 771.62 772.05 
 896 772.01 771.65 772.05 
 897 772.03 771.54 772.05 
 898 772.02 771.64 772.05 
 899 772.01 771.79 772.05 
 900 772.06 772.08 772.05 
 901 772.03 772.21 772.06 
 902 772.07 772.16 772.06 
 903 772.06 772.16 772.07 
 904 772.08 772.08 772.07 
 905 772.08 772.05 772.08 
 906 772.08 772.14 772.08 
 907 772.07 772.11 772.08 
 908 772.11 772.12 772.08 
 909 772.11 772.08 772.11 
 910 772.11 772.13 772.11 
 911 772.11 771.96 772.11 
 912 772.12 772.02 772.11 
 913 772.11 772.01 772.12 
 914 772.12 771.88 772.12 
 915 772.10 771.95 772.12 
 916 772.11 771.97 772.12 
 917 772.14 771.94 772.12 
 918 772.13 771.94 772.14 
 919 772.14 771.94 772.14 
 920 772.15 772.01 772.14 
 921 772.11 772.00 772.15 
 922 772.15 771.98 772.15 
 923 772.14 771.90 772.15 
 924 772.16 771.94 772.15 
 925 772.17 771.89 772.16 
 926 772.15 772.00 772.17 
 927 772.16 771.97 772.17 
 928 772.17 772.02 772.17 
 929 772.17 772.13 772.17 
 930 771.98 772.16 772.17 
 931 772.13 772.10 772.17 
 932 772.12 772.03 772.17 
 933 772.17 772.02 772.17 
 934 772.16 772.08 772.17 
 935 772.18 772.03 772.17 
 936 772.16 772.11 772.18 
 937 772.15 772.15 772.18 
 938 772.17 772.11 772.18 
 939 772.17 772.07 772.18 
 940 772.18 772.14 772.18 
 941 772.16 772.20 772.18 
 942 772.17 772.09 772.18 
 943 772.14 772.10 772.18 
 944 772.18 772.16 772.18 
 945 772.17 772.14 772.18 
 946 772.16 772.13 772.18 
 947 772.18 771.95 772.18 
 948 772.18 771.91 772.18 
 949 772.16 771.90 772.18 
 950 772.15 771.86 772.18 
 951 772.13 771.73 772.18 
 952 772.17 771.95 772.18 
 953 772.17 772.01 772.18 
 954 772.19 771.94 772.18 
 955 772.17 772.09 772.19 
 956 772.20 772.09 772.19 
 957 772.21 771.95 772.20 
 958 772.23 771.93 772.21 
 959 772.25 772.07 772.23 
 960 772.22 771.96 772.25 
 961 772.24 771.86 772.25 
 962 772.24 771.82 772.25 
 963 772.23 767.68 772.25 
 964 772.24 771.73 772.25 
 965 772.25 771.86 772.25 
 966 772.26 771.83 772.25 
 967 772.28 771.94 772.26 
 968 772.24 771.96 772.28 
 969 772.28 771.83 772.28 
 970 772.25 772.00 772.28 
 971 772.25 771.81 772.28 
 972 772.27 771.69 772.28 
 973 772.24 771.67 772.28 
 974 772.27 771.68 772.28 
 975 772.27 771.63 772.28 
 976 772.25 771.67 772.28 
 977 772.27 771.65 772.28 
 978 772.20 771.73 772.28 
 979 772.25 771.73 772.28 
 980 772.27 771.89 772.28 
 981 772.26 771.93 772.28 
 982 772.27 771.90 772.28 
 983 772.25 771.93 772.28 
 984 772.25 771.93 772.28 
 985 772.27 771.80 772.28 
 986 772.27 771.69 772.28 
 987 772.15 771.70 772.28 
 988 772.24 771.69 772.28 
 989 772.29 771.77 772.28 
 990 772.31 772.07 772.29 
 991 772.28 771.98 772.31 
 992 772.28 772.04 772.31 
 993 772.30 771.91 772.31 
 994 770.29 771.93 772.31 
 995 772.31 771.87 772.31 
 996 772.29 772.02 772.31 
 997 772.31 772.10 772.31 
 998 772.30 772.26 772.31 
 999 772.29 772.27 772.31 
1000 772.27 772.19 772.31 
1001 772.25 772.04 772.31 
1002 772.26 771.87 772.31 
1003 772.27 771.70 772.31 
1004 772.26 771.72 772.31 
1005 772.25 771.73 772.31 
1006 772.26 771.77 772.31 
1007 772.24 771.91 772.31 
1008 772.23 771.64 772.31 
1009 772.25 771.63 772.31 
1010 772.25 771.65 772.31 
1011 772.26 771.62 772.31 
1012 772.25 771.74 772.31 
1013 772.22 771.85 772.31 
1014 772.24 771.88 772.31 
1015 772.24 771.77 772.31 
1016 772.20 771.74 772.31 
1017 772.21 771.73 772.31 
1018 772.21 771.84 772.31 
1019 772.25 771.82 772.31 
1020 772.25 771.87 772.31 
1021 772.27 771.94 772.31 
1022 772.26 772.05 772.31 
1023 772.28 772.14 772.31 
1024 772.25 772.10 772.31 
1025 772.25 772.03 772.31 
1026 772.21 772.09 772.31 
1027 772.25 772.15 772.31 
1028 772.22 772.12 772.31 
1029 772.28 772.15 772.31 
1030 772.23 772.15 772.31 
1031 772.30 772.22 772.31 
1032 772.31 772.16 772.31 
1033 772.31 772.22 772.31 
1034 772.31 772.21 772.31 
1035 772.33 772.24 772.31 
1036 772.31 772.31 772.33 
1037 772.32 772.33 772.33 
1038 772.32 772.37 772.33 
1039 772.34 772.38 772.33 
1040 772.32 772.40 772.34 
1041 772.30 772.37 772.34 
1042 772.33 772.37 772.34 
1043 772.33 772.34 772.34 
1044 772.33 772.22 772.34 
1045 770.94 772.15 772.34 
1046 772.25 772.12 772.34 
1047 772.32 772.13 772.34 
1048 772.22 772.13 772.34 
1049 771.87 772.09 772.34 
1050 772.28 771.97 772.34 
1051 772.27 771.90 772.34 
1052 772.27 771.93 772.34 
1053 772.28 771.83 772.34 
1054 772.01 772.04 772.34 
1055 772.25 772.24 772.34 
1056 772.23 772.31 772.34 
1057 772.22 772.35 772.34 
1058 772.21 772.35 772.34 
1059 771.43 772.38 772.34 
1060 772.15 772.37 772.34 
1061 772.10 772.24 772.34 
1062 772.02 772.28 772.34 
1063 772.09 772.35 772.34 
1064 772.04 772.42 772.34 
1065 771.93 772.45 772.34 
1066 772.03 772.32 772.34 
1067 771.92 772.36 772.34 
1068 772.06 772.40 772.34 
1069 772.12 772.41 772.34 
1070 772.16 772.33 772.34 
1071 772.10 772.25 772.34 
1072 772.14 772.22 772.34 
1073 772.19 772.20 772.34 
1074 772.19 772.13 772.34 
1075 772.20 771.91 772.34 
1076 772.20 771.76 772.34 
1077 771.43 771.79 772.34 
1078 772.21 771.66 772.34 
1079 772.21 771.64 772.34 
1080 772.11 771.82 772.34 
1081 772.18 771.85 772.34 
1082 772.20 771.75 772.34 
1083 772.19 771.62 772.34 
1084 772.20 771.56 772.34 
1085 772.18 771.67 772.34 
1086 772.21 771.60 772.34 
1087 771.60 771.50 772.34 
1088 772.17 771.54 772.34 
1089 772.14 771.47 772.34 
1090 772.15 771.50 772.34 
1091 771.99 771.57 772.34 
1092 772.20 771.67 772.34 
1093 772.19 771.62 772.34 
1094 772.15 771.39 772.34 
1095 772.20 771.49 772.34 
1096 772.16 771.51 772.34 
1097 772.22 771.44 772.34 
1098 772.23 771.46 772.34 
1099 772.22 771.47 772.34 
1100 772.24 771.55 772.34 
1101 772.13 771.50 772.34 
1102 772.11 771.62 772.34 
1103 772.28 771.86 772.34 
1104 772.29 771.95 772.34 
1105 772.22 772.04 772.34 
1106 772.29 772.12 772.34 
1107 772.28 772.19 772.34 
1108 772.29 772.02 772.34 
1109 772.30 771.85 772.34 
1110 772.30 771.90 772.34 
1111 772.32 771.92 772.34 
1112 772.31 771.83 772.34 
1113 772.23 772.23 772.34 
1114 772.30 772.07 772.34 
1115 772.28 772.34 772.34 
1116 772.29 772.23 772.34 
1117 772.31 772.32 772.34 
1118 772.33 772.28 772.34 
1119 772.32 772.34 772.34 
1120 772.31 772.32 772.34 
1121 772.29 772.36 772.34 
1122 772.31 772.39 772.34 
1123 772.34 772.42 772.34 
1124 772.34 772.39 772.34 
1125 772.32 772.32 772.34 
1126 772.32 772.44 772.34 
1127 772.34 772.44 772.34 
1128 772.32 772.32 772.34 
1129 771.99 772.24 772.34 
1130 772.31 772.35 772.34 
1131 772.29 772.11 772.34 
1132 772.32 772.04 772.34 
1133 772.34 772.11 772.34 
1134 772.31 772.08 772.34 
1135 769.12 772.20 772.34 
1136 771.59 772.11 772.34 
1137 772.29 772.17 772.34 
1138 772.30 772.17 772.34 
1139 772.18 772.15 772.34 
1140 772.27 772.17 772.34 
1141 772.26 772.14 772.34 
1142 772.25 772.15 772.34 
1143 772.23 771.96 772.34 
1144 772.21 771.95 772.34 
1145 772.21 771.75 772.34 
1146 772.12 771.70 772.34 
1147 772.19 771.60 772.34 
1148 772.22 771.73 772.34 
1149 772.23 771.93 772.34 
1150 772.06 771.87 772.34 
1151 772.18 771.78 772.34 
1152 772.23 771.81 772.34 
1153 772.24 771.88 772.34 
1154 772.23 771.91 772.34 
1155 772.23 771.91 772.34 
1156 772.16 771.88 772.34 
1157 772.24 771.65 772.34 
1158 772.23 771.89 772.34 
1159 772.22 771.93 772.34 
1160 772.16 771.75 772.34 
1161 772.13 771.72 772.34 
1162 772.23 771.62 772.34 
1163 772.24 771.58 772.34 
1164 772.23 771.50 772.34 
1165 772.27 771.45 772.34 
1166 772.25 771.53 772.34 
1167 772.23 771.51 772.34 
1168 772.26 771.33 772.34 
1169 772.26 771.34 772.34 
1170 772.24 771.41 772.34 
1171 772.25 771.33 772.34 
1172 772.26 771.34 772.34 
1173 772.26 771.47 772.34 
1174 772.28 771.71 772.34 
1175 772.27 771.60 772.34 
1176 772.27 771.53 772.34 
1177 772.29 771.52 772.34 
1178 772.28 771.44 772.34 
1179 772.30 771.31 772.34 
1180 772.30 771.32 772.34 
1181 772.31 771.32 772.34 
1182 772.30 771.31 772.34 
1183 772.28 771.41 772.34 
1184 772.29 759.28 772.34 
1185 772.28 771.28 772.34 
1186 772.31 771.36 772.34 
1187 772.31 771.35 772.34 
1188 772.32 771.52 772.34 
1189 772.30 771.54 772.34 
1190 772.28 771.45 772.34 
1191 771.98 771.44 772.34 
1192 772.27 771.40 772.34 
1193 772.29 771.64 772.34 
1194 772.27 771.54 772.34 
1195 772.26 771.58 772.34 
1196 772.26 771.63 772.34 
1197 772.29 771.71 772.34 
1198 772.32 771.76 772.34 
1199 772.30 771.90 772.34 
1200 772.32 771.77 772.34 
1201 772.31 771.64 772.34 
1202 772.30 771.69 772.34 
1203 772.32 771.73 772.34 
1204 772.33 771.64 772.34 
1205 772.34 771.50 772.34 
1206 772.24 771.54 772.34 
1207 772.31 771.73 772.34 
1208 772.31 771.72 772.34 
1209 772.32 771.68 772.34 
1210 772.31 771.64 772.34 
1211 772.30 771.58 772.34 
1212 772.30 771.47 772.34 
1213 772.34 771.44 772.34 
1214 772.32 771.40 772.34 
1215 772.32 771.37 772.34 
1216 772.27 771.59 772.34 
1217 772.33 771.71 772.34 
1218 772.20 771.80 772.34 
1219 772.34 771.78 772.34 
1220 772.35 771.97 772.34 
1221 772.36 772.08 772.35 
1222 772.36 772.15 772.36 
1223 772.37 772.20 772.36 
1224 772.35 772.20 772.37 
1225 772.36 772.14 772.37 
1226 772.36 772.28 772.37 
1227 772.37 772.19 772.37 
1228 772.37 772.27 772.37 
1229 772.38 772.13 772.37 
1230 772.38 771.90 772.38 
1231 772.38 771.79 772.38 
1232 772.38 771.80 772.38 
1233 772.38 771.81 772.38 
1234 772.40 771.65 772.38 
1235 772.34 771.57 772.40 
1236 772.36 771.60 772.40 
1237 772.35 771.75 772.40 
1238 771.49 771.67 772.40 
1239 772.36 771.75 772.40 
1240 772.35 771.74 772.40 
1241 772.35 771.88 772.40 
1242 772.35 771.82 772.40 
1243 772.31 771.69 772.40 
1244 772.31 771.71 772.40 
1245 772.32 771.62 772.40 
1246 772.35 771.60 772.40 
1247 772.34 771.54 772.40 
1248 772.34 771.49 772.40 
1249 772.34 771.46 772.40 
1250 772.27 771.41 772.40 
1251 772.28 771.45 772.40 
1252 772.32 771.64 772.40 
1253 772.32 771.61 772.40 
1254 772.35 771.51 772.40 
1255 772.35 771.38 772.40 
1256 772.32 771.45 772.40 
1257 772.39 771.34 772.40 
1258 772.35 771.39 772.40 
1259 772.37 771.45 772.40 
1260 772.39 771.58 772.40 
1261 772.42 771.64 772.40 
1262 772.40 771.56 772.42 
1263 772.41 771.45 772.42 
1264 772.41 771.43 772.42 
1265 772.41 771.45 772.42 
1266 772.41 771.45 772.42 
1267 772.40 771.31 772.42 
1268 772.40 739.18 772.42 
1269 772.44 747.26 772.42 
1270 772.44 707.16 772.44 
1271 772.41 691.01 772.44 
1272 771.88 711.18 772.44 
1273 772.41 735.23 772.44 
1274 772.41 743.26 772.44 
1275 772.42 743.28 772.44 
1276 772.43 771.41 772.44 
1277 772.42 771.50 772.44 
1278 772.44 771.54 772.44 
1279 772.39 771.50 772.44 
1280 772.43 759.39 772.44 
1281 772.44 739.39 772.44 
1282 772.34 739.41 772.44 
1283 772.44 711.21 772.44 
1284 772.39 723.31 772.44 
1285 772.44 723.35 772.44 
1286 772.44 771.48 772.44 
1287 772.46 771.46 772.44 
1288 772.46 743.40 772.46 
1289 772.46 771.43 772.46 
1290 772.47 771.49 772.46 
1291 772.45 771.48 772.47 
1292 772.46 771.49 772.47 
1293 772.47 771.33 772.47 
1294 772.47 771.43 772.47 
1295 772.47 771.54 772.47 
1296 772.47 771.55 772.47 
1297 772.47 771.55 772.47 
1298 772.46 771.54 772.47 
1299 772.45 771.60 772.47 
1300 771.61 771.56 772.47 
1301 772.48 771.63 772.47 
1302 772.49 771.70 772.48 
1303 772.46 771.69 772.49 
1304 772.44 771.75 772.49 
1305 772.44 771.75 772.49 
1306 772.46 771.64 772.49 
1307 772.44 771.63 772.49 
1308 772.44 771.43 772.49 
1309 772.38 771.61 772.49 
1310 772.46 771.66 772.49 
1311 771.64 771.71 772.49 
1312 772.43 771.58 772.49 
1313 772.42 771.54 772.49 
1314 772.42 771.51 772.49 
1315 772.42 771.57 772.49 
1316 772.40 771.59 772.49 
1317 772.39 771.65 772.49 
1318 772.42 771.63 772.49 
1319 772.41 771.53 772.49 
1320 772.38 771.57 772.49 
1321 769.44 771.57 772.49 
1322 770.30 771.57 772.49 
1323 772.38 771.57 772.49 
1324 772.38 771.55 772.49 
1325 772.36 771.57 772.49 
1326 772.33 771.57 772.49 
1327 772.31 771.58 772.49 
1328 772.28 771.51 772.49 
1329 772.26 771.40 772.49 
1330 772.27 771.34 772.49 
1331 772.27 771.34 772.49 
1332 772.28 771.31 772.49 
1333 772.25 759.25 772.49 
1334 772.28 759.16 772.49 
1335 772.24 771.22 772.49 
1336 772.23 739.07 772.49 
1337 772.24 735.14 772.49 
1338 772.22 739.09 772.49 
1339 772.22 714.93 772.49 
1340 772.23 747.09 772.49 
1341 772.23 771.07 772.49 
1342 772.19 726.93 772.49 
1343 772.22 698.86 772.49 
1344 772.25 702.83 772.49 
1345 772.19 682.81 772.49 
1346 772.24 682.75 772.49 
1347 772.23 694.78 772.49 
1348 772.25 738.97 772.49 
1349 770.60 767.04 772.49 
1350 772.27 747.04 772.49 
1351 772.28 755.08 772.49 
1352 772.24 771.20 772.49 
1353 772.25 771.22 772.49 
1354 772.19 771.14 772.49 
1355 772.16 771.06 772.49 
1356 772.08 770.85 772.49 
1357 772.03 718.76 772.49 
1358 772.04 730.87 772.49 
1359 772.15 771.07 772.49 
1360 772.15 770.97 772.49 
1361 772.03 770.94 772.49 
1362 772.15 771.09 772.49 
1363 772.08 771.10 772.49 
1364 772.13 771.20 772.49 
1365 772.18 771.25 772.49 
1366 772.18 771.22 772.49 
1367 772.19 771.25 772.49 
1368 772.14 771.12 772.49 
1369 772.15 771.10 772.49 
1370 772.18 771.26 772.49 
1371 772.16 771.31 772.49 
1372 772.14 771.44 772.49 
1373 772.14 771.44 772.49 
1374 772.19 771.51 772.49 
1375 772.23 771.48 772.49 
1376 772.22 771.43 772.49 
1377 772.23 771.48 772.49 
1378 771.83 771.53 772.49 
1379 772.25 771.57 772.49 
1380 772.25 771.59 772.49 
1381 772.25 771.47 772.49 
1382 772.27 771.44 772.49 
1383 772.29 771.51 772.49 
1384 772.27 771.35 772.49 
1385 772.31 771.45 772.49 
1386 772.30 771.48 772.49 
1387 772.24 771.57 772.49 
1388 772.28 771.45 772.49 
1389 772.28 771.45 772.49 
1390 772.33 771.47 772.49 
1391 772.30 771.54 772.49 
1392 772.30 771.55 772.49 
1393 772.33 771.49 772.49 
1394 772.31 771.45 772.49 
1395 772.34 771.40 772.49 
1396 772.32 731.23 772.49 
1397 772.32 771.40 772.49 
1398 772.33 771.46 772.49 
1399 772.29 771.45 772.49 
1400 772.33 771.50 772.49 
1401 772.32 743.34 772.49 
1402 772.32 763.39 772.49 
1403 772.36 771.37 772.49 
1404 772.37 763.37 772.49 
1405 772.36 771.27 772.49 
1406 772.35 771.41 772.49 
1407 772.35 771.40 772.49 
1408 772.37 771.33 772.49 
1409 772.36 771.13 772.49 
1410 772.36 763.19 772.49 
1411 772.36 755.26 772.49 
1412 772.35 735.19 772.49 
1413 772.32 698.95 772.49 
1414 772.36 694.91 772.49 
1415 772.35 698.93 772.49 
1416 772.35 771.27 772.49 
1417 772.34 763.21 772.49 
1418 772.34 747.19 772.49 
1419 772.39 771.23 772.49 
1420 772.34 734.96 772.49 
1421 772.32 771.06 772.49 
1422 772.36 771.22 772.49 
1423 772.38 771.21 772.49 
1424 772.37 771.09 772.49 
1425 772.40 771.09 772.49 
1426 772.38 763.05 772.49 
1427 772.38 771.16 772.49 
1428 772.39 771.08 772.49 
1429 772.41 682.68 772.49 
1430 772.40 654.50 772.49 
1431 772.40 702.60 772.49 
1432 772.40 605.88 772.49 
1433 772.40 638.31 772.49 
1434 772.40 694.58 772.49 
1435 772.42 722.93 772.49 
1436 772.42 771.12 772.49 
1437 772.39 771.16 772.49 
1438 772.41 771.08 772.49 
1439 772.42 771.12 772.49 
1440 772.42 771.23 772.49 
1441 772.44 771.26 772.49 
1442 772.40 771.26 772.49 
1443 772.46 771.19 772.49 
1444 772.45 771.20 772.49 
1445 772.46 771.28 772.49 
1446 772.40 771.30 772.49 
1447 770.73 771.29 772.49 
1448 772.46 722.91 772.49 
1449 772.43 690.71 772.49 
1450 771.99 594.50 772.49 
1451 770.68 594.29 772.49 
1452 772.39 710.80 772.49 
1453 772.28 714.78 772.49 
1454 772.36 594.30 772.49 
1455 772.35 594.30 772.49 
1456 772.34 565.52 772.49 
1457 772.37 626.29 772.49 
1458 772.37 586.01 772.49 
1459 772.37 702.80 772.49 
1460 772.37 742.97 772.49 
1461 772.33 771.15 772.49 
1462 772.40 771.32 772.49 
1463 772.39 771.41 772.49 
1464 772.39 771.34 772.49 
1465 772.36 771.36 772.49 
1466 772.35 771.34 772.49 
1467 771.98 726.89 772.49 
1468 772.33 598.46 772.49 
1469 772.28 577.43 772.49 
1470 772.25 602.27 772.49 
1471 772.31 614.42 772.49 
1472 772.29 771.23 772.49 
1473 772.33 750.98 772.49 
1474 772.15 742.96 772.49 
1475 772.36 666.66 772.49 
1476 772.29 610.53 772.49 
1477 772.34 589.75 772.49 
1478 772.16 597.99 772.49 
1479 772.28 455.94 772.49 
1480 772.16 492.10 772.49 
1481 772.30 354.90 772.49 
1482 772.27 414.87 772.49 
1483 772.17 427.31 772.49 
1484 772.31 483.03 772.49 
1485 772.18 410.71 772.49 
1486 772.23 418.82 772.49 
1487 772.31 322.55 772.49 
1488 772.30 306.34 772.49 
1489 772.33 330.49 772.49 
1490 772.30 322.40 772.49 
1491 772.26 338.55 772.49 
1492 772.20 342.69 772.49 
1493 772.28 346.65 772.49 
1494 771.94 350.81 772.49 
1495 772.31 423.62 772.49 
1496 772.32 483.82 772.49 
1497 772.27 407.45 772.49 
1498 772.34 459.88 772.49 
1499 772.31 524.56 772.49 
1500 772.32 443.61 772.49 
1501 772.29 403.33 772.49 
1502 772.32 362.92 772.49 
1503 772.32 354.93 772.49 
1504 772.27 342.78 772.49 
1505 772.34 318.35 772.49 
1506 772.35 326.52 772.49 
1507 772.33 330.57 772.49 
1508 772.34 326.42 772.49 
1509 772.37 326.51 772.49 
1510 772.34 322.46 772.49 
1511 772.33 350.95 772.49 
1512 772.33 443.12 772.49 
1513 772.34 318.46 772.49 
1514 772.34 314.51 772.49 
1515 772.34 322.56 772.49 
1516 772.35 334.72 772.49 
1517 772.36 346.79 772.49 
1518 772.32 338.60 772.49 
1519 772.35 354.91 772.49 
1520 772.36 387.09 772.49 
1521 772.38 398.99 772.49 
1522 772.39 479.12 772.49 
1523 772.40 459.62 772.49 
1524 772.38 487.46 772.49 
1525 772.40 455.37 772.49 
1526 772.39 476.03 772.49 
1527 772.41 492.16 772.49 
1528 772.39 508.33 772.49 
1529 772.38 500.18 772.49 
1530 772.40 528.43 772.49 
1531 772.33 520.40 772.49 
1532 772.40 496.23 772.49 
1533 772.41 593.04 772.49 
1534 772.40 536.58 772.49 
1535 772.35 576.91 772.49 
1536 772.38 548.56 772.49 
1537 772.38 532.56 772.49 
1538 772.39 540.78 772.49 
1539 772.38 532.61 772.49 
1540 772.31 589.11 772.49 
1541 772.39 576.95 772.49 
1542 772.39 500.28 772.49 
1543 772.40 524.29 772.49 
1544 772.40 504.27 772.49 
1545 772.37 504.40 772.49 
1546 772.41 532.49 772.49 
1547 772.40 528.46 772.49 
1548 772.42 617.30 772.49 
1549 772.41 625.71 772.49 
1550 772.42 621.67 772.49 
1551 772.42 642.19 772.49 
1552 772.36 642.29 772.49 
1553 772.42 629.64 772.49 
1554 772.41 638.05 772.49 
1555 772.41 698.77 772.49 
1556 772.42 771.17 772.49 
1557 772.40 771.06 772.49 
1558 772.41 666.74 772.49 
1559 772.44 646.32 772.49 
1560 772.42 650.26 772.49 
1561 772.45 690.87 772.49 
1562 772.44 771.17 772.49 
1563 772.44 771.16 772.49 
1564 772.42 771.23 772.49 
1565 772.45 771.33 772.49 
1566 772.43 771.02 772.49 
1567 772.44 771.24 772.49 
1568 772.44 771.37 772.49 
1569 772.40 771.38 772.49 
1570 772.42 771.38 772.49 
1571 772.44 771.25 772.49 
1572 772.42 771.15 772.49 
1573 772.40 771.22 772.49 
1574 772.44 771.37 772.49 
1575 772.45 771.42 772.49 
1576 772.43 771.52 772.49 
1577 772.43 771.49 772.49 
1578 772.44 771.55 772.49 
1579 772.45 771.55 772.49 
1580 772.45 771.53 772.49 
1581 772.45 771.54 772.49 
1582 772.46 771.43 772.49 
1583 772.45 771.44 772.49 
1584 772.45 771.42 772.49 
1585 772.46 771.36 772.49 
1586 772.47 771.39 772.49 
1587 772.47 771.37 772.49 
1588 772.48 771.36 772.49 
1589 772.48 771.39 772.49 
1590 772.44 771.40 772.49 
1591 772.47 771.34 772.49 
1592 772.48 771.24 772.49 
1593 772.47 771.31 772.49 
1594 772.48 771.31 772.49 
1595 772.47 771.28 772.49 
1596 772.48 771.30 772.49 
1597 772.49 771.35 772.49 
1598 772.50 771.32 772.49 
1599 772.48 771.36 772.50 
1600 772.49 771.35 772.50 
1601 772.47 771.16 772.50 
1602 772.46 771.32 772.50 
1603 772.43 771.30 772.50 
1604 772.45 771.30 772.50 
1605 772.47 771.33 772.50 
1606 771.96 771.35 772.50 
1607 772.47 771.26 772.50 
1608 772.47 771.20 772.50 
1609 772.46 771.05 772.50 
1610 772.46 738.90 772.50 
1611 772.47 759.01 772.50 
1612 772.47 750.84 772.50 
1613 772.47 770.98 772.50 
1614 772.47 771.00 772.50 
1615 772.45 762.89 772.50 
1616 772.46 771.09 772.50 
1617 772.46 771.04 772.50 
1618 772.45 771.12 772.50 
1619 772.45 771.15 772.50 
1620 772.47 771.11 772.50 
1621 772.46 771.13 772.50 
1622 772.46 771.14 772.50 
1623 772.41 771.14 772.50 
1624 772.47 771.15 772.50 
1625 772.45 771.21 772.50 
1626 772.47 771.19 772.50 
1627 772.47 771.23 772.50 
1628 772.47 771.21 772.50 
1629 772.47 771.22 772.50 
1630 772.47 771.21 772.50 
1631 772.45 771.13 772.50 
1632 772.45 771.11 772.50 
1633 772.44 771.07 772.50 
1634 772.45 771.07 772.50 
1635 772.47 771.03 772.50 
1636 772.49 771.10 772.50 
1637 772.46 771.11 772.50 
1638 772.48 771.09 772.50 
1639 772.48 771.05 772.50 
1640 772.48 771.03 772.50 
1641 772.49 771.04 772.50 
1642 772.49 771.03 772.50 
1643 772.47 771.15 772.50 
1644 772.47 771.20 772.50 
1645 772.46 771.22 772.50 
1646 772.46 771.26 772.50 
1647 772.45 771.32 772.50 
1648 772.42 771.23 772.50 
1649 772.44 771.20 772.50 
1650 772.44 771.16 772.50 
1651 772.46 771.18 772.50 
1652 772.46 771.21 772.50 
1653 772.50 771.25 772.50 
1654 771.94 771.19 772.50 
1655 772.46 771.19 772.50 
1656 772.45 771.12 772.50 
1657 772.45 771.09 772.50 
1658 772.45 771.20 772.50 
1659 772.44 771.13 772.50 
1660 772.44 771.07 772.50 
1661 772.34 771.00 772.50 
1662 772.45 770.93 772.50 
1663 772.48 771.00 772.50 
1664 772.49 771.01 772.50 
1665 772.47 771.02 772.50 
1666 772.48 770.98 772.50 
1667 772.49 770.96 772.50 
1668 772.50 771.01 772.50 
1669 772.49 771.06 772.50 
1670 772.50 771.08 772.50 
1671 772.50 771.02 772.50 
1672 772.52 770.97 772.50 
1673 770.76 771.02 772.52 
1674 772.52 771.13 772.52 
1675 770.17 770.97 772.52 
1676 772.49 771.05 772.52 
1677 772.47 771.07 772.52 
1678 771.21 771.15 772.52 
1679 772.41 771.18 772.52 
1680 772.40 771.14 772.52 
1681 772.35 771.05 772.52 
1682 772.27 771.07 772.52 
1683 772.28 771.12 772.52 
1684 772.32 771.20 772.52 
1685 772.32 771.07 772.52 
1686 772.33 771.14 772.52 
1687 772.33 771.00 772.52 
1688 772.37 771.19 772.52 
1689 772.35 771.16 772.52 
1690 772.35 771.35 772.52 
1691 772.36 771.40 772.52 
1692 772.30 771.38 772.52 
1693 772.36 771.38 772.52 
1694 772.30 771.30 772.52 
1695 772.35 771.33 772.52 
1696 772.36 771.43 772.52 
1697 772.35 771.56 772.52 
1698 766.71 771.50 772.52 
1699 772.33 771.38 772.52 
1700 772.33 771.51 772.52 
1701 772.32 771.46 772.52 
1702 772.30 771.46 772.52 
1703 772.02 771.69 772.52 
1704 772.28 771.55 772.52 
1705 772.30 771.41 772.52 
1706 772.33 771.62 772.52 
1707 772.32 771.46 772.52 
1708 772.36 771.44 772.52 
1709 772.35 719.25 772.52 
1710 772.33 751.61 772.52 
1711 772.37 703.22 772.52 
1712 772.37 731.49 772.52 
1713 772.46 695.15 772.52 
1714 772.33 739.55 772.52 
1715 772.50 771.86 772.52 
1716 772.67 775.74 772.52 
1717 772.17 775.67 772.67 
1718 772.86 775.80 772.67 
1719 773.98 775.87 772.86 
1720 774.56 775.87 773.98 
1721 774.65 776.00 774.56 
1722 774.91 775.99 774.65 
1723 775.28 776.07 774.91 
1724 775.22 776.07 775.28 
1725 774.62 776.00 775.28 
1726 775.03 775.90 775.28 
1727 775.55 775.97 775.28 
1728 775.35 775.79 775.55 
1729 775.21 775.77 775.55 
1730 775.41 775.67 775.55 
1731 775.57 775.58 775.55 
1732 775.37 775.62 775.57 
1733 775.69 775.41 775.57 
1734 775.59 775.44 775.69 
1735 775.76 775.48 775.69 
1736 775.80 775.61 775.76 
1737 775.86 775.46 775.80 
1738 775.91 775.47 775.86 
1739 775.16 775.37 775.91 
1740 775.90 775.44 775.91 
1741 775.89 774.94 775.91 
1742 775.80 775.41 775.91 
1743 775.91 775.67 775.91 
1744 775.98 775.81 775.91 
1745 776.07 775.98 775.98 
1746 776.12 775.82 776.07 
1747 776.18 775.90 776.12 
1748 776.21 776.04 776.18 
1749 776.23 776.02 776.21 
1750 776.27 776.11 776.23 
1751 776.20 775.89 776.27 
1752 776.26 776.18 776.27 
1753 776.32 775.93 776.27 
1754 776.23 776.05 776.32 
1755 776.17 775.99 776.32 
1756 776.24 775.97 776.32 
1757 776.20 776.02 776.32 
1758 776.27 775.99 776.32 
1759 776.25 776.06 776.32 
1760 776.19 776.03 776.32 
1761 776.35 775.93 776.32 
1762 776.14 775.74 776.35 
1763 776.22 775.68 776.35 
1764 776.35 775.77 776.35 
1765 776.18 775.84 776.35 
1766 776.43 775.93 776.35 
1767 776.42 775.94 776.43 
1768 776.32 775.94 776.43 
1769 776.54 775.84 776.43 
1770 776.99 771.89 776.54 
1771 776.50 779.84 776.99 
1772 776.82 739.56 776.99 
1773 777.45 731.42 776.99 
1774 777.91 719.20 777.45 
1775 778.38 742.96 777.91 
1776 778.14 730.98 778.38 
1777 778.71 710.74 778.38 
1778 779.36 702.68 778.71 
1779 779.12 730.95 779.36 
1780 779.38 694.51 779.36 
1781 779.09 706.75 779.38 
1782 779.73 702.89 779.38 
1783 779.67 686.62 779.73 
1784 779.77 694.77 779.73 
1785 779.68 686.60 779.77 
1786 779.86 702.90 779.77 
1787 779.57 723.05 779.86 
1788 779.87 727.12 779.86 
1789 779.81 715.13 779.87 
1790 780.00 710.98 779.87 
1791 779.98 779.24 780.00 
1792 780.00 779.25 780.00 
1793 780.04 779.33 780.00 
1794 779.84 779.17 780.04 
1795 779.83 779.73 780.04 
1796 779.20 779.93 780.04 
1797 780.07 743.63 780.04 
1798 779.87 751.70 780.07 
1799 779.90 743.59 780.07 
1800 779.45 747.65 780.07 
1801 780.00 719.30 780.07 
1802 780.19 735.52 780.07 
1803 780.15 755.72 780.19 
1804 780.18 751.63 780.19 
1805 780.15 735.46 780.19 
1806 780.22 731.39 780.19 
1807 780.21 779.30 780.22 
1808 780.00 779.23 780.22 
1809 780.19 779.23 780.22 
1810 779.92 763.52 780.22 
1811 780.25 779.16 780.22 
1812 780.31 779.24 780.25 
1813 780.20 727.09 780.31 
1814 780.34 698.81 780.31 
1815 780.21 719.02 780.34 
1816 780.27 694.89 780.34 
1817 780.12 727.14 780.34 
1818 780.29 711.04 780.34 
1819 780.29 735.35 780.34 
1820 780.28 723.21 780.34 
1821 780.25 707.06 780.34 
1822 780.35 690.85 780.34 
1823 780.25 702.89 780.35 
1824 780.39 682.51 780.35 
1825 780.37 662.10 780.39 
1826 780.33 662.13 780.39 
1827 780.41 674.44 780.39 
1828 780.33 662.21 780.41 
1829 780.31 682.73 780.41 
1830 780.41 658.21 780.41 
1831 780.11 654.04 780.41 
1832 780.35 641.75 780.41 
1833 780.35 662.20 780.41 
1834 780.29 703.08 780.41 
1835 780.37 711.16 780.41 
1836 780.36 703.17 780.41 
1837 780.29 674.55 780.41 
1838 780.32 674.60 780.41 
1839 780.34 678.74 780.41 
1840 780.40 678.72 780.41 
1841 780.43 686.89 780.41 
1842 780.39 662.32 780.43 
1843 780.37 654.07 780.43 
1844 780.31 662.28 780.43 
1845 780.45 658.17 780.43 
1846 780.46 653.98 780.45 
1847 780.32 649.87 780.46 
1848 780.28 690.80 780.46 
1849 780.07 751.62 780.46 
1850 780.38 759.65 780.46 
1851 780.43 743.63 780.46 
1852 780.45 727.42 780.46 
1853 780.46 767.89 780.46 
1854 780.47 780.01 780.46 
1855 780.49 755.81 780.47 
1856 780.45 719.38 780.49 
1857 780.43 674.55 780.49 
1858 780.44 727.45 780.49 
1859 780.45 690.87 780.49 
1860 779.98 682.74 780.49 
1861 780.51 666.39 780.49 
1862 780.51 678.64 780.51 
1863 780.45 658.21 780.51 
1864 780.45 662.37 780.51 
1865 780.49 682.82 780.51 
1866 780.53 699.07 780.51 
1867 780.52 703.22 780.53 
1868 780.40 747.71 780.53 
1869 780.47 780.02 780.53 
1870 780.43 775.95 780.53 
1871 780.48 751.86 780.53 
1872 780.47 723.49 780.53 
1873 780.36 699.16 780.53 
1874 780.49 780.32 780.53 
1875 780.40 780.26 780.53 
1876 780.52 780.23 780.53 
1877 780.46 780.27 780.53 
1878 780.45 780.28 780.53 
1879 780.46 780.26 780.53 
1880 780.29 780.34 780.53 
1881 780.52 780.32 780.53 
1882 780.50 780.15 780.53 
1883 780.42 775.99 780.53 
1884 780.50 719.38 780.53 
1885 780.49 699.05 780.53 
1886 780.46 662.41 780.53 
1887 780.40 662.34 780.53 
1888 780.27 650.00 780.53 
1889 780.46 670.54 780.53 
1890 780.50 674.60 780.53 
1891 780.51 641.79 780.53 
1892 780.51 703.09 780.53 
1893 780.53 759.79 780.53 
1894 780.53 780.03 780.53 
1895 780.51 780.19 780.53 
1896 780.56 747.72 780.53 
1897 780.58 699.04 780.56 
1898 780.59 690.90 780.58 
1899 780.59 755.82 780.59 
1900 780.59 780.37 780.59 
1901 780.59 731.58 780.59 
1902 780.53 723.50 780.59 
1903 780.55 779.98 780.59 
1904 780.59 682.84 780.59 
1905 780.52 780.30 780.59 
1906 780.54 780.27 780.59 
1907 780.52 780.23 780.59 
1908 780.57 780.40 780.59 
1909 780.55 780.26 780.59 
1910 780.51 780.21 780.59 
1911 780.54 780.27 780.59 
1912 780.60 780.44 780.59 
1913 780.56 780.45 780.60 
1914 780.62 780.46 780.60 
1915 780.61 780.48 780.62 
1916 780.60 780.46 780.62 
1917 780.49 780.42 780.62 
1918 780.59 780.46 780.62 
1919 780.56 780.47 780.62 
1920 780.61 780.52 780.62 
1921 780.62 780.47 780.62 
1922 780.61 780.47 780.62 
1923 780.62 780.34 780.62 
1924 780.62 780.36 780.62 
1925 780.62 780.45 780.62 
1926 780.62 780.39 780.62 
1927 780.62 780.42 780.62 
1928 780.35 780.38 780.62 
1929 780.57 780.38 780.62 
1930 780.61 780.43 780.62 
1931 780.59 780.34 780.62 
1932 780.63 780.35 780.62 
1933 780.54 780.36 780.63 
1934 780.61 780.43 780.63 
1935 780.58 780.46 780.63 
1936 780.61 780.36 780.63 
1937 780.62 780.40 780.63 
1938 780.65 780.43 780.63 
1939 780.57 780.46 780.65 
1940 780.68 780.53 780.65 
1941 780.68 780.55 780.68 
1942 780.59 780.54 780.68 
1943 780.62 780.55 780.68 
1944 780.68 780.54 780.68 
1945 780.67 780.67 780.68 
1946 780.67 780.57 780.68 
1947 780.65 780.66 780.68 
1948 780.65 780.55 780.68 
1949 780.71 780.57 780.68 
1950 780.69 780.61 780.71 
1951 780.63 780.68 780.71 
1952 780.69 780.68 780.71 
1953 780.66 780.72 780.71 
1954 780.70 780.73 780.71 
1955 780.66 780.74 780.71 
1956 780.64 780.42 780.71 
1957 780.71 780.26 780.71 
1958 780.70 662.34 780.71 
1959 780.70 625.42 780.71 
1960 780.73 617.29 780.71 
1961 780.53 621.34 780.73 
1962 780.72 600.92 780.73 
1963 780.70 609.07 780.73 
1964 780.69 613.16 780.73 
1965 780.71 609.12 780.73 
1966 780.68 584.48 780.73 
1967 780.72 588.65 780.73 
1968 780.69 572.18 780.73 
1969 780.70 580.39 780.73 
1970 780.70 596.74 780.73 
1971 780.72 592.72 780.73 
1972 780.72 584.52 780.73 
1973 780.74 576.39 780.73 
1974 780.69 596.90 780.74 
1975 780.72 621.51 780.74 
1976 780.70 642.05 780.74 
1977 780.70 600.94 780.74 
1978 780.71 609.14 780.74 
1979 780.69 600.92 780.74 
1980 780.74 609.09 780.74 
1981 780.68 592.78 780.74 
1982 780.58 605.06 780.74 
1983 780.72 556.11 780.74 
1984 780.67 596.90 780.74 
1985 780.69 617.45 780.74 
1986 780.74 613.32 780.74 
1987 780.74 617.42 780.74 
1988 780.75 654.47 780.74 
1989 780.76 633.89 780.75 
1990 780.76 642.11 780.76 
1991 780.77 637.87 780.76 
1992 780.69 633.80 780.77 
1993 780.78 625.62 780.77 
1994 780.77 633.78 780.78 
1995 780.72 613.28 780.78 
1996 780.77 633.76 780.78 
1997 780.74 719.65 780.78 
1998 780.76 756.10 780.78 
1999 780.75 752.05 780.78 
2000 780.77 780.25 780.78 
2001 780.79 780.47 780.78 
2002 780.76 756.13 780.79 
2003 780.75 727.80 780.79 
2004 780.03 699.31 780.79 
2005 780.72 707.49 780.79 
2006 780.70 674.86 780.79 
2007 780.56 662.59 780.79 
2008 780.73 699.32 780.79 
2009 780.69 650.19 780.79 
2010 780.67 658.32 780.79 
2011 780.69 650.16 780.79 
2012 780.77 670.79 780.79 
2013 780.72 731.78 780.79 
2014 780.67 735.82 780.79 
2015 780.70 780.44 780.79 
2016 780.72 780.74 780.79 
2017 780.73 780.68 780.79 
2018 780.71 780.63 780.79 
2019 780.74 780.71 780.79 
2020 780.74 678.96 780.79 
2021 780.75 678.92 780.79 
2022 780.73 687.08 780.79 
2023 780.76 731.67 780.79 
2024 780.77 780.32 780.79 
2025 779.79 780.33 780.79 
2026 780.76 780.14 780.79 
2027 780.72 780.41 780.79 
2028 780.73 780.52 780.79 
2029 780.69 731.49 780.79 
2030 780.65 658.31 780.79 
2031 780.64 678.71 780.79 
2032 780.68 780.22 780.79 
2033 780.68 755.70 780.79 
2034 778.97 780.29 780.79 
2035 780.68 780.78 780.79 
2036 780.72 780.77 780.79 
2037 780.75 780.60 780.79 
2038 780.77 780.85 780.79 
2039 780.79 780.57 780.79 
2040 780.79 666.82 780.79 
2041 780.78 674.99 780.79 
2042 780.77 646.35 780.79 
2043 780.77 679.09 780.79 
2044 780.79 629.89 780.79 
2045 780.75 605.22 780.79 
2046 780.76 642.20 780.79 
2047 780.76 691.34 780.79 
2048 780.69 752.03 780.79 
2049 780.73 703.52 780.79 
2050 780.76 776.15 780.79 
2051 780.79 756.02 780.79 
2052 780.79 703.54 780.79 
2053 780.78 764.04 780.79 
2054 780.74 780.43 780.79 
2055 780.78 780.19 780.79 
2056 780.77 727.76 780.79 
2057 780.78 743.92 780.79 
2058 780.78 683.19 780.79 
2059 780.79 699.46 780.79 
2060 780.79 727.77 780.79 
2061 780.73 780.14 780.79 
2062 780.74 739.85 780.79 
2063 780.79 666.93 780.79 
2064 780.77 687.25 780.79 
2065 780.80 671.00 780.79 
2066 780.79 654.58 780.80 
2067 780.73 666.95 780.80 
2068 780.66 650.52 780.80 
2069 780.75 646.36 780.80 
2070 780.77 658.70 780.80 
2071 780.80 675.08 780.80 
2072 780.64 691.36 780.80 
2073 780.80 687.27 780.80 
2074 780.75 711.64 780.80 
2075 780.79 699.52 780.80 
2076 780.77 780.00 780.80 
2077 780.76 780.39 780.80 
2078 780.81 779.93 780.80 
2079 780.51 780.56 780.81 
2080 780.80 780.87 780.81 
2081 780.35 780.90 780.81 
2082 780.23 780.18 780.81 
2083 780.81 780.41 780.81 
2084 780.80 780.53 780.81 
2085 780.79 667.01 780.81 
2086 780.78 654.44 780.81 
2087 780.65 605.75 780.81 
2088 780.72 601.69 780.81 
2089 780.74 573.42 780.81 
2090 780.73 545.08 780.81 
2091 780.70 581.33 780.81 
2092 780.72 540.88 780.81 
2093 780.71 585.15 780.81 
2094 780.74 617.39 780.81 
2095 780.72 596.86 780.81 
2096 780.74 621.46 780.81 
2097 780.68 621.45 780.81 
2098 780.76 621.49 780.81 
2099 780.75 605.18 780.81 
2100 780.77 633.72 780.81 
2101 780.73 637.95 780.81 
2102 780.77 633.79 780.81 
2103 780.74 613.16 780.81 
2104 780.77 633.67 780.81 
2105 780.60 641.95 780.81 
2106 780.78 654.27 780.81 
2107 780.75 670.80 780.81 
2108 780.76 691.26 780.81 
2109 780.73 674.96 780.81 
2110 780.74 670.90 780.81 
2111 780.74 646.23 780.81 
2112 780.79 646.28 780.81 
2113 780.76 679.13 780.81 
2114 780.77 707.53 780.81 
2115 780.80 613.36 780.81 
2116 780.80 625.71 780.81 
2117 780.21 605.15 780.81 
2118 780.79 601.07 780.81 
2119 780.74 588.74 780.81 
2120 780.81 596.82 780.81 
2121 780.78 617.30 780.81 
2122 780.73 581.07 780.81 
2123 780.75 536.63 780.81 
2124 780.65 597.08 780.81 
2125 780.26 580.78 780.81 
2126 780.74 600.90 780.81 
2127 780.76 613.18 780.81 
2128 780.76 584.77 780.81 
2129 780.45 568.56 780.81 
2130 780.75 508.21 780.81 
2131 780.71 487.73 780.81 
2132 780.72 487.72 780.81 
2133 780.44 503.84 780.81 
2134 780.63 503.85 780.81 
2135 778.69 487.62 780.81 
2136 779.98 455.73 780.81 
2137 780.68 383.33 780.81 
2138 780.64 367.15 780.81 
2139 780.72 359.02 780.81 
2140 780.66 367.00 780.81 
2141 780.65 363.06 780.81 
2142 780.64 342.91 780.81 
2143 780.65 334.81 780.81 
2144 780.64 330.77 780.81 
2145 780.62 338.82 780.81 
2146 780.56 326.72 780.81 
2147 780.62 330.79 780.81 
2148 780.60 338.79 780.81 
2149 780.64 334.77 780.81 
2150 780.64 342.85 780.81 
2151 780.68 342.86 780.81 
2152 780.64 350.97 780.81 
2153 780.65 346.98 780.81 
2154 780.67 371.22 780.81 
2155 780.67 367.19 780.81 
2156 780.65 387.41 780.81 
2157 780.67 379.29 780.81 
2158 780.68 359.06 780.81 
2159 780.66 363.12 780.81 
2160 780.62 375.26 780.81 
2161 780.69 379.33 780.81 
2162 780.67 367.21 780.81 
2163 780.60 375.32 780.81 
2164 779.70 375.25 780.81 
2165 780.66 363.14 780.81 
2166 780.66 367.14 780.81 
2167 780.71 359.03 780.81 
2168 780.64 354.99 780.81 
2169 780.69 342.79 780.81 
2170 780.65 330.60 780.81 
2171 780.67 330.58 780.81 
2172 780.66 346.79 780.81 
2173 780.69 346.77 780.81 
2174 780.64 367.12 780.81 
2175 780.69 350.90 780.81 
2176 780.66 342.81 780.81 
2177 780.70 354.96 780.81 
2178 780.68 363.02 780.81 
2179 780.70 363.07 780.81 
2180 780.66 346.88 780.81 
2181 780.65 363.09 780.81 
2182 780.70 375.20 780.81 
2183 780.73 359.02 780.81 
2184 780.69 354.98 780.81 
2185 780.66 359.09 780.81 
2186 780.65 355.09 780.81 
2187 780.66 371.28 780.81 
2188 780.68 371.23 780.81 
2189 780.68 379.35 780.81 
2190 780.70 375.31 780.81 
2191 780.71 367.21 780.81 
2192 780.71 375.31 780.81 
2193 780.71 391.46 780.81 
2194 780.72 391.55 780.81 
2195 780.69 387.50 780.81 
2196 780.72 379.44 780.81 
2197 780.72 415.47 780.81 
2198 780.72 483.59 780.81 
2199 780.72 487.73 780.81 
2200 780.73 459.60 780.81 
2201 780.72 495.57 780.81 
2202 780.71 499.60 780.81 
2203 780.73 483.55 780.81 
2204 780.75 495.60 780.81 
2205 780.64 495.57 780.81 
2206 780.72 431.43 780.81 
2207 780.76 367.33 780.81 
2208 780.77 383.55 780.81 
2209 780.79 431.78 780.81 
2210 780.76 479.69 780.81 
2211 780.78 483.83 780.81 
2212 780.76 503.88 780.81 
2213 780.76 503.93 780.81 
2214 780.77 495.98 780.81 
2215 780.77 495.91 780.81 
2216 780.77 495.87 780.81 
2217 780.76 487.95 780.81 
2218 780.81 460.39 780.81 
2219 780.79 464.40 780.81 
2220 780.78 448.25 780.81 
2221 780.82 448.22 780.81 
2222 780.83 428.03 780.82 
2223 780.77 440.15 780.83 
2224 780.82 444.20 780.83 
2225 780.81 468.40 780.83 
2226 780.80 492.66 780.83 
2227 780.78 496.73 780.83 
2228 780.79 520.99 780.83 
2229 780.79 508.80 780.83 
2230 780.79 525.02 780.83 
2231 780.78 561.44 780.83 
2232 780.79 610.06 780.83 
2233 780.82 650.51 780.83 
2234 780.79 703.48 780.83 
2235 780.81 780.29 780.83 
2236 780.80 735.73 780.83 
2237 780.80 727.63 780.83 
2238 780.78 780.17 780.83 
2239 780.50 780.61 780.83 
2240 780.80 780.50 780.83 
2241 780.81 723.59 780.83 
2242 780.83 687.06 780.83 
2243 780.83 605.90 780.83 
2244 780.84 585.64 780.83 
2245 780.83 601.82 780.84 
2246 780.81 703.20 780.84 
2247 780.82 780.48 780.84 
2248 780.79 780.37 780.84 
2249 780.81 780.49 780.84 
2250 780.82 747.51 780.84 
2251 780.83 686.95 780.84 
2252 780.84 739.52 780.84 
2253 780.80 780.50 780.84 
2254 780.81 780.45 780.84 
2255 780.82 780.41 780.84 
2256 780.82 780.50 780.84 
2257 780.84 780.07 780.84 
2258 780.84 686.81 780.84 
2259 780.83 674.68 780.84 
2260 780.84 780.05 780.84 
2261 780.83 739.71 780.84 
2262 780.83 779.94 780.84 
2263 780.81 747.73 780.84 
2264 780.81 780.24 780.84 
2265 780.80 780.40 780.84 
2266 780.75 780.44 780.84 
2267 780.81 780.42 780.84 
2268 780.82 780.07 780.84 
2269 780.84 780.52 780.84 
2270 780.84 780.52 780.84 
2271 780.84 780.38 780.84 
2272 780.83 780.44 780.84 
2273 779.76 780.41 780.84 
2274 780.81 780.43 780.84 
2275 780.84 780.47 780.84 
2276 780.80 780.46 780.84 
2277 780.80 780.46 780.84 
2278 780.60 780.46 780.84 
2279 780.55 780.40 780.84 
2280 780.23 780.45 780.84 
2281 780.78 780.54 780.84 
2282 780.84 780.54 780.84 
2283 780.82 780.50 780.84 
2284 780.80 780.52 780.84 
2285 780.82 780.54 780.84 
2286 780.83 780.59 780.84 
2287 780.79 780.65 780.84 
2288 780.79 780.67 780.84 
2289 780.84 780.67 780.84 
2290 780.86 780.68 780.84 
2291 780.87 780.55 780.86 
2292 780.89 780.54 780.87 
2293 780.89 780.57 780.89 
2294 780.85 780.53 780.89 
2295 780.88 780.54 780.89 
2296 780.88 780.51 780.89 
2297 780.89 780.51 780.89 
2298 780.86 780.51 780.89 
2299 780.87 780.48 780.89 
2300 780.85 780.47 780.89 
2301 780.69 780.46 780.89 
2302 780.22 780.48 780.89 
2303 780.87 780.55 780.89 
2304 780.86 780.52 780.89 
2305 780.85 780.59 780.89 
2306 780.82 780.59 780.89 
2307 780.86 780.63 780.89 
2308 780.83 780.65 780.89 
2309 780.82 780.57 780.89 
2310 780.77 780.47 780.89 
2311 780.86 780.45 780.89 
2312 780.87 780.43 780.89 
2313 780.83 780.44 780.89 
2314 780.81 780.44 780.89 
2315 780.76 780.38 780.89 
2316 780.88 780.44 780.89 
2317 780.83 780.34 780.89 
2318 780.87 780.28 780.89 
2319 780.81 780.28 780.89 
2320 780.90 780.31 780.89 
2321 780.86 780.23 780.90 
2322 780.87 780.26 780.90 
2323 780.86 780.31 780.90 
2324 780.90 780.30 780.90 
2325 780.90 780.32 780.90 
2326 780.85 780.34 780.90 
2327 779.91 780.35 780.90 
2328 780.83 780.37 780.90 
2329 780.91 780.32 780.90 
2330 780.90 780.37 780.91 
2331 780.88 780.42 780.91 
2332 780.88 780.47 780.91 
2333 780.78 780.51 780.91 
2334 780.80 780.48 780.91 
2335 780.86 780.51 780.91 
2336 780.84 780.49 780.91 
2337 780.80 780.53 780.91 
2338 780.85 780.49 780.91 
2339 780.77 780.49 780.91 
2340 780.82 780.40 780.91 
2341 780.83 780.42 780.91 
2342 779.63 780.42 780.91 
2343 780.82 780.43 780.91 
2344 780.77 780.54 780.91 
2345 780.79 780.51 780.91 
2346 780.81 780.58 780.91 
2347 780.78 780.56 780.91 
2348 780.83 780.58 780.91 
2349 780.85 780.57 780.91 
2350 780.76 780.63 780.91 
2351 780.86 780.55 780.91 
2352 780.86 780.50 780.91 
2353 780.85 780.51 780.91 
2354 780.86 780.49 780.91 
2355 780.88 780.50 780.91 
2356 780.87 780.47 780.91 
2357 780.85 780.44 780.91 
2358 780.86 780.46 780.91 
2359 780.84 780.42 780.91 
2360 780.86 780.36 780.91 
2361 780.85 780.35 780.91 
2362 780.83 780.40 780.91 
2363 780.77 780.49 780.91 
2364 780.49 780.48 780.91 
2365 780.74 780.53 780.91 
2366 780.85 780.78 780.91 
2367 780.82 780.66 780.91 
2368 780.74 780.60 780.91 
2369 780.85 780.43 780.91 
2370 780.85 780.42 780.91 
2371 780.80 780.50 780.91 
2372 780.81 780.64 780.91 
2373 780.85 780.67 780.91 
2374 780.87 780.62 780.91 
2375 780.74 780.61 780.91 
2376 780.80 780.58 780.91 
2377 780.88 780.56 780.91 
2378 778.95 780.50 780.91 
2379 780.87 780.32 780.91 
2380 780.10 780.27 780.91 
2381 780.87 780.25 780.91 
2382 779.63 780.16 780.91 
2383 780.85 780.17 780.91 
2384 780.81 780.19 780.91 
2385 779.62 780.17 780.91 
2386 780.30 780.23 780.91 
2387 780.86 780.40 780.91 
2388 780.79 780.46 780.91 
2389 780.82 780.32 780.91 
2390 780.80 780.28 780.91 
2391 780.79 780.28 780.91 
2392 780.79 780.28 780.91 
2393 780.75 780.32 780.91 
2394 780.75 780.31 780.91 
2395 780.77 780.31 780.91 
2396 780.79 780.40 780.91 
2397 780.82 780.49 780.91 
2398 780.80 780.40 780.91 
2399 780.83 780.32 780.91 
2400 780.82 780.35 780.91 
2401 780.82 780.36 780.91 
2402 780.81 780.42 780.91 
2403 780.82 780.34 780.91 
2404 780.81 780.35 780.91 
2405 780.84 780.27 780.91 
2406 780.82 780.45 780.91 
2407 780.81 780.47 780.91 
2408 780.67 780.43 780.91 
2409 780.75 780.33 780.91 
2410 780.79 780.19 780.91 
2411 780.79 780.06 780.91 
2412 780.67 779.94 780.91 
2413 780.75 779.96 780.91 
2414 780.81 779.96 780.91 
2415 780.82 779.95 780.91 
2416 779.59 779.93 780.91 
2417 780.82 779.98 780.91 
2418 780.79 780.05 780.91 
2419 780.82 779.92 780.91 
2420 780.81 780.02 780.91 
2421 780.82 779.88 780.91 
2422 780.79 727.14 780.91 
2423 780.80 759.55 780.91 
2424 778.73 779.75 780.91 
2425 780.79 779.70 780.91 
2426 780.74 779.73 780.91 
2427 780.66 779.72 780.91 
2428 779.69 779.77 780.91 
2429 780.79 779.82 780.91 
2430 780.78 779.87 780.91 
2431 780.78 779.92 780.91 
2432 780.34 779.90 780.91 
2433 780.74 779.86 780.91 
2434 780.51 779.79 780.91 
2435 780.72 735.49 780.91 
2436 777.87 743.52 780.91 
2437 780.70 747.52 780.91 
2438 780.61 735.41 780.91 
2439 780.62 719.19 780.91 
2440 780.64 731.45 780.91 
2441 780.71 779.97 780.91 
2442 780.66 780.07 780.91 
2443 780.67 780.14 780.91 
2444 780.63 780.12 780.91 
2445 780.66 780.12 780.91 
2446 780.65 780.16 780.91 
2447 780.62 780.17 780.91 
2448 780.07 780.12 780.91 
2449 780.69 780.03 780.91 
2450 780.66 780.00 780.91 
2451 780.72 686.87 780.91 
2452 780.72 666.56 780.91 
2453 780.74 634.03 780.91 
2454 780.73 565.08 780.91 
2455 780.77 593.44 780.91 
2456 780.74 690.77 780.91 
2457 780.72 666.54 780.91 
2458 780.76 715.32 780.91 
2459 780.74 731.68 780.91 
2460 780.73 723.60 780.91 
2461 780.77 763.99 780.91 
2462 780.78 780.15 780.91 
2463 780.68 780.06 780.91 
2464 780.79 780.13 780.91 
2465 780.69 780.15 780.91 
2466 780.76 780.01 780.91 
2467 780.73 779.92 780.91 
2468 780.77 779.84 780.91 
2469 780.74 779.81 780.91 
2470 780.75 779.71 780.91 
2471 780.74 779.74 780.91 
2472 780.74 779.82 780.91 
2473 780.74 780.00 780.91 
2474 780.77 780.16 780.91 
2475 780.79 779.90 780.91 
2476 780.68 771.72 780.91 
2477 780.72 747.58 780.91 
2478 780.78 779.78 780.91 
2479 780.78 779.92 780.91 
2480 780.48 779.95 780.91 
2481 780.76 779.93 780.91 
2482 780.77 780.04 780.91 
2483 780.78 779.87 780.91 
2484 780.58 779.92 780.91 
2485 779.05 780.02 780.91 
2486 780.77 780.20 780.91 
2487 780.74 780.34 780.91 
2488 780.75 780.44 780.91 
2489 780.70 780.49 780.91 
2490 780.72 780.46 780.91 
2491 780.75 780.38 780.91 
2492 780.75 780.32 780.91 
2493 780.75 780.21 780.91 
2494 780.76 780.25 780.91 
2495 780.76 735.55 780.91 
2496 780.78 739.56 780.91 
2497 780.70 767.94 780.91 
2498 779.13 780.16 780.91 
2499 780.15 755.86 780.91 
2500 780.72 690.91 780.91 
2501 780.75 658.46 780.91 
2502 780.68 622.02 780.91 
2503 780.76 589.50 780.91 
2504 780.76 618.10 780.91 
2505 780.75 609.93 780.91 
2506 780.76 540.97 780.91 
2507 780.77 512.45 780.91 
2508 780.79 561.31 780.91 
2509 780.77 561.11 780.91 
2510 780.79 532.64 780.91 
2511 780.77 552.97 780.91 
2512 780.77 500.14 780.91 
2513 780.75 492.02 780.91 
2514 780.73 451.44 780.91 
2515 780.75 447.40 780.91 
2516 780.75 471.80 780.91 
2517 780.75 479.86 780.91 
2518 780.80 451.51 780.91 
2519 780.81 443.47 780.91 
2520 780.76 492.15 780.91 
2521 780.81 471.97 780.91 
2522 780.80 467.92 780.91 
2523 780.83 496.36 780.91 
2524 780.80 496.39 780.91 
2525 780.82 512.66 780.91 
2526 780.83 508.63 780.91 
2527 780.77 516.71 780.91 
2528 780.84 504.67 780.91 
2529 780.82 516.87 780.91 
2530 780.84 480.39 780.91 
2531 780.84 452.07 780.91 
2532 780.82 472.33 780.91 
2533 780.85 504.70 780.91 
2534 780.82 512.84 780.91 
2535 780.76 541.18 780.91 
2536 780.85 512.82 780.91 
2537 780.85 516.80 780.91 
2538 780.83 545.08 780.91 
2539 780.85 528.89 780.91 
2540 780.81 561.32 780.91 
2541 780.84 581.60 780.91 
2542 780.83 561.38 780.91 
2543 779.58 630.24 780.91 
2544 780.84 695.03 780.91 
2545 780.84 589.74 780.91 
2546 779.03 557.37 780.91 
2547 780.78 524.94 780.91 
2548 780.83 504.68 780.91 
2549 780.81 472.11 780.91 
2550 780.82 569.40 780.91 
2551 780.77 622.17 780.91 
2552 780.79 561.44 780.91 
2553 780.76 520.85 780.91 
2554 780.68 435.66 780.91 
2555 780.75 382.88 780.91 
2556 780.73 382.90 780.91 
2557 780.72 366.70 780.91 
2558 780.71 374.76 780.91 
2559 780.75 362.52 780.91 
2560 780.73 370.61 780.91 
2561 780.65 366.63 780.91 
2562 780.76 378.89 780.91 
2563 780.76 378.81 780.91 
2564 780.75 362.60 780.91 
2565 780.75 350.49 780.91 
2566 780.73 362.62 780.91 
2567 780.70 354.35 780.91 
2568 780.70 346.23 780.91 
2569 780.64 330.03 780.91 
2570 780.76 321.91 780.91 
2571 780.73 350.25 780.91 
2572 780.78 358.42 780.91 
2573 780.81 350.44 780.91 
2574 780.80 350.42 780.91 
2575 780.82 358.40 780.91 
2576 780.78 374.73 780.91 
2577 780.81 390.94 780.91 
2578 780.85 394.99 780.91 
2579 780.86 395.03 780.91 
2580 780.85 390.99 780.91 
2581 780.81 391.04 780.91 
2582 780.80 395.16 780.91 
2583 780.86 387.07 780.91 
2584 780.77 383.01 780.91 
2585 780.80 399.26 780.91 
2586 780.84 399.23 780.91 
2587 780.82 379.02 780.91 
2588 780.80 379.10 780.91 
2589 780.66 395.21 780.91 
2590 780.78 399.25 780.91 
2591 780.77 399.33 780.91 
2592 780.87 379.08 780.91 
2593 780.85 379.08 780.91 
2594 780.89 395.27 780.91 
2595 780.83 403.40 780.91 
2596 780.87 407.48 780.91 
2597 779.51 395.32 780.91 
2598 780.86 387.27 780.91 
2599 780.83 379.09 780.91 
2600 780.86 383.12 780.91 
2601 780.83 383.07 780.91 
2602 780.84 366.90 780.91 
2603 780.78 358.84 780.91 
2604 780.81 358.90 780.91 
2605 780.83 375.04 780.91 
2606 780.80 375.06 780.91 
2607 778.48 383.20 780.91 
2608 780.79 379.18 780.91 
2609 780.76 375.09 780.91 
2610 780.83 383.18 780.91 
2611 780.84 427.76 780.91 
2612 780.78 419.63 780.91 
2613 780.77 431.81 780.91 
2614 780.82 427.67 780.91 
2615 780.77 439.78 780.91 
2616 780.84 452.05 780.91 
2617 780.78 468.25 780.91 
2618 780.45 423.75 780.91 
2619 780.85 427.73 780.91 
2620 778.64 427.73 780.91 
2621 780.79 403.42 780.91 
2622 780.80 403.42 780.91 
2623 780.85 399.37 780.91 
2624 780.74 399.42 780.91 
2625 780.72 395.39 780.91 
2626 780.75 387.37 780.91 
2627 780.74 395.45 780.91 
2628 780.74 387.30 780.91 
2629 780.70 379.15 780.91 
2630 780.79 383.27 780.91 
2631 780.75 391.39 780.91 
2632 780.80 391.33 780.91 
2633 780.79 395.18 780.91 
2634 780.85 395.22 780.91 
2635 780.80 391.13 780.91 
2636 780.80 378.84 780.91 
2637 780.76 387.03 780.91 
2638 780.84 383.08 780.91 
2639 780.86 383.01 780.91 
2640 780.84 386.97 780.91 
2641 780.84 395.07 780.91 
2642 780.84 407.38 780.91 
2643 780.26 411.36 780.91 
2644 780.77 411.38 780.91 
2645 780.72 407.24 780.91 
2646 780.80 399.09 780.91 
2647 780.82 407.24 780.91 
2648 780.84 415.26 780.91 
2649 780.84 395.06 780.91 
2650 778.76 378.85 780.91 
2651 778.50 374.73 780.91 
2652 780.79 382.73 780.91 
2653 780.80 374.70 780.91 
2654 780.75 374.71 780.91 
2655 780.69 362.55 780.91 
2656 780.68 374.77 780.91 
2657 780.74 370.75 780.91 
2658 780.74 382.93 780.91 
2659 780.77 382.99 780.91 
2660 780.80 391.03 780.91 
2661 780.78 403.22 780.91 
2662 780.76 399.23 780.91 
2663 780.78 411.38 780.91 
2664 780.79 431.64 780.91 
2665 780.80 419.55 780.91 
2666 780.81 443.70 780.91 
2667 780.43 463.84 780.91 
2668 780.82 480.00 780.91 
2669 780.79 569.53 780.91 
2670 779.20 537.01 780.91 
2671 778.13 549.29 780.91 
2672 780.78 544.71 780.91 
2673 778.25 552.67 780.91 
2674 780.81 500.21 780.91 
2675 780.68 504.14 780.91 
2676 780.77 516.18 780.91 
2677 777.74 463.69 780.91 
2678 780.79 439.59 780.91 
2679 780.78 467.90 780.91 
2680 780.78 431.57 780.91 
2681 780.77 415.47 780.91 
2682 780.81 435.66 780.91 
2683 780.79 427.66 780.91 
2684 780.80 427.67 780.91 
2685 780.82 427.65 780.91 
2686 780.78 431.77 780.91 
2687 780.77 443.87 780.91 
2688 780.79 464.06 780.91 
2689 780.75 500.44 780.91 
2690 780.80 484.24 780.91 
2691 780.83 468.08 780.91 
2692 780.80 476.18 780.91 
2693 780.76 492.41 780.91 
2694 780.83 508.53 780.91 
2695 780.83 557.02 780.91 
2696 779.47 540.81 780.91 
2697 780.81 451.92 780.91 
2698 780.82 472.19 780.91 
2699 778.92 464.15 780.91 
2700 780.84 439.92 780.91 
2701 780.84 439.93 780.91 
2702 780.76 435.88 780.91 
2703 780.81 448.08 780.91 
2704 780.84 444.09 780.91 
2705 780.82 500.31 780.91 
2706 780.81 467.92 780.91 
2707 780.82 476.06 780.91 
2708 780.81 500.21 780.91 
2709 780.85 512.36 780.91 
2710 780.81 512.38 780.91 
2711 780.84 536.58 780.91 
2712 780.85 544.67 780.91 
2713 780.85 560.84 780.91 
2714 780.84 548.75 780.91 
2715 780.79 548.82 780.91 
2716 780.75 565.01 780.91 
2717 780.57 544.96 780.91 
2718 780.84 540.92 780.91 
2719 780.82 556.99 780.91 
2720 780.81 561.04 780.91 
2721 780.81 540.85 780.91 
2722 780.77 557.09 780.91 
2723 780.75 649.96 780.91 
2724 780.83 578.13 780.91 
2725 780.69 609.58 780.91 
2726 780.80 617.67 780.91 
2727 780.81 565.22 780.91 
2728 779.69 646.65 780.91 
2729 780.80 532.97 780.91 
2730 780.79 553.05 780.91 
2731 780.82 536.87 780.91 
2732 780.80 557.05 780.91 
2733 780.80 590.09 780.91 
2734 780.80 545.04 780.91 
2735 780.83 605.62 780.91 
2736 778.15 561.60 780.91 
2737 780.79 544.86 780.91 
2738 780.80 581.23 780.91 
2739 780.80 520.78 780.91 
2740 780.79 516.73 780.91 
2741 780.79 512.67 780.91 
2742 780.79 496.48 780.91 
2743 779.49 432.06 780.91 
2744 780.74 415.82 780.91 
2745 780.74 444.15 780.91 
2746 780.74 456.29 780.91 
2747 780.74 456.31 780.91 
2748 780.73 472.52 780.91 
2749 780.70 472.47 780.91 
2750 780.67 496.44 780.91 
2751 780.68 500.53 780.91 
2752 780.70 488.43 780.91 
2753 780.71 504.62 780.91 
2754 780.14 516.49 780.91 
2755 780.69 492.31 780.91 
2756 780.70 468.39 780.91 
2757 780.73 480.31 780.91 
2758 779.97 460.27 780.91 
2759 780.66 472.29 780.91 
2760 780.66 448.15 780.91 
2761 780.68 452.14 780.91 
2762 780.72 464.27 780.91 
2763 780.71 448.10 780.91 
2764 780.76 448.09 780.91 
2765 780.75 480.28 780.91 
2766 780.76 520.50 780.91 
2767 780.76 492.37 780.91 
2768 780.79 520.46 780.91 
2769 780.79 512.48 780.91 
2770 780.79 524.57 780.91 
2771 780.53 480.30 780.91 
2772 780.79 492.43 780.91 
2773 780.79 528.64 780.91 
2774 780.79 564.96 780.91 
2775 778.91 552.84 780.91 
2776 780.80 520.40 780.91 
2777 780.79 496.13 780.91 
2778 780.77 504.18 780.91 
2779 780.73 536.49 780.91 
2780 780.67 536.48 780.91 
2781 780.65 524.38 780.91 
2782 780.60 568.62 780.91 
2783 780.60 556.67 780.91 
2784 780.53 540.48 780.91 
2785 780.61 564.75 780.91 
2786 780.71 593.13 780.91 
2787 780.67 568.99 780.91 
2788 780.65 560.96 780.91 
2789 780.21 556.91 780.91 
2790 780.64 468.11 780.91 
2791 780.54 476.12 780.91 
2792 780.72 472.02 780.91 
2793 780.70 443.72 780.91 
2794 780.69 463.90 780.91 
2795 780.72 435.61 780.91 
2796 780.73 435.55 780.91 
2797 780.76 415.46 780.91 
2798 780.39 383.23 780.91 
2799 780.74 375.04 780.91 
2800 780.72 383.20 780.91 
2801 780.75 387.25 780.91 
2802 780.73 379.18 780.91 
2803 780.73 399.41 780.91 
2804 780.73 379.19 780.91 
2805 780.26 387.29 780.91 
2806 780.73 399.40 780.91 
2807 780.74 395.41 780.91 
2808 780.72 371.14 780.91 
2809 780.70 379.24 780.91 
2810 780.67 407.56 780.91 
2811 780.71 411.60 780.91 
2812 780.68 411.64 780.91 
2813 780.70 419.66 780.91 
2814 780.73 411.54 780.91 
2815 780.75 431.77 780.91 
2816 780.73 451.94 780.91 
2817 780.72 451.98 780.91 
2818 780.77 480.35 780.91 
2819 780.38 488.56 780.91 
2820 780.76 484.53 780.91 
2821 780.77 492.63 780.91 
2822 780.76 549.31 780.91 
2823 780.76 545.32 780.91 
2824 779.75 541.27 780.91 
2825 779.14 488.58 780.91 
2826 780.70 480.45 780.91 
2827 778.99 496.71 780.91 
2828 780.73 504.79 780.91 
2829 780.74 476.37 780.91 
2830 780.72 480.40 780.91 
2831 780.73 488.51 780.91 
2832 780.43 476.31 780.91 
2833 780.68 476.37 780.91 
2834 779.80 447.98 780.91 
2835 779.67 447.95 780.91 
2836 780.71 460.14 780.91 
2837 780.62 484.46 780.91 
2838 780.73 484.43 780.91 
2839 780.72 541.22 780.91 
2840 780.70 569.54 780.91 
2841 780.72 569.59 780.91 
2842 780.73 610.02 780.91 
2843 780.60 626.17 780.91 
2844 780.74 609.93 780.91 
2845 779.76 610.00 780.91 
2846 780.75 500.63 780.91 
2847 780.75 533.05 780.91 
2848 780.75 533.01 780.91 
2849 780.69 561.36 780.91 
2850 780.40 512.74 780.91 
2851 780.76 528.95 780.91 
2852 780.75 504.71 780.91 
2853 780.75 516.88 780.91 
2854 780.26 525.01 780.91 
2855 780.73 529.15 780.91 
2856 780.76 533.11 780.91 
2857 780.74 561.47 780.91 
2858 780.71 569.58 780.91 
2859 780.74 553.33 780.91 
2860 780.78 545.27 780.91 
2861 779.90 537.07 780.91 
2862 780.73 480.40 780.91 
2863 780.75 512.84 780.91 
2864 780.73 492.64 780.91 
2865 780.68 508.88 780.91 
2866 780.70 521.01 780.91 
2867 780.76 521.11 780.91 
2868 780.74 496.75 780.91 
2869 780.73 492.69 780.91 
2870 780.76 484.59 780.91 
2871 780.76 480.49 780.91 
2872 780.76 512.90 780.91 
2873 780.79 500.66 780.91 
2874 780.78 496.61 780.91 
2875 780.75 504.76 780.91 
2876 779.39 508.76 780.91 
2877 780.76 504.70 780.91 
2878 780.75 516.81 780.91 
2879 780.77 537.13 780.91 
2880 780.80 492.54 780.91 
2881 780.77 488.36 780.91 
2882 780.78 484.33 780.91 
2883 780.77 496.46 780.91 
2884 780.76 524.92 780.91 
2885 780.80 557.42 780.91 
2886 780.77 561.47 780.91 
2887 779.05 569.59 780.91 
2888 780.48 549.32 780.91 
2889 780.81 533.21 780.91 
2890 780.79 525.06 780.91 
2891 780.73 521.00 780.91 
2892 780.76 549.33 780.91 
2893 779.98 557.52 780.91 
2894 780.77 549.42 780.91 
2895 780.77 529.12 780.91 
2896 780.75 549.42 780.91 
2897 780.77 537.27 780.91 
2898 780.75 533.17 780.91 
2899 780.78 585.73 780.91 
2900 780.76 610.09 780.91 
2901 780.75 585.75 780.91 
2902 780.75 618.16 780.91 
2903 780.77 593.86 780.91 
2904 779.62 569.60 780.91 
2905 780.78 569.59 780.91 
2906 780.74 557.43 780.91 
2907 780.78 557.37 780.91 
2908 780.73 516.84 780.91 
2909 780.76 508.75 780.91 
2910 780.79 537.15 780.91 
2911 780.77 585.70 780.91 
2912 780.76 597.83 780.91 
2913 780.65 630.22 780.91 
2914 780.77 609.99 780.91 
2915 780.78 634.28 780.91 
2916 780.76 690.88 780.91 
2917 780.77 674.66 780.91 
2918 780.67 670.69 780.91 
2919 780.65 682.84 780.91 
2920 780.55 699.04 780.91 
2921 780.81 747.66 780.91 
2922 780.74 771.92 780.91 
2923 780.78 759.79 780.91 
2924 780.78 771.88 780.91 
2925 780.61 779.95 780.91 
2926 780.75 780.02 780.91 
2927 780.80 780.07 780.91 
2928 780.76 780.00 780.91 
2929 780.75 779.91 780.91 
2930 780.76 780.05 780.91 
2931 780.82 780.09 780.91 
2932 780.78 780.04 780.91 
2933 780.83 780.12 780.91 
2934 780.86 780.09 780.91 
2935 780.83 779.99 780.91 
2936 780.85 780.12 780.91 
2937 780.80 780.13 780.91 
2938 780.82 780.18 780.91 
2939 780.84 780.11 780.91 
2940 780.84 780.11 780.91 
2941 780.83 768.00 780.91 
2942 780.88 743.86 780.91 
2943 780.84 776.08 780.91 
2944 780.77 723.60 780.91 
2945 780.85 707.29 780.91 
2946 780.86 654.55 780.91 
2947 780.86 597.80 780.91 
2948 780.83 573.46 780.91 
2949 780.86 585.64 780.91 
2950 780.86 577.53 780.91 
2951 780.75 618.16 780.91 
2952 780.81 703.12 780.91 
2953 780.81 686.98 780.91 
2954 780.78 638.24 780.91 
2955 780.80 650.34 780.91 
2956 780.80 613.78 780.91 
2957 779.46 613.83 780.91 
2958 780.65 557.12 780.91 
2959 780.81 549.05 780.91 
2960 778.38 545.04 780.91 
2961 780.79 528.93 780.91 
2962 780.79 553.26 780.91 
2963 780.79 512.73 780.91 
2964 780.76 512.72 780.91 
2965 780.76 545.20 780.91 
2966 780.75 528.97 780.91 
2967 780.74 553.35 780.91 
2968 780.72 525.03 780.91 
2969 780.76 512.83 780.91 
2970 780.76 553.35 780.91 
2971 780.67 581.73 780.91 
2972 780.71 545.29 780.91 
2973 780.75 561.44 780.91 
2974 780.78 541.18 780.91 
2975 778.24 524.95 780.91 
2976 780.79 500.69 780.91 
2977 780.80 525.01 780.91 
2978 780.80 561.46 780.91 
2979 780.72 565.52 780.91 
2980 780.74 569.51 780.91 
2981 780.71 581.66 780.91 
2982 780.76 565.45 780.91 
2983 780.69 569.53 780.91 
2984 780.74 565.49 780.91 
2985 780.75 529.02 780.91 
2986 780.77 565.43 780.91 
2987 780.49 581.59 780.91 
2988 780.72 565.43 780.91 
2989 780.70 605.91 780.91 
2990 780.71 549.28 780.91 
2991 780.75 589.73 780.91 
2992 780.72 573.52 780.91 
2993 780.77 605.88 780.91 
2994 780.75 609.96 780.91 
2995 780.73 601.79 780.91 
2996 780.76 622.10 780.91 
2997 780.74 642.27 780.91 
2998 780.79 702.95 780.91 
2999 780.76 638.32 780.91 
3000 780.80 678.74 780.91 
3001 780.78 699.07 780.91 
3002 780.82 694.94 780.91 
3003 780.67 678.71 780.91 
3004 779.12 670.65 780.91 
3005 780.79 614.01 780.91 
3006 780.78 618.07 780.91 
3007 780.80 569.42 780.91 
3008 780.85 524.86 780.91 
3009 780.82 553.25 780.91 
3010 780.82 557.34 780.91 
3011 780.83 553.31 780.91 
3012 780.81 541.12 780.91 
3013 780.86 569.49 780.91 
3014 780.85 537.16 780.91 
3015 780.76 520.92 780.91 
3016 780.84 516.86 780.91 
3017 780.86 520.90 780.91 
3018 780.84 524.92 780.91 
3019 780.74 528.98 780.91 
3020 780.83 545.12 780.91 
3021 780.86 565.42 780.91 
3022 780.87 573.55 780.91 
3023 780.88 553.28 780.91 
3024 780.77 561.45 780.91 
3025 780.85 601.81 780.91 
3026 780.86 682.84 780.91 
3027 780.71 606.58 780.91 
3028 780.81 674.77 780.91 
3029 780.62 674.81 780.91 
3030 780.86 674.80 780.91 
3031 780.73 779.06 780.91 
3032 779.97 779.26 780.91 
3033 777.28 779.57 780.91 
3034 780.87 779.65 780.91 
3035 780.45 654.66 780.91 
3036 780.88 678.97 780.91 
3037 780.85 682.95 780.91 
3038 780.85 682.97 780.91 
3039 780.85 674.88 780.91 
3040 780.73 695.12 780.91 
3041 780.30 695.22 780.91 
3042 780.80 691.00 780.91 
3043 780.83 707.36 780.91 
3044 780.82 715.43 780.91 
3045 780.82 695.22 780.91 
3046 780.81 658.79 780.91 
3047 780.80 654.69 780.91 
3048 780.79 634.41 780.91 
3049 780.80 662.72 780.91 
3050 780.85 675.02 780.91 
3051 780.81 646.70 780.91 
3052 780.80 634.54 780.91 
3053 780.71 779.77 780.91 
3054 780.75 779.74 780.91 
3055 780.77 626.42 780.91 
3056 780.79 614.22 780.91 
3057 780.80 581.78 780.91 
3058 780.85 606.04 780.91 
3059 780.79 626.28 780.91 
3060 780.84 638.49 780.91 
3061 780.84 682.94 780.91 
3062 780.81 674.80 780.91 
3063 780.82 658.66 780.91 
3064 780.85 642.42 780.91 
3065 780.84 658.53 780.91 
3066 780.78 642.42 780.91 
3067 780.79 622.16 780.91 
3068 780.86 666.65 780.91 
3069 780.89 699.33 780.91 
3070 780.86 687.08 780.91 
3071 780.90 687.08 780.91 
3072 779.83 699.34 780.91 
3073 780.92 695.26 780.91 
3074 780.88 727.78 780.92 
3075 780.79 723.72 780.92 
3076 780.88 735.87 780.92 
3077 780.78 752.03 780.92 
3078 780.78 768.11 780.92 
3079 780.83 776.12 780.92 
3080 780.86 752.00 780.92 
3081 780.84 743.89 780.92 
3082 780.82 771.96 780.92 
3083 780.83 747.86 780.92 
3084 780.84 731.73 780.92 
3085 780.87 743.84 780.92 
3086 780.85 719.64 780.92 
3087 780.86 723.65 780.92 
3088 780.86 743.84 780.92 
3089 780.84 731.75 780.92 
3090 780.77 723.68 780.92 
3091 780.87 707.53 780.92 
3092 780.83 711.57 780.92 
3093 780.86 707.52 780.92 
3094 780.85 719.72 780.92 
3095 780.89 727.80 780.92 
3096 780.91 715.66 780.92 
3097 780.90 731.85 780.92 
3098 780.88 768.19 780.92 
3099 780.92 752.08 780.92 
3100 780.94 760.12 780.92 
3101 780.92 748.06 780.94 
3102 780.59 743.99 780.94 
3103 780.93 735.93 780.94 
3104 780.88 756.07 780.94 
3105 780.80 752.06 780.94 
3106 780.91 743.99 780.94 
3107 780.92 764.12 780.94 
3108 780.66 772.08 780.94 
3109 780.92 764.04 780.94 
3110 780.92 747.96 780.94 
3111 780.91 723.76 780.94 
3112 780.91 727.79 780.94 
3113 780.93 735.87 780.94 
3114 780.91 747.93 780.94 
3115 780.90 772.06 780.94 
3116 780.92 772.04 780.94 
3117 780.91 768.05 780.94 
3118 780.91 743.97 780.94 
3119 780.93 723.83 780.94 
3120 780.92 735.88 780.94 
3121 780.90 735.84 780.94 
3122 780.91 707.56 780.94 
3123 780.91 707.52 780.94 
3124 780.92 711.59 780.94 
3125 780.92 735.83 780.94 
3126 780.93 727.74 780.94 
3127 780.92 780.17 780.94 
3128 780.92 780.20 780.94 
3129 780.93 780.20 780.94 
3130 780.94 780.18 780.94 
3131 780.92 780.08 780.94 
3132 780.94 780.04 780.94 
3133 780.94 780.07 780.94 
3134 780.93 780.15 780.94 
3135 780.94 780.12 780.94 
3136 780.92 780.09 780.94 
3137 780.93 780.09 780.94 
3138 780.93 780.04 780.94 
3139 780.92 780.08 780.94 
3140 780.89 780.17 780.94 
3141 780.78 780.05 780.94 
3142 780.89 780.12 780.94 
3143 780.89 780.10 780.94 
3144 780.90 780.09 780.94 
3145 780.91 776.01 780.94 
3146 780.93 759.97 780.94 
3147 780.94 764.01 780.94 
3148 780.92 755.95 780.94 
3149 780.92 719.50 780.94 
3150 780.93 691.01 780.94 
3151 780.89 711.38 780.94 
3152 780.67 678.90 780.94 
3153 780.94 686.87 780.94 
3154 780.94 719.43 780.94 
3155 780.91 723.44 780.94 
3156 780.93 715.36 780.94 
3157 780.93 703.14 780.94 
3158 780.92 719.34 780.94 
3159 780.87 739.62 780.94 
3160 780.90 759.86 780.94 
3161 780.91 711.43 780.94 
3162 780.94 723.54 780.94 
3163 780.95 751.84 780.94 
3164 780.95 747.80 780.95 
3165 780.93 743.76 780.95 
3166 780.96 751.87 780.95 
3167 780.95 759.87 780.96 
3168 780.92 780.06 780.96 
3169 780.94 780.02 780.96 
3170 780.60 780.02 780.96 
3171 780.64 779.99 780.96 
3172 780.90 780.01 780.96 
3173 780.59 763.88 780.96 
3174 780.91 755.80 780.96 
3175 780.92 763.80 780.96 
3176 780.92 759.74 780.96 
3177 780.80 759.70 780.96 
3178 780.91 723.43 780.96 
3179 780.88 739.59 780.96 
3180 780.91 763.87 780.96 
3181 780.90 779.98 780.96 
3182 780.92 779.96 780.96 
3183 780.91 779.95 780.96 
3184 780.92 779.98 780.96 
3185 780.90 775.96 780.96 
3186 780.93 747.79 780.96 
3187 780.92 767.97 780.96 
3188 780.73 768.00 780.96 
3189 780.90 723.56 780.96 
3190 780.95 699.25 780.96 
3191 780.92 711.44 780.96 
3192 780.93 691.19 780.96 
3193 780.92 687.15 780.96 
3194 780.91 687.12 780.96 
3195 780.92 687.08 780.96 
3196 780.94 683.03 780.96 
3197 780.92 687.14 780.96 
3198 780.94 683.04 780.96 
3199 780.96 703.37 780.96 
3200 780.95 731.68 780.96 
3201 780.91 719.60 780.96 
3202 780.92 699.36 780.96 
3203 780.95 695.32 780.96 
3204 780.91 687.10 780.96 
3205 780.94 683.07 780.96 
3206 780.93 687.14 780.96 
3207 780.96 687.16 780.96 
3208 780.97 703.40 780.96 
3209 780.95 719.62 780.97 
3210 780.94 703.46 780.97 
3211 780.94 707.49 780.97 
3212 780.95 707.48 780.97 
3213 780.93 707.47 780.97 
3214 780.90 715.58 780.97 
3215 780.95 735.77 780.97 
3216 780.94 739.84 780.97 
3217 780.96 727.74 780.97 
3218 780.94 747.90 780.97 
3219 780.95 780.16 780.97 
3220 780.95 772.09 780.97 
3221 780.96 780.25 780.97 
3222 780.94 780.25 780.97 
3223 780.95 780.14 780.97 
3224 780.97 780.27 780.97 
3225 780.97 780.31 780.97 
3226 780.96 780.25 780.97 
3227 780.92 780.25 780.97 
3228 780.97 780.26 780.97 
3229 780.98 780.32 780.97 
3230 780.96 780.34 780.98 
3231 780.99 780.36 780.98 
3232 781.00 780.28 780.99 
3233 780.99 780.41 781.00 
3234 780.98 752.13 781.00 
3235 780.99 752.10 781.00 
3236 780.98 740.00 781.00 
3237 780.95 752.13 781.00 
3238 780.98 760.21 781.00 
3239 780.98 776.36 781.00 
3240 781.01 780.44 781.00 
3241 781.00 768.31 781.01 
3242 780.94 772.35 781.01 
3243 781.01 760.26 781.01 
3244 781.00 752.21 781.01 
3245 781.00 731.95 781.01 
3246 780.99 723.87 781.01 
3247 781.00 703.49 781.01 
3248 781.00 703.55 781.01 
3249 781.01 695.33 781.01 
3250 781.02 715.71 781.01 
3251 781.02 699.41 781.02 
3252 781.02 711.64 781.02 
3253 781.02 707.60 781.02 
3254 780.96 731.95 781.02 
3255 781.00 780.53 781.02 
3256 781.02 780.54 781.02 
3257 781.03 760.25 781.02 
3258 781.03 772.35 781.03 
3259 780.99 776.37 781.03 
3260 781.00 780.59 781.03 
3261 780.83 780.62 781.03 
3262 781.02 780.60 781.03 
3263 780.99 780.53 781.03 
3264 780.98 780.44 781.03 
3265 780.99 735.95 781.03 
3266 781.03 727.89 781.03 
3267 780.96 707.58 781.03 
3268 781.01 719.72 781.03 
3269 780.98 707.53 781.03 
3270 781.01 715.72 781.03 
3271 781.02 752.20 781.03 
3272 780.99 740.11 781.03 
3273 781.04 744.10 781.03 
3274 781.02 752.20 781.04 
3275 781.02 740.10 781.04 
3276 781.02 764.39 781.04 
3277 781.01 776.49 781.04 
3278 781.03 740.11 781.04 
3279 781.03 707.59 781.04 
3280 781.03 683.14 781.04 
3281 780.86 687.24 781.04 
3282 781.04 695.35 781.04 
3283 781.04 695.42 781.04 
3284 780.98 707.63 781.04 
3285 781.02 695.40 781.04 
3286 781.04 675.02 781.04 
3287 781.04 666.90 781.04 
3288 781.04 679.16 781.04 
3289 781.04 662.87 781.04 
3290 781.03 654.68 781.04 
3291 781.04 687.34 781.04 
3292 781.05 683.26 781.04 
3293 781.05 691.41 781.05 
3294 781.04 687.43 781.05 
3295 781.03 687.38 781.05 
3296 781.03 707.75 781.05 
3297 781.02 756.39 781.05 
3298 781.02 703.68 781.05 
3299 781.03 715.88 781.05 
3300 781.03 719.89 781.05 
3301 781.05 740.14 781.05 
3302 780.98 776.55 781.05 
3303 781.02 768.47 781.05 
3304 781.05 752.30 781.05 
3305 781.04 748.24 781.05 
3306 781.04 748.26 781.05 
3307 781.03 744.22 781.05 
3308 781.04 752.25 781.05 
3309 780.95 768.42 781.05 
3310 780.89 768.39 781.05 
3311 781.04 731.99 781.05 
3312 781.04 768.42 781.05 
3313 781.05 756.26 781.05 
3314 781.05 764.35 781.05 
3315 781.05 776.48 781.05 
3316 781.07 760.33 781.05 
3317 781.04 744.11 781.07 
3318 781.02 752.21 781.07 
3319 781.03 748.18 781.07 
3320 781.04 740.05 781.07 
3321 781.04 768.35 781.07 
3322 781.05 768.41 781.07 
3323 781.03 780.70 781.07 
3324 781.05 780.72 781.07 
3325 781.03 760.39 781.07 
3326 781.05 780.72 781.07 
3327 780.80 780.80 781.07 
3328 781.03 780.64 781.07 
3329 781.05 780.70 781.07 
3330 781.06 780.69 781.07 
3331 780.76 780.76 781.07 
3332 780.92 780.76 781.07 
3333 781.06 772.41 781.07 
3334 781.04 780.57 781.07 
3335 781.06 772.39 781.07 
3336 781.04 780.46 781.07 
3337 781.05 780.50 781.07 
3338 781.05 780.50 781.07 
3339 781.05 780.52 781.07 
3340 780.99 772.40 781.07 
3341 781.04 780.47 781.07 
3342 781.00 780.64 781.07 
3343 781.05 744.15 781.07 
3344 781.03 779.98 781.07 
3345 780.74 780.05 781.07 
3346 780.98 772.39 781.07 
3347 781.02 768.35 781.07 
3348 781.03 780.20 781.07 
3349 781.02 780.65 781.07 
3350 781.02 780.60 781.07 
3351 781.03 780.69 781.07 
3352 781.02 780.19 781.07 
3353 781.00 780.29 781.07 
3354 780.90 780.26 781.07 
3355 781.02 780.86 781.07 
3356 781.04 780.48 781.07 
3357 780.99 780.64 781.07 
3358 780.95 780.72 781.07 
3359 781.02 780.73 781.07 
3360 780.86 780.76 781.07 
3361 780.77 780.86 781.07 
3362 781.00 780.81 781.07 
3363 780.83 780.75 781.07 
3364 781.02 780.70 781.07 
3365 780.97 780.92 781.07 
3366 780.65 780.92 781.07 
3367 780.98 780.73 781.07 
3368 781.00 780.71 781.07 
3369 781.03 780.65 781.07 
3370 780.95 780.63 781.07 
3371 780.95 780.70 781.07 
3372 780.99 780.67 781.07 
3373 780.98 780.79 781.07 
3374 780.95 780.67 781.07 
3375 780.99 780.70 781.07 
3376 780.96 780.69 781.07 
3377 780.97 780.60 781.07 
3378 780.95 780.65 781.07 
3379 780.94 780.52 781.07 
3380 780.98 780.51 781.07 
3381 780.99 780.54 781.07 
3382 780.97 780.58 781.07 
3383 781.00 780.69 781.07 
3384 780.95 780.66 781.07 
3385 781.00 780.42 781.07 
3386 781.02 780.48 781.07 
3387 781.04 780.44 781.07 
3388 781.05 780.41 781.07 
3389 781.00 780.50 781.07 
3390 781.03 780.49 781.07 
3391 781.05 780.55 781.07 
3392 781.02 780.61 781.07 
3393 781.03 780.55 781.07 
3394 780.96 780.51 781.07 
3395 781.00 780.49 781.07 
3396 781.03 780.46 781.07 
3397 781.03 780.50 781.07 
3398 781.04 780.48 781.07 
3399 781.05 780.54 781.07 
3400 781.03 780.40 781.07 
3401 781.01 780.38 781.07 
3402 780.98 780.36 781.07 
3403 780.98 780.36 781.07 
3404 780.99 780.42 781.07 
3405 780.95 780.32 781.07 
3406 780.97 780.32 781.07 
3407 780.99 780.28 781.07 
3408 780.97 780.31 781.07 
3409 780.98 780.38 781.07 
3410 780.98 780.42 781.07 
3411 781.03 780.56 781.07 
3412 780.99 780.49 781.07 
3413 781.01 780.62 781.07 
3414 780.97 780.67 781.07 
3415 781.00 780.60 781.07 
3416 780.97 780.67 781.07 
3417 780.94 780.70 781.07 
3418 781.02 780.75 781.07 
3419 780.98 780.78 781.07 
3420 780.99 780.76 781.07 
3421 781.02 780.77 781.07 
3422 781.03 780.75 781.07 
3423 781.02 780.70 781.07 
3424 781.04 780.75 781.07 
3425 781.00 780.67 781.07 
3426 781.07 780.74 781.07 
3427 781.06 780.73 781.07 
3428 781.04 780.72 781.07 
3429 781.03 780.79 781.07 
3430 781.01 780.84 781.07 
3431 781.01 780.80 781.07 
3432 781.07 780.80 781.07 
3433 781.06 780.80 781.07 
3434 781.08 780.83 781.07 
3435 781.11 780.81 781.08 
3436 781.08 780.77 781.11 
3437 781.08 780.75 781.11 
3438 781.10 780.81 781.11 
3439 781.07 780.90 781.11 
3440 781.09 780.92 781.11 
3441 781.07 780.90 781.11 
3442 781.10 780.90 781.11 
3443 781.11 781.03 781.11 
3444 781.12 780.69 781.11 
3445 781.10 780.62 781.12 
3446 781.07 781.06 781.12 
3447 781.12 781.04 781.12 
3448 781.12 781.02 781.12 
3449 781.07 780.98 781.12 
3450 781.13 780.91 781.12 
3451 781.10 781.02 781.13 
3452 781.12 781.19 781.13 
3453 781.11 780.57 781.13 
3454 781.11 781.10 781.13 
3455 781.12 781.14 781.13 
3456 781.03 780.92 781.13 
3457 781.09 781.08 781.13 
3458 781.08 781.08 781.13 
3459 781.09 780.81 781.13 
3460 781.09 780.90 781.13 
3461 781.09 780.86 781.13 
3462 780.97 780.87 781.13 
3463 781.10 781.19 781.13 
3464 781.12 781.16 781.13 
3465 781.05 780.89 781.13 
3466 781.09 781.17 781.13 
3467 781.07 780.99 781.13 
3468 781.03 780.88 781.13 
3469 781.09 780.70 781.13 
3470 781.07 780.86 781.13 
3471 781.11 780.96 781.13 
3472 781.10 781.16 781.13 
3473 781.12 781.07 781.13 
3474 781.12 781.22 781.13 
3475 781.10 781.11 781.13 
3476 781.09 781.13 781.13 
3477 781.07 781.07 781.13 
3478 781.13 781.01 781.13 
3479 781.10 781.03 781.13 
3480 781.09 781.03 781.13 
3481 781.10 781.01 781.13 
3482 781.12 780.98 781.13 
3483 781.12 780.99 781.13 
3484 781.09 780.99 781.13 
3485 781.07 780.98 781.13 
3486 781.08 780.98 781.13 
3487 781.09 780.98 781.13 
3488 781.10 780.96 781.13 
3489 781.10 780.97 781.13 
3490 781.09 780.99 781.13 
3491 781.06 780.96 781.13 
3492 781.11 780.98 781.13 
3493 781.10 780.99 781.13 
3494 781.12 781.02 781.13 
3495 781.12 781.03 781.13 
3496 781.13 781.02 781.13 
3497 781.06 781.05 781.13 
3498 781.10 781.05 781.13 
3499 780.94 781.07 781.13 
3500 781.01 781.05 781.13 
3501 781.06 781.07 781.13 
3502 781.11 781.04 781.13 
3503 781.12 781.05 781.13 
3504 781.08 781.05 781.13 
3505 781.10 781.02 781.13 
3506 781.08 780.98 781.13 
3507 781.10 780.91 781.13 
3508 781.07 780.95 781.13 
3509 781.11 780.93 781.13 
3510 781.12 780.93 781.13 
3511 781.13 780.95 781.13 
3512 781.12 780.94 781.13 
3513 781.13 780.92 781.13 
3514 781.12 780.94 781.13 
3515 781.11 780.93 781.13 
3516 781.12 780.90 781.13 
3517 781.07 780.93 781.13 
3518 781.11 780.91 781.13 
3519 781.08 780.90 781.13 
3520 781.11 780.91 781.13 
3521 781.09 780.90 781.13 
3522 781.13 780.92 781.13 
3523 781.14 780.90 781.13 
3524 781.13 780.89 781.14 
3525 781.15 780.74 781.14 
3526 781.07 780.33 781.15 
3527 781.11 780.50 781.15 
3528 781.08 780.75 781.15 
3529 781.10 780.87 781.15 
3530 781.10 780.78 781.15 
3531 781.04 780.67 781.15 
3532 781.04 780.70 781.15 
3533 781.09 780.83 781.15 
3534 781.13 780.85 781.15 
3535 781.14 780.72 781.15 
3536 781.13 780.75 781.15 
3537 781.15 780.85 781.15 
3538 781.09 780.84 781.15 
3539 781.11 780.76 781.15 
3540 781.14 780.59 781.15 
3541 781.15 780.85 781.15 
3542 781.15 780.87 781.15 
3543 781.17 780.95 781.15 
3544 781.18 780.94 781.17 
3545 781.10 780.94 781.18 
3546 781.11 780.79 781.18 
3547 781.11 780.85 781.18 
3548 781.17 780.91 781.18 
3549 781.18 780.90 781.18 
3550 781.09 780.86 781.18 
3551 781.11 780.90 781.18 
3552 781.15 780.81 781.18 
3553 781.18 780.69 781.18 
3554 781.15 780.78 781.18 
3555 781.16 780.81 781.18 
3556 781.15 780.71 781.18 
3557 781.14 780.90 781.18 
3558 781.16 780.96 781.18 
3559 781.18 780.94 781.18 
3560 781.12 780.91 781.18 
3561 781.18 780.94 781.18 
3562 781.16 780.96 781.18 
3563 781.17 781.03 781.18 
3564 781.16 780.98 781.18 
3565 781.19 780.96 781.18 
3566 781.14 780.89 781.19 
3567 781.11 780.86 781.19 
3568 781.15 780.86 781.19 
3569 781.16 780.74 781.19 
3570 781.15 780.74 781.19 
3571 781.12 780.68 781.19 
3572 781.15 780.70 781.19 
3573 781.15 780.40 781.19 
3574 781.11 780.86 781.19 
3575 781.12 780.66 781.19 
3576 781.13 780.66 781.19 
3577 781.14 780.66 781.19 
3578 781.15 780.47 781.19 
3579 781.13 780.40 781.19 
3580 781.14 780.19 781.19 
3581 781.15 779.88 781.19 
3582 781.14 780.01 781.19 
3583 781.15 780.15 781.19 
3584 781.14 780.07 781.19 
3585 781.19 779.64 781.19 
3586 781.17 780.23 781.19 
3587 781.17 779.43 781.19 
3588 781.15 779.55 781.19 
3589 781.14 779.81 781.19 
3590 781.18 779.78 781.19 
3591 780.91 780.41 781.19 
3592 781.13 780.74 781.19 
3593 781.17 780.57 781.19 
3594 781.19 780.59 781.19 
3595 781.20 780.54 781.19 
3596 781.16 780.27 781.20 
3597 781.18 780.02 781.20 
3598 781.15 779.81 781.20 
3599 781.18 780.02 781.20 
3600 781.20 779.95 781.20 
3601 781.22 779.80 781.20 
3602 781.10 779.93 781.22 
3603 781.19 779.77 781.22 
3604 781.20 779.85 781.22 
3605 781.19 779.82 781.22 
3606 781.20 780.16 781.22 
3607 781.22 780.05 781.22 
3608 781.21 779.77 781.22 
3609 781.22 779.94 781.22 
3610 781.21 780.26 781.22 
3611 781.22 780.30 781.22 
3612 781.17 780.32 781.22 
3613 781.23 780.03 781.22 
3614 781.23 780.03 781.23 
3615 781.23 780.33 781.23 
3616 781.24 780.26 781.23 
3617 781.23 780.03 781.24 
3618 781.23 779.58 781.24 
3619 781.24 779.65 781.24 
3620 781.25 779.82 781.24 
3621 781.23 779.92 781.25 
3622 781.26 780.15 781.25 
3623 781.22 780.25 781.26 
3624 781.25 779.97 781.26 
3625 781.20 779.76 781.26 
3626 781.24 779.62 781.26 
3627 781.23 779.61 781.26 
3628 781.20 779.60 781.26 
3629 781.23 779.46 781.26 
3630 781.17 779.41 781.26 
3631 781.21 779.63 781.26 
3632 781.22 780.03 781.26 
3633 781.20 780.13 781.26 
3634 781.14 780.09 781.26 
3635 781.22 779.91 781.26 
3636 781.24 779.84 781.26 
3637 781.22 779.81 781.26 
3638 781.21 779.74 781.26 
3639 781.23 779.74 781.26 
3640 781.24 779.65 781.26 
3641 781.23 779.59 781.26 
3642 781.20 779.51 781.26 
3643 781.17 779.46 781.26 
3644 781.20 779.41 781.26 
3645 781.06 779.51 781.26 
3646 781.13 779.56 781.26 
3647 781.21 779.63 781.26 
3648 781.23 779.58 781.26 
3649 781.19 779.59 781.26 
3650 781.20 779.61 781.26 
3651 781.23 779.66 781.26 
3652 781.23 779.73 781.26 
3653 781.25 779.78 781.26 
3654 781.27 779.79 781.26 
3655 781.26 779.80 781.27 
3656 781.21 779.79 781.27 
3657 781.25 779.89 781.27 
3658 781.25 779.93 781.27 
3659 781.25 780.02 781.27 
3660 781.25 779.85 781.27 
3661 781.26 779.87 781.27 
3662 781.25 779.94 781.27 
3663 781.22 779.91 781.27 
3664 781.28 779.85 781.27 
3665 781.25 779.89 781.28 
3666 781.31 780.04 781.28 
3667 781.29 780.01 781.31 
3668 781.33 780.17 781.31 
3669 781.35 780.21 781.33 
3670 781.37 780.29 781.35 
3671 781.33 780.39 781.37 
3672 781.36 780.36 781.37 
3673 781.35 780.35 781.37 
3674 781.37 780.33 781.37 
3675 781.39 780.40 781.37 
3676 781.38 780.38 781.39 
3677 781.37 780.34 781.39 
3678 781.38 780.41 781.39 
3679 781.36 780.36 781.39 
3680 781.36 780.38 781.39 
3681 781.38 780.46 781.39 
3682 781.38 780.51 781.39 
3683 781.35 780.65 781.39 
3684 781.39 780.63 781.39 
3685 781.36 780.55 781.39 
3686 781.42 780.54 781.39 
3687 781.41 780.60 781.42 
3688 781.39 780.59 781.42 
3689 781.43 780.63 781.42 
3690 781.42 780.56 781.43 
3691 781.40 780.53 781.43 
3692 781.43 780.54 781.43 
3693 781.40 780.46 781.43 
3694 781.44 780.40 781.43 
3695 781.40 780.34 781.44 
3696 781.41 780.39 781.44 
3697 781.37 780.44 781.44 
3698 781.41 780.28 781.44 
3699 781.39 780.40 781.44 
3700 781.42 780.52 781.44 
3701 781.43 780.57 781.44 
3702 781.40 780.63 781.44 
3703 781.48 780.69 781.44 
3704 781.47 780.73 781.48 
3705 781.48 780.62 781.48 
3706 781.43 780.66 781.48 
3707 781.45 780.64 781.48 
3708 781.47 780.74 781.48 
3709 781.49 780.79 781.48 
3710 781.48 780.78 781.49 
3711 781.48 780.80 781.49 
3712 781.49 780.80 781.49 
3713 781.43 780.73 781.49 
3714 781.49 780.74 781.49 
3715 781.48 780.72 781.49 
3716 781.50 780.69 781.49 
3717 781.49 780.73 781.50 
3718 781.49 780.73 781.50 
3719 781.52 780.68 781.50 
3720 781.47 780.64 781.52 
3721 781.50 780.65 781.52 
3722 781.50 780.64 781.52 
3723 781.48 780.66 781.52 
3724 781.52 780.72 781.52 
3725 781.52 780.63 781.52 
3726 781.47 780.70 781.52 
3727 781.52 780.71 781.52 
3728 781.53 780.70 781.52 
3729 781.52 780.77 781.53 
3730 781.53 780.81 781.53 
3731 781.50 780.80 781.53 
3732 781.52 780.74 781.53 
3733 781.51 780.72 781.53 
3734 781.52 780.63 781.53 
3735 781.50 780.73 781.53 
3736 781.51 780.75 781.53 
3737 781.48 780.81 781.53 
3738 781.45 780.80 781.53 
3739 781.55 780.83 781.53 
3740 781.53 780.82 781.55 
3741 781.47 780.86 781.55 
3742 781.55 780.80 781.55 
3743 781.52 780.77 781.55 
3744 781.52 780.76 781.55 
3745 781.53 780.74 781.55 
3746 781.49 780.78 781.55 
3747 781.54 780.77 781.55 
3748 781.52 780.76 781.55 
3749 781.54 780.75 781.55 
3750 781.53 780.75 781.55 
3751 781.53 780.76 781.55 
3752 781.54 780.78 781.55 
3753 781.54 780.74 781.55 
3754 781.57 780.75 781.55 
3755 781.56 780.77 781.57 
3756 781.55 780.73 781.57 
3757 781.55 780.78 781.57 
3758 781.51 780.79 781.57 
3759 781.57 780.80 781.57 
3760 781.59 780.86 781.57 
3761 781.57 780.83 781.59 
3762 781.54 780.93 781.59 
3763 781.56 780.90 781.59 
3764 781.57 780.86 781.59 
3765 781.56 780.84 781.59 
3766 781.58 780.93 781.59 
3767 781.55 780.92 781.59 
3768 781.59 780.95 781.59 
3769 781.55 780.95 781.59 
3770 781.57 780.91 781.59 
3771 781.56 780.87 781.59 
3772 781.56 780.83 781.59 
3773 781.55 780.90 781.59 
3774 781.56 780.97 781.59 
3775 781.55 780.99 781.59 
3776 781.56 781.00 781.59 
3777 781.55 781.02 781.59 
3778 781.56 781.03 781.59 
3779 781.53 781.00 781.59 
3780 781.56 781.00 781.59 
3781 781.57 781.06 781.59 
3782 781.57 781.02 781.59 
3783 781.57 781.03 781.59 
3784 781.56 781.07 781.59 
3785 781.57 781.11 781.59 
3786 781.58 781.09 781.59 
3787 781.57 781.16 781.59 
3788 781.53 781.17 781.59 
3789 781.57 781.10 781.59 
3790 781.59 781.15 781.59 
3791 781.58 781.10 781.59 
3792 781.56 781.07 781.59 
3793 781.58 781.14 781.59 
3794 781.58 781.07 781.59 
3795 781.61 781.07 781.59 
3796 781.55 781.10 781.61 
3797 781.57 781.13 781.61 
3798 781.59 781.14 781.61 
3799 781.58 781.15 781.61 
3800 781.57 781.13 781.61 
3801 781.58 781.10 781.61 
3802 781.58 781.08 781.61 
3803 781.57 781.04 781.61 
3804 781.59 781.01 781.61 
3805 781.59 780.99 781.61 
3806 781.56 781.02 781.61 
3807 781.57 781.00 781.61 
3808 781.56 780.91 781.61 
3809 781.55 780.89 781.61 
3810 781.56 780.92 781.61 
3811 781.58 780.98 781.61 
3812 781.50 780.95 781.61 
3813 781.56 780.90 781.61 
3814 781.56 780.88 781.61 
3815 781.56 780.98 781.61 
3816 781.57 780.99 781.61 
3817 781.57 780.95 781.61 
3818 781.59 781.02 781.61 
3819 781.61 780.89 781.61 
3820 781.60 780.92 781.61 
3821 781.60 780.85 781.61 
3822 781.60 780.90 781.61 
3823 781.58 781.07 781.61 
3824 781.60 781.04 781.61 
3825 781.61 780.96 781.61 
3826 781.62 780.86 781.61 
3827 781.61 780.89 781.62 
3828 781.63 780.89 781.62 
3829 781.61 780.89 781.63 
3830 781.60 780.86 781.63 
3831 781.61 780.86 781.63 
3832 781.58 780.82 781.63 
3833 781.59 780.84 781.63 
3834 781.58 780.84 781.63 
3835 781.62 780.87 781.63 
3836 781.62 780.80 781.63 
3837 781.61 780.84 781.63 
3838 781.61 780.87 781.63 
3839 781.61 780.85 781.63 
3840 781.63 780.80 781.63 
3841 781.63 780.80 781.63 
3842 781.63 780.87 781.63 
3843 781.59 780.87 781.63 
3844 781.63 780.87 781.63 
3845 781.62 780.84 781.63 
3846 781.63 780.84 781.63 
3847 781.62 780.81 781.63 
3848 781.60 780.86 781.63 
3849 781.60 780.85 781.63 
3850 781.61 780.83 781.63 
3851 781.61 780.78 781.63 
3852 781.60 780.80 781.63 
3853 781.60 780.75 781.63 
3854 781.62 780.53 781.63 
3855 781.59 780.22 781.63 
3856 781.62 780.44 781.63 
3857 781.61 780.66 781.63 
3858 781.61 780.72 781.63 
3859 781.60 780.82 781.63 
3860 781.58 780.71 781.63 
3861 781.60 780.72 781.63 
3862 781.61 780.69 781.63 
3863 781.56 780.79 781.63 
3864 781.58 780.79 781.63 
3865 781.61 780.71 781.63 
3866 781.61 780.35 781.63 
3867 781.61 780.60 781.63 
3868 781.61 780.27 781.63 
3869 781.59 780.66 781.63 
3870 781.63 780.74 781.63 
3871 781.62 780.65 781.63 
3872 781.62 780.80 781.63 
3873 781.64 780.85 781.63 
3874 781.63 780.79 781.64 
3875 781.63 780.75 781.64 
3876 781.62 780.74 781.64 
3877 781.66 780.63 781.64 
3878 781.65 780.69 781.66 
3879 781.60 780.65 781.66 
3880 781.63 780.65 781.66 
3881 781.60 780.65 781.66 
3882 781.60 780.65 781.66 
3883 781.56 780.70 781.66 
3884 781.57 780.78 781.66 
3885 781.61 780.77 781.66 
3886 781.64 780.74 781.66 
3887 781.64 780.73 781.66 
3888 781.63 780.83 781.66 
3889 781.63 780.80 781.66 
3890 781.60 780.81 781.66 
3891 781.64 780.81 781.66 
3892 781.61 780.80 781.66 
3893 781.58 780.83 781.66 
3894 781.62 780.87 781.66 
3895 781.60 780.90 781.66 
3896 781.62 780.94 781.66 
3897 781.57 780.98 781.66 
3898 781.59 780.96 781.66 
3899 781.60 780.95 781.66 
3900 781.64 780.97 781.66 
3901 781.63 780.89 781.66 
3902 781.64 780.91 781.66 
3903 781.60 780.96 781.66 
3904 781.64 781.01 781.66 
3905 781.66 781.00 781.66 
3906 781.65 781.01 781.66 
3907 781.62 780.98 781.66 
3908 781.66 780.98 781.66 
3909 781.66 781.06 781.66 
3910 781.67 781.03 781.66 
3911 781.66 781.07 781.67 
3912 781.65 781.05 781.67 
3913 781.65 781.08 781.67 
3914 781.65 781.05 781.67 
3915 781.59 781.07 781.67 
3916 781.65 781.12 781.67 
3917 781.63 781.10 781.67 
3918 781.66 781.14 781.67 
3919 781.66 781.08 781.67 
3920 781.66 780.95 781.67 
3921 781.64 780.92 781.67 
3922 781.67 780.94 781.67 
3923 781.65 781.01 781.67 
3924 781.61 780.97 781.67 
3925 781.67 780.99 781.67 
3926 781.67 780.97 781.67 
3927 781.68 780.91 781.67 
3928 781.65 780.91 781.68 
3929 781.68 780.92 781.68 
3930 781.67 780.91 781.68 
3931 781.66 780.80 781.68 
3932 781.67 780.74 781.68 
3933 781.69 780.74 781.68 
3934 781.69 780.80 781.69 
3935 781.69 780.80 781.69 
3936 781.68 780.87 781.69 
3937 781.71 780.88 781.69 
3938 781.71 780.85 781.71 
3939 781.70 780.79 781.71 
3940 781.69 780.83 781.71 
3941 781.70 780.78 781.71 
3942 781.71 780.74 781.71 
3943 781.63 780.77 781.71 
3944 781.70 780.76 781.71 
3945 781.68 780.69 781.71 
3946 781.66 780.68 781.71 
3947 781.67 780.76 781.71 
3948 781.70 780.73 781.71 
3949 781.71 780.79 781.71 
3950 781.71 780.73 781.71 
3951 781.71 780.75 781.71 
3952 781.68 780.76 781.71 
3953 781.67 780.78 781.71 
3954 781.70 780.89 781.71 
3955 781.68 780.94 781.71 
3956 781.68 780.90 781.71 
3957 781.69 780.93 781.71 
3958 781.73 780.93 781.71 
3959 781.72 780.87 781.73 
3960 781.71 780.87 781.73 
3961 781.71 780.86 781.73 
3962 781.72 780.95 781.73 
3963 781.73 780.93 781.73 
3964 781.73 780.94 781.73 
3965 781.72 780.91 781.73 
3966 781.71 780.93 781.73 
3967 781.71 780.97 781.73 
3968 781.71 781.00 781.73 
3969 781.71 781.00 781.73 
3970 781.68 781.01 781.73 
3971 781.70 781.05 781.73 
3972 781.72 781.06 781.73 
3973 781.71 781.05 781.73 
3974 781.68 781.08 781.73 
3975 781.65 781.12 781.73 
3976 781.69 781.14 781.73 
3977 781.70 781.17 781.73 
3978 781.72 781.16 781.73 
3979 781.72 781.15 781.73 
3980 781.72 781.09 781.73 
3981 781.70 781.13 781.73 
3982 781.71 781.11 781.73 
3983 781.72 781.12 781.73 
3984 781.72 781.11 781.73 
3985 781.70 781.07 781.73 
3986 781.71 781.06 781.73 
3987 781.72 781.05 781.73 
3988 781.71 781.09 781.73 
3989 781.73 781.10 781.73 
3990 781.70 781.18 781.73 
3991 781.73 781.18 781.73 
3992 781.72 781.23 781.73 
3993 781.71 781.20 781.73 
3994 781.73 781.19 781.73 
3995 781.66 781.24 781.73 
3996 781.74 781.27 781.73 
3997 781.73 781.35 781.74 
3998 781.75 781.39 781.74 
3999 781.75 781.21 781.75 
4000 781.72 781.19 781.75 
4001 781.71 781.17 781.75 
4002 781.71 781.25 781.75 
4003 781.74 781.30 781.75 
4004 781.74 781.34 781.75 
4005 781.72 781.27 781.75 
4006 781.71 781.28 781.75 
4007 781.72 781.20 781.75 
4008 781.72 781.15 781.75 
4009 781.76 781.06 781.75 
4010 781.72 781.15 781.76 
4011 781.71 781.09 781.76 
4012 781.73 781.09 781.76 
4013 781.74 781.12 781.76 
4014 781.72 781.05 781.76 
4015 781.50 780.99 781.76 
4016 781.72 781.09 781.76 
4017 781.73 781.08 781.76 
4018 781.71 781.07 781.76 
4019 781.68 781.13 781.76 
4020 781.68 781.10 781.76 
4021 781.72 781.01 781.76 
4022 781.72 780.91 781.76 
4023 781.70 780.88 781.76 
4024 781.68 780.90 781.76 
4025 781.67 780.86 781.76 
4026 781.67 780.86 781.76 
4027 781.70 780.98 781.76 
4028 781.71 780.97 781.76 
4029 781.66 780.91 781.76 
4030 781.66 780.86 781.76 
4031 781.67 780.87 781.76 
4032 781.71 780.96 781.76 
4033 781.63 780.92 781.76 
4034 781.71 780.97 781.76 
4035 781.71 781.02 781.76 
4036 781.73 781.06 781.76 
4037 781.74 781.01 781.76 
4038 781.70 781.01 781.76 
4039 781.73 781.00 781.76 
4040 781.67 781.02 781.76 
4041 781.72 780.98 781.76 
4042 781.72 780.99 781.76 
4043 781.73 781.03 781.76 
4044 781.71 780.98 781.76 
4045 781.66 781.00 781.76 
4046 781.71 780.98 781.76 
4047 781.70 780.92 781.76 
4048 781.70 780.98 781.76 
4049 781.72 780.96 781.76 
4050 781.72 780.92 781.76 
4051 781.70 780.90 781.76 
4052 781.64 780.88 781.76 
4053 781.68 780.91 781.76 
4054 781.70 780.87 781.76 
4055 781.70 780.86 781.76 
4056 781.70 780.77 781.76 
4057 781.73 780.70 781.76 
4058 781.69 780.59 781.76 
4059 781.73 780.60 781.76 
4060 781.72 780.55 781.76 
4061 781.70 780.79 781.76 
4062 781.70 780.78 781.76 
4063 781.69 780.64 781.76 
4064 781.70 780.60 781.76 
4065 781.71 780.68 781.76 
4066 781.75 780.49 781.76 
4067 781.72 776.46 781.76 
4068 781.77 780.51 781.76 
4069 781.76 780.48 781.77 
4070 781.71 780.73 781.77 
4071 781.77 780.78 781.77 
4072 781.80 780.82 781.77 
4073 781.74 780.69 781.80 
4074 781.75 780.87 781.80 
4075 781.71 781.09 781.80 
4076 781.71 781.09 781.80 
4077 781.70 781.04 781.80 
4078 781.75 781.04 781.80 
4079 781.73 781.04 781.80 
4080 781.73 781.03 781.80 
4081 781.72 781.03 781.80 
4082 781.74 781.00 781.80 
4083 781.72 781.03 781.80 
4084 781.72 781.12 781.80 
4085 781.73 781.11 781.80 
4086 781.74 781.10 781.80 
4087 781.75 781.11 781.80 
4088 781.71 781.07 781.80 
4089 781.35 781.09 781.80 
4090 781.73 781.11 781.80 
4091 781.65 781.11 781.80 
4092 781.74 781.12 781.80 
4093 781.73 781.03 781.80 
4094 781.70 781.09 781.80 
4095 781.72 781.08 781.80 
4096 781.73 780.97 781.80 
4097 781.70 780.88 781.80 
4098 781.70 780.98 781.80 
4099 781.70 781.08 781.80 
4100 781.68 781.12 781.80 
4101 781.70 781.12 781.80 
4102 781.65 781.14 781.80 
4103 781.66 781.08 781.80 
4104 781.70 781.05 781.80 
4105 781.66 781.10 781.80 
4106 781.68 781.11 781.80 
4107 781.67 781.11 781.80 
4108 781.67 781.12 781.80 
4109 781.68 781.14 781.80 
4110 781.68 781.09 781.80 
4111 781.71 781.14 781.80 
4112 781.72 781.18 781.80 
4113 781.70 781.18 781.80 
4114 781.72 781.15 781.80 
4115 781.72 781.07 781.80 
4116 781.66 781.14 781.80 
4117 781.69 781.17 781.80 
4118 781.69 781.24 781.80 
4119 781.69 781.28 781.80 
4120 781.69 781.23 781.80 
4121 781.73 781.27 781.80 
4122 781.74 781.29 781.80 
4123 781.74 781.28 781.80 
4124 781.64 781.28 781.80 
4125 781.71 781.27 781.80 
4126 781.66 781.28 781.80 
4127 781.73 781.31 781.80 
4128 781.71 781.35 781.80 
4129 781.66 781.31 781.80 
4130 781.70 781.32 781.80 
4131 781.71 781.28 781.80 
4132 781.68 781.29 781.80 
4133 781.71 781.33 781.80 
4134 781.71 781.32 781.80 
4135 781.66 781.30 781.80 
4136 781.73 781.29 781.80 
4137 781.72 781.31 781.80 
4138 781.69 781.31 781.80 
4139 781.72 781.31 781.80 
4140 781.69 781.26 781.80 
4141 781.59 781.26 781.80 
4142 781.65 781.29 781.80 
4143 781.65 781.26 781.80 
4144 781.75 781.29 781.80 
4145 781.57 781.26 781.80 
4146 781.73 781.19 781.80 
4147 781.73 781.16 781.80 
4148 781.66 781.16 781.80 
4149 781.73 781.19 781.80 
4150 781.59 781.13 781.80 
4151 781.74 781.15 781.80 
4152 781.71 781.12 781.80 
4153 781.72 781.15 781.80 
4154 781.66 781.16 781.80 
4155 781.72 781.09 781.80 
4156 781.73 781.03 781.80 
4157 781.71 781.02 781.80 
4158 781.69 780.99 781.80 
4159 781.73 780.98 781.80 
4160 781.70 780.97 781.80 
4161 781.66 780.98 781.80 
4162 781.69 780.94 781.80 
4163 781.33 780.88 781.80 
4164 781.65 780.82 781.80 
4165 781.61 780.87 781.80 
4166 781.67 780.92 781.80 
4167 781.45 780.92 781.80 
4168 781.66 780.94 781.80 
4169 781.50 780.94 781.80 
4170 781.68 780.94 781.80 
4171 781.55 780.94 781.80 
4172 781.63 780.93 781.80 
4173 781.72 780.97 781.80 
4174 781.69 780.94 781.80 
4175 781.68 781.00 781.80 
4176 781.70 781.01 781.80 
4177 781.69 780.99 781.80 
4178 781.74 781.02 781.80 
4179 781.69 780.98 781.80 
4180 781.58 781.02 781.80 
4181 781.59 781.01 781.80 
4182 781.70 781.01 781.80 
4183 781.63 781.02 781.80 
4184 781.71 781.03 781.80 
4185 781.70 781.00 781.80 
4186 781.64 780.99 781.80 
4187 781.71 781.02 781.80 
4188 781.74 780.94 781.80 
4189 781.74 780.89 781.80 
4190 781.75 780.95 781.80 
4191 781.76 780.95 781.80 
4192 781.73 780.97 781.80 
4193 781.70 781.01 781.80 
4194 781.71 781.00 781.80 
4195 781.76 780.99 781.80 
4196 781.75 781.00 781.80 
4197 781.73 780.95 781.80 
4198 781.77 780.96 781.80 
4199 781.78 780.97 781.80 
4200 781.76 780.98 781.80 
4201 781.76 780.98 781.80 
4202 781.80 780.97 781.80 
4203 781.78 780.97 781.80 
4204 781.76 780.98 781.80 
4205 781.78 780.99 781.80 
4206 781.78 780.99 781.80 
4207 781.75 780.98 781.80 
4208 781.80 780.95 781.80 
4209 781.78 780.92 781.80 
4210 781.79 780.88 781.80 
4211 781.79 780.85 781.80 
4212 781.78 780.82 781.80 
4213 781.80 780.89 781.80 
4214 781.77 780.87 781.80 
4215 781.77 780.87 781.80 
4216 781.78 780.86 781.80 
4217 781.75 780.86 781.80 
4218 781.76 780.82 781.80 
4219 781.79 780.85 781.80 
4220 781.77 780.82 781.80 
4221 781.79 780.81 781.80 
4222 781.76 780.84 781.80 
4223 781.77 780.81 781.80 
4224 781.82 780.84 781.80 
4225 781.80 780.84 781.82 
4226 781.78 780.92 781.82 
4227 781.78 780.92 781.82 
4228 781.79 780.85 781.82 
4229 781.81 780.87 781.82 
4230 781.78 780.87 781.82 
4231 781.79 780.95 781.82 
4232 781.80 780.95 781.82 
4233 781.78 780.96 781.82 
4234 781.79 781.02 781.82 
4235 781.78 781.01 781.82 
4236 781.77 781.00 781.82 
4237 781.78 780.98 781.82 
4238 781.79 780.97 781.82 
4239 781.79 781.00 781.82 
4240 781.74 781.01 781.82 
4241 781.67 780.99 781.82 
4242 781.79 781.00 781.82 
4243 781.79 781.00 781.82 
4244 781.77 781.06 781.82 
4245 781.75 781.02 781.82 
4246 781.79 780.98 781.82 
4247 781.78 781.00 781.82 
4248 781.80 781.00 781.82 
4249 781.82 781.02 781.82 
4250 781.80 781.02 781.82 
4251 781.77 781.10 781.82 
4252 781.80 781.10 781.82 
4253 781.78 781.08 781.82 
4254 781.72 781.02 781.82 
4255 781.77 780.97 781.82 
4256 781.78 780.98 781.82 
4257 781.78 781.03 781.82 
4258 781.74 781.03 781.82 
4259 781.79 781.00 781.82 
4260 781.76 780.97 781.82 
4261 781.77 780.95 781.82 
4262 780.75 781.01 781.82 
4263 781.74 780.95 781.82 
4264 781.77 780.94 781.82 
4265 781.71 780.97 781.82 
4266 781.75 781.01 781.82 
4267 781.74 781.00 781.82 
4268 781.69 781.05 781.82 
4269 781.73 780.98 781.82 
4270 781.71 780.96 781.82 
4271 781.66 780.92 781.82 
4272 781.74 780.87 781.82 
4273 781.74 780.90 781.82 
4274 781.65 780.90 781.82 
4275 781.74 780.92 781.82 
4276 781.71 780.90 781.82 
4277 781.74 780.89 781.82 
4278 781.73 780.90 781.82 
4279 781.71 780.86 781.82 
4280 781.77 780.89 781.82 
4281 781.75 780.81 781.82 
4282 781.76 780.85 781.82 
4283 781.77 780.79 781.82 
4284 781.66 780.78 781.82 
4285 781.78 780.86 781.82 
4286 781.77 780.86 781.82 
4287 781.73 780.89 781.82 
4288 781.76 780.84 781.82 
4289 781.75 780.87 781.82 
4290 781.78 780.88 781.82 
4291 781.78 780.80 781.82 
4292 781.79 780.86 781.82 
4293 781.80 780.81 781.82 
4294 781.80 780.84 781.82 
4295 781.80 780.87 781.82 
4296 781.81 780.86 781.82 
4297 781.78 780.85 781.82 
4298 781.74 780.96 781.82 
4299 781.77 780.98 781.82 
4300 781.81 780.98 781.82 
4301 781.82 780.95 781.82 
4302 781.80 780.87 781.82 
4303 781.80 780.88 781.82 
4304 781.77 781.00 781.82 
4305 781.76 781.02 781.82 
4306 781.82 781.05 781.82 
4307 781.80 780.98 781.82 
4308 781.42 781.00 781.82 
4309 781.79 780.93 781.82 
4310 781.79 780.91 781.82 
4311 781.80 780.90 781.82 
4312 781.74 780.89 781.82 
4313 781.78 780.93 781.82 
4314 781.75 780.92 781.82 
4315 781.80 780.97 781.82 
4316 781.78 780.89 781.82 
4317 781.80 780.96 781.82 
4318 781.59 780.94 781.82 
4319 781.79 780.98 781.82 
4320 781.80 780.95 781.82 
4321 781.76 780.98 781.82 
4322 781.75 780.90 781.82 
4323 781.79 780.92 781.82 
4324 781.75 781.05 781.82 
4325 781.67 781.05 781.82 
4326 781.78 781.05 781.82 
4327 781.78 781.06 781.82 
4328 781.73 780.95 781.82 
4329 781.74 781.03 781.82 
4330 781.75 780.95 781.82 
4331 781.79 780.96 781.82 
4332 781.79 780.97 781.82 
4333 781.81 780.97 781.82 
4334 781.77 780.92 781.82 
4335 781.60 780.93 781.82 
4336 781.75 780.93 781.82 
4337 781.75 780.94 781.82 
4338 781.59 780.93 781.82 
4339 781.82 780.93 781.82 
4340 781.79 780.89 781.82 
4341 781.72 780.86 781.82 
4342 781.81 780.85 781.82 
4343 781.81 780.81 781.82 
4344 781.80 780.84 781.82 
4345 781.81 780.88 781.82 
4346 781.83 780.87 781.82 
4347 781.80 780.87 781.83 
4348 781.79 780.83 781.83 
4349 781.80 780.87 781.83 
4350 781.80 780.82 781.83 
4351 781.80 780.81 781.83 
4352 781.81 780.85 781.83 
4353 781.77 780.87 781.83 
4354 781.83 780.88 781.83 
4355 781.79 780.84 781.83 
4356 781.78 780.87 781.83 
4357 781.79 780.86 781.83 
4358 781.69 780.88 781.83 
4359 781.78 780.89 781.83 
4360 781.80 780.91 781.83 
4361 781.37 780.95 781.83 
4362 781.73 780.95 781.83 
4363 781.78 780.95 781.83 
4364 781.75 780.93 781.83 
4365 781.77 780.97 781.83 
4366 781.72 780.90 781.83 
4367 781.73 780.88 781.83 
4368 781.76 780.94 781.83 
4369 781.79 780.90 781.83 
4370 781.79 780.94 781.83 
4371 781.79 780.97 781.83 
4372 781.79 780.93 781.83 
4373 781.76 780.94 781.83 
4374 781.82 780.92 781.83 
4375 781.75 780.95 781.83 
4376 781.80 780.96 781.83 
4377 781.71 780.97 781.83 
4378 781.81 781.00 781.83 
4379 781.80 781.01 781.83 
4380 781.81 781.03 781.83 
4381 781.78 781.02 781.83 
4382 781.83 781.00 781.83 
4383 781.81 781.05 781.83 
4384 781.80 781.02 781.83 
4385 781.78 781.05 781.83 
4386 781.81 781.02 781.83 
4387 781.82 781.03 781.83 
4388 781.79 781.06 781.83 
4389 781.68 781.06 781.83 
4390 781.59 781.09 781.83 
4391 781.75 781.06 781.83 
4392 781.79 781.06 781.83 
4393 781.80 781.08 781.83 
4394 781.80 781.09 781.83 
4395 781.79 781.07 781.83 
4396 781.81 781.05 781.83 
4397 781.80 781.05 781.83 
4398 781.64 781.06 781.83 
4399 781.36 781.05 781.83 
4400 781.81 781.10 781.83 
4401 781.80 781.10 781.83 
4402 781.81 781.10 781.83 
4403 781.73 781.05 781.83 
4404 781.77 781.03 781.83 
4405 781.79 781.00 781.83 
4406 781.81 781.03 781.83 
4407 781.78 781.03 781.83 
4408 781.80 781.03 781.83 
4409 781.79 781.03 781.83 
4410 781.79 780.97 781.83 
4411 781.79 781.06 781.83 
4412 781.80 781.03 781.83 
4413 781.77 781.03 781.83 
4414 781.72 781.09 781.83 
4415 781.75 781.07 781.83 
4416 781.79 781.07 781.83 
4417 781.78 781.10 781.83 
4418 781.80 781.08 781.83 
4419 781.78 781.10 781.83 
4420 781.77 781.08 781.83 
4421 781.80 781.07 781.83 
4422 781.79 781.03 781.83 
4423 781.79 780.96 781.83 
4424 781.81 780.98 781.83 
4425 781.79 781.03 781.83 
4426 781.81 781.04 781.83 
4427 781.77 781.07 781.83 
4428 781.77 781.04 781.83 
4429 781.81 781.05 781.83 
4430 781.82 780.97 781.83 
4431 781.82 780.97 781.83 
4432 781.83 780.94 781.83 
4433 781.76 781.02 781.83 
4434 781.79 781.05 781.83 
4435 781.82 781.16 781.83 
4436 781.82 781.18 781.83 
4437 781.81 781.19 781.83 
4438 781.66 781.17 781.83 
4439 781.60 781.12 781.83 
4440 781.82 781.11 781.83 
4441 781.59 781.11 781.83 
4442 781.12 781.15 781.83 
4443 781.79 781.15 781.83 
