iteration,time_sampling,stoc_pol_mean,stoc_pol_std,stoc_pol_max,stoc_pol_min,rollout_success,alpha,delta,time_vpg,time_npg,kl_dist,surr_improvement,running_score,rwd_sparse,rwd_dense,success_percentage,num_samples,time_VF,VF_error_before,VF_error_after,env_samples,eval_score,eval_success
0,1.9269342422485352,1.2265895574682022,0.008789319599404754,1.2399034641413236,1.2151944406844912,0.0,0.15698989956032516,0.1,0.07100033760070801,0.10723447799682617,0.05455122,1.502742,1.2265895574682022,0.0,0.016933214818241775,0.0,300,0.08777117729187012,0.8219373995906882,0.6307915922406474,300,1.219358775799482,0.0
1,2.1780898571014404,1.230064328192961,0.017464398038903275,1.259899997218803,1.2167340389353891,0.0,0.15677569696577381,0.1,0.005011558532714844,0.09837865829467773,0.050522905,1.5111831,1.226937034540678,0.0,0.01699332809707307,0.0,300,0.04702019691467285,0.6218797196685091,0.44416003696947964,600,1.2169515349216413,0.0
2,2.0398106575012207,1.22559060775568,0.013373538576728275,1.2401901686027699,1.2045553412937902,0.0,0.16127161660740297,0.1,0.012896060943603516,0.20550084114074707,0.051066536,1.6713085,1.2268023918621782,0.0,0.016927437437567784,0.0,300,0.05111837387084961,0.47127126658313967,0.2613475401395779,900,1.2213412871627611,0.0
3,1.9730794429779053,1.241801195715147,0.031089764207615056,1.2870354161139077,1.2019888013814637,0.0,0.15909059085803057,0.1,0.004733085632324219,0.09385871887207031,0.05363282,1.6657357,1.228302272247475,0.0,0.017150388290516544,0.0,300,0.036289215087890625,0.25236528831333077,0.10497847531177766,1200,1.2239881396196066,0.0
4,2.0160584449768066,1.2562160493112537,0.025798406215694725,1.290964052592406,1.2312210471367895,0.0,0.14851336866001147,0.1,0.008173227310180664,0.2404780387878418,0.05367434,3.6140573,1.231093649953853,0.0,0.017319608994532713,0.0,300,0.03866386413574219,0.11441477889614834,0.10362229629874549,1500,1.2178939487864007,0.0
5,1.7544834613800049,6.046940386579143,2.9806318809458014,9.251561438692644,1.2142083748415307,0.0,0.17756534488234152,0.1,0.004584312438964844,0.24248456954956055,0.052139714,0.8415346,1.712678323616382,0.0,0.08120987001235935,0.0,300,0.041177988052368164,0.9013338859498949,0.7846371395996963,1800,1.223071547773393,0.0
6,2.0804800987243652,1.24421263182745,0.04359029798338342,1.3183469916729114,1.2095169200827782,0.0,0.1637127307333309,0.1,0.008302688598632812,0.22794580459594727,0.049299628,1.0609109,1.665831754437489,0.0,0.01712757709604644,0.0,300,0.06901168823242188,1.0804841702216885,3.1560885324698376,2100,1.22067481823294,0.0
7,2.146392583847046,1.2412200451992839,0.03196950568201363,1.294617732650608,1.2159502230779997,0.0,0.1388864550454355,0.1,0.005152463912963867,0.10378837585449219,0.04830075,5.937402,1.6233705835136685,0.0,0.01712774513423613,0.0,300,0.051514387130737305,3.221580729889174,2.2963995151194156,2400,1.2347680620106603,0.0
8,2.1209371089935303,1.2627486031085513,0.07652632647117373,1.3948071967369653,1.2094895810709967,0.0,0.17476933001343728,0.1,0.005032777786254883,0.10437297821044922,0.051575806,0.9918442,1.587308385473157,0.0,0.01742448943306041,0.0,300,0.03764963150024414,2.2699616947623102,0.9030224503865799,2700,1.2393978539297328,0.0
9,2.0666913986206055,1.2547744110094694,0.025911665678355324,1.299392059575932,1.2353516266394582,0.0,0.14416707217767702,0.1,0.0045166015625,0.08614993095397949,0.05084228,4.891719,1.5540549880267882,0.0,0.01730762829154172,0.0,300,0.037420034408569336,0.8825397037334511,0.28283915425606676,3000,1.2405888544122006,0.0
10,1.76790452003479,1.2547295807371592,0.05208136781193459,1.344721246631899,1.2210043563530972,0.0,0.13454672186712507,0.1,0.004483938217163086,0.10500597953796387,0.04924123,6.4373064,1.5241224472978254,0.0,0.017315999728484258,0.0,300,0.1061241626739502,0.3302982729660707,0.13151877326758063,3300,1.252011604219844,0.0
11,1.8425407409667969,1.2337890588806002,0.0064780442597582024,1.241896462650832,1.2273984085751313,0.0,0.14988819297399444,0.1,0.010830163955688477,0.15864920616149902,0.05323396,15.218989,1.495089108456103,0.0,0.01702956026609547,0.0,300,0.07918715476989746,0.13133286896331828,0.0971802490127413,3600,1.231689754258072,0.0
12,1.9899702072143555,1.286206088958037,0.08083732517345855,1.4230049724411942,1.2146074242710645,0.0,0.14989103519589575,0.1,0.006472110748291016,0.14368247985839844,0.04818131,4.2086663,1.4742008065062966,0.0,0.017690849036200034,0.0,300,0.03410840034484863,0.11698244742863617,0.13750858112320366,3900,1.2429283948592507,0.0
13,2.087745189666748,1.25539077246248,0.03403911002966357,1.305831367229043,1.2204407536090824,0.0,0.14960894411699482,0.1,0.012862205505371094,0.2214667797088623,0.052762356,6.5674763,1.4523198031019149,0.0,0.01731355101738935,0.0,300,0.048239946365356445,0.10033132291871019,0.09633466794161949,4200,1.2801469890225994,0.0
14,2.0211546421051025,6.370757692918509,8.815371144492284,21.639292832763857,1.2207446515870828,0.0,0.17226664816514134,0.1,0.004243135452270508,0.10834145545959473,0.048929118,1.3569186,1.9441635920835745,0.0,0.08550902877219065,0.0,300,0.05045294761657715,0.9698837825876995,0.947783124234723,4500,1.268385280984576,0.0
15,2.050727605819702,3.2693007497072117,3.487298241901964,9.30922027453083,1.2195401943573432,0.0,0.16813007269174807,0.1,0.004787445068359375,0.19684624671936035,0.04974158,2.6430557,2.076677307845938,0.0,0.04418356136728348,0.0,300,0.05295705795288086,0.8915794036069887,0.8160979523430211,4800,1.2825508714867397,0.0
16,1.816279411315918,2.293687614322522,1.7219809690451924,5.27498979885435,1.258915683778113,0.0,0.1533662944657386,0.1,0.004340171813964844,0.14370393753051758,0.050206743,3.0414033,2.0983783384935966,0.0,0.031173648873546473,0.0,300,0.04819321632385254,0.6224443997425708,0.646454822509649,5100,1.2795742158611716,0.0
17,1.7978966236114502,1.3045797402939,0.06987857038829554,1.4069059545035363,1.2096013246119184,0.0,0.1606734518081193,0.1,0.0036895275115966797,0.07766222953796387,0.051333852,2.2979605,2.018998478673627,0.0,0.017955391420467398,0.0,300,0.03273320198059082,3.66830800621435,3.0969003847861023,5400,1.2753895369975032,0.0
18,2.1521687507629395,1.260589644961943,0.06503237641678085,1.3058063039741634,1.1487700709811848,0.0,0.14949554273071153,0.1,0.005511283874511719,0.10302901268005371,0.049803175,2.461938,1.9431575953024585,0.0,0.01738593193873673,0.0,300,0.05288505554199219,3.4002892056981806,1.4712570291538365,5700,1.2450404475360006,0.0
19,1.9491925239562988,2.2562527610467447,1.7153986696698749,5.2272952035167055,1.2413841276237578,0.0,0.18078888522549727,0.1,0.00583958625793457,0.09392952919006348,0.050966065,2.6272051,1.974467111876887,0.0,0.02734308902728908,0.0,300,0.033266544342041016,0.6820198303951269,0.6969633189518167,6000,1.2442413585207246,0.0
20,1.9932725429534912,9.858140612184643,8.98665473359209,22.386807116094044,1.2424233452937754,0.0,0.17209063866894006,0.1,0.030355215072631836,0.14167428016662598,0.04982759,0.9913552,2.7628344619076626,0.0,0.1319423570006483,0.0,300,0.0719454288482666,0.9085772277364678,0.852039979172855,6300,1.2544556603568746,0.0
21,1.9274632930755615,2.2772015258576976,1.7493902467191909,5.306327628889467,1.2061171489426417,0.0,0.17323888260077078,0.1,0.0043163299560546875,0.09885048866271973,0.050410207,1.500028,2.714271168302666,0.0,0.030910035406215328,0.0,300,0.037760019302368164,0.6412517667769349,0.7780038632235746,6600,1.2520218915348933,0.0
22,2.152340888977051,1.4081853444063746,0.19926703427430037,1.6855571222352026,1.2128270080155121,0.0,0.14624030476771904,0.1,0.008422374725341797,0.40401649475097656,0.050190084,4.6745024,2.583662585913037,0.0,0.01915085315338818,0.0,300,0.03809857368469238,7.30705623685458,6.647839919280324,6900,1.2223796439071177,0.0
23,2.343777894973755,1.2386215019525872,0.021538369285627055,1.2738115972676327,1.2153066494076405,0.0,0.1579504363269995,0.1,0.018723726272583008,0.24113965034484863,0.050839033,1.9635502,2.4491584775169923,0.0,0.017104820781827474,0.0,300,0.04812216758728027,11.106461271282912,5.101589571908823,7200,1.2216820410993687,0.0
24,2.3292393684387207,3.9240895009697447,4.358447752273433,11.467518899910552,1.24091534374724,0.0,0.17967961120029258,0.1,0.005263328552246094,0.11379718780517578,0.051311504,1.401553,2.5966515798622676,0.0,0.05288689036091762,0.0,300,0.12815332412719727,0.7477526715483851,0.7577885008966468,7500,1.2240228172745904,0.0
25,2.118842840194702,1.250634267721726,0.03272408674871898,1.3008234700187988,1.214384488760372,0.0,0.1617953283469671,0.1,0.005778789520263672,0.08468103408813477,0.05038678,5.463404,2.4620498486482134,0.0,0.017269064066842737,0.0,300,0.09601140022277832,3.603764843779836,2.9544843660600493,7800,1.2224620013615335,0.0
26,2.0423431396484375,1.2472337389647565,0.06115137031173443,1.3527753043414985,1.204686157710431,0.0,0.15593332061691134,0.1,0.03806924819946289,0.11026215553283691,0.050233044,5.068014,2.3405682376798675,0.0,0.0172140046231737,0.0,300,0.04259157180786133,2.665135570465044,1.688911379923021,8100,1.2091043612118952,0.0
27,2.264714479446411,1.2550570425277818,0.034327557202970364,1.3076399850459473,1.2163314282421775,0.0,0.15589268470831688,0.1,0.07340097427368164,0.1345984935760498,0.050710622,4.6016426,2.2320171181646593,0.0,0.01729518467764976,0.0,300,0.23492860794067383,1.7628113629890643,0.9751331052806148,8400,1.2139636893646648,0.0
28,1.9730629920959473,1.2397518613317122,0.030518995704877882,1.2903339777701615,1.208608145157184,0.0,0.1370121536508479,0.1,0.0051000118255615234,0.13994884490966797,0.048204545,6.003262,2.132790592481365,0.0,0.017113006836763076,0.0,300,0.03733181953430176,0.9385695913345277,0.46291870330523516,8700,1.239010120737559,0.0
29,1.8889036178588867,1.2859141515774926,0.08703541315573304,1.4304544333009122,1.1999119216903287,0.0,0.15006578061227852,0.1,0.011765003204345703,0.12865161895751953,0.04924811,1.9059324,2.048102948390978,0.0,0.017717324600926083,0.0,300,0.0423738956451416,0.4139506346105881,0.22166705743118786,9000,1.2126723795007641,0.0
30,1.890185832977295,6.515010181831544,9.135695752136296,22.338489467033884,1.2316011919663106,0.0,0.17369755916360105,0.1,0.0055196285247802734,0.20020747184753418,0.050581437,1.3024819,2.4947936717350343,0.0,0.08410880455559927,0.0,300,0.05994296073913574,0.9463476253239534,0.9226799630050035,9300,1.221520417906106,0.0
31,1.9857549667358398,2.2907910801975593,1.7438344344267283,5.31094377846645,1.262332426101671,0.0,0.1758765437312592,0.1,0.007355451583862305,0.15743136405944824,0.049336266,1.2410109,2.474393412581287,0.0,0.03113385351718513,0.0,300,0.03283882141113281,0.6638682062723331,0.631695686612041,9600,1.215013038005649,0.0
32,1.984492301940918,1.272410205174971,0.04451202568204536,1.342809582819792,1.2196219759246512,0.0,0.1754870145993936,0.1,0.0058934688568115234,0.10298347473144531,0.04991721,1.3768725,2.3541950918406553,0.0,0.017548950795128835,0.0,300,0.10514450073242188,2.127438565595995,2.7739084335036064,9900,1.209589506588889,0.0
33,2.0054423809051514,1.2667561228294892,0.030660926173341305,1.2982210119879984,1.232574968870869,0.0,0.15444002122656356,0.1,0.004774808883666992,0.10512757301330566,0.050618485,2.9705942,2.245451194939539,0.0,0.017483416775379314,0.0,300,0.04209446907043457,3.1103634938316835,2.5059780081695897,10200,1.2058650230040848,0.0
34,1.8015096187591553,1.242587723136467,0.025593706260076992,1.2698151699007423,1.2082843541956658,0.0,0.137381643290198,0.1,0.0036323070526123047,0.10589599609375,0.049941543,8.307846,2.1451648477592316,0.0,0.0171594523752966,0.0,300,0.06663155555725098,2.038502448523665,1.3172797116140147,10500,1.2032299639475261,0.0
35,1.8344719409942627,1.2629588857971248,0.04654788142079624,1.312267059605108,1.2082398282386408,0.0,0.14226708569097488,0.1,0.02688455581665039,0.12298464775085449,0.050808333,8.551511,2.0569442515630207,0.0,0.01742517607710833,0.0,300,0.04932904243469238,1.1021245089488068,0.6644428534645845,10800,1.2010615593985405,0.0
36,1.716601848602295,1.26626168732771,0.027713381806644184,1.305634002568082,1.2375672140111142,0.0,0.13718859270243666,0.1,0.016726255416870117,0.09067726135253906,0.049411505,30.032555,1.9778759951394898,0.0,0.017472552668561885,0.0,300,0.03651738166809082,0.8426689794199095,0.5259964158843589,11100,1.2028358206785745,0.0
37,2.148314952850342,1.2835495463322295,0.014676062041958112,1.2980486802386721,1.2607326579451321,0.0,0.1485562705416415,0.1,0.042832136154174805,0.15477585792541504,0.049450386,3.8686438,1.9084433502587639,0.0,0.01761174953281724,0.0,300,0.06425333023071289,0.5245936754802161,0.3467997720041334,11400,1.203650311568136,0.0
38,2.1261110305786133,9.324315657696804,8.128717522788131,19.29505730592109,1.2567301754858853,0.0,0.16832546255638348,0.1,0.050817251205444336,0.13139772415161133,0.048850607,1.2257291,2.650030581002568,0.0,0.12489657725602242,0.0,300,0.04592442512512207,0.9180648037122048,0.8787348201239613,11700,1.2041535589790175,0.0
39,2.0054545402526855,1.3087491553787258,0.1208837985306784,1.5179561162274788,1.2311237499085141,0.0,0.1462437945854462,0.1,0.0045070648193359375,0.182159423828125,0.04974352,4.2872453,2.515902438440184,0.0,0.018012013182378335,0.0,300,0.05511927604675293,0.7706517971157957,2.31644653191524,12000,1.2027928322775112,0.0
40,2.078248977661133,1.3259981493355855,0.13004705916914877,1.5508718591550164,1.2388777907617192,0.0,0.15675144876739552,0.1,0.004191160202026367,0.08993005752563477,0.049562063,1.7543957,2.396912009529724,0.0,0.018237592455671456,0.0,300,0.06569766998291016,2.212566999739175,2.6198994707892362,12300,1.2077349290778605,0.0
41,1.8935439586639404,1.378692891986687,0.1359941583930353,1.6071220755264075,1.2483710359171,0.0,0.15121852502837385,0.1,0.003991842269897461,0.2147059440612793,0.0504888,5.9586325,2.2950900977754207,0.0,0.018975890308054456,0.0,300,0.03859233856201172,2.3629775704540443,1.7624543046287524,12600,1.2056606886096104,0.0
42,2.3499135971069336,1.2362463911194361,0.027835085243277716,1.2839003674803198,1.2137737820216619,0.0,0.14534809165797463,0.1,0.00443267822265625,0.11583614349365234,0.04981906,8.222925,2.1892057271098224,0.0,0.017059297672927246,0.0,300,0.04615497589111328,2.501041471415805,1.5712759986575926,12900,1.2097294178871891,0.0
43,2.573936700820923,2.323322116061256,1.810930204449636,5.459813320192958,1.260995835522921,0.0,0.17007740665388144,0.1,0.005674600601196289,0.2502572536468506,0.050609894,1.7222089,2.202617366004966,0.0,0.031569542052369795,0.0,300,0.06373095512390137,0.6442416552785853,0.6436244318188371,13200,1.2122476454151576,0.0
44,2.375190496444702,7.091471764419982,6.67087177136533,17.52436752932627,1.2629123426551123,0.0,0.1815915986308261,0.1,0.008130311965942383,0.1204218864440918,0.049929008,0.95589983,2.6915028058464676,0.0,0.09512337526836288,0.0,300,0.04189109802246094,0.8513096928516043,0.803995907624802,13500,1.2175176099126772,0.0
45,1.9978694915771484,5.065940583025352,5.954595766157537,15.371477119477536,1.2457226367332639,0.0,0.18275940058230927,0.1,0.00436091423034668,0.08858919143676758,0.04973124,1.5288688,2.9289465835643558,0.0,0.06796194204088105,0.0,300,0.040793657302856445,0.8299256337666151,0.7492679968438682,13800,1.225508728897431,0.0
46,2.1758792400360107,6.020427777658174,8.249588564277436,20.309017890950336,1.218444682992735,0.0,0.1553363991794912,0.1,0.005108356475830078,0.18050098419189453,0.049045935,2.0472016,3.2380947029737377,0.0,0.07752545656865774,0.0,300,0.09924459457397461,0.7745708295323936,0.6764272349587543,14100,1.234031681660603,0.0
47,2.1496589183807373,1.3177992412663937,0.0751251364463826,1.4457732469367646,1.2577782047280752,0.0,0.1714382500127916,0.1,0.005084514617919922,0.22805571556091309,0.050111424,3.5237854,3.0460651568030035,0.0,0.018155247866953387,0.0,300,0.037763118743896484,39.72925727741774,30.953541223599473,14400,1.2128166447810285,0.0
48,2.291887044906616,1.3001445055100982,0.07444651163212501,1.4279134391050758,1.2413157236895254,0.0,0.1465072572459713,0.1,0.004648923873901367,0.09493017196655273,0.048834514,7.6922045,2.871473091673713,0.0,0.017922826475355102,0.0,300,0.06216287612915039,37.860536893177176,10.717860278219947,14700,1.2176648117300657,0.0
49,2.177480697631836,6.279390410833154,8.66006387037063,21.278918074599908,1.22539007378888,0.0,0.16975940463121933,0.1,0.0067577362060546875,0.17503142356872559,0.048625514,1.758335,3.212264823589657,0.0,0.08095509880100465,0.0,300,0.06268787384033203,0.8158413507048159,0.8436370253368849,15000,1.225947993173955,0.0
50,2.0360331535339355,2.038230482958302,1.2843273385925937,4.262171518359883,1.2518456487046399,0.0,0.19426099659069834,0.1,0.005547523498535156,0.10608553886413574,0.050065953,0.852099,3.094861389526522,0.0,0.027762154087865618,0.0,300,0.033249855041503906,0.6705558735696338,0.6365621142845787,15300,1.2263875962926483,0.0
51,2.281013011932373,2.276648997102318,1.769782224092772,5.341756444530698,1.2245245767917814,0.0,0.17036929458331246,0.1,0.008428573608398438,0.13560152053833008,0.050425235,1.313057,3.0130401502841018,0.0,0.03093903734083593,0.0,300,0.051058292388916016,0.7671151313308606,0.7293098742537667,15600,1.2461410520730072,0.0
52,2.131168842315674,9.350352152024072,10.723674604756926,27.40781259106764,1.2679682824677976,0.0,0.17669144782730753,0.1,0.006064653396606445,0.14203286170959473,0.050158426,0.88274413,3.646771350458099,0.0,0.12509476340620768,0.0,300,0.035453081130981445,0.8155294553180817,0.7548151898569395,15900,1.27064185390746,0.0
53,2.161031484603882,1.376505075311067,0.09956612005836635,1.5393251438369997,1.2686785124907438,0.0,0.1624796694818774,0.1,0.02059149742126465,0.13933324813842773,0.050365392,0.81121373,3.419744722943396,0.0,0.01887286066146452,0.0,300,0.037450551986694336,6.381178908934747,11.81227842180966,16200,1.2802459438078466,0.0
54,1.8696398735046387,1.385587618295862,0.18138638441369234,1.697349881293421,1.2484395491969293,0.0,0.1610061599447684,0.1,0.00488591194152832,0.23875164985656738,0.049885415,0.95847636,3.2163290124786426,0.0,0.019068274115621286,0.0,300,0.13698601722717285,9.24455169950692,6.966697929400816,16500,1.2750003115600392,0.0
55,2.216445207595825,1.2608175248722393,0.01686111925087056,1.2850232786635865,1.2376578271249101,0.0,0.15634586332605407,0.1,0.0053327083587646484,0.11580276489257812,0.050242204,1.832346,3.0207778637180023,0.0,0.017400132629934263,0.0,300,0.07955408096313477,13.44747073765982,6.065029672514165,16800,1.282015712273361,0.0
56,2.165215492248535,1.2841789975694695,0.03696120876167688,1.3212636702301153,1.2379150278552709,0.0,0.16566023988779738,0.1,0.005536794662475586,0.2207942008972168,0.050119966,0.74637777,2.847117977103149,0.0,0.01771361893512019,0.0,300,0.06420230865478516,5.761245132708867,1.6096471143954976,17100,1.2625449551402728,0.0
57,2.0587122440338135,2.2845383154767513,1.7943969723636661,5.392498419521132,1.2386693007940246,0.0,0.19484160233779982,0.1,0.004675388336181641,0.12656569480895996,0.049889296,1.0396733,2.7908600109405093,0.0,0.03102906268262074,0.0,300,0.04861855506896973,0.7561059829031037,0.759949098293263,17400,1.2997113537824363,0.0
58,2.0599939823150635,1.2700638313914239,0.02554174195723178,1.3088618505987042,1.2466040869254575,0.0,0.1532615087660931,0.1,0.005167245864868164,0.08562183380126953,0.05102208,0.9128296,2.6387803929856006,0.0,0.01751325625250215,0.0,300,0.03083205223083496,0.28582086740032003,0.11386193737383775,17700,1.296748299446678,0.0
59,2.2493855953216553,1.2832492233687478,0.015327723488320882,1.3042810295984526,1.2669395537657764,0.0,0.1729031896472868,0.1,0.004189252853393555,0.1694185733795166,0.050540574,0.4420994,2.5032272760239156,0.0,0.017674657355880915,0.0,300,0.06142139434814453,0.7158397161515817,0.5222231104441741,18000,1.3468677883801516,0.0
60,2.0188848972320557,1.2552680070783375,0.03981668725710754,1.3175527805057894,1.2068966898139901,0.0,0.15253986328820934,0.1,0.0047016143798828125,0.15398478507995605,0.050500628,0.39934912,2.378431349129358,0.0,0.01730556810949006,0.0,300,0.10264396667480469,0.5930764515634676,0.41376072408602615,18300,1.334219827880571,0.0
61,2.363166570663452,4.021820447916869,4.789043604025214,12.316598718200686,1.2249708284773806,0.0,0.17194480574672438,0.1,0.004782199859619141,0.20739150047302246,0.049682625,2.5237572,2.542770259008109,0.0,0.05420885162280859,0.0,300,0.07588720321655273,0.926248580946533,0.8749903200801257,18600,1.3270174929348868,0.0
62,2.3046858310699463,1.3162626544954559,0.02512329698410452,1.3450904321280024,1.2860528582724722,0.0,0.17307702163018102,0.1,0.007012128829956055,0.10568737983703613,0.050494436,0.5719541,2.420119498556844,0.0,0.018077554806615805,0.0,300,0.09794092178344727,0.20145798964637354,0.6681608210739788,18900,1.3695663214371303,0.0
63,2.3602373600006104,4.28439160791995,2.923188101640761,7.682841505728187,1.219633718765051,0.0,0.16299876563442126,0.1,0.004437446594238281,0.11130332946777344,0.049123336,2.4417915,2.6065467094931547,0.0,0.05766154017425612,0.0,300,0.0526270866394043,0.7837175992513479,0.717296662115328,19200,1.3804829658205071,0.0
64,1.9050531387329102,1.2519989254154844,0.023575461558113624,1.2767049127369052,1.2220215614494703,0.0,0.1669889753104506,0.1,0.006268024444580078,0.20753860473632812,0.051047217,1.0722785,2.471091931085388,0.0,0.017278417420693113,0.0,300,0.058837175369262695,1.2100683798178729,2.162304315838657,19500,1.42843048768586,0.0
65,2.0421335697174072,4.310880813381029,3.0619355072779038,7.494036731362089,1.2497546252047638,0.0,0.16970577055495842,0.1,0.004388570785522461,0.11883759498596191,0.04987449,1.3123442,2.655070819314952,0.0,0.054720739579906835,0.0,300,0.03269529342651367,0.7010963431613921,0.651945694413066,19800,1.4432629003267265,0.0
66,1.9233858585357666,1.2643423000504672,0.03708245372253897,1.3161479925065847,1.2279944674580032,0.0,0.15852555156769346,0.1,0.006153106689453125,0.1081993579864502,0.049581148,1.5682349,2.5159979673885036,0.0,0.017443307673173144,0.0,300,0.05151867866516113,5.824486800040734,6.759257980100002,20100,1.4346251281164495,0.0
67,2.2858171463012695,1.3316285951126252,0.07631807367636509,1.4152613823964242,1.2389617672261866,0.0,0.16090469583390857,0.1,0.007257699966430664,0.10040760040283203,0.04975116,1.299741,2.397561030160916,0.0,0.01831114048052692,0.0,300,0.07113933563232422,4.1471450603924636,3.0476931224684627,20400,1.4428022456303216,0.0
68,2.1276612281799316,1.2882479252433086,0.05195521425079866,1.3573072473397894,1.217926525485904,0.0,0.15876847724380835,0.1,0.004381656646728516,0.15761446952819824,0.049993474,3.7071762,2.2866297196691554,0.0,0.01773626484221309,0.0,300,0.03306293487548828,4.965450303735094,3.0262193987213983,20700,1.4379097605655957,0.0
69,2.143153667449951,3.5516091683871305,4.009673348892464,10.496480686941755,1.2042660434922212,0.0,0.16980170769743355,0.1,0.004595518112182617,0.11211156845092773,0.05011525,1.377388,2.413127664540953,0.0,0.04794519385145985,0.0,300,0.08060550689697266,0.7659623382765324,0.7750658527996902,21000,1.5134665183187745,0.0
70,2.5666303634643555,1.4097818729273708,0.19998676439744892,1.7361919357048563,1.2287313773959314,0.0,0.172305554257905,0.1,0.005741119384765625,0.14958763122558594,0.049632236,0.91407704,2.312793085379595,0.0,0.019380611700758568,0.0,300,0.0711665153503418,0.9500412180232848,0.8375708293959059,21300,1.5076692209801408,0.0
71,2.5754506587982178,4.873489049670751,3.6649946140369822,9.534131672528828,1.2821511266854098,0.0,0.17325367893991567,0.1,0.008001327514648438,0.2850618362426758,0.051170602,0.8975526,2.568862681808711,0.0,0.05888958672837165,0.0,300,0.04287600517272949,0.7463567227125935,0.712011154604956,21600,1.4443196510821072,0.0
72,2.3524770736694336,7.870297327889397,3.9635336218629478,11.369759633091011,1.2221451380891186,0.0,0.18048572490093537,0.1,0.006678342819213867,0.225616455078125,0.05000351,0.77098083,3.0990061464167797,0.0,0.10212755966522655,0.0,300,0.05437350273132324,0.740544366582987,0.6468564212026617,21900,1.5001698741863638,0.0
73,2.203972816467285,4.787003864990331,3.7762295747117096,10.290413364350805,1.2514442975439977,0.0,0.172765812361901,0.1,0.005216121673583984,0.1717844009399414,0.049126893,1.2734839,3.267805918274135,0.0,0.06441874186188466,0.0,300,0.04647707939147949,0.7249194959306897,0.6597166216540266,22200,1.5332270608559397,0.0
74,2.4317269325256348,4.320483362392747,5.267703446746883,13.44436939298692,1.257636046462143,0.0,0.16535578594038658,0.1,0.09868431091308594,0.14328551292419434,0.049826782,1.5279863,3.373073662685996,0.0,0.05817605109181675,0.0,300,0.0984647274017334,0.7244161444914635,0.7326591182562849,22500,1.4860983991002854,0.0
75,2.6075806617736816,7.326935824919142,8.235435741361153,21.318273247671858,1.2555851794343278,0.0,0.1783460127250545,0.1,0.010605573654174805,0.10993099212646484,0.049740117,1.017659,3.7684598789093107,0.0,0.0949133915009605,0.0,300,0.06644654273986816,0.6712104339215283,0.6292927552730445,22800,1.4288007834982543,0.0
76,2.467510461807251,3.0520091747213445,3.0754226567020715,8.378372843649405,1.2223430774172903,0.0,0.16771245835403928,0.1,0.005301237106323242,0.1736152172088623,0.04923392,1.6472615,3.696814808490514,0.0,0.03793879740577357,0.0,300,0.04406118392944336,1.0571441759915885,1.069747594421054,23100,9.36923440118217,0.0
77,2.252086877822876,1.3295419579086452,0.12505605271163403,1.5305464283264476,1.2061311924003117,0.0,0.16344422760169908,0.1,0.0071527957916259766,0.22005367279052734,0.050830554,2.1493707,3.4600875234323274,0.0,0.018318011267516022,0.0,300,0.058171987533569336,37.70535095019056,17.322784534060172,23400,10.404806599758137,0.0
78,1.9324746131896973,2.134875248779885,1.4560532834296798,4.656267793462427,1.253672841080434,0.0,0.16333426900444656,0.1,0.0039365291595458984,0.10590314865112305,0.050517622,0.99602884,3.3275662959670833,0.0,0.029054878663317588,0.0,300,0.04733109474182129,1.5852809160539887,0.7322512961969009,23700,1.300105924414968,0.0
79,2.394045352935791,1.8832718777398254,1.0447752496491016,3.6924871238323966,1.259131504768315,0.0,0.16528777698918867,0.1,0.010216236114501953,0.1412978172302246,0.05008322,0.85525596,3.1831368541443577,0.0,0.022331202890428774,0.0,300,0.03642392158508301,0.8682404052621583,0.4939347617879057,24000,1.3194769756349651,0.0
80,2.306218147277832,2.0543003371741135,1.279164059802261,4.268966220603791,1.278127675602508,0.0,0.1829240454452813,0.1,0.012557506561279297,0.2076869010925293,0.049681116,1.3099972,3.0702532024473332,0.0,0.027983260781595683,0.0,300,0.07123064994812012,0.6022033740819752,0.5650316791523762,24300,5.345225490433079,0.0
81,2.706735849380493,10.675288879743006,7.789212093638129,22.350251939839747,1.2532294749435988,0.0,0.16041249793615425,0.1,0.007990837097167969,0.13208794593811035,0.049448125,1.2998532,3.8307567701769005,0.0,0.1429149563221941,0.0,300,0.07369399070739746,0.8246141050916053,0.7880621618334531,24600,14.313914474860981,0.0
82,1.7407987117767334,5.523102609744964,7.3923310977381655,18.326884131151466,1.206608677633303,0.0,0.16560158792989646,0.1,0.0036389827728271484,0.07799959182739258,0.04994092,1.3002046,3.999991354133707,0.0,0.07423275461167621,0.0,300,0.0840609073638916,0.7318955277491855,0.6480972724899169,24900,1.335208836436194,0.0
83,1.8597211837768555,3.8023325829502257,1.4708300094491855,5.576249404579989,1.5531813794036309,0.0,0.18474023205542206,0.1,0.01872086524963379,0.07677936553955078,0.04978066,0.69210535,3.980225477015359,0.0,0.04790813388742708,0.0,300,0.06732749938964844,0.3815790562446981,0.3837021574501877,25200,1.3199826152542669,0.0
84,1.7918763160705566,4.420609966981795,5.493445974931881,13.935466945919025,1.218481286100724,0.0,0.16761805221536455,0.1,0.00794219970703125,0.08699822425842285,0.049733613,1.3466169,4.024263926012003,0.0,0.05619752863960798,0.0,300,0.08693122863769531,0.5939673287719823,0.5572225964497524,25500,1.322902581147064,0.0
85,2.200535535812378,3.8785037448895863,3.283516774507178,9.271119634594204,1.2207795521022642,0.0,0.1744889242158953,0.1,0.006134986877441406,0.2047884464263916,0.049777195,0.66430944,4.009687907899761,0.0,0.052277972205105376,0.0,300,0.0662679672241211,0.7842981852236639,0.7667077913493076,25800,11.338844883775252,0.0
86,2.092418670654297,2.011192421816707,1.2958154328547822,4.254813302535625,1.2163629521814303,0.0,0.16076577523570595,0.1,0.008709907531738281,0.15837979316711426,0.050691474,1.2001647,3.8098383592914558,0.0,0.027407394660292836,0.0,300,0.04494071006774902,2.8361796204908973,1.8109232158710336,26100,26.402615336209134,0.0
87,2.021613597869873,7.350374896575585,6.949125584966111,18.25353536533351,1.2505927697619403,0.0,0.16631138340966253,0.1,0.0041675567626953125,0.07178401947021484,0.05062827,1.0792996,4.163892013019868,0.0,0.09526454724627637,0.0,300,0.03076767921447754,0.6774119724768067,0.6668327164414924,26400,27.35463464159396,0.0
88,2.392611026763916,7.467731742334843,7.636077458530075,19.96220560268007,1.2488222677583256,0.0,0.15915091347539165,0.1,0.0044786930084228516,0.09596776962280273,0.049341805,1.4441235,4.494275985951366,0.0,0.10014790738131904,0.0,300,0.046764373779296875,0.5962217585797236,0.5490780995614212,26700,1.284295866709797,0.0
89,2.4128620624542236,3.9132703517646394,3.577055314326197,9.940096621568038,1.2045447464168428,0.0,0.17029610225172429,0.1,0.013482809066772461,0.1517186164855957,0.050081138,0.93749094,4.436175422532694,0.0,0.049428635429412365,0.0,300,0.059034109115600586,0.7373336685812141,0.7919598979291915,27000,1.2900798385630134,0.0
90,2.194920778274536,8.498646601726339,7.295077986486267,20.47056063951867,1.3466679154464767,0.0,0.1705621701248914,0.1,0.008332490921020508,0.27149510383605957,0.04964648,0.9527885,4.842422540452058,0.0,0.11384812777513383,0.0,300,0.08077764511108398,0.5607697084438296,0.5424604874789647,27300,1.2831329930201627,0.0
91,2.130652666091919,10.274617844533989,10.275850007252128,27.323886277877904,1.2611269073909224,0.0,0.16648850527158363,0.1,0.005548000335693359,0.08176398277282715,0.05016133,1.1641734,5.385642070860252,0.0,0.13091521672717943,0.0,300,0.04283714294433594,0.6331793592574527,0.533062378729088,27600,1.279314252834958,0.0
92,2.3614630699157715,8.947195057636652,4.745765256981205,14.96286362225583,1.660891107337454,0.0,0.16735402773661448,0.1,0.07623529434204102,0.09133434295654297,0.04991086,1.1422697,5.741797369537892,0.0,0.11652500276746325,0.0,300,0.03559565544128418,0.4744358557445967,0.4698077238928641,27900,1.269061625908194,0.0
93,2.0413362979888916,12.534072830983707,10.183450952414177,27.324111383142416,1.8304454954442113,0.0,0.16850478703623237,0.1,0.0043125152587890625,0.0946657657623291,0.049538232,0.8205462,6.421024915682474,0.0,0.16753904560998617,0.0,300,0.04266786575317383,0.4943322657853317,0.48109790231684085,28200,1.2574424484521638,0.0
94,2.504563331604004,5.4071038585130315,6.884001840286233,17.328118362132944,1.2423391098641074,0.0,0.1655711977137192,0.1,0.0051038265228271484,0.16295123100280762,0.049797587,1.2122598,6.31963280996553,0.0,0.07265509042917956,0.0,300,0.08146548271179199,0.9035157740625794,0.6587117780539395,28500,1.235326325937194,0.0
95,2.5509634017944336,4.579706181077656,3.4586650463979827,9.31534854561905,1.2278135867974524,0.0,0.16955295858906402,0.1,0.004625797271728516,0.17423224449157715,0.04978877,0.83815247,6.145640147076742,0.0,0.06165268537750168,0.0,300,0.0853128433227539,0.7591371215687798,0.4045367552420867,28800,1.2432213258131561,0.0
96,2.5640881061553955,16.662644183737207,7.690707004515007,22.322382660145863,3.4087386514394145,0.0,0.1752794947333479,0.1,0.00847935676574707,0.16150879859924316,0.049421355,0.68872154,7.197340550742789,0.0,0.21942375735754477,0.0,300,0.0515439510345459,0.5721827380555343,0.5079041073766327,29100,1.234513457930346,0.0
97,2.105184555053711,5.337172841356761,5.016231228073224,13.51637465380622,1.210229654395464,0.0,0.15040046576481986,0.1,0.005431413650512695,0.11082005500793457,0.050387517,1.0561495,7.0113237798041865,0.0,0.07175273886142275,0.0,300,0.03717637062072754,0.697613404149009,0.8548052275816334,29400,1.2468057421823797,0.0
98,2.639104127883911,18.802344225255275,6.364989760195872,26.520616285432748,8.828761160074443,0.0,0.1763707146031014,0.1,0.025136232376098633,0.14313793182373047,0.050256457,0.6907425,8.190425824349296,0.0,0.24793143791576158,0.0,300,0.039656639099121094,0.42701721311221547,0.30037673352489885,29700,1.248607064208094,0.0
99,2.143890857696533,12.317762285946776,10.953151439952457,30.259489152192824,1.2564157766736233,0.0,0.18131107072954913,0.1,0.003942012786865234,0.0780479907989502,0.05005914,0.8323593,8.603159470509045,0.0,0.16482807411400607,0.0,300,0.032358646392822266,0.5220304785924007,0.5298207015317995,30000,1.2464263759859298,0.0
100,2.1531286239624023,1.4506992119603284,0.20638150646847292,1.6900021783944237,1.2025401346070441,0.0,0.13984252763030294,0.1,0.00586390495300293,0.11874675750732422,0.048741765,11.644647,7.887913444654173,0.0,0.01975691827405269,0.0,300,0.04197263717651367,263.15009075174186,128.97009813053066,30300,1.3388384528160284,0.0
101,1.7995617389678955,28.775798293218287,7.968156091127677,39.26051622985615,18.965642356493294,0.0,0.16478918784350016,0.1,0.003469705581665039,0.1053457260131836,0.04964899,0.69512105,9.976701929510586,0.0,0.3809360164307476,0.0,300,0.02169322967529297,0.45209544576337823,0.39831235798974335,30600,1.3986942564140181,0.0
102,2.661489963531494,1.914173191609824,0.8986588470614864,3.4279254246277766,1.2271756282663824,0.0,0.14996956529882813,0.1,0.006835460662841797,0.12062835693359375,0.048735086,0.480372,9.170449055720509,0.0,0.026044738187233674,0.0,300,0.0777273178100586,35.9321197817996,43.66613205600633,30900,1.4025167193478847,0.0
103,2.624377489089966,3.041645206984591,3.027330978563829,8.284494269727327,1.2540005936493248,0.0,0.1648241668279973,0.1,0.021095752716064453,0.14761090278625488,0.050443966,1.261755,8.557568670846917,0.0,0.03779776956801223,0.0,300,0.0900716781616211,4.239424598805047,2.676394018154173,31200,1.354810437403897,0.0
104,2.683098316192627,14.392045652277794,11.629209534901598,30.284087074627173,1.3379158963089623,0.0,0.1599730390427178,0.1,0.005702495574951172,0.09608340263366699,0.049258113,0.84637725,9.141016368990005,0.0,0.19225425978986016,0.0,300,0.07404136657714844,0.46429815685255127,0.47892879178715253,31500,14.581090073987413,0.0
105,2.407784938812256,8.657680533157883,7.631632232889265,21.445378398225095,1.2670105985586204,0.0,0.1722956027140755,0.1,0.008840322494506836,0.12745094299316406,0.04951986,0.6694673,9.092682785406794,0.0,0.11267646162980216,0.0,300,0.08061408996582031,0.6231693866354437,0.5911329873536745,31800,1.5219758948628488,0.0
106,2.3258516788482666,17.96398232563434,10.972207121913126,30.54301817069199,1.2957495966264267,0.0,0.1657980688255967,0.1,0.006672382354736328,0.16225194931030273,0.04993849,0.83770007,9.979812739429548,0.0,0.23676944835470093,0.0,300,0.04051375389099121,0.4652729754042908,0.4315748649630834,32100,15.547603448721196,0.0
107,2.8305678367614746,3.955381694865682,4.613877728476241,11.94575934062533,1.2143044783997599,0.0,0.15671297784999785,0.1,0.010996580123901367,0.26629042625427246,0.049337164,1.0951861,9.377369634973162,0.0,0.04999855433092102,0.0,300,0.07480716705322266,1.2002206730642915,1.3023607499211003,32400,1.4724036709681239,0.0
108,2.847445249557495,11.178830736287615,8.993220022137784,22.28710350497434,1.2369279659293941,0.0,0.16855109059115958,0.1,0.0053441524505615234,0.09756708145141602,0.050463807,0.71796095,9.557515745104606,0.0,0.14963112808335674,0.0,300,0.04598593711853027,0.39560230583120265,0.3912721487103328,32700,5.477961940466671,0.0
109,2.850897789001465,4.552225238401075,3.7392900919864083,10.385806531717774,1.240371344848671,0.0,0.1518759691651546,0.1,0.00820159912109375,0.12068772315979004,0.05053196,0.9820819,9.056986694434254,0.0,0.06129018293538676,0.0,300,0.09621286392211914,2.4062006253478523,1.7234480718487413,33000,1.4128336108947523,0.0
110,2.4514474868774414,11.051788577696838,10.670512751024205,27.36163955648909,1.3378288631001054,0.0,0.16766624111501627,0.1,0.005926609039306641,0.27402830123901367,0.050097592,0.86046374,9.256466882760513,0.0,0.14794122021483286,0.0,300,0.03398013114929199,0.511201656609537,0.533581923344505,33300,4.428349867369639,0.0
111,2.5878119468688965,4.452847465438169,3.320682749509411,8.791096244108955,1.208915139601568,0.0,0.16164689947399227,0.1,0.005231380462646484,0.166489839553833,0.049694594,0.64617896,8.776104941028278,0.0,0.05992186054927123,0.0,300,0.08520698547363281,0.6114073523975964,0.5491653946456145,33600,11.476768181345557,0.0
112,2.868562936782837,1.3192619799301966,0.04033562120966391,1.378477617987613,1.264626795541655,0.0,0.16518696311936337,0.1,0.005409955978393555,0.12781834602355957,0.04999721,0.56310964,8.03042064491847,0.0,0.018151430135049794,0.0,300,0.06089663505554199,50.50616166725718,36.06111725084863,33900,1.3060096994462413,0.0
113,2.8015427589416504,18.145746431131244,10.226753546356775,28.513490281700083,1.212922218228506,0.0,0.17227177967546575,0.1,0.007295846939086914,0.181060791015625,0.050377607,0.6825593,9.041953223539748,0.0,0.2391962831769372,0.0,300,0.08271074295043945,0.5296457904693289,0.4798903142972476,34200,1.3477974545858664,0.0
114,2.834355592727661,12.346910698938258,9.446518985145856,27.38518142808374,1.2728043687671216,0.0,0.15443956453701732,0.1,0.0045087337493896484,0.18202900886535645,0.05032841,2.5030668,9.3724489710796,0.0,0.16521169547214837,0.0,300,0.09031939506530762,0.536966052847257,0.4658934801990388,34500,1.347351795280585,0.0
115,4.552320241928101,12.334747057491771,9.674374396421575,23.40465870372276,1.2338521157320435,0.0,0.16248716108636457,0.1,0.013252735137939453,0.12730765342712402,0.05009919,0.89152944,9.668678779720818,0.0,0.16505199447443142,0.0,300,0.04844379425048828,0.4199959193147384,0.3981711836293243,34800,1.4413790881215578,0.0
116,2.6923418045043945,12.361073399789818,8.175900837220672,21.642198777442736,1.3291689180471307,0.0,0.1567546261103141,0.1,0.006990194320678711,0.18969321250915527,0.049379226,0.9045917,9.937918241727719,0.0,0.16196632803655397,0.0,300,0.09409284591674805,0.33446418667535777,0.3353175877176818,35100,24.44720767822665,0.0
117,2.780825614929199,5.041876510164313,6.532808964275935,16.356980467994983,1.2499827281156426,0.0,0.1741373458177977,0.1,0.00699925422668457,0.23744511604309082,0.050351895,0.68950075,9.44831406857138,0.0,0.06781471838219931,0.0,300,0.07335472106933594,1.2081706682681896,1.046217069137675,35400,1.4102842570875673,0.0
118,2.38657283782959,6.422989144461933,6.828559308430255,17.881743338278813,1.2212997043482603,0.0,0.16518958532996936,0.1,0.01278829574584961,0.1584482192993164,0.0491068,1.3146619,9.145781576160436,0.0,0.08622916152991676,0.0,300,0.0445401668548584,0.980864378383485,0.7185795312498076,35700,1.3718199866303298,0.0
119,2.349564552307129,10.312015260615327,9.76200819610461,26.19823622678315,1.316762194612397,0.0,0.1495317520961775,0.1,0.0039598941802978516,0.12040543556213379,0.049863912,1.8161937,9.262404944605926,0.0,0.1347373094350885,0.0,300,0.10026836395263672,0.4295213665741255,0.45570635338897186,36000,1.4494493020631811,0.0
120,2.178601026535034,6.680505540611411,6.916745678290046,18.300944749902225,1.2951889515542012,0.0,0.1620463635160906,0.1,0.015705585479736328,0.1419539451599121,0.050530106,0.79736215,9.004215004206475,0.0,0.08960911886654159,0.0,300,0.04550004005432129,0.6437370217936023,0.5915776313870876,36300,1.7160472860623133,0.0
121,2.795337438583374,4.262639659267302,5.2197038365065636,13.303246237083385,1.213925110216224,0.0,0.15360606467916404,0.1,0.005127429962158203,0.14514851570129395,0.050097913,0.91728383,8.53005746971256,0.0,0.05742879934907634,0.0,300,0.04746198654174805,0.714168847506184,0.630030369011421,36600,5.841595271558048,0.0
122,2.6976301670074463,11.437574637263586,14.543699589127401,36.379095215827114,1.3111136186038566,0.0,0.15967106111546162,0.1,0.011782646179199219,0.18512272834777832,0.04974089,1.3818675,8.820809186467663,0.0,0.15304874890702422,0.0,300,0.09720373153686523,0.5999513519882964,0.5859000174696932,36900,9.772442250521236,0.0
123,2.3586883544921875,13.354231024464438,5.755733859147275,22.611759217814775,7.329224177849293,0.0,0.15997675799495728,0.1,0.011646032333374023,0.17376089096069336,0.050325133,5.933352,9.27415137026734,0.0,0.1786399432635281,0.0,300,0.04167461395263672,0.4346927237124204,0.4004345672212442,37200,8.916067255034914,0.0
124,2.5876896381378174,4.91446685223508,3.6802759255069115,8.67837337667732,1.2109348488075302,0.0,0.15794563563674952,0.1,0.01801586151123047,0.15629029273986816,0.049947545,0.91012037,8.838182918464115,0.0,0.06597164953692947,0.0,300,0.06498074531555176,0.9137318792400978,0.9558381571109497,37500,21.969031183287587,0.0
125,2.937394618988037,4.5932763545030255,3.5473813007096258,9.630070432660522,1.2360288842720004,0.0,0.1515902261001712,0.1,0.10280251502990723,0.29270434379577637,0.050322,0.9235663,8.413692262068006,0.0,0.05850162312409635,0.0,300,0.11486172676086426,1.2519873720130308,1.055047580352868,37800,21.83540294298498,0.0
126,3.0118672847747803,13.093026518669703,12.182855453401977,33.4349209775941,1.319411580291642,0.0,0.15541217221494713,0.1,0.005560398101806641,0.1761484146118164,0.048766572,1.1772463,8.881625687728176,0.0,0.17182458622688815,0.0,300,0.05068612098693848,0.6487651781280319,0.6424436180246705,38100,12.88828669489441,0.0
127,2.8087337017059326,10.377085866084261,9.355983547536512,22.399961896297178,1.2328708053668205,0.0,0.16756209743054737,0.1,0.007861614227294922,0.24788498878479004,0.050196737,0.9844782,9.031171705563786,0.0,0.13892634836020168,0.0,300,0.05360770225524902,0.5147983225475222,0.48551097272804955,38400,22.869080668495997,0.0
128,2.451481580734253,16.404067440906015,15.455682820914262,36.27541511326962,1.228119826582836,0.0,0.15695071821429557,0.1,0.004410743713378906,0.2216191291809082,0.049626987,0.938513,9.768461279098009,0.0,0.2159605212649627,0.0,300,0.034281253814697266,0.6139219925722597,0.5351760844560998,38700,11.773633945627347,0.0
129,2.6364519596099854,15.113552347808527,7.242431128832171,26.285997001165132,7.348224437148447,0.0,0.162996267024719,0.1,0.006047487258911133,0.25344324111938477,0.05023744,0.9276759,10.302970385969061,0.0,0.20207997347553167,0.0,300,0.0336456298828125,0.28164609851803846,0.2636878653559123,39000,6.749019237361812,0.0
130,2.7179129123687744,21.995728425226524,10.797530215797533,32.49875302012366,5.3045715528953,0.0,0.16735208331570814,0.1,0.017263174057006836,0.19770288467407227,0.050226156,0.63529986,11.472246189894808,0.0,0.2902878090063908,0.0,300,0.05950021743774414,0.36267524289374103,0.3091838544676389,39300,6.9068906383964235,0.0
131,2.52168345451355,19.02354500937303,4.81279389305861,25.773024058744017,12.436755357970242,0.0,0.15873021391848155,0.1,0.006960153579711914,0.13526034355163574,0.05000588,0.71512127,12.227376071842631,0.0,0.2542282783605417,0.0,300,0.058019399642944336,0.20579845143616102,0.20005722723836644,39600,6.84115522831362,0.0
132,2.305877923965454,20.59706240152234,13.036601424108998,36.43647153686463,1.3008660999552966,0.0,0.16162852431762387,0.1,0.011023998260498047,0.09210753440856934,0.050089397,0.77504,13.064344704810603,0.0,0.27521301048108815,0.0,300,0.033573150634765625,0.2841993262731002,0.2793027469644748,39900,19.840029536600365,0.0
133,2.494994640350342,7.758339193112329,7.188587251286477,19.798170509978902,1.2652513789467055,0.0,0.14952518400824547,0.1,0.01196599006652832,0.09335756301879883,0.049887136,0.95916176,12.533744153640775,0.0,0.10402948060262254,0.0,300,0.04481768608093262,2.371626094473619,1.3548265312235626,40200,36.97622549054415,0.0
134,2.7895147800445557,17.871328329057917,10.537359025191988,30.459537960888298,1.5527474275822257,0.0,0.15352310897517898,0.1,0.00706171989440918,0.1169283390045166,0.04965372,0.7974883,13.06750257118249,0.0,0.23554323112369716,0.0,300,0.06339263916015625,0.28118722719842676,0.3297287088843849,40500,12.872095430788823,0.0
135,2.7695024013519287,4.962667106062024,4.266321628686974,11.778656122282,1.2772669216566799,0.0,0.15330653788330487,0.1,0.009202957153320312,0.2059462070465088,0.04979746,0.72405314,12.257019024670443,0.0,0.066763390135918,0.0,300,0.05977225303649902,2.603879403312619,1.6606655209832673,40800,8.840607205660694,0.0
136,2.84503173828125,17.55591627555876,8.44113489904985,27.45146739379128,5.8146276138931405,0.0,0.16317404759225235,0.1,0.0076274871826171875,0.23093795776367188,0.050417338,0.7000947,12.786908749759275,0.0,0.234490220690811,0.0,300,0.055711984634399414,0.3538778848786893,0.3769122926316195,41100,7.905865150723229,0.0
137,2.6034882068634033,12.277083665907716,11.552770539805179,28.25453444067898,1.2519166086377793,0.0,0.15332969472273847,0.1,0.004552125930786133,0.18726229667663574,0.04997881,0.9474031,12.73592624137412,0.0,0.16426564437010452,0.0,300,0.06630063056945801,0.43324307728077666,0.4221120495462935,41400,38.83281452660551,0.0
138,2.3285069465637207,13.25359831445395,7.212078907838747,23.564914814182384,6.346300247684723,0.0,0.15472505496542838,0.1,0.005980014801025391,0.14468908309936523,0.048730362,1.4116727,12.787693448682104,0.0,0.17729757505412305,0.0,300,0.03219771385192871,0.298279719107934,0.290783591727643,41700,8.65295527154537,0.0
139,3.0605032444000244,8.274627434184872,8.047530170502856,20.97134043532544,1.2443843431595836,0.0,0.1576556273481144,0.1,0.02722454071044922,0.27417874336242676,0.050028246,0.9791824,12.33638684723238,0.0,0.11078618373229679,0.0,300,0.13913464546203613,0.493063851175535,0.4875551280321836,42000,7.942526772789928,0.0
140,2.538038492202759,4.829607159195985,4.167379838487037,11.67860796551768,1.3257806551521438,0.0,0.1604108741379742,0.1,0.00932002067565918,0.1898643970489502,0.04950813,0.66689825,11.58570887842874,0.0,0.0649634396085727,0.0,300,0.049762725830078125,2.4706525318635637,1.7838408746130634,42300,1.9645834360279784,0.0
141,2.7553224563598633,9.840995151527876,9.270110273922429,23.537012487873394,1.3238714024674985,0.0,0.1497796833243215,0.1,0.005586385726928711,0.10473847389221191,0.04964627,1.1648493,11.411237505738654,0.0,0.1317977932331328,0.0,300,0.035511016845703125,0.427482072802669,0.43409165679988077,42600,1.8997108542008447,0.0
142,2.3780131340026855,8.119580003606542,5.654234620778782,16.594017240971205,1.2858942314417443,0.0,0.1713837295239227,0.1,0.004419088363647461,0.10427379608154297,0.050565615,0.85789406,11.082071755525444,0.0,0.10874794634609626,0.0,300,0.03875541687011719,0.5006346512944783,0.48663540928582505,42900,14.810667263019782,0.0
143,3.052022933959961,18.905111294415683,10.998647934534006,31.410112793868386,1.2317940719933376,0.0,0.15519828476720446,0.1,0.004950761795043945,0.19054245948791504,0.050004702,0.94763374,11.86437570941447,0.0,0.24932856505109668,0.0,300,0.11648011207580566,0.49333633853920783,0.44848157539528816,43200,5.7743198389388075,0.0
144,2.677672863006592,13.693892661840415,14.450878263395708,36.699714243058395,1.2343730204998462,0.0,0.15431892974424288,0.1,0.005420207977294922,0.16774940490722656,0.049397785,1.0611073,12.047327404657064,0.0,0.17980997981614225,0.0,300,0.055303335189819336,0.6267021990143488,0.5645642782899749,43500,36.772588296404315,0.0
145,2.580026149749756,5.8462058321229495,4.429592077935596,11.702132062665056,1.2345113775399579,0.0,0.1589553547596135,0.1,0.004576444625854492,0.1354372501373291,0.04964641,0.96894014,11.427215247403653,0.0,0.07853912978797133,0.0,300,0.05962562561035156,0.8368766409623872,0.9592391099997832,43800,3.778384527899107,0.0
146,2.8106729984283447,14.721534712322274,10.22312451692614,29.632857739430946,1.2188067969625276,0.0,0.1600641010007297,0.1,0.0047032833099365234,0.16249442100524902,0.049538802,0.9129017,11.756647193895516,0.0,0.19675652547925487,0.0,300,0.1503462791442871,0.3818937404007152,0.37747798656207787,44100,26.595571893828453,0.0
147,2.779628038406372,12.590455955356909,8.610293825302415,25.446838227900248,1.2957168181316725,0.0,0.15313814841785606,0.1,0.010032415390014648,0.1406993865966797,0.050165497,0.9549235,11.840028070041654,0.0,0.1684637703776001,0.0,300,0.07495355606079102,0.3636049346264477,0.35491733729112773,44400,37.64985959462556,0.0
148,2.553673028945923,16.918877152708788,10.311346484124508,30.415475033002444,6.0305658295372755,0.0,0.16778503160832844,0.1,0.005690097808837891,0.23789453506469727,0.04958514,0.8741665,12.347912978308369,0.0,0.22612213217434826,0.0,300,0.0844268798828125,0.36600080273153796,0.35220858734308674,44700,9.670995930968378,0.0
149,2.9631972312927246,13.679916818371872,10.899610048298058,29.68745289230279,1.2869631864374662,0.0,0.16783679693287418,0.1,0.004990577697753906,0.2245774269104004,0.050412036,0.6759123,12.48111336231472,0.0,0.17959692915240225,0.0,300,0.04557943344116211,0.48298416271715483,0.47872450752722573,45000,18.52339941367952,0.0
150,2.784597635269165,9.758784442231072,6.950357032415857,20.625627601445927,1.355573267457299,0.0,0.15877328655858206,0.1,0.005361318588256836,0.10191702842712402,0.051373333,0.7558573,12.208880470306356,0.0,0.13069790156407626,0.0,300,0.043882131576538086,0.5879616249833244,0.5543184162929096,45300,5.649519355525931,0.0
151,2.3493564128875732,7.561446373665463,6.367410497318782,18.14422547116618,1.3784124364129924,0.0,0.1584227773991158,0.1,0.003926753997802734,0.10448288917541504,0.050222453,0.6943475,11.744137060642267,0.0,0.09785266586677101,0.0,300,0.027426719665527344,0.9967962135668292,0.7514435547782816,45600,11.603466405211924,0.0
152,2.813779354095459,16.543402757822346,8.268082102347028,27.663954771021377,7.7101273731887074,0.0,0.17994876765646836,0.1,0.006415605545043945,0.20755314826965332,0.050557625,0.9624468,12.224063630360273,0.0,0.2211726103897649,0.0,300,0.11056017875671387,0.341304666901255,0.35853261209146886,45900,35.57009538041675,0.0
153,2.9718270301818848,9.958154898145283,7.16854742569517,22.311783926098574,4.665775804213829,0.0,0.1615703390887441,0.1,0.006195068359375,0.10845422744750977,0.050396893,0.8774227,11.997472757138775,0.0,0.13332178177544068,0.0,300,0.04022717475891113,0.5028643177477883,0.4788614570691669,46200,5.705032347803545,0.0
154,2.975501298904419,8.179727234322842,9.497117876745195,24.335813376164914,1.2580030329622185,0.0,0.1542711820996771,0.1,0.008129358291625977,0.20417380332946777,0.049549166,1.3311204,11.615698204857182,0.0,0.10964807655416664,0.0,300,0.06247544288635254,0.6597951009845275,0.6308990208465768,46500,32.63438437636783,0.0
155,2.2344467639923096,10.475690205030292,6.4023894883897094,18.48647700369127,1.2042644960964013,0.0,0.16368860697821386,0.1,0.004697084426879883,0.10114836692810059,0.04920272,0.7148165,11.501697404874493,0.0,0.13690583860307864,0.0,300,0.029774188995361328,0.3696984551724636,0.373574680092473,46800,4.526928906291084,0.0
156,3.037816047668457,13.715042493500288,13.083243895742008,31.76970557668516,1.2364310331794792,0.0,0.16893623098765878,0.1,0.04512643814086914,0.1395859718322754,0.049888812,0.79775935,11.723031913737072,0.0,0.18343559935361053,0.0,300,0.12712764739990234,0.5655435892647996,0.549610284775708,47100,29.543417232080078,0.0
157,2.6591382026672363,4.860629764426864,5.618092077878196,14.582537057393278,1.3994043167596522,0.0,0.1575847273734765,0.1,0.0044803619384765625,0.22454023361206055,0.050118525,1.8875923,11.036791698806052,0.0,0.06538115384436435,0.0,300,0.034188032150268555,0.8689858638352482,0.8686902725957992,47400,6.775727682186969,0.0
158,2.7240593433380127,12.120443749761616,6.421011699731131,22.627311152096123,5.380699392699294,0.0,0.17680725836900468,0.1,0.004573345184326172,0.0814816951751709,0.050042618,0.66427636,11.145156903901608,0.0,0.162194556533225,0.0,300,0.03783559799194336,0.36471229815237094,0.3641692639318932,47700,4.6676539431018265,0.0
159,2.813386917114258,9.837166659447007,9.832570412301735,25.22133959606921,1.255129667757266,0.0,0.15991347355993954,0.1,0.013727903366088867,0.10037088394165039,0.04967543,0.9293964,11.01435787945615,0.0,0.13174956738198898,0.0,300,0.16886019706726074,0.5039168293185862,0.4996452820349578,48000,11.67902790302204,0.0
160,2.794768810272217,12.439074643933356,1.0158399599317285,13.462398232822775,11.31064730867324,0.0,0.1502657488317969,0.1,0.009711980819702148,0.14219403266906738,0.04940458,0.97712004,11.15682955590387,0.0,0.16644634923890034,0.0,300,0.13570475578308105,0.1129591945454188,0.10733220944039326,48300,13.682321044661911,0.0
161,3.0799922943115234,13.54584948342807,10.262045494504935,30.786935821393275,3.7520916790421293,0.0,0.16201152620406728,0.1,0.0049762725830078125,0.2690160274505615,0.049943443,1.0064253,11.39573154865629,0.0,0.1811684438705422,0.0,300,0.05546975135803223,0.5025220612289916,0.4923226322516612,48600,25.594446068806572,0.0
162,2.546882152557373,7.134871671935071,6.099501693431666,15.38313172093705,1.264753245414906,0.0,0.15603450160322863,0.1,0.00672602653503418,0.09909319877624512,0.050214507,0.6872654,10.96964556098417,0.0,0.09571836171464279,0.0,300,0.0346684455871582,0.6456261526930079,0.6164652279605053,48900,4.755395126709547,0.0
163,2.75807523727417,12.872861640359416,2.0872633626537476,14.966303268965081,9.712428087734942,0.0,0.16363080672090874,0.1,0.005975961685180664,0.29866838455200195,0.050556928,0.74496955,11.159967168921694,0.0,0.1722310021101616,0.0,300,0.04436230659484863,0.1139549095441085,0.1104300836610128,49200,7.60954156035518,0.0
164,3.024442434310913,19.291495348329818,9.317692674010214,34.21083045870348,9.52349142346646,0.0,0.17559560466765023,0.1,0.006933450698852539,0.11687612533569336,0.050297894,0.8125603,11.973119986862507,0.0,0.251145318765703,0.0,300,0.13588404655456543,0.4379820443146396,0.4030590224654036,49500,17.796764669563366,0.0
165,2.843486785888672,11.979214774484126,3.46592061072962,15.525251540242616,8.433700198960711,0.0,0.16499564277608741,0.1,0.006880044937133789,0.13341712951660156,0.049632583,0.9590673,11.973729465624668,0.0,0.1603175469267878,0.0,300,0.046895742416381836,0.400363232980823,0.36324092667614605,49800,7.969367575542574,0.0
166,2.4775500297546387,8.89432162625104,9.85715340291498,25.367938279462408,1.2347199727300935,0.0,0.1575593838303956,0.1,0.012981176376342773,0.18581557273864746,0.050019067,1.1308798,11.665788681687305,0.0,0.11918118860324284,0.0,300,0.041925907135009766,0.6126565848021869,0.6009871037313564,50100,9.012812036804817,0.0
167,2.852283239364624,12.639500394573215,9.899757494528796,26.248170974501644,1.2568164956485286,0.0,0.16019323524050635,0.1,0.005509376525878906,0.19257497787475586,0.050002884,1.132468,11.763159852975896,0.0,0.16907223070588442,0.0,300,0.04120278358459473,0.36101953266111764,0.3640240285332103,50400,7.7510853064937395,0.0
168,2.877810001373291,17.09538021674769,11.37851367043712,29.442671471928758,1.3521090306708519,0.0,0.1673200604095061,0.1,0.005506992340087891,0.10353493690490723,0.049877476,0.7483848,12.296381889353075,0.0,0.22852433223943036,0.0,300,0.05027055740356445,0.44457120397986694,0.4158476803800631,50700,26.736700738888775,0.0
169,2.820317268371582,14.277114132720575,13.568049369501782,35.22586235846889,1.2847134303151335,0.0,0.1532959897486136,0.1,0.05000925064086914,0.11786961555480957,0.049963664,1.1324489,12.494455113689824,0.0,0.18762275098166262,0.0,300,0.20491790771484375,0.4787855176643663,0.46048974495259826,51000,1.80067031240623,0.0
170,2.43686842918396,11.427129506853104,11.006033090528465,27.67617483190546,1.2919482847617532,0.0,0.17003966778184945,0.1,0.004558563232421875,0.08280611038208008,0.049375385,0.73354626,12.387722553006153,0.0,0.15295096150136678,0.0,300,0.04094529151916504,0.48240767487325853,0.4745436219655627,51300,1.7031005932229324,0.0
171,2.2473182678222656,17.151997775420945,7.099291232969212,23.292080219738725,5.508568353777272,0.0,0.17658043260246387,0.1,0.011733293533325195,0.11869931221008301,0.04981764,0.6850406,12.864150075247633,0.0,0.22928721471907643,0.0,300,0.031025171279907227,0.26103730796230346,0.25161545352912623,51600,5.79165532339686,0.0
172,2.259087562561035,4.372392621105659,1.988666276977296,6.555919235733518,1.215886241202906,0.0,0.14872076830371722,0.1,0.020873546600341797,0.1953139305114746,0.049785107,0.84887356,12.014974329833436,0.0,0.058884509533108545,0.0,300,0.04517102241516113,9.141481841981474,5.716418943310488,51900,7.604681208624773,0.0
173,2.1490049362182617,33.27838630606061,7.408674527997155,40.234255203988965,21.240235696895486,0.0,0.1581385286590273,0.1,0.0034554004669189453,0.06406664848327637,0.050267514,0.82947177,14.141315527456154,0.0,0.4376381533634308,0.0,300,0.026612043380737305,0.40994080408041184,0.3392398482591806,52200,5.661675827835688,0.0
174,2.4311065673828125,7.5271835873658075,5.571434207012762,16.694955700369935,1.7002201211998669,0.0,0.1753235300602082,0.1,0.00390625,0.09584569931030273,0.049765036,0.6213781,13.47990233344712,0.0,0.1009502868404961,0.0,300,0.049139976501464844,1.0370781492229064,1.3061217538178485,52500,6.687474775982376,0.0
175,2.4599075317382812,18.49977409797672,3.6823102866927853,21.647106669885872,12.270111177782349,0.0,0.1569866617685833,0.1,0.004688262939453125,0.078155517578125,0.050119694,1.0345336,13.98188950990008,0.0,0.2472524111286037,0.0,300,0.13056492805480957,0.0992399637834886,0.09752344210714153,52800,6.683256036731894,0.0
176,2.4368913173675537,19.41764000905113,9.956412875425023,29.31572776579717,5.6160581633140625,0.0,0.15376218643812833,0.1,0.006338357925415039,0.0850381851196289,0.0495594,0.86511046,14.525464559815186,0.0,0.25282762252298324,0.0,300,0.06687760353088379,0.3121187559156763,0.2969511924647774,53100,5.745534689250012,0.0
177,2.35929274559021,24.683157421258418,11.253375313353878,41.3617687852734,12.44786742683765,0.0,0.15118143097613812,0.1,0.009005069732666016,0.1121518611907959,0.049220696,0.8525355,15.541233845959509,0.0,0.32637017497105053,0.0,300,0.04309201240539551,0.2857777267681464,0.24938460461180315,53400,16.57890720068791,0.0
178,1.7080190181732178,18.759657374632955,14.4606000049434,40.27274825848424,5.534020121817855,0.0,0.1610120164391905,0.1,0.0051233768463134766,0.06324887275695801,0.050361376,0.9519462,15.863076198826853,0.0,0.24402149987254612,0.0,300,0.03833293914794922,0.43398462811846605,0.4387191939943065,53700,15.686928225386447,0.0
179,1.6533644199371338,14.91504656491356,10.182568098615462,29.30763897524423,1.2540419390062894,0.0,0.1651220709710987,0.1,0.0029456615447998047,0.05707812309265137,0.050682522,0.7651348,15.768273235435524,0.0,0.19945814846323218,0.0,300,0.016280651092529297,0.5036288807529984,0.4426999244394352,54000,6.697804964601221,0.0
180,1.7533552646636963,9.490051611485978,9.572154852531261,25.798585319026945,1.245734865973816,0.0,0.15396437021081005,0.1,0.0030252933502197266,0.059668779373168945,0.049656104,0.8981377,15.14045107304057,0.0,0.12370103423107219,0.0,300,0.03423643112182617,1.0523040921081714,0.7042236950932836,54300,6.667692600492017,0.0
181,1.648695945739746,22.61095797072397,8.403795565575852,34.500532734052136,13.327884858087618,0.0,0.15822883890349526,0.1,0.0037391185760498047,0.09421396255493164,0.05037933,0.77848315,15.88750176280891,0.0,0.30207346618563935,0.0,300,0.023924827575683594,0.23547462482252698,0.267855098145872,54600,13.691067502502596,0.0
182,1.7193026542663574,5.052139158753658,4.197199002997115,11.340493987195755,1.2132709391152612,0.0,0.1544587665583752,0.1,0.002960205078125,0.06577062606811523,0.050317146,0.61633873,14.803965502403384,0.0,0.06792945509412528,0.0,300,0.0395505428314209,2.6398263368018973,2.015185670397461,54900,43.64529060549378,0.0
183,1.7490510940551758,26.398368265808134,6.2826860420323785,34.34763689678406,18.386332187060024,0.0,0.15945131194748002,0.1,0.0033597946166992188,0.09381866455078125,0.0495859,0.8930069,15.96340577874386,0.0,0.3492396323390775,0.0,300,0.028549671173095703,0.3469672864008699,0.3259343356312565,55200,33.64877507337405,0.0
184,1.7484424114227295,20.45814047973861,10.026988280766398,33.304138880404956,5.242275558733297,0.0,0.1627311446944345,0.1,0.0030722618103027344,0.07794594764709473,0.0500114,0.803812,16.412879248843335,0.0,0.270031349421464,0.0,300,0.021442890167236328,0.29516819245972375,0.24199490181671224,55500,36.54278720283339,0.0
185,1.7287888526916504,8.929763001172184,5.825707260350532,15.727121822969291,1.340177556773125,0.0,0.15898869787988754,0.1,0.003676891326904297,0.09011173248291016,0.050137583,0.7631575,15.664567624076222,0.0,0.1196491923582915,0.0,300,0.03924989700317383,0.9017735914083732,0.9372005866836144,55800,10.488311367035317,0.0
186,1.707122564315796,14.887167224815471,9.114009986969117,26.46181540269223,1.3386459302954137,0.0,0.15365847337305363,0.1,0.004708051681518555,0.08887338638305664,0.049961213,0.71201336,15.586827584150146,0.0,0.19575606129322723,0.0,300,0.021441221237182617,0.3169095238124867,0.30046436796617026,56100,5.499711105419288,0.0
187,1.7464168071746826,6.399795415129267,8.613245122757304,21.31678759298002,1.2672520367166615,0.0,0.15722432670637276,0.1,0.0029668807983398438,0.0560910701751709,0.04980594,0.88845897,14.66812436724806,0.0,0.08592522338905047,0.0,300,0.026271343231201172,1.1507720442813185,0.9258565432207394,56400,4.598276470406546,0.0
188,1.7738831043243408,13.169951903300063,5.8077588681300005,22.581057787739287,6.8801807100231045,0.0,0.16968365205781533,0.1,0.0035369396209716797,0.07784771919250488,0.04975748,0.6554735,14.51830712085326,0.0,0.1761795134085959,0.0,300,0.05113720893859863,0.33785468852070616,0.3117154975581589,56700,24.547441857219216,0.0
189,1.7523503303527832,7.48801412932709,3.780715313078912,11.454209434487657,1.36646097092163,0.0,0.149509906986987,0.1,0.010391473770141602,0.09474825859069824,0.0497456,0.8075557,13.815277821700644,0.0,0.10043493761411956,0.0,300,0.03160858154296875,0.5510477798859208,0.3526920394096086,57000,28.574552907530048,0.0
190,1.7145302295684814,17.004995533984292,11.520769195975616,33.39032031144616,1.4429547428776073,0.0,0.15964739946991804,0.1,0.003106832504272461,0.05488419532775879,0.05013873,0.81562734,14.13424959292901,0.0,0.22728077913601777,0.0,300,0.09615302085876465,0.47873694347090656,0.4801749560469344,57300,29.540148368604488,0.0
191,1.8364667892456055,9.282871328492078,7.226266935259346,20.669381190742843,1.2291934847683872,0.0,0.15906076228792979,0.1,0.0027914047241210938,0.05480813980102539,0.049680296,0.91554576,13.649111766485317,0.0,0.1243635942046185,0.0,300,0.02126765251159668,0.47333101315386916,0.47748527804247937,57600,5.531083648705374,0.0
192,1.7950243949890137,18.50918750348122,7.1442744265912514,30.662216143630413,12.530135024269489,0.0,0.17084333765537987,0.1,0.0030164718627929688,0.055823564529418945,0.050006095,0.8080252,14.135119340184907,0.0,0.2440485810874336,0.0,300,0.028482437133789062,0.37959196844470255,0.3468282197263825,57900,9.512117973483711,0.0
193,1.8388526439666748,22.881890256656785,13.303330663255284,36.33516884961202,1.2750264406918366,0.0,0.1585950760676823,0.1,0.0031599998474121094,0.07799291610717773,0.050212383,0.72529376,15.009796431832095,0.0,0.3023396823948229,0.0,300,0.02759575843811035,0.5158595955614602,0.4316289319511908,58200,28.583481824939213,0.0
194,1.8183410167694092,19.341825639856598,8.447265430793477,31.279967193187808,10.355896125213006,0.0,0.14872455637968474,0.1,0.004580974578857422,0.055253028869628906,0.050058115,0.94904804,15.442999352634546,0.0,0.25848535878665646,0.0,300,0.02187967300415039,0.2917264626867227,0.2746495807244677,58500,27.537049760461844,0.0
195,1.7242157459259033,18.947530199889176,6.027782130918179,27.36061322415705,11.413100755689463,0.0,0.16282007480103813,0.1,0.004682302474975586,0.08493471145629883,0.05024365,0.79215086,15.79345243736001,0.0,0.2532268369106362,0.0,300,0.026468515396118164,0.1840174352706821,0.187251301490387,58800,3.650648303440029,0.0
196,1.7321114540100098,5.895332144043548,3.539879666480907,10.809244863933527,1.2723050448624367,0.0,0.14817890166585923,0.1,0.0030024051666259766,0.08507561683654785,0.050326616,0.61483014,14.803640408028365,0.0,0.0791982087593257,0.0,300,0.11625790596008301,4.525026565663358,3.241416139481935,59100,37.63587222747247,0.0
197,1.7115485668182373,13.67444907043186,8.616610090849386,27.527138972142605,4.416563589361098,0.0,0.16878185825298392,0.1,0.003663301467895508,0.08287954330444336,0.049688447,0.79240537,14.690721274268714,0.0,0.18291932355403134,0.0,300,0.026724576950073242,0.4771379627405772,0.4261138538980231,59400,23.698276177083468,0.0
198,1.7466354370117188,15.013749965649719,6.8773183629716685,24.489809111145945,7.441342238139085,0.0,0.15867581157738117,0.1,0.019639253616333008,0.06308674812316895,0.049346153,1.0301946,14.723024143406814,0.0,0.20070923623482317,0.0,300,0.02589130401611328,0.2682530632019289,0.27790899497070337,59700,6.607428835344662,0.0
199,1.766693115234375,26.993892372724204,12.6216371142019,38.36471478656659,5.668476755598893,0.0,0.16308690476492782,0.1,0.0029892921447753906,0.05663800239562988,0.049538385,0.5980847,15.950110966338553,0.0,0.3571734727176228,0.0,300,0.02346181869506836,0.5143664952030974,0.4638089915041275,60000,37.657805427859394,0.0
200,1.7823550701141357,16.800666831040314,8.495515888734788,27.779313179149263,5.32810119311824,0.0,0.16820122684576075,0.1,0.005081892013549805,0.06461596488952637,0.049730636,1.1734774,16.03516655280873,0.0,0.22460341538005701,0.0,300,0.02829909324645996,0.3078213911665133,0.27215828236943335,60300,24.56668416398023,0.0
201,1.7428078651428223,13.387546236496704,8.585346666418635,27.538734030128154,5.605630091979602,0.0,0.17435450847368644,0.1,0.0029556751251220703,0.05671286582946777,0.04947536,0.7037099,15.770404521177527,0.0,0.17576120607787193,0.0,300,0.043058156967163086,0.4661338691458482,0.4943381195915822,60600,17.45531241734202,0.0
202,1.8232243061065674,17.601497224059834,7.021128483825619,27.581548068018982,7.79438669381415,0.0,0.18583881670396477,0.1,0.003050088882446289,0.05659031867980957,0.049279533,0.67791647,15.953513791465758,0.0,0.2319167624026553,0.0,300,0.01875138282775879,0.2182346837072753,0.21747164647924522,60900,4.337191867224243,0.0
203,1.78767728805542,11.319730893462655,14.641518438728363,36.420496922031624,1.206703134158456,0.0,0.1477865138747083,0.1,0.0030181407928466797,0.05844855308532715,0.049712524,2.30488,15.490135501665447,0.0,0.1481825030321306,0.0,300,0.02497577667236328,0.668198699799133,0.646602782121886,61200,4.487704771437118,0.0
204,1.725170373916626,15.970581581168181,10.386076321330334,27.622328513060825,1.2487687927432123,0.0,0.15571896968287396,0.1,0.003021717071533203,0.05885934829711914,0.050155804,0.74716896,15.538180109615721,0.0,0.21019972012455004,0.0,300,0.03536176681518555,0.3262560125285462,0.32745096304872473,61500,14.53304086064504,0.0
205,1.7390213012695312,15.257343531422103,10.106281705523525,28.684572226609983,1.2053455917171747,0.0,0.14994579155715884,0.1,0.003056764602661133,0.08321666717529297,0.050210334,0.94489825,15.51009645179636,0.0,0.2040259784283869,0.0,300,0.021370649337768555,0.32096294175192774,0.31812112872432013,61800,5.671524417651782,0.0
206,1.76466965675354,14.945138911516915,4.972166507581168,23.273533790873635,10.243316531430231,0.0,0.15694727084895543,0.1,0.07367110252380371,0.05487775802612305,0.050707106,1.1799152,15.453600697768415,0.0,0.19986267844603373,0.0,300,0.07896852493286133,0.22037897884500607,0.21178281203658522,62100,20.59373193568739,0.0
207,1.7580456733703613,19.454364173394573,14.886419727694387,45.23321675708822,10.543601194099363,0.0,0.15620483218529133,0.1,0.004423618316650391,0.08126425743103027,0.04999673,1.3907118,15.853677045331033,0.0,0.25664803834914346,0.0,300,0.022256851196289062,0.429900940088384,0.42059718535408624,62400,23.56688504092503,0.0
208,1.8714783191680908,15.311728800912515,5.758500386596208,24.300579501307492,9.321734462696394,0.0,0.15830650473054628,0.1,0.0030558109283447266,0.07137370109558105,0.04947283,0.8847394,15.79948222088918,0.0,0.20474760878444528,0.0,300,0.032004594802856445,0.17717479737696817,0.17697581756201697,62700,8.633186336591558,0.0
209,1.7560396194458008,22.73981697641701,12.578784641818737,31.567427148965727,1.22228557646843,0.0,0.15887325027152197,0.1,0.0031654834747314453,0.09291934967041016,0.050267246,0.6474419,16.493515696441964,0.0,0.3004586107088061,0.0,300,0.04765629768371582,0.3370454600611028,0.30698419999622933,63000,5.513534200107075,0.0
210,1.7856111526489258,7.376754337704825,6.49101789784611,16.49649497701183,1.220409829299129,0.0,0.15570789774983193,0.1,0.00465846061706543,0.05649518966674805,0.04987166,0.6332268,15.58183956056825,0.0,0.09895087682442028,0.0,300,0.08985280990600586,1.548238521774829,1.434247046413968,63300,16.645384658584284,0.0
211,1.8429710865020752,14.494243591316085,9.929108772544286,29.449417515580624,4.370940512637199,0.0,0.15935356769265166,0.1,0.0028581619262695312,0.05524945259094238,0.050289996,0.9240904,15.473079963643034,0.0,0.19385048989233464,0.0,300,0.06080961227416992,0.4326193004636454,0.4079040591524292,63600,7.6918550950380125,0.0
212,1.7617309093475342,13.161429421118411,4.828704620594075,20.51996148846806,8.325073684695987,0.0,0.1607148205459141,0.1,0.011040687561035156,0.09229850769042969,0.04956303,0.92121875,15.241914909390573,0.0,0.17607945162643163,0.0,300,0.04189443588256836,0.325213749805906,0.26860031972414544,63900,23.522142232867974,0.0
213,1.8082599639892578,18.147700071141784,7.734098023523759,27.426072679033563,7.480372569880951,0.0,0.1607899327627546,0.1,0.07658743858337402,0.10687136650085449,0.050099377,1.3130612,15.532493425565695,0.0,0.24256346962492675,0.0,300,0.02417588233947754,0.2628350842253412,0.2689058277655217,64200,15.599093998319399,0.0
214,1.7003910541534424,4.934673042015657,2.668332100850316,8.702714136764518,1.208251509244566,0.0,0.15375013150549602,0.1,0.0029325485229492188,0.12216925621032715,0.050066184,0.7660324,14.472711387210692,0.0,0.06639028526051874,0.0,300,0.01999807357788086,3.498737849110994,2.7283025924622004,64500,4.564426377138103,0.0
215,1.8156390190124512,10.997056498589197,10.637527952390025,26.971468820716083,1.22789992774142,0.0,0.15224845377698534,0.1,0.003216981887817383,0.056653738021850586,0.049781423,1.2344563,14.125145898348542,0.0,0.14713915608955877,0.0,300,0.042133331298828125,0.4546825910749683,0.4594463678269843,64800,4.727660575152484,0.0
216,1.7483811378479004,23.626288168695545,5.492199824431844,28.34506241739849,14.447240473249348,0.0,0.17029965247049828,0.1,0.002901315689086914,0.07451939582824707,0.05055623,0.7259173,15.075260125383242,0.0,0.31557145954575394,0.0,300,0.04241585731506348,0.38023336059169865,0.33184328994906087,65100,21.817388638283003,0.0
217,1.782914161682129,12.680567580128049,8.907460750200052,27.621198823337185,5.3222359851466035,0.0,0.1573226771675974,0.1,0.003741741180419922,0.0686345100402832,0.050948806,1.2735664,14.835790870857721,0.0,0.16633556046110912,0.0,300,0.01946735382080078,0.5145817121522985,0.5082341723410909,65400,12.74509306030726,0.0
218,1.7594232559204102,10.750271902736518,8.788703334259358,24.889407846313738,1.2414154544833127,0.0,0.16067114761409598,0.1,0.003116130828857422,0.056786537170410156,0.04982475,0.87841326,14.4272389740456,0.0,0.14059828593458523,0.0,300,0.03362536430358887,0.48626530808962043,0.4987433418965422,65700,15.865670600245517,0.0
219,1.880802869796753,20.28074862541932,3.926013840202556,26.68274407016544,16.879066726250723,0.0,0.17774650655963053,0.1,0.0033037662506103516,0.06892037391662598,0.04951048,0.65829146,15.012589939182973,0.0,0.2709978455214965,0.0,300,0.05713343620300293,0.16892788559826002,0.14688762306393105,66000,9.631466735980224,0.0
220,1.9620540142059326,18.658250260656633,13.19260432642988,31.4865734014323,1.3784116514163087,0.0,0.15265478458633286,0.1,0.003211498260498047,0.05915260314941406,0.049560603,0.89597756,15.377155971330339,0.0,0.24269229209389243,0.0,300,0.0537419319152832,0.34384722407122364,0.3112305026925206,66300,4.600575492622517,0.0
221,1.997962236404419,14.826958913363473,13.086559069618563,35.98313389901384,1.2524741716156012,0.0,0.15646413053957609,0.1,0.036435604095458984,0.06027960777282715,0.049857758,0.97671455,15.322136265533654,0.0,0.19828632043931427,0.0,300,0.08729839324951172,0.5266277815437734,0.5345447886531743,66600,12.625991649380381,0.0
222,1.8545558452606201,14.905728242926735,7.908927252211282,27.4513461683417,6.466370802793295,0.0,0.17080304923026784,0.1,0.008155345916748047,0.1185917854309082,0.050019722,0.62881356,15.280495463272963,0.0,0.19599398586949152,0.0,300,0.04250144958496094,0.3340891607898897,0.3262534702911869,66900,27.643359623842297,0.0
223,1.8459866046905518,28.695597894085765,16.301621644978805,41.55519256501222,1.2913343836859035,0.0,0.15596954651346104,0.1,0.003307819366455078,0.05960726737976074,0.049972944,0.78008115,16.622005706354244,0.0,0.3731449996089991,0.0,300,0.02342391014099121,0.34348867345578715,0.2928028795976422,67200,14.714495272054558,0.0
224,1.8369452953338623,19.259288320503778,13.113126318226414,41.594088056399684,9.292582600783149,0.0,0.16051859444656139,0.1,0.003329038619995117,0.06142091751098633,0.04991873,0.9394772,16.885733967769198,0.0,0.25405159809733213,0.0,300,0.04245138168334961,0.4060387265942504,0.4291437899046507,67500,5.6355529556623685,0.0
225,1.859609842300415,11.190539340859967,3.0497164889196258,14.902876443943102,6.614584650957627,0.0,0.15604816190771628,0.1,0.024096250534057617,0.08004188537597656,0.0494282,0.45277745,16.316214505078275,0.0,0.14980036539982264,0.0,300,0.05486154556274414,1.4888850491835932,0.9220404320852535,67800,13.702935183149862,0.0
226,1.9540510177612305,13.948930638817952,8.53269702416298,27.62350800661829,4.663986730859403,0.0,0.16336184828544512,0.1,0.0032706260681152344,0.07549548149108887,0.04957141,1.310032,16.07948611845224,0.0,0.18655551782765964,0.0,300,0.061673879623413086,0.5083207374833041,0.3857155417121271,68100,20.782867126586215,0.0
227,1.6964638233184814,13.710923286827978,5.910872026286147,22.532252500418405,6.760222485412713,0.0,0.15534808923472956,0.1,0.0030100345611572266,0.056908369064331055,0.050159357,1.1026818,15.842629835289815,0.0,0.18340697231866046,0.0,300,0.05459284782409668,0.2736670757836244,0.19724126012316637,68400,7.631099022409114,0.0
228,1.722888708114624,13.185772103403334,8.475538400638495,24.53536590691108,1.4044410932944467,0.0,0.15046417951907248,0.1,0.0029664039611816406,0.056444406509399414,0.049874905,0.8067152,15.576944062101166,0.0,0.1764050413239454,0.0,300,0.02926921844482422,0.3160086162005648,0.31620060044705117,68700,6.602457723526659,0.0
229,1.7824149131774902,13.820956906910046,7.7777587904227,26.663764704610657,5.711957201865322,0.0,0.16636757623433096,0.1,0.02200627326965332,0.11378097534179688,0.04935047,0.99837524,15.401345346582055,0.0,0.1848740345746963,0.0,300,0.08838438987731934,0.35555796810157336,0.36005986504301585,69000,16.506482831701373,0.0
230,1.821786642074585,13.20954330683653,10.146143829389137,28.52879001365149,1.2296414105577576,0.0,0.15746792425277645,0.1,0.09886789321899414,1.460350513458252,0.04954439,0.850462,15.182165142607502,0.0,0.17670660026238083,0.0,300,0.09382271766662598,0.40348819643145123,0.3977404139064117,69300,3.6608136971736864,0.0
231,1.7896654605865479,12.381521177170134,7.968650218338199,21.37649551542777,1.2332343544421454,0.0,0.1600068266087494,0.1,0.005695819854736328,0.07637310028076172,0.05025828,0.9580548,14.902100746063766,0.0,0.16567689900891477,0.0,300,0.052890777587890625,0.37176243781162377,0.36418917157290426,69600,18.63132810625731,0.0
232,1.8022925853729248,10.545378592482082,8.160255958972353,22.828817516856752,1.2280665409037577,0.0,0.15561398040241833,0.1,0.005535602569580078,0.10624337196350098,0.049637873,0.96950024,14.466428530705599,0.0,0.14119702342295962,0.0,300,0.03576946258544922,0.4721070688028597,0.4672511666214144,69900,28.71051549565966,0.0
233,1.842879295349121,11.662395747911367,11.749391348449864,31.41151446145464,1.485730389120307,0.0,0.15231397323083112,0.1,0.0042607784271240234,0.07470083236694336,0.050114848,1.1986969,14.186025252426177,0.0,0.15609270178810986,0.0,300,0.06822347640991211,0.5428861189211411,0.5344231552028655,70200,16.579216080805327,0.0
234,1.9553170204162598,13.790133288275578,5.70834163872198,21.46657654353665,5.670520730540706,0.0,0.17158106850829324,0.1,0.006097555160522461,0.08276176452636719,0.05003744,0.71544546,14.146436056011117,0.0,0.1844573154428621,0.0,300,0.0209653377532959,0.2463842130725729,0.24586544255755727,70500,27.47147247101542,0.0
235,1.884636640548706,12.72844538458264,5.04179812229877,19.669847105149575,5.4346279740421055,0.0,0.1466147173234307,0.1,0.07542634010314941,0.18072152137756348,0.04931533,2.607712,14.004636988868269,0.0,0.17030508393436633,0.0,300,0.052230119705200195,0.18618960043450772,0.1857752824667742,70800,15.702381259254162,0.0
236,1.8736944198608398,15.950832586981498,8.754483822652686,22.590475700204554,1.1806343755483641,0.0,0.16184071297893227,0.1,0.0031654834747314453,0.06173110008239746,0.049752764,0.74868006,14.199256548679593,0.0,0.2132654730439535,0.0,300,0.05092644691467285,0.3348600870100112,0.306587184208691,71100,6.591461647382615,0.0
237,1.871140718460083,19.41701178591499,9.114835173421437,33.45212974074908,11.26856673725984,0.0,0.15511031277045642,0.1,0.0030798912048339844,0.059050559997558594,0.049874317,1.0714871,14.721032072403133,0.0,0.25603554810570506,0.0,300,0.020165443420410156,0.33228041191595026,0.2911166885685226,71400,31.568034021174814,0.0
238,1.8512234687805176,18.347443920342595,12.579711066220186,37.29480980053815,4.24561023494563,0.0,0.15304946019212629,0.1,0.0031824111938476562,0.06377911567687988,0.05004141,1.0995235,15.08367325719708,0.0,0.24522425632925776,0.0,300,0.03074502944946289,0.45602382842683487,0.41274964263992575,71700,22.597367807233137,0.0
239,1.8213531970977783,24.987038261534053,14.01646630458243,35.60406353629394,1.3680464551264315,0.0,0.15862878772373093,0.1,0.0058896541595458984,0.07935523986816406,0.050405838,0.6324739,16.07400975763078,0.0,0.33041329036337486,0.0,300,0.25014591217041016,0.34549574401448074,0.2717504683660431,72000,5.567924046886872,0.0
240,1.8923771381378174,24.28381944050582,8.76891089077594,35.58286778807615,13.3595048296228,0.0,0.1579759972717389,0.1,0.0032062530517578125,0.06051278114318848,0.049562074,0.8120726,16.894990725918284,0.0,0.32104543670621966,0.0,300,0.03464508056640625,0.15110917122635403,0.13370251379469156,72300,30.547408653023712,0.0
241,1.8790502548217773,14.480776043416718,7.320004139965823,23.23836020514575,3.658816996629837,0.0,0.15301998008187717,0.1,0.003129243850708008,0.06095075607299805,0.04982465,0.79188764,16.653569257668128,0.0,0.19366176791056,0.0,300,0.0384373664855957,0.8115275918100167,0.6851161796490614,72600,19.54419418413104,0.0
242,1.864046335220337,20.03194810753713,10.17589237098581,30.38896460877244,7.544789490469903,0.0,0.15773584818584213,0.1,0.0031523704528808594,0.059173583984375,0.049481697,0.783094,16.991407142655028,0.0,0.2609804173212311,0.0,300,0.03589010238647461,0.3159443882644925,0.29701473076572177,72900,4.529524854222902,0.0
243,2.3263518810272217,16.43514082760581,11.905628635327494,36.261611224601346,4.619193035719896,0.0,0.1558776022982002,0.1,0.006326436996459961,0.0890953540802002,0.05014825,1.1093918,16.935780511150107,0.0,0.21637525522044196,0.0,300,0.05489993095397949,0.4157642362749636,0.3811615915133028,73200,6.616025656990582,0.0
244,1.672473430633545,18.753888738835332,7.5586123109090115,26.552381114209155,8.62728326349311,0.0,0.15428334250667164,0.1,0.003180265426635742,0.08455252647399902,0.050117232,0.8562946,17.11759133391863,0.0,0.24396307332927963,0.0,300,0.1389765739440918,0.20249726428317028,0.2063995437108995,73500,15.556802823191079,0.0
245,1.7332603931427002,10.329026959106928,8.68532587921542,24.30452821157202,1.2635154909086526,0.0,0.1491654328485869,0.1,0.00833272933959961,0.0800788402557373,0.04934106,1.5057228,16.43873489643746,0.0,0.13829555480819852,0.0,300,0.03330278396606445,0.6057743051441737,0.5125980982720872,73800,1.5926544112451777,0.0
246,1.804290771484375,17.65983876814955,16.285956923629684,39.25985737880082,1.3521169805715674,0.0,0.14593682854237497,0.1,0.002798795700073242,0.05595970153808594,0.04976438,0.8197185,16.56084528360867,0.0,0.23271723579919865,0.0,300,0.033286333084106445,0.4811563685059574,0.48793814264788565,74100,8.499779240570858,0.0
247,1.7725255489349365,19.156010747064293,9.446961927659443,35.289700854933805,12.453728041294752,0.0,0.15235921768149435,0.1,0.0029342174530029297,0.05904841423034668,0.049585205,1.9445176,16.820361829954233,0.0,0.25266519903275875,0.0,300,0.052611589431762695,0.25899262681668017,0.24665803747847678,74400,25.523703460939696,0.0
248,1.8196172714233398,14.114081977568395,16.987136014215398,43.28899933384278,1.2378558610586479,0.0,0.14303121272582298,0.1,0.003475666046142578,0.05663728713989258,0.049220905,1.2339697,16.54973384471565,0.0,0.18542195390939645,0.0,300,0.029226303100585938,0.5563973891795714,0.5517488786791364,74700,30.554429544156402,0.0
249,1.6893293857574463,17.773204398043283,8.998087223569634,30.832869909834113,5.514399638621715,0.0,0.16072937125607487,0.1,0.0031130313873291016,0.07830023765563965,0.049934864,0.8616332,16.672080900048414,0.0,0.23423674487314805,0.0,300,0.03494763374328613,0.30366318248883817,0.2938253732202358,75000,4.56966226260348,0.0
250,1.7939121723175049,23.356348943410623,11.256345166178502,38.440836248070845,7.631866091809617,0.0,0.15807080319741487,0.1,0.004983425140380859,0.059252023696899414,0.04987901,0.8148174,17.340507704384635,0.0,0.30867864354840746,0.0,300,0.04675912857055664,0.27204927726702555,0.240016213637622,75300,1.5189754473194121,0.0
251,1.7692406177520752,6.838907869708133,5.639080391056535,13.319592485929228,1.2258007299988423,0.0,0.15302566969804876,0.1,0.002958059310913086,0.05837392807006836,0.050043713,0.5528033,16.290347720916984,0.0,0.09177475295826358,0.0,300,0.0515596866607666,2.1423135053573015,1.87912329405196,75600,27.505224607619585,0.0
252,1.7989232540130615,19.050526246137306,5.479366479006739,25.238526998818706,12.642098175062596,0.0,0.14974072393049695,0.1,0.0050067901611328125,0.07261514663696289,0.049662277,3.2310314,16.566365573439015,0.0,0.25459995134177626,0.0,300,0.028890609741210938,0.13344061678892413,0.13946742622771072,75900,31.50302408166503,0.0
253,1.784897804260254,23.0317774123574,9.883328482684902,35.7450256944128,11.350063061085569,0.0,0.14721903699737215,0.1,0.003322601318359375,0.055094003677368164,0.049759746,1.0699197,17.212906757330853,0.0,0.3043463208085322,0.0,300,0.03361201286315918,0.2537743990254464,0.2408500759485986,76200,28.51801648079804,0.0
254,1.830320119857788,13.065322572945837,10.568640791580567,28.25910075321101,1.207287038528735,0.0,0.14574759034427404,0.1,0.0029375553131103516,0.07901334762573242,0.04952986,1.1061497,16.79814833889235,0.0,0.17479140410888858,0.0,300,0.03176712989807129,0.44338867994611497,0.4432166206782516,76500,12.510779284999893,0.0
255,1.780165195465088,13.788571635105876,8.248975651411406,22.557832118573998,1.300943155256101,0.0,0.1514513206136358,0.1,0.003092050552368164,0.0716552734375,0.04983789,0.7103215,16.497190668513703,0.0,0.18435516107696723,0.0,300,0.02626347541809082,0.33390359478625314,0.32254320886061894,76800,1.4162375578328685,0.0
256,1.755575180053711,21.20988808482161,14.541863789362099,42.53211855438269,1.4620800918739736,0.0,0.15715989246635037,0.1,0.0031881332397460938,0.09583735466003418,0.049821824,0.87875926,16.968460410144495,0.0,0.28005874524011154,0.0,300,0.0640265941619873,0.3521625276128278,0.3391075126713007,77100,1.3837028708369352,0.0
257,1.7766907215118408,4.429875311723778,3.2919590749249616,9.401258289070721,1.2069880045127799,0.0,0.1557917881928286,0.1,0.003137826919555664,0.06014680862426758,0.05050968,0.6410147,15.714601900302423,0.0,0.05965872209518809,0.0,300,0.026473045349121094,7.171907318058687,5.538086577034819,77400,9.44084231918988,0.0
258,1.6878397464752197,15.134633549724125,8.682806595661255,23.40574145259953,1.2140512086765785,0.0,0.16905035380953137,0.1,0.003282785415649414,0.078948974609375,0.050154265,0.6493422,15.656605065244593,0.0,0.20238806372337564,0.0,300,0.02802109718322754,0.2918686453070427,0.29907761326434196,77700,7.436093739467684,0.0
259,1.7151191234588623,13.478632524248756,7.404551006630622,20.626719638515407,1.2337610586406236,0.0,0.15335766876945603,0.1,0.003154277801513672,0.056211233139038086,0.04978261,0.578957,15.43880781114501,0.0,0.1769735795489253,0.0,300,0.026833295822143555,0.26374087098123655,0.2662119893334732,78000,21.504894013888194,0.0
260,1.7537193298339844,15.441492652685918,10.17832705377164,28.32333312240155,5.3822964139619405,0.0,0.15638383648657322,0.1,0.013089418411254883,0.062484025955200195,0.04993043,1.3316883,15.4390762952991,0.0,0.20313283707580346,0.0,300,0.06709408760070801,0.3434053274308868,0.3427881440712443,78300,11.407684878873454,0.0
261,1.8981611728668213,15.402363841136749,9.244480588782038,30.427484850696082,6.2982882050683875,0.0,0.16201256035080222,0.1,0.0030286312103271484,0.0559389591217041,0.04960158,1.1881937,15.435405049882865,0.0,0.2059586085436559,0.0,300,0.030855894088745117,0.30874143987651037,0.30296337627966813,78600,9.420365726583325,0.0
262,1.707287311553955,13.448714211918805,9.793189769217044,28.272738759056374,1.3091949634697688,0.0,0.15443185412133556,0.1,0.05447196960449219,0.0620574951171875,0.049585354,0.9296213,15.23673596608646,0.0,0.17991074459754497,0.0,300,0.12911725044250488,0.399653555247947,0.3949406936482146,78900,1.4141527887781835,0.0
263,1.7112393379211426,12.103039059525987,10.971456895973219,25.368426733293713,1.2623785196025723,0.0,0.14960995009316788,0.1,0.0031890869140625,0.08640599250793457,0.05102542,1.0522789,14.923366275430414,0.0,0.16196704643575482,0.0,300,0.026407718658447266,0.41612266288513405,0.40925151952006733,79200,1.4624447923827224,0.0
264,1.8994104862213135,12.157035320724235,11.043875186862035,25.65404620372146,1.265296076271201,0.0,0.1511247506914169,0.1,0.0031948089599609375,0.05804800987243652,0.050042715,0.748133,14.646733179959796,0.0,0.16268804519862723,0.0,300,0.06365466117858887,0.3948662310023622,0.389812058744924,79500,13.50001087988448,0.0
265,1.7811479568481445,16.72162868999268,9.493427273949559,24.65762335903296,1.238575701438096,0.0,0.15009752806544913,0.1,0.004553079605102539,0.08794569969177246,0.050000425,0.95316386,14.854222730963084,0.0,0.22013840870749277,0.0,300,0.041941165924072266,0.28506458938707785,0.2717701392135354,79800,1.2718503606735891,0.0
266,1.7927916049957275,20.448815214791694,6.455499672682375,28.333597543127173,10.452697441492939,0.0,0.1606480814704822,0.1,0.002974271774291992,0.05891823768615723,0.04981596,0.73942405,15.413681979345945,0.0,0.27324559078107624,0.0,300,0.08733415603637695,0.2624309122288741,0.22224193644662835,80100,30.450272337651995,0.0
267,1.7825729846954346,15.062822819710798,11.066691381553161,29.534198256100876,1.636852901268013,0.0,0.15651835031448527,0.1,0.002913951873779297,0.09228920936584473,0.049553078,0.83907104,15.378596063382432,0.0,0.19808821967359247,0.0,300,0.025998830795288086,0.4127030179581962,0.4084153112830306,80400,1.2832736143523555,0.0
268,1.7584664821624756,15.507540520807284,9.133732438604866,29.465324127531744,4.474162423860841,0.0,0.15267259880044384,0.1,0.0027763843536376953,0.056061744689941406,0.050177097,0.83504534,15.391490509124917,0.0,0.2040283075614278,0.0,300,0.034723758697509766,0.3593880435683663,0.352409214796296,80700,1.2417244962954783,0.0
269,1.877047061920166,23.48446532417384,9.31677363994635,32.37057203998789,9.590614269926963,0.0,0.154229784741292,0.1,0.009335994720458984,0.0720517635345459,0.049320534,0.78872657,16.20078799062981,0.0,0.3103841030211558,0.0,300,0.027338504791259766,0.21658497657968112,0.1856955039017891,81000,1.236176762120243,0.0
270,1.846752405166626,20.680978028692977,11.433383041874745,33.34931261732665,4.437724816856183,0.0,0.1614058332668382,0.1,0.003164529800415039,0.056353092193603516,0.050246455,0.7755558,16.648806994436125,0.0,0.27299710648158354,0.0,300,0.04378914833068848,0.2859385637001097,0.2740166415151973,81300,1.2414628371724243,0.0
271,1.7990846633911133,11.199139146848204,8.081924473300607,21.416235456923825,1.3839704062141918,0.0,0.15379792590886115,0.1,0.015738248825073242,0.16350674629211426,0.050370827,0.81837034,16.103840209677333,0.0,0.14991647229364996,0.0,300,0.047754764556884766,1.0526155474805547,0.7488792217222475,81600,1.2761862446919667,0.0
272,1.8442089557647705,12.660486570437403,9.02855264386851,22.68940167295112,1.3844347685459923,0.0,0.15710305280308381,0.1,0.003250598907470703,0.10963320732116699,0.04976059,0.6958267,15.75950484575334,0.0,0.16938877533972224,0.0,300,0.10996127128601074,0.5713847069903482,0.3830359399799927,81900,1.2514743806008342,0.0
273,1.7163467407226562,8.086399564296086,5.13434151589135,14.399027441014782,1.2107979774436053,0.0,0.1552859334490666,0.1,0.026590585708618164,0.2987070083618164,0.050568253,0.6744918,14.992194317607616,0.0,0.10837779479933168,0.0,300,0.05902743339538574,0.9644491885496939,0.5305673874837995,82200,1.3126488817134039,0.0
274,1.7396306991577148,11.745130443837017,5.362591424927651,20.482289011307717,6.522694080260335,0.0,0.15388852194735436,0.1,0.00912022590637207,0.07869219779968262,0.050017845,1.3407513,14.667487930230557,0.0,0.15718494980356484,0.0,300,0.031172752380371094,0.3401157661064576,0.29085965093459876,82500,1.2443801635802516,0.0
275,1.723214864730835,12.064376711968285,6.24261638198571,22.63268161270799,6.389613400766274,0.0,0.1569326451167851,0.1,0.005444765090942383,0.07797622680664062,0.049586937,1.455046,14.40717680840433,0.0,0.16145305292962564,0.0,300,0.030935049057006836,0.30316966989508787,0.31508790156066024,82800,1.2570242680133032,0.0
276,1.7937650680541992,15.424040012133444,6.817792329589296,23.424301927719146,5.425329174344223,0.0,0.1573929356931038,0.1,0.0029556751251220703,0.05617403984069824,0.0496497,0.9122469,14.508863128777243,0.0,0.20272679185293596,0.0,300,0.034853219985961914,0.404431596145087,0.380924505888523,83100,1.2555441472845277,0.0
277,1.7433433532714844,21.135078125478287,13.08898648188592,36.55797739649268,6.243527403485701,0.0,0.15199075986607233,0.1,0.003052949905395508,0.057112932205200195,0.049392022,1.155487,15.171484628447347,0.0,0.2790610469130241,0.0,300,0.025524377822875977,0.5174054184724715,0.4464216897445923,83400,1.2209302640314037,0.0
278,1.841487169265747,11.136697213504574,3.2556959331472592,15.404511007177287,6.395965121091106,0.0,0.14764405074388826,0.1,0.10223650932312012,0.24795007705688477,0.049371988,0.864645,14.76800588695307,0.0,0.14908165517724098,0.0,300,0.06432890892028809,0.1371516611172317,0.19480088510137225,83700,1.2473938942690828,0.0
279,1.8985505104064941,15.655309308755902,7.356130408762531,23.974394594062968,5.284378368129217,0.0,0.15582884473171052,0.1,0.0033674240112304688,0.09032440185546875,0.050313115,0.75753874,14.856736229133354,0.0,0.20933200918945805,0.0,300,0.032274484634399414,0.29512495002915085,0.2719538690580251,84000,1.2500213922599166,0.0
280,1.8449764251708984,13.807671107863483,5.465360888163139,21.38278069358399,7.756435315320029,0.0,0.15230193562609193,0.1,0.0030317306518554688,0.08241820335388184,0.049690824,0.841399,14.751829717006366,0.0,0.18469623956707,0.0,300,0.06469345092773438,0.21572259117451278,0.22407815401256978,84300,1.287607807804463,0.0
281,1.9138762950897217,13.77234750586889,4.7993887626517076,20.748567436587294,7.357563820980455,0.0,0.14325821352256699,0.1,0.0031299591064453125,0.06086230278015137,0.050161503,1.627436,14.65388149589262,0.0,0.18085345837954603,0.0,300,0.02607583999633789,0.16732033430882684,0.16256225687612277,84600,1.4281468953718905,0.0
282,1.9012322425842285,13.448326233998795,8.008269729606067,25.252470965936485,3.532725238188671,0.0,0.15204009906654709,0.1,0.0030832290649414062,0.06934404373168945,0.050227348,1.195839,14.533325969703238,0.0,0.17990535095467675,0.0,300,0.0920112133026123,0.36979278714466257,0.3432384116518913,84900,21.44169112054584,0.0
283,1.9546985626220703,10.626988862354203,7.399326069468282,21.389792412963374,1.2238625634757208,0.0,0.14705870105676017,0.1,0.003244161605834961,0.0787513256072998,0.049596615,0.7931826,14.142692258968335,0.0,0.1422872699031234,0.0,300,0.0795586109161377,0.3992177528490326,0.3682796883981731,85200,1.3237238929161779,0.0
284,2.0212485790252686,15.395129700303642,13.154876640655045,34.582597952992316,1.249829235139618,0.0,0.14410339750852616,0.1,0.007529258728027344,0.09203100204467773,0.049714807,1.9030819,14.267936003101866,0.0,0.20585329420480475,0.0,300,0.039113521575927734,0.42213887037443343,0.41952119040801206,85500,1.4550051307051473,0.0
285,1.8748548030853271,21.898162632420053,12.440302376095417,40.39568517536099,5.331300704878486,0.0,0.1569551153173777,0.1,0.003233194351196289,0.0587923526763916,0.0498992,0.83195645,15.030958666033687,0.0,0.29248332926164633,0.0,300,0.08817148208618164,0.37242301959963575,0.332113767241691,85800,1.377408055916746,0.0
286,1.8087520599365234,20.7198386184358,10.620974651722356,38.25644532557666,9.75450526768115,0.0,0.16317946531370722,0.1,0.0034363269805908203,0.055707693099975586,0.050071932,0.9713676,15.599846661273899,0.0,0.2701877160990651,0.0,300,0.06459236145019531,0.40874926015768626,0.3679065430357838,86100,1.4762032227671895,0.0
287,1.8821988105773926,23.451040075626395,10.91292022260421,40.284097717517334,12.309957265067185,0.0,0.15595533709328163,0.1,0.0030732154846191406,0.05445981025695801,0.04997582,0.7967737,16.38496600270915,0.0,0.30991396319491593,0.0,300,0.032671451568603516,0.27981122402063846,0.2388135386982356,86400,1.4199791132881925,0.0
288,1.8376493453979492,16.673696606339114,13.218970330248098,36.27554684534748,1.2730287381460732,0.0,0.15937804964283758,0.1,0.0031669139862060547,0.07922077178955078,0.049654234,0.7995154,16.413839063072146,0.0,0.2195714656980054,0.0,300,0.04257655143737793,0.4561353629632932,0.46216142403540356,86700,1.377225790390158,0.0
289,1.833547830581665,23.226109480162428,10.483976743425465,38.39148709712541,8.901754435717645,0.0,0.15624468511139675,0.1,0.005056142807006836,0.056735992431640625,0.0494004,0.7986906,17.095066104781175,0.0,0.30677345785601207,0.0,300,0.0524442195892334,0.25125727035366197,0.24321281316087978,87000,1.3949904447062067,0.0
290,1.8111989498138428,16.552985741048836,3.3787172128317247,21.77418037944614,12.4156192424558,0.0,0.1619470629483785,0.1,0.0031499862670898438,0.15076303482055664,0.049312774,0.7353753,17.040858068407942,0.0,0.22125319230940052,0.0,300,0.028150081634521484,0.23466996880133464,0.20211356542351894,87300,1.2956566451314306,0.0
291,1.8012034893035889,10.02047985368476,4.635313805730425,17.382054438420848,5.53012388605073,0.0,0.1635490264330791,0.1,0.003088235855102539,0.05744624137878418,0.049113754,0.64972466,16.338820246935626,0.0,0.13419889910920385,0.0,300,0.02628636360168457,1.3380338535524046,0.7542047224965489,87600,1.2664384161081474,0.0
292,1.787240743637085,20.784114705829136,4.35219258880774,27.57381976453663,15.485309568105963,0.0,0.15171044654006074,0.1,0.004676103591918945,0.07588911056518555,0.050387356,0.750484,16.783349692824977,0.0,0.2777034880592648,0.0,300,0.08787131309509277,0.1549941899381299,0.18418826111734032,87900,1.233907015992345,0.0
293,1.7814226150512695,18.18226038956255,13.31719406804951,33.33638812021426,4.246044280595524,0.0,0.15356875769463307,0.1,0.003469705581665039,0.07849645614624023,0.049938977,1.0089872,16.923240762498736,0.0,0.2396908009402943,0.0,300,0.032178640365600586,0.42498792988685735,0.421051239208232,88200,1.232837694637309,0.0
294,1.8302807807922363,4.14626998815117,3.079080893059985,8.594728744080221,1.2677276303178484,0.0,0.1503122201201003,0.1,0.0032227039337158203,0.05635380744934082,0.049032807,0.5526957,15.64554368506398,0.0,0.055856741990624306,0.0,300,0.03325080871582031,6.696437285507052,5.354086567130967,88500,1.2324408145339694,0.0
295,1.7776780128479004,16.925975108808768,6.035302334725557,22.333718161789374,6.689278457026505,0.0,0.1528096116481902,0.1,0.0032346248626708984,0.05633044242858887,0.049313426,0.8106835,15.773586827438459,0.0,0.22291228666090324,0.0,300,0.029514312744140625,0.18826637143128283,0.20577780291624576,88800,1.2330011430806116,0.0
296,1.8508973121643066,17.91563463084425,9.828792348954785,31.250319115395314,5.416942931045196,0.0,0.16721235761953723,0.1,0.004103422164916992,0.09254074096679688,0.049828187,0.88134336,15.987791607779037,0.0,0.2394696422084731,0.0,300,0.04857516288757324,0.3822688533794776,0.37367731298541396,89100,1.24881841942779,0.0
297,1.7449705600738525,15.399245690600448,10.388553765303557,30.555710544962977,1.2174777753554755,0.0,0.15374713337881957,0.1,0.004400014877319336,0.07594966888427734,0.049989056,0.82124895,15.928937016061179,0.0,0.20589178047941414,0.0,300,0.025663137435913086,0.33464160684029765,0.32018201937722157,89400,1.2400980082037576,0.0
298,1.7760252952575684,24.639608799358758,13.33755025730701,39.537226723746535,5.967724029896886,0.0,0.15693705913190176,0.1,0.004809379577636719,0.05874466896057129,0.050153296,0.80496144,16.800004194390937,0.0,0.32243446641461215,0.0,300,0.04418492317199707,0.4409328753054109,0.36114199569959643,89700,1.2203072716311796,0.0
299,1.809044361114502,12.34398819767502,9.405720933745057,23.532310200644098,1.229550750587479,0.0,0.14678092428473405,0.1,0.0030410289764404297,0.09939146041870117,0.049851883,1.02433,16.354402594719346,0.0,0.16517753602607835,0.0,300,0.05929231643676758,0.4584323942462651,0.5307120593375637,90000,1.2354708659270752,0.0
300,1.857837438583374,7.372539658535014,7.5183649412429565,19.872777039467216,1.429233090254674,0.0,0.15560762886656496,0.1,0.002827882766723633,0.05684089660644531,0.049957447,0.789308,15.456216301100913,0.0,0.09889468016784475,0.0,300,0.07934451103210449,1.580110920781488,1.2305669756738955,90300,1.2338172891984311,0.0
301,1.8238329887390137,8.820837064758077,3.080899191768138,13.480025142718752,5.13656936459872,0.0,0.15604531722495935,0.1,0.002984285354614258,0.05869770050048828,0.04987704,0.58916575,14.792678377466629,0.0,0.11819827242260561,0.0,300,0.030727863311767578,1.10391008168543,0.577097837322822,90600,1.237079094475419,0.0
302,1.8331243991851807,15.969240766780349,11.206199405532951,31.432251056701233,1.262998029530515,0.0,0.14881004146255095,0.1,0.0029211044311523438,0.11385321617126465,0.050113343,1.0307804,14.910334616398,0.0,0.2101794757385827,0.0,300,0.0324251651763916,0.42050911319457174,0.4322623962643366,90900,1.264643525593707,0.0
303,1.804135799407959,13.291009321245,4.236708288788935,17.69164949366035,6.832103626360311,0.0,0.15106302168397634,0.1,0.0031058788299560547,0.05414700508117676,0.05021887,1.105184,14.7484020868827,0.0,0.17779204970449858,0.0,300,0.02941441535949707,0.18405025754160415,0.18442685433122655,91200,1.255483719983982,0.0
304,1.858414888381958,20.250721080943165,7.403277946250478,27.418588553209705,9.376616844375786,0.0,0.15115513307793826,0.1,0.002949237823486328,0.05841398239135742,0.050229773,1.0608517,15.298633986288747,0.0,0.2705876349637295,0.0,300,0.07153153419494629,0.3229185902655044,0.30675054355609793,91500,1.2397668895014597,0.0
305,1.8465945720672607,5.683884183049874,4.181227322669934,12.546825045031314,1.2217175699098342,0.0,0.15071778146718012,0.1,0.003013134002685547,0.057836055755615234,0.050019007,1.0325012,14.33715900596486,0.0,0.07634545472038731,0.0,300,0.027803897857666016,1.5414129751989047,1.4514671026167705,91800,1.2252409621398763,0.0
306,1.83909273147583,16.110877613877268,12.449232311455667,30.24336084259539,1.350034931017292,0.0,0.1481898171070127,0.1,0.003103494644165039,0.05574822425842285,0.050056826,0.8437095,14.514530866756102,0.0,0.21540640788997598,0.0,300,0.045319557189941406,0.38102417985861115,0.37949644786188763,92100,1.2238228095074069,0.0
307,1.8506174087524414,9.934247194562989,5.738766636299493,15.51658054976591,1.2735092868070126,0.0,0.1437626822717784,0.1,0.023980379104614258,0.08125758171081543,0.050116774,1.0608228,14.05650249953679,0.0,0.13304897362970758,0.0,300,0.03802609443664551,0.4407054374328058,0.4161651499399908,92400,1.2064634669204326,0.0
308,1.845646619796753,14.738649943988364,6.018624316094825,20.646345603671392,6.610334527662515,0.0,0.16408819980764042,0.1,0.002982616424560547,0.058103322982788086,0.049684994,0.9522915,14.124717243981948,0.0,0.19708895717964603,0.0,300,0.06688952445983887,0.26740123578221686,0.2657590492392704,92700,1.2047988479925262,0.0
309,1.872560977935791,32.19550674998687,9.288595225536405,42.4475313971146,19.253932411000473,0.0,0.14635394157944626,0.1,0.0028896331787109375,0.05927109718322754,0.05009214,1.1828622,15.93179619458244,0.0,0.423107057202507,0.0,300,0.1319887638092041,0.4681446681726733,0.37546594835363173,93000,1.251381044205805,0.0
310,1.8051462173461914,17.838886689621276,7.808880105698711,27.44253911020465,5.677433650860354,0.0,0.16078170727951138,0.1,0.05319523811340332,0.0545501708984375,0.050041724,0.728846,16.122505244086323,0.0,0.23509952493204742,0.0,300,0.04659104347229004,0.2739854347170145,0.2322193890069936,93300,1.2272924159681402,0.0
311,1.8248558044433594,21.23947505939607,9.143837443242962,32.545444328306104,9.607517193107922,0.0,0.14823437276955756,0.1,0.0045108795166015625,0.05666184425354004,0.049855944,1.1966391,16.634202225617297,0.0,0.2837695589703451,0.0,300,0.12548828125,0.23537991730029498,0.22712267893495344,93600,1.2104270371784964,0.0
312,1.7986979484558105,6.233384608122265,3.278233301872875,10.552939649394512,1.319258436513192,0.0,0.1496097265411535,0.1,0.003038644790649414,0.08125782012939453,0.049797915,0.6848426,15.594120463867794,0.0,0.08370200881879308,0.0,300,0.06117558479309082,5.022482805674702,3.983075563505251,93900,1.2123233346135927,0.0
313,1.764117956161499,12.18985186017043,4.387580836137232,16.426124015324064,5.3339830214611,0.0,0.13956734388877293,0.1,0.024863004684448242,0.08169698715209961,0.04980474,0.57689434,15.253693603498059,0.0,0.16311854763813133,0.0,300,0.036327362060546875,0.6182028022032952,0.30878268869148734,94200,11.544280381776067,0.0
314,1.775054931640625,23.139266585403984,8.462554003678427,32.34360572598607,12.320805473393667,0.0,0.15091108618076854,0.1,0.003142118453979492,0.0576939582824707,0.05056679,1.1178352,16.04225090168865,0.0,0.305746851082623,0.0,300,0.026711225509643555,0.2681613955748548,0.28821436455358096,94500,14.566931583986566,0.0
315,1.8476147651672363,31.694504798100546,6.516424025378163,41.39669575602601,23.346000063512978,0.0,0.14852359266927295,0.1,0.003114938735961914,0.08399057388305664,0.049839597,0.86083454,17.607476291329842,0.0,0.4165194280228761,0.0,300,0.030407190322875977,0.37451015947601435,0.29717999191083544,94800,1.3355323676080635,0.0
316,1.8730285167694092,10.728220895181146,3.5553253923572377,14.645483473119175,5.572375957179978,0.0,0.15228318152044035,0.1,0.0066831111907958984,0.07228827476501465,0.05063002,0.86671925,16.919550751714972,0.0,0.1435847822622867,0.0,300,0.04007911682128906,0.7930250806120973,1.0090674013406464,95100,17.517903063631117,0.0
317,1.7944717407226562,22.277791232029735,13.187827441801518,37.57720450964937,1.4479974031759346,0.0,0.14448647918110108,0.1,0.003802776336669922,0.07946896553039551,0.05023897,0.72760934,17.455374799746448,0.0,0.29425106279800334,0.0,300,0.028899431228637695,0.26953027176517247,0.26096941910037663,95400,1.334059451452389,0.0
318,1.8097286224365234,12.55444814797853,5.184121526797231,20.51171259727224,6.84513836064958,0.0,0.16840716406869619,0.1,0.0030498504638671875,0.0556035041809082,0.051274132,0.7610796,16.965282134569655,0.0,0.16798379489130194,0.0,300,0.035841941833496094,0.5626790685205164,0.5017215309280552,95700,1.2963073856458425,0.0
319,1.812934398651123,21.69233116894979,8.423403892028906,36.2701635470748,16.467890662168394,0.0,0.16168491817930686,0.1,0.004204511642456055,0.08855152130126953,0.050001632,0.89286214,17.43798703800767,0.0,0.28646707658020615,0.0,300,0.02671504020690918,0.23653076256627445,0.23573806375249612,96000,1.3615961880975915,0.0
320,1.7510781288146973,20.65360278397494,12.148978005442189,36.41974990767008,4.569533018594156,0.0,0.14986605487096852,0.1,0.0032427310943603516,0.08070254325866699,0.050084382,0.8464006,17.759548612604398,0.0,0.27261543302072844,0.0,300,0.0287935733795166,0.2940330651610493,0.28932978178145435,96300,1.3345018793991812,0.0
321,1.7914929389953613,15.590624171599352,7.71503676575501,27.529484315316132,6.358971577092998,0.0,0.16265848731860066,0.1,0.0030868053436279297,0.0577392578125,0.049967963,1.4126143,17.542656168503893,0.0,0.20489539929553352,0.0,300,0.07175016403198242,0.36513129195239863,0.35632602441855504,96600,1.2946623612739963,0.0
322,1.7859907150268555,11.916579277912186,3.9277838899526327,18.447063190052923,8.35651830343192,0.0,0.15322559293444038,0.1,0.004253387451171875,0.05507969856262207,0.05063104,1.3483906,16.980048479444722,0.0,0.15942806635127077,0.0,300,0.12780332565307617,0.4245734003381374,0.3294139359673684,96900,1.2537639829754872,0.0
323,1.7965662479400635,25.91695875329188,4.734408127664586,30.54782371079217,19.39841409116924,0.0,0.15406454537911554,0.1,0.0030336380004882812,0.09286713600158691,0.0499246,0.868573,17.873739506829438,0.0,0.3428155105213391,0.0,300,0.060744524002075195,0.23161575119016267,0.20868742257600723,97200,1.2595580705101561,0.0
324,1.7747361660003662,12.477599765972515,9.976614031115949,28.47320189599683,1.272704303573565,0.0,0.1607897196770805,0.1,0.003293752670288086,0.05785942077636719,0.050627545,1.0126866,17.334125532743744,0.0,0.16696133874717853,0.0,300,0.04532337188720703,0.5233479850973959,0.5333941285608297,97500,1.2245604651921502,0.0
325,1.8497886657714844,16.203764603288434,7.248106912875713,26.608071185285322,6.358412759356309,0.0,0.15110275938437773,0.1,0.002931356430053711,0.07886934280395508,0.05006425,0.96041507,17.221089439798213,0.0,0.21330442689107762,0.0,300,0.028639793395996094,0.2093789802627477,0.20433451369679304,97800,1.2237938473598022,0.0
326,1.8391103744506836,12.716322312729167,9.280001066823722,24.55926294409248,1.273566385255766,0.0,0.15172859839395408,0.1,0.0028085708618164062,0.05484795570373535,0.050105482,0.800741,16.770612727091308,0.0,0.17014484071517383,0.0,300,0.08483767509460449,0.5702630889507481,0.5144528440805564,98100,1.2309129969097616,0.0
327,1.8025703430175781,21.496222708303925,5.152287789930551,29.51612609497616,15.36435565262365,0.0,0.15345300200921067,0.1,0.011230230331420898,0.05990934371948242,0.049279533,1.1350816,17.24317372521257,0.0,0.2871997378582007,0.0,300,0.041509389877319336,0.21382224626003632,0.2119799624609144,98400,1.2218473401134913,0.0
328,1.8467020988464355,23.912411528877627,2.673592863841286,28.540602342413543,22.233105041317238,0.0,0.1502933415244226,0.1,0.0028429031372070312,0.05983328819274902,0.050135855,0.7512885,17.910097505579078,0.0,0.3191648436786749,0.0,300,0.053821563720703125,0.14238069816675855,0.10829505653764894,98700,1.2197864481274507,0.0
329,1.8567540645599365,11.382604832165857,8.248029641945456,25.424958690233108,4.301445303993116,0.0,0.15173545282950238,0.1,0.006154537200927734,0.05544471740722656,0.049585853,1.0425324,17.257348238237753,0.0,0.14901254261905816,0.0,300,0.05019736289978027,0.6504106111424555,0.664700654007744,99000,1.2162416028721468,0.0
330,1.8338623046875,19.212924625774196,10.994810610581947,30.523773897233596,1.223496477248417,0.0,0.16654671169900576,0.1,0.0029001235961914062,0.05428791046142578,0.049756452,0.63670236,17.452905876991398,0.0,0.25676384693876847,0.0,300,0.046538352966308594,0.29953149242304794,0.2964905932248371,99300,1.2129325879668134,0.0
331,1.916712999343872,8.975739231503418,3.4007983529363406,13.78031396413093,5.3054789829059015,0.0,0.14815168951113694,0.1,0.007174015045166016,0.07537651062011719,0.050724152,0.7089095,16.6051892124426,0.0,0.12026750749697047,0.0,300,0.03552079200744629,1.254560851802372,0.998647598037838,99600,1.2105713988740006,0.0
332,1.8575623035430908,7.5399963088890685,3.4874084641846683,13.408364551510493,4.4403821311596525,0.0,0.15572665841437552,0.1,0.0046024322509765625,0.0733025074005127,0.049676195,0.7012896,15.698669922087248,0.0,0.10105843219465882,0.0,300,0.04071545600891113,1.7610014599135035,1.105222284420216,99900,1.2240279336769535,0.0
333,2.223172187805176,16.471150254143815,4.073605907517302,21.814788403395934,11.04289657434091,0.0,0.1593224098180293,0.1,0.003130197525024414,0.05919170379638672,0.049731802,1.0212717,15.775917955292904,0.0,0.2201323695445432,0.0,300,0.07559609413146973,0.16462116066521387,0.18646268719955914,100200,1.2078521874679333,0.0
334,1.7706611156463623,12.90134577353777,8.839741203761276,24.520370616206506,1.2283320077891235,0.0,0.1524073889778086,0.1,0.002922534942626953,0.08028960227966309,0.050025623,0.9662439,15.488460737117391,0.0,0.17261258115944308,0.0,300,0.06276845932006836,0.3365027723803695,0.33707028862973965,100500,1.2093610266751973,0.0
335,1.8393561840057373,18.033281965090506,8.21519119944618,27.52730100434025,6.289106708848576,0.0,0.15472908217129216,0.1,0.002938508987426758,0.0800011157989502,0.04982498,0.95737344,15.742942859914704,0.0,0.24103068341647746,0.0,300,0.034964561462402344,0.2995148291700534,0.2854235117002693,100800,1.2089581379978098,0.0
336,1.8177425861358643,22.85147310454263,8.972694351905929,34.290413459569336,9.632565519377485,0.0,0.15367373401886572,0.1,0.0031371116638183594,0.05663013458251953,0.0499585,0.87021923,16.453795884377495,0.0,0.2952801547324705,0.0,300,0.05019378662109375,0.3933121029853758,0.319187137812282,101100,1.2192130877761513,0.0
337,1.8093104362487793,18.490790934266364,8.590191354558108,33.367765308018775,13.331929163628978,0.0,0.1501530034674234,0.1,0.003246784210205078,0.06662678718566895,0.049810138,1.6382011,16.65749538936638,0.0,0.24713055024326536,0.0,300,0.029356002807617188,0.23400770244366673,0.2169719223534033,101400,1.2303362323121583,0.0
338,1.9285521507263184,14.503184356331174,10.3759351694735,29.73537270889021,1.2415861265084687,0.0,0.13909866785480576,0.1,0.0031480789184570312,0.06406950950622559,0.05010645,1.534789,16.442064286062863,0.0,0.19395775425630765,0.0,300,0.04520130157470703,0.4031635096624096,0.40737085866418576,101700,1.255222196985086,0.0
339,1.925818920135498,17.087656742666123,11.031754343131007,32.359479645336705,1.2288110217700252,0.0,0.14521596032173248,0.1,0.0033292770385742188,0.0804452896118164,0.04942305,0.9033386,16.50662353172319,0.0,0.22503559841722634,0.0,300,0.03397870063781738,0.3696015604665009,0.3556969758953708,102000,1.2210577842830248,0.0
340,1.924314260482788,15.101947514157619,11.274889299550743,29.136106914269416,1.2669183722976383,0.0,0.15797298945766364,0.1,0.003081083297729492,0.0624542236328125,0.049769606,0.81231564,16.36615592996663,0.0,0.2019529573671722,0.0,300,0.030253887176513672,0.41579280312342537,0.40097986377848466,102300,1.239640054703296,0.0
341,1.9516363143920898,10.566134252381708,8.454819450451588,23.48309171424804,1.236144903294924,0.0,0.16886958802137672,0.1,0.011412620544433594,0.059728145599365234,0.05009679,0.73823184,15.786153762208139,0.0,0.1414744092562404,0.0,300,0.03571510314941406,0.6926531515234086,0.5925226696751893,102600,1.2339027686502175,0.0
342,1.979264259338379,16.971703665528217,9.907086687316447,27.678472783393147,1.2603739246662635,0.0,0.15379331184480322,0.1,0.00498509407043457,0.05864429473876953,0.049754642,0.848606,15.904708752540147,0.0,0.22355020106336032,0.0,300,0.06611919403076172,0.26246931366683723,0.2674748807588746,102900,1.2424370764435757,0.0
343,1.912642478942871,10.645185177025429,7.352047048097901,23.310878271700457,5.4079267158543205,0.0,0.15768413940409792,0.1,0.003063201904296875,0.060355424880981445,0.049293216,1.1211509,15.378756394988676,0.0,0.14249865600382783,0.0,300,0.03979802131652832,0.6533510929318324,0.5397547718216015,103200,1.2568891439023786,0.0
344,1.911525011062622,15.97836028618709,12.160420317165595,33.31340331866457,1.2250937471550594,0.0,0.1578701317074121,0.1,0.0031387805938720703,0.07614374160766602,0.049676247,0.84300786,15.438716784108518,0.0,0.2136352854906683,0.0,300,0.03150296211242676,0.37532193953460574,0.38320585681787267,103500,1.2398215709159197,0.0
345,1.8454506397247314,14.695566955943665,11.675299111198555,33.414228584606334,1.2852724322586921,0.0,0.1478297746404227,0.1,0.01948404312133789,0.06015324592590332,0.049990967,0.84510195,15.364401801292033,0.0,0.19319398940196114,0.0,300,0.02977156639099121,0.44045452561636417,0.42205924806804745,103800,1.2951174345115894,0.0
346,1.9758424758911133,11.923158533653668,6.87225504548251,20.50630922424848,1.30639400251993,0.0,0.15267763880976898,0.1,0.002974987030029297,0.05634045600891113,0.050069768,0.77452797,15.020277474528196,0.0,0.15944068990303714,0.0,300,0.031302452087402344,0.3127183046336181,0.3170292272449012,104100,1.3264322365391075,0.0
347,1.8913116455078125,8.859898487539109,8.634390006604239,23.52821883028338,1.221973314767278,0.0,0.1486971601354706,0.1,0.0030040740966796875,0.05864572525024414,0.04979824,1.4267318,14.404239575829287,0.0,0.11871764080962866,0.0,300,0.045490264892578125,0.6302933349518554,0.5772645460127178,104400,1.3605697410719664,0.0
348,1.9418940544128418,18.068884808001123,9.91571110918425,31.618848540866296,7.708912466792308,0.0,0.1604842747656929,0.1,0.0029082298278808594,0.05686473846435547,0.049756438,1.0736482,14.770704099046473,0.0,0.24151077277916688,0.0,300,0.0671548843383789,0.36775262239534634,0.3687293763851359,104700,1.4355773542458266,0.0
349,2.442753553390503,15.890844732711447,14.558810191313075,38.54948111749546,1.2026912047732536,0.0,0.14679665444194095,0.1,0.003043651580810547,0.0593874454498291,0.050184388,1.2223122,14.88271816241297,0.0,0.212471005294693,0.0,300,0.03751635551452637,0.4367410726488214,0.4231574314082967,105000,1.337220994481438,0.0
350,1.9230434894561768,15.52685162071688,8.227895097295704,26.422212942093733,6.755539831476981,0.0,0.15003320783125398,0.1,0.007576704025268555,0.08368515968322754,0.050403938,1.2088288,14.947131508243363,0.0,0.2075929313015566,0.0,300,0.048624515533447266,0.25454616883982223,0.24768882332212316,105300,1.3019402822479724,0.0
351,2.007591485977173,30.312408883723926,5.76437133499152,34.32271403522102,20.425232058901614,0.0,0.14879562662441573,0.1,0.003460407257080078,0.06405019760131836,0.049975228,0.7795578,16.483659245791422,0.0,0.3947520043041496,0.0,300,0.07171034812927246,0.34931864738217605,0.2666600728319391,105600,1.3150022160285622,0.0
352,1.9218463897705078,28.18608929433848,8.276415111526644,35.280578112067225,14.63681055072706,0.0,0.1480583717310658,0.1,0.004862785339355469,0.060328006744384766,0.04993123,1.0531169,17.653902250646127,0.0,0.37302636852530346,0.0,300,0.05254244804382324,0.2582118823912633,0.16050313669510474,105900,1.3671333130756482,0.0
353,1.924001693725586,7.663281667280096,2.861291747216661,12.56026946712815,5.321936507015604,0.0,0.15386095985621157,0.1,0.003221750259399414,0.09054684638977051,0.049948182,0.6741795,16.654840192309525,0.0,0.10274645578984651,0.0,300,0.03270244598388672,5.1610339013839335,4.963659347643312,106200,1.304583712403948,0.0
354,1.9062819480895996,13.924777737926865,9.487885471170735,29.558540048882204,5.315054247178525,0.0,0.14974875356440695,0.1,0.0033740997314453125,0.0638737678527832,0.04972664,0.97627103,16.38183394687126,0.0,0.18289582130080884,0.0,300,0.035976409912109375,0.7718203677569596,0.5102262921377135,106500,1.3501317554174783,0.0
355,1.9434027671813965,5.669344253990203,2.909184324001573,9.399605189579294,1.3197478681104107,0.0,0.14303932001399117,0.1,0.0030975341796875,0.06754231452941895,0.050251983,0.85738057,15.310584977583156,0.0,0.07284802888527861,0.0,300,0.05943584442138672,4.537749079275064,2.2535564963037205,106800,16.523285020626112,0.0
356,1.9310111999511719,11.27454185616877,15.167573702812321,37.3904633794129,1.2222265133501535,0.0,0.14584623333641164,0.1,0.0028839111328125,0.05483388900756836,0.049638677,1.3524634,14.906980665441717,0.0,0.14758837415856885,0.0,300,0.07621407508850098,0.6396029997852788,0.6303636820482216,107100,1.285041191004408,0.0
357,1.8633630275726318,8.659676425078917,5.458201089949234,15.281570722032798,1.5852602844772599,0.0,0.14808996910650493,0.1,0.0030078887939453125,0.08331632614135742,0.05020103,1.0781434,14.282250241405437,0.0,0.11605402234327117,0.0,300,0.034165143966674805,0.4808098369858677,0.4121465137065728,107400,1.285640574930926,0.0
358,1.9329533576965332,20.443729311340512,9.448785640760327,31.524667591983935,8.364306464758435,0.0,0.14554536785231936,0.1,0.033783912658691406,0.055405378341674805,0.050287776,0.95814574,14.898398148398945,0.0,0.2731778052641338,0.0,300,0.04647946357727051,0.40226952247281283,0.39280290879485136,107700,1.2633687392021729,0.0
359,1.8633263111114502,12.833099377283357,8.667391388667685,23.273273691796735,1.2606600367961638,0.0,0.15708676613168657,0.1,0.005135774612426758,0.05636739730834961,0.050219614,1.4356441,14.691868271287387,0.0,0.1716823578649908,0.0,300,0.05957674980163574,0.36789902715139267,0.34860821970233397,108000,1.2713588952796189,0.0
360,1.849109172821045,14.719302231607411,15.1266928349242,40.4096329293207,1.3068687079832395,0.0,0.14503548771548672,0.1,0.003400087356567383,0.09335708618164062,0.04967018,1.4099659,14.694611667319391,0.0,0.19351150179644838,0.0,300,0.15979242324829102,0.4961814913339958,0.4725868079092789,108300,1.2367624079241997,0.0
361,2.0015807151794434,13.154452708497423,7.785003755922732,21.390092808924297,5.291397170760419,0.0,0.16004258535502283,0.1,0.0033464431762695312,0.06078171730041504,0.049599376,0.7735192,14.540595771437195,0.0,0.17265316220617133,0.0,300,0.04603695869445801,0.36200551172313333,0.35168094532988553,108600,1.2305994668030993,0.0
362,1.9869377613067627,14.10621986573104,7.6838561637378815,25.503464143048227,4.270656319029771,0.0,0.14287959842260164,0.1,0.005254030227661133,0.1045994758605957,0.050104458,1.8186767,14.497158180866581,0.0,0.18867766739732067,0.0,300,0.042664289474487305,0.25987959646727804,0.2551808950639866,108900,1.2277296828586548,0.0
363,2.030109167098999,10.659539749824798,11.177673182153221,28.59765786515882,1.2093043186096886,0.0,0.14660116389687858,0.1,0.003383636474609375,0.05923819541931152,0.050890945,1.3890316,14.113396337762403,0.0,0.1427028925772769,0.0,300,0.0677027702331543,0.5990341992451677,0.5962249458605924,109200,1.2537542400066741,0.0
364,2.031358003616333,6.686357866615032,4.052338163738155,11.398090241977165,1.2521148612439725,0.0,0.14885125879663022,0.1,0.010173559188842773,0.0656282901763916,0.04962505,0.6050428,13.370692490647667,0.0,0.08974607413777691,0.0,300,0.043085575103759766,1.4875977208879356,1.1720974416118584,109500,1.2304042988123616,0.0
365,1.9360020160675049,11.692075117199122,8.522464763069124,20.34206572439939,1.2480580763156492,0.0,0.15528383549726008,0.1,0.0034532546997070312,0.13317036628723145,0.049970124,0.68043584,13.202830753302813,0.0,0.15646259000438972,0.0,300,0.030035018920898438,0.38966948678382657,0.3856535257962577,109800,1.2357998371046202,0.0
366,1.9254252910614014,18.683835310449204,6.027505146102164,28.53178025209231,12.590706623459765,0.0,0.15290595435697646,0.1,0.005436897277832031,0.09640359878540039,0.050136253,0.85338736,13.750931209017452,0.0,0.24633348381124665,0.0,300,0.06434369087219238,0.26589940105301246,0.25589536078933556,110100,1.2388588161444167,0.0
