iteration,time_sampling,stoc_pol_mean,stoc_pol_std,stoc_pol_max,stoc_pol_min,rollout_success,alpha,delta,time_vpg,time_npg,kl_dist,surr_improvement,running_score,rwd_sparse,rwd_dense,success_percentage,num_samples,time_VF,VF_error_before,VF_error_after,env_samples,eval_score,eval_success
0,1.2874317169189453,-306.73440546321353,11.181207010997296,-290.20358695158654,-318.5009590617825,0.0,0.22460466142995555,0.1,0.03206992149353027,0.059241533279418945,0.064439625,0.6399618,-306.73440546321353,-2.9809202935025425,-3.0435094464636743,0.0,400,0.026459217071533203,1.0002859702972176,0.9972210859962696,400,-229.90883443778253,0.0
1,1.244729995727539,-305.45379915011745,9.477947010892027,-289.3359309245306,-313.6426288643663,0.0,0.35270598678755916,0.1,0.0031003952026367188,0.061369895935058594,0.047902033,0.33426747,-306.6063448319039,-2.966293608887807,-3.029737408247344,0.0,400,0.023111343383789062,0.9972176593549862,0.9926013485919638,800,-225.81913618499252,0.0
2,1.2309074401855469,-307.7577522785607,12.87440311883301,-286.9214065811222,-319.29051460605325,0.0,0.35072604233701593,0.1,0.0029687881469726562,0.06133389472961426,0.04966969,0.35270354,-306.7214855765696,-2.9997415071361266,-3.0530972658569375,0.0,400,0.025523662567138672,0.9926240656730916,0.9830098429576716,1200,-221.43270340108896,0.0
3,1.2567799091339111,-301.6337191446016,12.202121930854084,-284.227588840432,-316.46100675486764,0.0,0.3353061217220491,0.1,0.003022909164428711,0.06003618240356445,0.051200476,0.3572284,-306.2127089333728,-2.988700980009031,-2.9922457549967483,0.0,400,0.024853944778442383,0.9829765930475584,0.964381648984939,1600,-226.0288811229556,0.0
4,1.2924702167510986,-309.60578605793035,1.9309771684037624,-306.3900131255033,-311.5364711227222,0.0,0.34230814826872263,0.1,0.003006458282470703,0.0613861083984375,0.049842324,0.38439327,-306.5520166458286,-3.017403147627987,-3.071150462683991,0.0,400,0.03953099250793457,0.9645382008661382,0.9318094494158723,2000,-218.70400667556945,0.0
5,1.2850220203399658,-302.0445857576921,12.005725847524985,-281.77541630893313,-312.84516993568,0.0,0.3564232404855563,0.1,0.0028972625732421875,0.05970406532287598,0.051608935,0.33976817,-306.1012735570149,-2.953882555590833,-2.9963967990875897,0.0,400,0.024705171585083008,0.931777265956238,0.8795468734353273,2400,-225.99441073215476,0.0
6,1.348722219467163,-303.91529885450177,13.907657419056399,-289.0040841114486,-322.1148281005474,0.0,0.33598950923279786,0.1,0.003050088882446289,0.05898594856262207,0.053029347,0.40089732,-305.8826760867636,-3.0019273631067405,-3.01480698967464,0.0,400,0.02495121955871582,0.879667273571495,0.802591104828313,2800,-232.41924000811596,0.0
7,1.3007464408874512,-303.11061345960957,8.866437345875616,-292.8602231806455,-317.1877242056225,0.0,0.3196066152606123,0.1,0.002921581268310547,0.05786609649658203,0.04629706,0.38804567,-305.6054698240482,-2.97268552288847,-3.007267289534562,0.0,400,0.02764725685119629,0.7988953533666948,0.6941903377804531,3200,-232.37369560930472,0.0
8,1.2880926132202148,-309.6284965083149,8.31597892113855,-296.2564556436648,-318.92434160419106,0.0,0.3523238360281914,0.1,0.0028913021087646484,0.05863451957702637,0.050062727,0.337757,-306.00777249247494,-3.04613602897527,-3.0702490839823446,0.0,400,0.028019428253173828,0.7028836627274758,0.5808106518524365,3600,-232.73155394240612,0.0
9,1.352560043334961,-310.2104007952958,2.4037987515359998,-306.3804582791541,-312.9391395628846,0.0,0.32591344546036705,0.1,0.0030984878540039062,0.06028890609741211,0.049271297,0.37289467,-306.42803532275707,-3.013561123178979,-3.0777234231126025,0.0,400,0.024350881576538086,0.580791089907598,0.457734133383016,4000,-223.66748876033571,0.0
10,1.301694631576538,-311.62223201653336,9.313387186182739,-295.98332106294424,-320.4272612525522,0.0,0.32285351028323545,0.1,0.003040313720703125,0.06300187110900879,0.050232686,0.38913962,-306.9474549921347,-3.056991709579218,-3.090902271002795,0.0,400,0.025404930114746094,0.4549742746025832,0.3575457899603249,4400,-232.51414281737553,0.0
11,1.3184797763824463,-306.56092530644895,10.464526966940223,-292.7683742104126,-322.2281382768043,0.0,0.3611905033102434,0.1,0.003057718276977539,0.05903768539428711,0.049958207,0.3126564,-306.9088020235661,-3.0367271868443546,-3.0399564623335276,0.0,400,0.027005910873413086,0.35556042101139695,0.2998742474905508,4800,-257.979895254752,0.0
12,1.324634075164795,-313.190938437803,5.680085360634691,-306.5706270978991,-321.6957624042396,0.0,0.31241927892595583,0.1,0.0029299259185791016,0.06019735336303711,0.048574086,0.40961713,-307.53701566498984,-3.063996894103796,-3.107042603196699,0.0,400,0.025039196014404297,0.3070710255142718,0.2897686663755576,5200,-258.9330320613809,0.0
13,1.3401484489440918,-300.4338422902009,2.9203333742364563,-296.137097904719,-303.61733265106545,0.0,0.3388842020787653,0.1,0.0030765533447265625,0.05999946594238281,0.050203905,0.3541705,-306.82669832751094,-2.9657170547852427,-2.9790022722130143,0.0,400,0.025476694107055664,0.2896450628409389,0.2831465589096076,5600,-256.7988808918866,0.0
14,1.2979681491851807,-306.369563777366,10.726439368709737,-294.92820285117926,-322.71100821122246,0.0,0.34680949523596677,0.1,0.003137350082397461,0.06028127670288086,0.051545545,0.34672385,-306.7809848724965,-3.00565013663725,-3.039053932181745,0.0,400,0.029942989349365234,0.287780922267417,0.27768111475439655,6000,-252.89011875026617,0.0
15,1.345245599746704,-311.161477687036,5.764851397835671,-301.2236993285585,-315.26154072825824,0.0,0.33528833807136893,0.1,0.0031630992889404297,0.05871701240539551,0.04925788,0.3440292,-307.2190341539505,-3.021675335349869,-3.0853995340186895,0.0,400,0.025402307510375977,0.25934873014767973,0.25097507734949753,6400,-255.34981511824307,0.0
16,1.3025331497192383,-303.5484382516465,10.658619879690155,-293.1125424612692,-321.3629494810513,0.0,0.3354212165116313,0.1,0.0028960704803466797,0.05866217613220215,0.05092497,0.35363397,-306.8519745637201,-2.9479269095277423,-3.011867343852412,0.0,400,0.025571584701538086,0.2589170170073181,0.251203436747473,6800,-260.79629644767846,0.0
17,1.3108508586883545,-301.9407113860319,12.692465267999502,-286.8879827105435,-317.02299410855,0.0,0.34161894177569446,0.1,0.0030181407928466797,0.0604548454284668,0.05033285,0.314568,-306.3608482459513,-2.961543541480889,-2.9953449994190575,0.0,400,0.03217029571533203,0.25578273304599,0.24852927690403023,7200,-266.2487958135162,0.0
18,1.3109641075134277,-306.29186441790785,7.358129472094209,-298.12985547176845,-313.99849787840924,0.0,0.34281984720988684,0.1,0.0030050277709960938,0.060009002685546875,0.04983328,0.3645142,-306.35394986314697,-3.0037724518190747,-3.037600014263819,0.0,400,0.03043985366821289,0.24267169568916427,0.23241793871010105,7600,-266.57212011020647,0.0
19,1.2966163158416748,-309.1697212965555,4.742815676627123,-300.9817805213092,-312.4802088054325,0.0,0.32035617973118397,0.1,0.002960205078125,0.0583803653717041,0.05138795,0.46260086,-306.63552700648785,-3.0419393450009107,-3.066069385107324,0.0,400,0.02487468719482422,0.237284421873375,0.22868181587153558,8000,-262.45827487074115,0.0
20,1.297060251235962,-312.827074673167,8.321021625741908,-303.15780387560085,-324.1123392572417,0.0,0.3262642036558588,0.1,0.0029592514038085938,0.06083345413208008,0.05070319,0.35691437,-307.25468177315577,-3.0881852332807016,-3.1022785726531756,0.0,400,0.029230356216430664,0.22480746487990733,0.2154297306439969,8400,-251.69027950799003,0.0
21,1.3313641548156738,-313.90374915467527,5.726447140461539,-305.6555254064832,-321.6083446086691,0.0,0.30484332707905337,0.1,0.0030684471130371094,0.06021714210510254,0.048541155,0.39642465,-307.9195885113077,-3.069046420401393,-3.1129497242673865,0.0,400,0.02559828758239746,0.21429916255702372,0.20490516324510064,8800,-254.31516086440334,0.0
22,1.3343605995178223,-303.4965712942346,5.364255147025343,-297.7683701828898,-309.4869903003491,0.0,0.30366020457732934,0.1,0.0029633045196533203,0.06663966178894043,0.04954318,0.44679153,-307.47728678960044,-2.9677308917792877,-3.011511059037064,0.0,400,0.024384498596191406,0.22422399659194428,0.21162569300286455,9200,-256.7012511763531,0.0
23,1.3600709438323975,-308.7541966898343,10.143987844191813,-294.6489688070952,-322.2859362849221,0.0,0.33227675769762205,0.1,0.0029048919677734375,0.05862855911254883,0.04902651,0.3880989,-307.6049777796239,-3.0290554603869606,-3.0622891288296263,0.0,400,0.024594545364379883,0.20884323010042602,0.20099494230196108,9600,-258.7613453574708,0.0
24,1.3435554504394531,-310.9824315290135,1.5924149878596037,-308.4765058675177,-312.3991580192512,0.0,0.3719087566249888,0.1,0.0029647350311279297,0.058167457580566406,0.0520098,0.33382455,-307.9427231545629,-3.040273564372443,-3.0845834553388665,0.0,400,0.02624678611755371,0.20002988602861851,0.18900216617530724,10000,-262.11699115966803,0.0
25,1.3722238540649414,-305.60600263814547,13.371042576348868,-291.4035160240452,-327.3336684461409,0.0,0.34613652886202206,0.1,0.003042936325073242,0.05840754508972168,0.04915111,0.3221708,-307.70905110292114,-2.9659634757015922,-3.03114580831007,0.0,400,0.025238752365112305,0.17638160296625718,0.16634332209282401,10400,-264.6831869420898,0.0
26,1.3640389442443848,-315.31310338915637,5.512727748602236,-308.4988190796936,-322.15645027461244,0.0,0.3592171296359478,0.1,0.0028600692749023438,0.06060075759887695,0.05080163,0.3282476,-308.4694563315447,-3.063960797041227,-3.127536207466247,0.0,400,0.025101900100708008,0.16678740107422693,0.15517217259245852,10800,-261.3540594141923,0.0
27,1.3553216457366943,-308.27121091016676,8.859067565564667,-299.7152711512476,-322.11337142474986,0.0,0.3654822909103208,0.1,0.0029191970825195312,0.06480884552001953,0.050611548,0.3311413,-308.4496317894069,-2.9931033544294654,-3.0571395314476177,0.0,400,0.025046825408935547,0.16022823637291284,0.1497609484639445,11200,-272.99563902269443,0.0
28,1.2991383075714111,-307.63477309988264,5.541381863688363,-299.01224292712993,-314.03988128845214,0.0,0.3690322970265758,0.1,0.003036975860595703,0.059438467025756836,0.04888381,0.30006492,-308.3681459204545,-3.0384120607555385,-3.051900401927635,0.0,400,0.02497124671936035,0.16225085633579764,0.1512941972095365,11600,-275.3885871910405,0.0
29,1.311342477798462,-306.8571819210734,2.919896375433503,-303.59498794327965,-311.2182946817869,0.0,0.3112837325747263,0.1,0.002919912338256836,0.05903744697570801,0.05061356,0.4027258,-308.2170495205164,-3.0494581701625423,-3.042925238652711,0.0,400,0.023932218551635742,0.1445606148909063,0.1351575396040615,12000,-273.64405919203506,0.0
30,1.3038783073425293,-300.6357818362234,4.373054176975007,-295.20222684680914,-306.22019330905414,0.0,0.34153751046193837,0.1,0.002989530563354492,0.05866837501525879,0.052514777,0.35416368,-307.4589227520871,-2.9193163774610005,-2.9822078649179833,0.0,400,0.024207592010498047,0.13350981861195624,0.12348547396641105,12400,-276.65159406579136,0.0
31,1.3241667747497559,-302.60980925436627,6.139217588143758,-293.15296343570935,-310.2469470683121,0.0,0.34245866070346365,0.1,0.0030012130737304688,0.05953359603881836,0.049689565,0.37395677,-306.97401140231506,-2.987848051726166,-3.001200463125919,0.0,400,0.023130178451538086,0.12510630845566256,0.11546583339488023,12800,-276.042007322539,0.0
32,1.3199281692504883,-303.9274021134383,9.149826910415022,-293.1827753642512,-316.99629423447846,0.0,0.34432474873523056,0.1,0.003026723861694336,0.061098575592041016,0.051304117,0.37209767,-306.6693504734274,-2.972724535335459,-3.015203632282783,0.0,400,0.027462482452392578,0.13687791640191246,0.12897788643225747,13200,-273.3442401510487,0.0
33,1.3372366428375244,-313.14641179046635,8.473047666116148,-303.80356860114085,-322.3051297427296,0.0,0.3538450886494931,0.1,0.0030868053436279297,0.06044411659240723,0.04795466,0.32549667,-307.3170566051313,-3.053817225642314,-3.106488587441575,0.0,400,0.02528834342956543,0.12635346112866838,0.11811292003266685,13600,-265.642783438737,0.0
34,1.3434267044067383,-307.0634105345373,10.330264970722792,-291.1328612249091,-317.7730367137915,0.0,0.33689717872464564,0.1,0.003270864486694336,0.06125354766845703,0.048981875,0.39149964,-307.29169199807194,-3.0035945258195467,-3.0466166251246616,0.0,400,0.02544546127319336,0.11590227400304803,0.10396936064232257,14000,-270.14111419039045,0.0
35,1.3342454433441162,-316.30469032871923,10.200329084515811,-299.834064240078,-327.7002432814566,0.0,0.36849918725166586,0.1,0.0030014514923095703,0.060610055923461914,0.05056317,0.29271987,-308.1929918311367,-3.1040549078332296,-3.1372807703219943,0.0,400,0.02520751953125,0.10478995045926409,0.09825398308940517,14400,-270.7846202645786,0.0
36,1.3438897132873535,-313.5397556616459,17.411996774197767,-288.2662503155425,-329.77376772915915,0.0,0.3455031662992269,0.1,0.0029611587524414062,0.058972835540771484,0.049171895,0.33501634,-308.7276682141876,-3.095704361962075,-3.108838101602746,0.0,400,0.02320265769958496,0.09618888197475985,0.08779812438885606,14800,-280.9731510755483,0.0
37,1.363060712814331,-309.652079003893,10.628379243062374,-299.4074782510267,-327.47329694861725,0.0,0.3271534501948812,0.1,0.0028798580169677734,0.05860495567321777,0.050097276,0.4050095,-308.82010929315817,-3.066736794408092,-3.070510747926094,0.0,400,0.024668455123901367,0.07970487277904273,0.07209629414150209,15200,-294.3813457705382,0.0
38,1.3739521503448486,-311.85745253967497,9.52881510428867,-297.05685601956935,-320.89424544382183,0.0,0.3421927340648958,0.1,0.0028514862060546875,0.05989503860473633,0.05123188,0.40249112,-309.1238436178098,-3.059044253955019,-3.0927912412532903,0.0,400,0.02470707893371582,0.08601590237218822,0.0747318906441742,15600,-288.19488987404065,0.0
39,1.380316972732544,-318.1184965091945,8.180893866148331,-305.16719666215096,-327.83065018194543,0.0,0.3295225693325069,0.1,0.003072977066040039,0.061919450759887695,0.049491353,0.31341988,-310.0233089069483,-3.112015844153455,-3.155495987878019,0.0,400,0.026968717575073242,0.11206829729187574,0.08046298049384533,16000,-301.0835772535742,0.0
40,1.3849782943725586,-307.9285039735775,2.8064197531377557,-304.90806650066145,-312.4955707740054,0.0,0.35355621973443796,0.1,0.002969026565551758,0.05936408042907715,0.05065382,0.33823168,-309.81382841361125,-3.0095592748549302,-3.053459790154201,0.0,400,0.024603605270385742,0.07243774229742422,0.073061641407763,16400,-304.23078967179424,0.0
41,1.4133377075195312,-314.2045059408973,16.69428832570752,-289.0495277960638,-333.3836599229686,0.0,0.3132104129978705,0.1,0.002954721450805664,0.06296396255493164,0.05085301,0.38601512,-310.2528961663399,-3.09180305771921,-3.11530059288732,0.0,400,0.02510213851928711,0.07558747028465874,0.06135383059510408,16800,-302.4311214218038,0.0
42,1.3151345252990723,-321.6439081597074,7.677360687324637,-309.61266712579203,-330.56099505006176,0.0,0.33114184352341897,0.1,0.003027677536010742,0.0603022575378418,0.049826354,0.34871292,-311.3919973656767,-3.137045529128601,-3.1905154517036682,0.0,400,0.027557849884033203,0.07271651667611925,0.06723494035832574,17200,-305.2073211271858,0.0
43,1.3197603225708008,-312.3808377919058,14.623401383260008,-294.0741526619433,-334.04526550265217,0.0,0.3396780042987487,0.1,0.0029516220092773438,0.05948829650878906,0.04886024,0.36011356,-311.4908814082996,-3.0538515317546073,-3.0970927940746864,0.0,400,0.029074668884277344,0.07873053630480309,0.05850523152081481,17600,-302.2777962118669,0.0
44,1.3245751857757568,-320.17000829679165,4.577177871665606,-315.40905700089195,-325.29919620448595,0.0,0.37225279229310304,0.1,0.002946615219116211,0.05987119674682617,0.050847843,0.2714192,-312.35879409714875,-3.1227030651294068,-3.1761408866092165,0.0,400,0.02286052703857422,0.06743845288275482,0.06790356913167434,18000,-305.345841194866,0.0
45,1.3329966068267822,-324.9894172381968,9.342987043703024,-314.9710221224423,-340.2430120442016,0.0,0.36515459648743154,0.1,0.0030281543731689453,0.05916142463684082,0.051293734,0.31155688,-313.62185641125353,-3.1599230525509623,-3.2240538926879263,0.0,400,0.024364948272705078,0.062098034541776564,0.05885767549444195,18400,-307.24637054832016,0.0
46,1.3219761848449707,-317.12530909700405,9.08214865984597,-302.797557143937,-327.7116178566639,0.0,0.33795738446339185,0.1,0.0029439926147460938,0.0629267692565918,0.04961659,0.35036927,-313.9722016798286,-3.111745455614397,-3.145516669500286,0.0,400,0.02457427978515625,0.06450238985093315,0.06265734460193816,18800,-306.24884168566115,0.0
47,1.3546555042266846,-301.9803412595785,5.581933005234501,-293.7675987384215,-309.1767944300656,0.0,0.34864199765886367,0.1,0.002928018569946289,0.05994534492492676,0.04997809,0.33255005,-312.7730156378036,-2.97320162683854,-2.995061508909579,0.0,400,0.022963762283325195,0.07677896550291266,0.06274913289091759,19200,-307.52537447727116,0.0
48,1.3354957103729248,-309.82746997632324,11.923840423748176,-291.6829761131906,-321.13048888147813,0.0,0.3637905628216282,0.1,0.003031015396118164,0.058544158935546875,0.048076686,0.3354565,-312.4784610716556,-3.0196671280313327,-3.072544740217688,0.0,400,0.023766279220581055,0.0497493056337031,0.045645408414512846,19600,-304.54436737494706,0.0
49,1.3756585121154785,-312.97123120468217,5.347808862911989,-307.445340388547,-321.1444058202278,0.0,0.34649696796526414,0.1,0.003519296646118164,0.05925107002258301,0.04990114,0.33889732,-312.52773808495823,-3.090479569295678,-3.1035234444461617,0.0,400,0.024614810943603516,0.0762667218820766,0.06765047711611688,20000,-305.4622516088844,0.0
50,1.3671789169311523,-304.70231049665705,8.475616084349928,-292.54089897653546,-312.68826958121844,0.0,0.34416436439986436,0.1,0.0028743743896484375,0.059325218200683594,0.049409904,0.3686233,-311.7451953261281,-2.989851103854085,-3.0229122878403496,0.0,400,0.03455519676208496,0.09206907397879117,0.07033470067248276,20400,-303.0260993215402,0.0
51,1.3867511749267578,-308.33689210650886,6.765630515178642,-297.3771250759105,-314.6862542239466,0.0,0.38447877329452,0.1,0.0030617713928222656,0.06294846534729004,0.05032267,0.29297027,-311.4043650041662,-3.0553759617737546,-3.0589666488188088,0.0,400,0.023288965225219727,0.06094147388892449,0.062353449466284246,20800,-306.28328580678965,0.0
52,1.4133062362670898,-313.07932536926774,6.533533583245191,-304.0644163657763,-319.9485711241374,0.0,0.34719986801628866,0.1,0.002943277359008789,0.061000823974609375,0.05106427,0.32482633,-311.57186104067637,-3.0415393419351306,-3.1058973204098446,0.0,400,0.027425527572631836,0.05856838076760374,0.05608372260648921,21200,-301.7112005163801,0.0
53,1.362541913986206,-302.15904376487885,10.596690738180511,-292.83086551176444,-319.68119809595123,0.0,0.3438666461477936,0.1,0.0029239654541015625,0.06133460998535156,0.050199598,0.37457657,-310.63057931309663,-3.013606549709423,-2.9965609704173892,0.0,400,0.029505014419555664,0.0707433971935203,0.06434271553886016,21600,-300.6462108013107,0.0
54,1.389662504196167,-323.0595242875651,4.346853021760629,-319.19921103744485,-330.06753656182616,0.0,0.3379714428095694,0.1,0.0030977725982666016,0.05904889106750488,0.04861132,0.37649712,-311.8734738105435,-3.160582882070438,-3.2046738190723225,0.0,400,0.024736881256103516,0.07665852878439501,0.07512047624248261,22000,-296.11724399799635,0.0
55,1.4088079929351807,-323.917037345821,6.966451119706016,-315.1861908439583,-332.5282828001363,0.0,0.3561291876416969,0.1,0.0030112266540527344,0.05788302421569824,0.04769082,0.29546672,-313.07783016407126,-3.190342667998418,-3.2128420918952534,0.0,400,0.02437615394592285,0.06307513306902689,0.05929335460211532,22400,-297.6759056393281,0.0
56,1.3041021823883057,-322.58372198551734,12.470087571822877,-307.23580147345496,-340.2691061153778,0.0,0.35990702440379946,0.1,0.0030775070190429688,0.06214475631713867,0.051020466,0.3282183,-314.02841934621586,-3.1558220134646273,-3.1997316423164324,0.0,400,0.022716999053955078,0.09543000795722417,0.08952538395217385,22800,-300.3517720742043,0.0
57,1.3288664817810059,-313.09209542217184,6.433085267602023,-305.49071480910294,-322.65775340948414,0.0,0.3434046221877542,0.1,0.0030634403228759766,0.06288528442382812,0.049727887,0.33178303,-313.93478695381145,-3.0822114934797513,-3.1047293604442077,0.0,400,0.02620220184326172,0.04788967048704981,0.04416554975491049,23200,-293.1485022482102,0.0
58,1.3232498168945312,-321.2439102242232,3.092224316555267,-317.71554538475823,-326.091710112251,0.0,0.390228575698986,0.1,0.0029311180114746094,0.05828285217285156,0.04973843,0.28020924,-314.66569928085266,-3.124005766951778,-3.1875043090824744,0.0,400,0.02516031265258789,0.10813100281933817,0.07955204028544273,23600,-298.95041711377104,0.0
59,1.32680344581604,-317.06365197202643,5.8399536126115725,-310.0259254507043,-325.0456689923017,0.0,0.3566144996262399,0.1,0.003160238265991211,0.05871701240539551,0.049378566,0.31597015,-314.90549454997006,-3.1422527422838087,-3.1452118875758455,0.0,400,0.02559947967529297,0.09093489875226428,0.08468372470533142,24000,-297.29108772339663,0.0
60,1.3058578968048096,-318.1063578429253,10.904723539612036,-309.30983616533103,-336.74153092803454,0.0,0.3589434271502949,0.1,0.0029163360595703125,0.05857038497924805,0.05012455,0.34862995,-315.2255808792656,-3.0920241849174044,-3.1543958811787993,0.0,400,0.025021791458129883,0.07628377409383696,0.06839490546293896,24400,-295.8786708292699,0.0
61,1.3346500396728516,-326.27882323461404,7.206471180118238,-314.1438028272522,-332.9442346111161,0.0,0.374907336445561,0.1,0.0029227733612060547,0.05795717239379883,0.049734253,0.28506964,-316.33090511480043,-3.202578655067966,-3.235710471970076,0.0,400,0.02591395378112793,0.05473835540776828,0.05411484158726151,24800,-298.070039621857,0.0
62,1.3310387134552002,-330.25584044104863,7.257359885517791,-318.8791534968834,-336.7163932862982,0.0,0.34099528803254736,0.1,0.0028204917907714844,0.059548377990722656,0.050206028,0.36756825,-317.72339864742526,-3.210253761756582,-3.273646136816849,0.0,400,0.02431511878967285,0.06154182413006963,0.05755086682209665,25200,-297.9143748431042,0.0
63,1.350290298461914,-317.6125019457295,9.115662709896514,-307.2426790012555,-331.61397762770196,0.0,0.358041561353874,0.1,0.0030586719512939453,0.0621485710144043,0.05041511,0.30301356,-317.7123089772557,-3.1449730214271767,-3.148100777937314,0.0,400,0.02494049072265625,0.05865372808194381,0.05616258349104952,25600,-299.07670254802963,0.0
64,1.3545072078704834,-329.6134198550094,10.515262972323812,-315.0433740858484,-339.84030347355974,0.0,0.34689500574924315,0.1,0.0028345584869384766,0.06258988380432129,0.049539,0.3016392,-318.9024200650311,-3.2840092146823405,-3.2672515183772353,0.0,400,0.02641606330871582,0.07698819981771282,0.05618930711501537,26000,-295.6569396278064,0.0
65,1.3695192337036133,-335.3094367794575,7.998292946963967,-328.6040615297139,-348.9691690807597,0.0,0.3264402827018754,0.1,0.003096342086791992,0.0592653751373291,0.050216943,0.37608173,-320.5431217364737,-3.291421603944356,-3.3243851871082364,0.0,400,0.02495718002319336,0.043724645819698274,0.044379233569283145,26400,-294.8302133425524,0.0
66,1.3484866619110107,-321.4025290317841,5.585192227693039,-314.57019777098435,-330.019227870448,0.0,0.3288562943654857,0.1,0.0031425952911376953,0.06128406524658203,0.049706202,0.32801655,-320.62906246600477,-3.212560395450153,-3.1861527078751997,0.0,400,0.02615213394165039,0.047086959249218005,0.03950077850268103,26800,-282.4630322503722,0.0
67,1.3591480255126953,-317.24885171985994,9.704057796857507,-301.27994405407156,-327.2873869937698,0.0,0.37984471820694676,0.1,0.0029211044311523438,0.05893087387084961,0.049683284,0.30474734,-320.2910413913903,-3.19094243855249,-3.1444861964301456,0.0,400,0.02437448501586914,0.040868486510348544,0.0356396609432895,27200,-282.80003047925896,0.0
68,1.3591976165771484,-333.6060683319673,8.365987591020948,-324.28949577808913,-347.0756045825942,0.0,0.36172733892646286,0.1,0.00287628173828125,0.05859780311584473,0.04661522,0.28878936,-321.62254408544806,-3.2853585840629145,-3.308088565134151,0.0,400,0.023808717727661133,0.06299043521830543,0.0524032143807063,27600,-296.64845999004586,0.0
69,1.7215847969055176,-327.7079436840989,6.42799539102328,-317.0980731035271,-334.2821308315619,0.0,0.3403745438648924,0.1,0.002851724624633789,0.0587916374206543,0.0494168,0.36067337,-322.23108404531314,-3.2160660507428718,-3.2495195327132564,0.0,400,0.024868488311767578,0.048003767441326055,0.04846154485645223,28000,-280.59853214095534,0.0
70,1.3055071830749512,-322.41105334290125,15.936759064025713,-299.71566087156316,-338.76400609163045,0.0,0.38223737889585313,0.1,0.003019094467163086,0.05929160118103027,0.0499654,0.3089421,-322.24908097507193,-3.171887761086365,-3.195464825750759,0.0,400,0.0277862548828125,0.07282903032347254,0.05818977695233406,28400,-291.7696726077383,0.0
71,1.3077468872070312,-322.50661011972494,5.987382402030493,-315.8362364254521,-329.38931648409437,0.0,0.3667829458253268,0.1,0.002885103225708008,0.058498382568359375,0.049323812,0.33119422,-322.27483388953726,-3.202641418817003,-3.196403871691584,0.0,400,0.025211334228515625,0.05345589837815927,0.04850714129693636,28800,-294.4033905782627,0.0
72,1.3276219367980957,-323.99469253078087,15.452425956891798,-299.44756889923974,-341.4679208693602,0.0,0.3363266906674056,0.1,0.0030608177185058594,0.05879473686218262,0.049226306,0.38372806,-322.44681975366166,-3.218477984650036,-3.2122525493437055,0.0,400,0.0245058536529541,0.06748213164059826,0.061972843249233994,29200,-286.89256707749416,0.0
73,1.3214786052703857,-328.34733965640885,15.360970632309293,-303.7990603210222,-344.40310497173306,0.0,0.35204110530454413,0.1,0.003127574920654297,0.06508588790893555,0.050448656,0.32338497,-323.0368717439364,-3.220721415188681,-3.25408198308018,0.0,400,0.025154590606689453,0.05033358300494365,0.049250207747563765,29600,-302.3221292226781,0.0
74,1.3347651958465576,-318.09173680842844,16.22703764129687,-296.89258666171884,-342.38523582629216,0.0,0.37281059917716614,0.1,0.00308990478515625,0.06533646583557129,0.049380902,0.33082607,-322.5423582503856,-3.1298249993963703,-3.1533298705351114,0.0,400,0.025736331939697266,0.08969003883444815,0.06673262513947387,30000,-303.5868606718872,0.0
75,1.3307390213012695,-323.3736031852227,8.431073668169699,-309.88077214598627,-333.13595650252347,0.0,0.3552183916080636,0.1,0.0029296875,0.06114363670349121,0.050510067,0.34199727,-322.62548274386927,-3.192627174621236,-3.2054619869933125,0.0,400,0.02545952796936035,0.05002568342883025,0.05162029077898512,30400,-304.62156310236475,0.0
76,1.3480987548828125,-332.3836914066889,7.139441705121408,-320.05725984305633,-337.2009897608962,0.0,0.36622504760903957,0.1,0.003025054931640625,0.061760902404785156,0.050125513,0.31411985,-323.60130361015126,-3.350912661509525,-3.294850938876796,0.0,400,0.023786306381225586,0.08570745143023008,0.05180328574517353,30800,-305.02470515961625,0.0
77,1.358778715133667,-333.64764451802057,13.564529564505477,-317.43270704226296,-355.08171145968737,0.0,0.38360207875148195,0.1,0.0031702518463134766,0.06232094764709473,0.049571563,0.30030096,-324.60593770093817,-3.3044120028688684,-3.3076872866697675,0.0,400,0.02390742301940918,0.03853266444398896,0.04095360380724743,31200,-300.5845367676879,0.0
78,1.378283977508545,-327.1271901176267,18.925840052540963,-299.2165953456314,-352.48463476598795,0.0,0.35968449942428765,0.1,0.003113985061645508,0.06443285942077637,0.050027773,0.27842048,-324.85806294260703,-3.2400589606202264,-3.2435891675860775,0.0,400,0.02650594711303711,0.07122165855800135,0.06325079147304007,31600,-303.1971311626798,0.0
79,1.340447187423706,-325.384990989707,5.157948585809151,-319.84707236354933,-331.51245325049223,0.0,0.39033586891577854,0.1,0.003049612045288086,0.06036090850830078,0.051037885,0.31887886,-324.91075574731707,-3.272138936825995,-3.22508890162952,0.0,400,0.02407526969909668,0.05538048522582022,0.049758705527599104,32000,-302.67257247016505,0.0
80,1.3576569557189941,-325.46507223674143,12.839493729304474,-303.23075907876176,-333.25965001192316,0.0,0.3513143581123591,0.1,0.00293731689453125,0.06001400947570801,0.05086954,0.37132755,-324.9661873962595,-3.203054975381506,-3.227019875351232,0.0,400,0.02729058265686035,0.0577344421387057,0.05264769454507115,32400,-303.8001367432138,0.0
81,1.354543924331665,-338.8512222641614,13.037119306716884,-321.39634794231443,-358.0462995620584,0.0,0.36187176883258537,0.1,0.002880573272705078,0.06326842308044434,0.050988976,0.38880408,-326.35469088304967,-3.355183096827661,-3.3594031063177194,0.0,400,0.024072647094726562,0.07784730724562189,0.06956489082376818,32800,-317.0644110725379,0.0
82,1.3150403499603271,-332.83776446388595,6.251496462995486,-322.8980637410446,-340.16297149429727,0.0,0.35507765687457415,0.1,0.003046274185180664,0.05966997146606445,0.048923038,0.33914474,-327.0029982411333,-3.3262713359493237,-3.2995996780373407,0.0,400,0.0276947021484375,0.04975285017208518,0.036608408046459616,33200,-309.88475020528216,0.0
83,1.3157322406768799,-326.25479367387334,14.852162636560346,-310.37893967005607,-350.50774926413914,0.0,0.34055787432408313,0.1,0.003049612045288086,0.059162139892578125,0.049379945,0.3558953,-326.92817778440735,-3.250542105907025,-3.234354965924627,0.0,400,0.02528977394104004,0.05225586267305846,0.046968051355023625,33600,-321.28108600019135,0.0
84,1.3340513706207275,-328.1755388477218,7.548825729088584,-319.04869486717223,-339.2641086366483,0.0,0.34359987065119285,0.1,0.003006458282470703,0.060770511627197266,0.050205965,0.3039272,-327.0529138907388,-3.2403200082149928,-3.253688304983474,0.0,400,0.025890350341796875,0.051170616578173754,0.04930387567528603,34000,-322.37848170775163,0.0
85,1.340491771697998,-327.88897050620966,9.892114664091228,-317.2581812397857,-343.50625968593346,0.0,0.37424214424873065,0.1,0.002933502197265625,0.06043863296508789,0.04998297,0.28484604,-327.1365195522859,-3.275798162230505,-3.2500463479026367,0.0,400,0.02489495277404785,0.038097531693868016,0.03542770324361507,34400,-326.2802631429799,0.0
86,1.3581469058990479,-344.06645989975334,16.432247610037802,-327.35260553766045,-368.8590741266016,0.0,0.36080822937642243,0.1,0.003018617630004883,0.05922365188598633,0.05138299,0.309814,-328.8295135870327,-3.397739492609392,-3.410889418481725,0.0,400,0.024322509765625,0.09290342402767414,0.03983365327270949,34800,-322.12528962127584,0.0
87,1.3663921356201172,-331.5365286822121,9.887986468281703,-315.55186929132134,-341.9558173135353,0.0,0.32263765768646574,0.1,0.003045797348022461,0.05926108360290527,0.049703892,0.3823734,-329.10021509655064,-3.2817998529542036,-3.2850903190998952,0.0,400,0.027440786361694336,0.026633326856904067,0.030668916444102926,35200,-318.75417259763344,0.0
88,1.3544845581054688,-332.0609679962354,3.705871369950573,-326.0713598711706,-335.1667271267445,0.0,0.34923583917169937,0.1,0.0030717849731445312,0.06380248069763184,0.050087128,0.27225485,-329.3962903865191,-3.2781145908279847,-3.2921078689158536,0.0,400,0.028138160705566406,0.04480956825235659,0.03645600916986691,35600,-311.4136469463566,0.0
89,1.3536646366119385,-330.4633835640168,7.928922784156792,-318.70073437936725,-340.2838043529061,0.0,0.35254846929790284,0.1,0.0029039382934570312,0.05874443054199219,0.049937338,0.36300826,-329.5029997042689,-3.3228768620176616,-3.2763642575897034,0.0,400,0.02709031105041504,0.055899421729302186,0.05436648640690081,36000,-317.4531093814674,0.0
90,1.3549535274505615,-327.6544760088417,15.905490549631372,-301.65308008522055,-342.48534096794396,0.0,0.3453593713823436,0.1,0.002985239028930664,0.05922698974609375,0.04991384,0.30682746,-329.3181473347262,-3.2246602526883232,-3.248972045464342,0.0,400,0.024736404418945312,0.08046486336872091,0.07356882897931656,36400,-313.37484955470114,0.0
91,1.3742961883544922,-325.33909846188527,8.509361758014824,-313.0909157952917,-336.8745431165373,0.0,0.3762587023209165,0.1,0.002995729446411133,0.06020307540893555,0.049572982,0.2929153,-328.9202424474421,-3.280102224749063,-3.2245098286772973,0.0,400,0.02446269989013672,0.03341565268813357,0.029453050725206435,36800,-315.2143108553856,0.0
92,1.385615587234497,-317.33462659727695,6.4199614836927426,-309.49078618177344,-324.85731823394,0.0,0.3774339082544431,0.1,0.002932310104370117,0.05977153778076172,0.049461346,0.31509146,-327.7616808624256,-3.202393272393763,-3.146003089510289,0.0,400,0.025310039520263672,0.0558051530485589,0.04867252836318019,37200,-310.9189538646862,0.0
93,1.4070460796356201,-319.3157242642841,5.67707946905043,-312.5245857724105,-328.2215847797006,0.0,0.3822640282273764,0.1,0.003033161163330078,0.06068587303161621,0.05092251,0.30262652,-326.9170852026115,-3.171910478450594,-3.166187255227221,0.0,400,0.026025772094726562,0.08911170929117271,0.05841818889885542,37600,-314.2427879760654,0.0
94,1.4054110050201416,-332.54815369769386,12.11983609005927,-318.2387838554449,-350.56008580657306,0.0,0.34433044265641916,0.1,0.0028977394104003906,0.05825328826904297,0.050049588,0.3912259,-327.4801920521197,-3.2822728786009847,-3.297525385404203,0.0,400,0.027276039123535156,0.04550915492247079,0.04904739436521103,38000,-312.94038173184583,0.0
95,1.3637464046478271,-329.51529835849857,12.519555609815507,-311.20281015884655,-345.714149205859,0.0,0.3345738124475417,0.1,0.003165721893310547,0.061507225036621094,0.05031969,0.31921354,-327.6837026827576,-3.2526634521524747,-3.2666365453519504,0.0,400,0.029949665069580078,0.06369406398558423,0.049194326772229145,38400,-315.50158762782866,0.0
96,1.3336739540100098,-326.8339652123518,8.048959393324811,-314.07194873806,-336.3667251221944,0.0,0.34790979909077707,0.1,0.0031311511993408203,0.060228824615478516,0.05015316,0.3125364,-327.598728935717,-3.2266897714037115,-3.239306761047066,0.0,400,0.025969505310058594,0.03319460829896602,0.030384354968876006,38800,-316.16747919636003,0.0
97,1.3222377300262451,-316.65193349589015,3.4299337484922607,-312.5745006285413,-321.9669337139351,0.0,0.38942886933756304,0.1,0.0030527114868164062,0.06025385856628418,0.04968432,0.29409033,-326.5040493917343,-3.154684694084733,-3.1382421152967823,0.0,400,0.025133132934570312,0.060482595159641474,0.039089087722949126,39200,-322.699173241756,0.0
98,1.326134204864502,-332.5175426519522,5.220098194071037,-327.15237229596767,-341.1664523516288,0.0,0.358951710721871,0.1,0.002949237823486328,0.06440353393554688,0.048344053,0.43597496,-327.10539871775615,-3.3118854075194606,-3.295803078839735,0.0,400,0.02549147605895996,0.04280550554866147,0.037381119883921836,39600,-317.11167925577365,0.0
99,1.3274292945861816,-332.9449662565585,9.585151936812885,-324.079181432821,-348.10855596943924,0.0,0.33998708811643835,0.1,0.002993345260620117,0.05847811698913574,0.049855117,0.3247367,-327.68935547163636,-3.3068119669186644,-3.3007735557382407,0.0,400,0.02330636978149414,0.039886197411971344,0.034518025698326064,40000,-314.88108849160096,0.0
100,1.365814208984375,-330.74475420083644,11.560645076144967,-318.37620146216136,-345.01439555359894,0.0,0.36317784362347827,0.1,0.0030727386474609375,0.05840349197387695,0.049610067,0.28313,-327.9948953445564,-3.2854891842105856,-3.2790617798060815,0.0,400,0.02480006217956543,0.03867721653835398,0.03457069061827531,40400,-313.7045689626866,0.0
101,1.3398802280426025,-308.76683687809395,12.354993979916456,-299.6555572279661,-329.8911342516431,0.0,0.36304914207272726,0.1,0.0029680728912353516,0.06481504440307617,0.04979594,0.36704868,-326.0720894979102,-3.0783269581033044,-3.061974149565027,0.0,400,0.02480792999267578,0.10058581143035542,0.04725366176937624,40800,-306.0094178591069,0.0
102,1.3624179363250732,-318.38619973430383,11.190959404575535,-303.2476521196209,-330.3182092341298,0.0,0.35463551713654917,0.1,0.002897977828979492,0.05834460258483887,0.050885793,0.3345453,-325.3035005215496,-3.232915093580859,-3.156076267064709,0.0,400,0.0250241756439209,0.05296140329407244,0.042559230225026015,41200,-308.821954726186,0.0
103,1.3972105979919434,-330.67738066127333,9.926817664772653,-317.10629372654006,-343.1688633650412,0.0,0.3829317771379387,0.1,0.0030307769775390625,0.06009173393249512,0.050528053,0.31632864,-325.84088853552197,-3.2745149688728166,-3.2782316069845554,0.0,400,0.02480149269104004,0.08663721499206072,0.0506263085929401,41600,-305.58238003284316,0.0
104,1.375807523727417,-317.24424352989314,10.379286563883639,-303.47764992032984,-328.59870696649324,0.0,0.3486881679759134,0.1,0.0029370784759521484,0.06010150909423828,0.050413474,0.3606754,-324.9812240349591,-3.182448007112791,-3.1459223134031657,0.0,400,0.025272130966186523,0.06418565270037208,0.04973971352140212,42000,-308.0235946324497,0.0
105,1.379129409790039,-334.0127120965862,10.132258399446838,-316.7593081859036,-342.40158477749026,0.0,0.38299503271496715,0.1,0.0029723644256591797,0.0585482120513916,0.049856883,0.30303046,-325.8843728411218,-3.3374262001447974,-3.3110541738670562,0.0,400,0.023957490921020508,0.07568128228395209,0.07866381783057855,42400,-290.5473879327439,0.0
106,1.404026985168457,-337.6432225899673,8.393975661289359,-328.3886853144232,-350.36274588258186,0.0,0.34189534649178754,0.1,0.0029478073120117188,0.058861732482910156,0.048856243,0.33238342,-327.06025781600636,-3.3614341416305615,-3.3472475953657037,0.0,400,0.03112936019897461,0.03037503106662601,0.02451091490860424,42800,-272.6348259529661,0.0
107,1.3872230052947998,-331.4345074321263,10.470068390566603,-322.22055993057666,-349.1924009444901,0.0,0.3850059560329845,0.1,0.0029489994049072266,0.06696534156799316,0.048557643,0.27971804,-327.49768277761837,-3.350154465054369,-3.2857923721988307,0.0,400,0.024749279022216797,0.034378526680405794,0.02879720730960366,43200,-271.316739335244,0.0
108,1.3945889472961426,-318.758421562375,7.2379294554363085,-307.967087183706,-328.1989479258314,0.0,0.3924656448086563,0.1,0.002905607223510742,0.05875897407531738,0.050382566,0.28938332,-326.6237566560941,-3.2356900585041464,-3.160944989050205,0.0,400,0.022207975387573242,0.04931919282759986,0.0395567877460954,43600,-271.52129996059284,0.0
109,1.3563344478607178,-325.74770290416836,12.133103531457511,-311.821972266334,-339.2481057917789,0.0,0.35623925425792274,0.1,0.0031304359436035156,0.06022238731384277,0.050136585,0.32565597,-326.53615128090155,-3.283965132000106,-3.228302887215138,0.0,400,0.022576093673706055,0.05001069014457041,0.03414221609410178,44000,-292.36828842058895,0.0
110,1.3591523170471191,-321.36395449371327,2.500189508922826,-317.34186434479693,-323.9141272111476,0.0,0.3209174854990561,0.1,0.0029408931732177734,0.06134605407714844,0.050191913,0.39324355,-326.0189316021827,-3.2118914000182452,-3.1854703153492037,0.0,400,0.024495601654052734,0.03739923255831507,0.03812068362260437,44400,-281.4064378822232,0.0
111,1.3538107872009277,-324.78434562180365,18.09171122342912,-301.2169243725231,-344.6947996948205,0.0,0.3974181920342886,0.1,0.0029959678649902344,0.06162261962890625,0.049686477,0.2683225,-325.89547300414483,-3.2360017297427452,-3.2197859625808967,0.0,400,0.025970935821533203,0.03689098675640586,0.03629654152168173,44800,-271.354119164867,0.0
112,1.3403630256652832,-322.4511100186017,9.879320770610539,-308.4800304600751,-334.63833418566264,0.0,0.36501353527006775,0.1,0.003050565719604492,0.06080508232116699,0.050343577,0.2839315,-325.5510367055905,-3.2031123027309825,-3.196599064326233,0.0,400,0.025613069534301758,0.05104266502932127,0.04570108900714823,45200,-273.32400624003554,0.0
113,1.3473563194274902,-325.08579206695777,14.451918518945496,-300.8889898394832,-338.51089805785153,0.0,0.41923735277461427,0.1,0.0029289722442626953,0.060247182846069336,0.048733667,0.26414526,-325.50451224172724,-3.210302538726273,-3.224001943296434,0.0,400,0.02496814727783203,0.07500115787727059,0.0720256448671602,45600,-274.0972268914938,0.0
114,1.3908939361572266,-319.7998103811305,16.81934589078951,-292.78472933422864,-338.93000138632897,0.0,0.381753916428593,0.1,0.0029158592224121094,0.06113123893737793,0.049998652,0.28773892,-324.9340420556676,-3.1772332512692305,-3.170972060186917,0.0,400,0.02599930763244629,0.06674396998967677,0.065616465773038,46000,-275.10812059889935,0.0
115,1.3492560386657715,-327.3768141491781,2.3291989904772494,-324.67268967393954,-330.7584892338597,0.0,0.3477387909484847,0.1,0.0030031204223632812,0.059235334396362305,0.05001626,0.29554126,-325.1783192650186,-3.3002181438560747,-3.245398606338806,0.0,400,0.024604320526123047,0.027261228620427385,0.020798875064777227,46400,-250.1405894298522,0.0
116,1.3398611545562744,-323.58140870776856,9.650859547484826,-308.1817180086372,-332.54276198217656,0.0,0.3865381862386051,0.1,0.003247976303100586,0.0592958927154541,0.04867117,0.28777027,-325.01862820929364,-3.2524935017910224,-3.2080841500885566,0.0,400,0.024606704711914062,0.054511710430730415,0.05019636150070734,46800,-257.84262756884027,0.0
117,1.3579001426696777,-327.09478120280323,13.897905893036489,-304.2627771736591,-341.7629555425836,0.0,0.41004694873167596,0.1,0.0030908584594726562,0.06738686561584473,0.04946167,0.25946894,-325.2262435086446,-3.287737321074918,-3.241913916336845,0.0,400,0.024311304092407227,0.039669627956360996,0.03457419418714186,47200,-258.8995068872575,0.0
118,1.3469898700714111,-323.71761725352883,14.337723383409848,-305.89533590625126,-343.28426933781685,0.0,0.36283343898691334,0.1,0.0029807090759277344,0.0581357479095459,0.049419254,0.33259973,-325.075380883133,-3.274551191518762,-3.2089595186944764,0.0,400,0.024410247802734375,0.05878358531374645,0.05763311093533321,47600,-266.83747480490416,0.0
119,1.3569579124450684,-330.89804444766395,12.786243146417686,-311.1597296419584,-342.98460129491605,0.0,0.3661882228961162,0.1,0.003248453140258789,0.05795121192932129,0.049907263,0.31150284,-325.6576472395861,-3.3147985463823026,-3.279753764871778,0.0,400,0.023801326751708984,0.034333102159929366,0.032771737202373814,48000,-267.73261431186705,0.0
120,1.3712520599365234,-331.43280038975996,10.179105306518489,-320.17968837769877,-343.9019429021637,0.0,0.346563228991923,0.1,0.0029897689819335938,0.0584714412689209,0.0503919,0.32162085,-326.2351625546035,-3.3308588186409462,-3.286455348397052,0.0,400,0.025274276733398438,0.04395179207815656,0.04252810555005275,48400,-276.2061022026046,0.0
121,1.3422214984893799,-338.8618560766001,2.2469553806578153,-336.5082692300949,-341.8627080574074,0.0,0.3748088614259342,0.1,0.0029480457305908203,0.059278011322021484,0.050565936,0.30755973,-327.4978319068032,-3.454085466022768,-3.358528133626742,0.0,400,0.024123668670654297,0.08087014233813959,0.04386908080758076,48800,-279.8460300686625,0.0
122,1.348714828491211,-328.6799144990067,6.5044791698141955,-321.3141048105708,-336.6591271854047,0.0,0.3744246995043582,0.1,0.002924203872680664,0.058667659759521484,0.051008873,0.36279446,-327.61604016602354,-3.342953076742113,-3.2579551018719557,0.0,400,0.024854660034179688,0.06929139815438488,0.03917901204662286,49200,-306.24141169240505,0.0
123,1.3701746463775635,-331.5629320240952,8.355649056987303,-318.47749882339036,-340.6367071248827,0.0,0.4080238693878932,0.1,0.0028884410858154297,0.059038639068603516,0.05009023,0.26082024,-328.0107293518307,-3.371966471556095,-3.2860480714232376,0.0,400,0.024634122848510742,0.03518811882804706,0.04178581958926329,49600,-301.2511927278532,0.0
124,1.3531267642974854,-330.7642324519028,4.050883325152965,-326.15318624861214,-337.2864059232662,0.0,0.3448693072042705,0.1,0.0029342174530029297,0.05830693244934082,0.050916098,0.31607884,-328.2860796618379,-3.343349463598926,-3.2781191337192226,0.0,400,0.024097204208374023,0.03517323785817325,0.0233623630963785,50000,-300.6346467830348,0.0
125,1.3615989685058594,-340.2049014244211,7.033576708894669,-330.9681311765567,-350.27742544687476,0.0,0.3724730240504311,0.1,0.002867460250854492,0.05940365791320801,0.04977204,0.2972869,-329.47796183809623,-3.338997556709947,-3.3730825205455193,0.0,400,0.024585962295532227,0.02583246133761196,0.026536727227805507,50400,-283.3585167990837,0.0
126,1.351550579071045,-335.31676252321654,7.67134699695671,-322.71292409419857,-342.3340062254841,0.0,0.3843321047128657,0.1,0.003146648406982422,0.06043601036071777,0.05078569,0.2895581,-330.06184190660827,-3.409260206088007,-3.3234796021069153,0.0,400,0.0246279239654541,0.040247531008093085,0.038548297955600774,50800,-283.3413777261654,0.0
127,1.390730619430542,-325.2796789910405,9.775565111122107,-317.17846048956994,-341.81134018816033,0.0,0.3924559886630062,0.1,0.00292205810546875,0.0587773323059082,0.050487276,0.2671072,-329.5836256150515,-3.3293077892547767,-3.223575169686285,0.0,400,0.025123119354248047,0.04623091802815092,0.04369934485784365,51200,-280.2769320625522,0.0
128,1.3397862911224365,-335.4767908578924,6.842105199074631,-324.71999704044146,-343.0153283565894,0.0,0.35085979750741203,0.1,0.0030765533447265625,0.06126546859741211,0.049784314,0.35183012,-330.1729421393356,-3.400000449429646,-3.3250677007354286,0.0,400,0.02584671974182129,0.04520520625705376,0.03834621721794265,51600,-287.60984514264334,0.0
129,1.3667714595794678,-321.1060489884692,3.3677184562508167,-317.6175145660286,-326.4227147601807,0.0,0.3376245238942405,0.1,0.0031576156616210938,0.0609135627746582,0.05077897,0.3916832,-329.26625282424897,-3.298287290209548,-3.1825591705926093,0.0,400,0.026732444763183594,0.03277867313724728,0.02838942117663305,52000,-303.4624290324573,0.0
130,1.3426289558410645,-334.1293339233288,10.671202304663497,-317.00731740568744,-345.7066859924349,0.0,0.35507386781413397,0.1,0.003037691116333008,0.0611569881439209,0.05041139,0.3020603,-329.752560934157,-3.3484976165954716,-3.3114331170195466,0.0,400,0.02672290802001953,0.03910911965482518,0.03938032260999966,52400,-305.7392035521081,0.0
131,1.3396635055541992,-331.62373249468527,13.315626600308802,-319.2570284263457,-351.20572007686576,0.0,0.37865088425492927,0.1,0.0029213428497314453,0.06168842315673828,0.050787535,0.3149619,-329.93967809020984,-3.3546965415786847,-3.287758535625521,0.0,400,0.02646923065185547,0.07697656866078897,0.07431137095673536,52800,-306.9104326823063,0.0
132,1.349808931350708,-332.04102842361806,10.872086920540857,-318.7474394271004,-342.76117735221345,0.0,0.37478043066814,0.1,0.0030155181884765625,0.0595548152923584,0.049903255,0.29591787,-330.14981312355064,-3.368099294536613,-3.2915327418391556,0.0,400,0.02834463119506836,0.04703099121972668,0.04581184552861581,53200,-303.3329691641407,0.0
133,1.3572998046875,-330.3128728235485,6.482256907477312,-319.49952504804816,-336.2782379674116,0.0,0.37441758175663836,0.1,0.0032198429107666016,0.05936598777770996,0.05072616,0.29228568,-330.16611909355044,-3.3700357849389198,-3.2734858310735726,0.0,400,0.03164863586425781,0.0415306337639848,0.03691459915841692,53600,-294.95951067265287,0.0
134,1.377490758895874,-332.4346469888138,8.931155349878493,-319.77475009163265,-344.16008962485176,0.0,0.38628997260452147,0.1,0.0033690929412841797,0.05931711196899414,0.0506866,0.2856796,-330.39297188307677,-3.3815005848161954,-3.2943891278631527,0.0,400,0.02794480323791504,0.04825921647384914,0.047697563180584344,54000,-284.8181442360605,0.0
135,1.396470308303833,-322.2646765459866,8.387666414705498,-309.0780318237846,-330.3955086182966,0.0,0.3546811181688034,0.1,0.002979755401611328,0.059337615966796875,0.050256778,0.3231979,-329.58014234936775,-3.299849857209732,-3.1943776202487997,0.0,400,0.028593778610229492,0.035878031524274205,0.03042694934683656,54400,-284.44656137252014,0.0
136,1.3878531455993652,-336.2135612836541,6.674631271250007,-328.8318381896672,-346.9944724005076,0.0,0.3782862709904767,0.1,0.0029845237731933594,0.06072735786437988,0.05130506,0.2940698,-330.2434842427964,-3.4485225642457724,-3.3323424485552433,0.0,400,0.029674053192138672,0.0668116778035946,0.04977477080955354,54800,-297.0501915637241,0.0
137,1.3984720706939697,-332.8807298086813,5.215201129078043,-325.8517670906361,-338.8003708918886,0.0,0.4179852323986792,0.1,0.0029103755950927734,0.06106257438659668,0.04851203,0.2861962,-330.5072087993849,-3.40595225194488,-3.29952972108921,0.0,400,0.033449411392211914,0.035435071102122094,0.03760517544252329,55200,-296.258188448037,0.0
138,1.402642011642456,-340.72296986514766,14.384839745794457,-316.7290895276643,-355.00948047721715,0.0,0.3902344553996118,0.1,0.002980470657348633,0.0620729923248291,0.049793188,0.2868613,-331.5287849059612,-3.403389961382296,-3.376922937720224,0.0,400,0.03014206886291504,0.08172291498295428,0.07802606538141099,55600,-288.83425147388897,0.0
139,1.3967373371124268,-338.6992535254746,2.1725131041743926,-334.9883341053308,-340.4013137302221,0.0,0.3582701078079003,0.1,0.0030727386474609375,0.06628751754760742,0.050264303,0.2973901,-332.24583176791253,-3.4321067245350725,-3.356739114147146,0.0,400,0.029737472534179688,0.06274412771894085,0.05261391039347102,56000,-269.20329865336646,0.0
140,1.4072918891906738,-342.46834196547957,6.506413963858429,-331.7870462583312,-348.7063810980292,0.0,0.3882026584351756,0.1,0.0028581619262695312,0.0602259635925293,0.050316144,0.30207655,-333.26808278766924,-3.420567043176955,-3.394631532751955,0.0,400,0.031066179275512695,0.052637151829742025,0.04698398066145174,56400,-292.9585790628734,0.0
141,1.370755910873413,-344.34820453793066,5.641112463926,-336.23368052236447,-351.9236279677208,0.0,0.33900461288426403,0.1,0.002993345260620117,0.05993795394897461,0.049324345,0.33880135,-334.3760949626954,-3.3890785683559166,-3.4132305275460277,0.0,400,0.04123282432556152,0.02616350823298354,0.02435174710528943,56800,-286.8765709394619,0.0
142,1.3476245403289795,-327.5602001645118,10.517630345780724,-313.10319560082837,-342.5998729012153,0.0,0.41658182616150663,0.1,0.0031447410583496094,0.05965065956115723,0.050352808,0.28443527,-333.69450548287705,-3.295239762675217,-3.247555825184571,0.0,400,0.0307309627532959,0.04380557547494282,0.03992967281791352,57200,-316.1669828093764,0.0
143,1.3725569248199463,-335.36906371609854,5.957816880885453,-325.365453169227,-340.6665312176157,0.0,0.4077969157185426,0.1,0.003048419952392578,0.06285452842712402,0.049827382,0.25585485,-333.8619613061992,-3.448751398600921,-3.323854074339945,0.0,400,0.030946016311645508,0.0685910605303058,0.03945322013185817,57600,-320.63988181575934,0.0
144,1.3424150943756104,-337.8084697753219,9.447100054574253,-321.57270308195365,-344.79394213688056,0.0,0.35889223610142146,0.1,0.003025531768798828,0.061115264892578125,0.050049767,0.31920865,-334.25661215311146,-3.4348483277032287,-3.348801238096602,0.0,400,0.03349947929382324,0.054724602114235014,0.06026491125579716,58000,-320.3514724128925,0.0
145,1.444281816482544,-330.9920584963772,10.273775269047587,-316.5561782250608,-345.2156561551837,0.0,0.39581414316352614,0.1,0.002933502197265625,0.05908370018005371,0.04889352,0.2898536,-333.930156787438,-3.3380981328488635,-3.280867967068166,0.0,400,0.02968287467956543,0.06621175889085072,0.03687374172105493,58400,-323.57526426348176,0.0
146,1.3797621726989746,-342.1148444836791,3.0570246758543314,-337.6410285797091,-346.08611336500775,0.0,0.36967810149688457,0.1,0.0030896663665771484,0.06152772903442383,0.050664287,0.32384408,-334.74862555706216,-3.4848900321493983,-3.3890275890633728,0.0,400,0.03509116172790527,0.08281651762273114,0.05294372909144546,58800,-325.7973896985955,0.0
147,1.3932254314422607,-336.41187217979484,10.81321022124411,-323.53158322466396,-353.45250257289985,0.0,0.36520427584198367,0.1,0.003107786178588867,0.06611061096191406,0.050015792,0.32990718,-334.9149502193355,-3.341223109862636,-3.3351611508636476,0.0,400,0.03277182579040527,0.039636038020785705,0.039530168267970255,59200,-323.7468706055993,0.0
148,1.365920066833496,-332.42858598073934,12.549060555845157,-319.6836246636202,-353.23889936025284,0.0,0.40735074942905847,0.1,0.003070354461669922,0.06184053421020508,0.049197055,0.2574937,-334.6663137954759,-3.3718414939120684,-3.295810949822924,0.0,400,0.033045053482055664,0.05178959561264919,0.052170160286466406,59600,-326.9852314284346,0.0
149,1.4422686100006104,-339.6401161077428,8.323430991327546,-329.803876967195,-352.6082264001129,0.0,0.358763714312927,0.1,0.00330352783203125,0.06155967712402344,0.049656577,0.34258515,-335.16369402670256,-3.4921210206967053,-3.3654332063773342,0.0,400,0.03891301155090332,0.05896609047887101,0.04050666286835149,60000,-328.99900614534687,0.0
150,1.3672542572021484,-342.994996654807,20.824459807320707,-314.0454978822428,-367.3883773871143,0.0,0.41546484106981396,0.1,0.0031244754791259766,0.06321310997009277,0.050085206,0.27563828,-335.946824289513,-3.3979596078352996,-3.400767504670343,0.0,400,0.03287959098815918,0.06860038694194777,0.0646604805617505,60400,-331.89574058499045,0.0
151,1.3684897422790527,-346.37504324978875,8.4989896715804,-332.3099539499546,-353.43808925087853,0.0,0.3961244144722864,0.1,0.003036022186279297,0.0623781681060791,0.05155736,0.25905195,-336.9896461855406,-3.5481999073450172,-3.4324781214732667,0.0,400,0.03399085998535156,0.05171952980967291,0.04638493270407732,60800,-330.87048502990905,0.0
152,1.366914987564087,-336.6726650891382,10.242139555338037,-320.60147705625553,-347.82616954890455,0.0,0.4195444694806937,0.1,0.0028345584869384766,0.05942797660827637,0.04930611,0.2425951,-336.9579480759004,-3.423506723024252,-3.337252124664203,0.0,400,0.03893637657165527,0.05318337360481059,0.05075477339988061,61200,-322.2559592705788,0.0
153,1.3883442878723145,-337.7422937981494,11.308243541964764,-322.6631190735186,-348.90466438274746,0.0,0.3922376906886901,0.1,0.002935647964477539,0.059258222579956055,0.05024173,0.26910535,-337.0363826481253,-3.483271559947929,-3.3467759615006316,0.0,400,0.03257036209106445,0.04820308832379837,0.04800858332190941,61600,-323.6053711360893,0.0
154,1.3963019847869873,-352.01959978714433,5.2010986882359616,-345.94077003101023,-359.83361546610894,0.0,0.40167085341438447,0.1,0.002951383590698242,0.0602114200592041,0.05000224,0.28499553,-338.53470436202724,-3.5846034964253626,-3.4882701295615623,0.0,400,0.03513693809509277,0.056654377093406885,0.042603221243676694,62000,-323.27777310325945,0.0
155,1.4102725982666016,-348.35498687699726,11.979632551784334,-332.0242364937144,-365.6741524010575,0.0,0.4065060676584071,0.1,0.00295257568359375,0.05876898765563965,0.049140796,0.26833382,-339.51673261352425,-3.549285438242673,-3.452782529949802,0.0,400,0.032773494720458984,0.051796774165512115,0.05035489178484641,62400,-321.78432610403166,0.0
156,1.357400894165039,-343.9121554676535,9.5267662304505,-332.0132750919579,-355.5553389792127,0.0,0.38481700063091046,0.1,0.0030159950256347656,0.05956697463989258,0.05019558,0.29876712,-339.9562748989372,-3.504261026809249,-3.4085244977539997,0.0,400,0.0319666862487793,0.03370210523885404,0.031023035497238928,62800,-321.0249118533093,0.0
157,1.323512315750122,-345.9998658830644,11.51506193431537,-329.59145845918454,-362.0982572571446,0.0,0.41120305411542324,0.1,0.002959728240966797,0.05834364891052246,0.049157497,0.26875567,-340.5606339973499,-3.59459748907942,-3.4282458044303925,0.0,400,0.03516960144042969,0.05459524013436483,0.040825511950329935,63200,-314.55695665858957,0.0
158,1.3378281593322754,-347.51158976239026,6.310429749240293,-340.8316743602913,-355.7648509109482,0.0,0.4038459247257349,0.1,0.0029840469360351562,0.059148311614990234,0.049304888,0.26051444,-341.25572957385396,-3.5406882367092605,-3.4441040274073615,0.0,400,0.03373599052429199,0.04594625672116026,0.043070327220136026,63600,-322.5826154146103,0.0
159,1.3206150531768799,-344.9609909932724,4.754013268221874,-337.6716345684086,-350.9424271653318,0.0,0.4248322001345076,0.1,0.002976655960083008,0.058246612548828125,0.05051734,0.2356081,-341.6262557157958,-3.5643955598160355,-3.4172838984243272,0.0,400,0.03437042236328125,0.030801530213687135,0.030329733999216468,64000,-324.02003006118554,0.0
160,1.3537909984588623,-352.2318490261295,6.5805343316688205,-344.7750638169696,-362.8378971767517,0.0,0.41830535219779885,0.1,0.0030448436737060547,0.05813169479370117,0.049507096,0.2935493,-342.6868150468292,-3.54779897938172,-3.491138262118808,0.0,400,0.03485298156738281,0.049626869817507725,0.04888864668257333,64400,-326.3247753135602,0.0
161,1.3587698936462402,-348.2724494244321,10.528246980319196,-331.89225121760757,-359.1778979571136,0.0,0.4153997988141939,0.1,0.0030612945556640625,0.06789541244506836,0.047184326,0.27446336,-343.24537848458954,-3.547570162044762,-3.4511539642025566,0.0,400,0.03802824020385742,0.033842990612660356,0.0326269761253522,64800,-325.889767078776,0.0
162,1.3470206260681152,-340.7688598294817,9.709726314888236,-325.633265668986,-351.0860979725277,0.0,0.35929302047652373,0.1,0.0028471946716308594,0.059606075286865234,0.050498515,0.30383378,-342.9977266190788,-3.4721678207859816,-3.3770378076519676,0.0,400,0.036603689193725586,0.04037249450077132,0.030573266344250068,65200,-318.72183040810665,0.0
163,1.3817529678344727,-348.2483747975715,11.256424541209046,-336.02052222618505,-365.30975763585235,0.0,0.39582915053945206,0.1,0.0030143260955810547,0.05871939659118652,0.05045496,0.27389178,-343.52279143692806,-3.5857599217234553,-3.4513562837429124,0.0,400,0.03829336166381836,0.06536744202946393,0.05093543105975449,65600,-318.1504884560274,0.0
164,1.3705124855041504,-343.9272609059939,7.458746728582814,-333.2508256578229,-353.28343193136857,0.0,0.3773470877575342,0.1,0.0029687881469726562,0.058122873306274414,0.05020634,0.3050959,-343.5632383838347,-3.523447495545014,-3.408641501688418,0.0,400,0.038604736328125,0.055438469760154443,0.05397088388862115,66000,-320.2763919794256,0.0
165,1.3831253051757812,-343.6236257617915,12.284286340974088,-329.38671841525974,-362.14873127107506,0.0,0.3758926708600581,0.1,0.0029506683349609375,0.05816531181335449,0.051187724,0.30833578,-343.5692771216304,-3.5313049755787076,-3.40561111519419,0.0,400,0.0385894775390625,0.04138413480304745,0.03903115827607783,66400,-321.40618538757695,0.0
166,1.3698973655700684,-344.3834282205629,16.796822531478867,-322.42790349483545,-365.2382949224823,0.0,0.34937660173859275,0.1,0.0029478073120117188,0.06104874610900879,0.05013262,0.3510064,-343.6506922315237,-3.498860849314474,-3.4139852340202745,0.0,400,0.04139399528503418,0.07106439045585829,0.06275003203461597,66800,-321.1100247324011,0.0
167,1.3968372344970703,-343.3868679861287,7.825107599213446,-335.96731637786297,-356.5514562667718,0.0,0.37427021830267954,0.1,0.0032196044921875,0.05869293212890625,0.05012875,0.28566462,-343.6243098069842,-3.4987974780367552,-3.404287211483811,0.0,400,0.03739643096923828,0.03366023700652131,0.03351287668900949,67200,-322.2275921078352,0.0
168,1.3247957229614258,-354.9595738892986,6.879282203142496,-349.8577704422384,-366.8055996193162,0.0,0.40567439820059814,0.1,0.003244161605834961,0.0627129077911377,0.050351534,0.29041272,-344.7578362152156,-3.545006418216534,-3.5188884115865458,0.0,400,0.03639650344848633,0.06257131112956496,0.0541763367352127,67600,-319.72662820215635,0.0
169,1.3284251689910889,-340.5585164599437,7.595673629797947,-328.5687265275125,-349.4689006122533,0.0,0.3853659066074945,0.1,0.0031578540802001953,0.06079864501953125,0.049109355,0.3233346,-344.33790423968844,-3.4706943079633232,-3.374506559844397,0.0,400,0.03878617286682129,0.04467686354911797,0.042374969143438156,68000,-318.90072889639396,0.0
170,1.3295207023620605,-339.7314144702309,10.384556414653622,-326.7943707139094,-351.7046535748074,0.0,0.38026037432368714,0.1,0.002995729446411133,0.06649088859558105,0.049583625,0.30937013,-343.87725526274266,-3.442897641045999,-3.3673597587346356,0.0,400,0.04064536094665527,0.044132919565242415,0.035086739818554966,68400,-317.71095269499034,0.0
171,1.3436379432678223,-343.9030417464127,6.418044204399802,-333.1086988934482,-349.9607766322221,0.0,0.36119458988489545,0.1,0.003960609436035156,0.06007528305053711,0.050200008,0.34530604,-343.8798339111097,-3.5050251087610382,-3.40905970736824,0.0,400,0.03811073303222656,0.05529922819132727,0.04451622321519241,68800,-324.98658786184393,0.0
172,1.3481264114379883,-346.33665933542153,4.259940458773573,-338.9845606107365,-349.1163419303469,0.0,0.3811636422405012,0.1,0.0031714439392089844,0.06197524070739746,0.049053125,0.28044084,-344.1255164535409,-3.5454364973852273,-3.4314160074260363,0.0,400,0.03804469108581543,0.04430745626471134,0.037613734863845935,69200,-321.60256416315934,0.0
173,1.3592517375946045,-347.5616259359016,3.8878589356551765,-340.97344638322136,-350.48115680844796,0.0,0.3842252054604267,0.1,0.0030596256256103516,0.06047964096069336,0.04797251,0.28363425,-344.469127401777,-3.558256575303148,-3.44492586888478,0.0,400,0.03803896903991699,0.03421689522280519,0.032329558186512584,69600,-322.81455254883696,0.0
174,1.3535692691802979,-341.6630139341871,4.011744865032419,-334.926655058153,-345.4041489769953,0.0,0.3743385472911521,0.1,0.00299835205078125,0.06018543243408203,0.04906128,0.32595965,-344.188516055018,-3.5101132030639226,-3.3868440895383527,0.0,400,0.04010772705078125,0.03634969177325342,0.036196878898719184,70000,-325.8614099155497,0.0
175,1.3681106567382812,-343.8331884208518,11.218907432931402,-336.3753483351379,-363.2301759625828,0.0,0.37493592176050294,0.1,0.0029916763305664062,0.06015300750732422,0.050693892,0.2777642,-344.1529832916014,-3.490358888445887,-3.4084775702183983,0.0,400,0.0381467342376709,0.041970732096664944,0.040595207736368044,70400,-322.14241494008377,0.0
176,1.3800864219665527,-335.93501208775626,9.04368736208511,-326.0941932216975,-348.1217322031268,0.0,0.3585402799967389,0.1,0.003188610076904297,0.06017041206359863,0.05057852,0.29974967,-343.3311861712169,-3.481477626471839,-3.327738278569054,0.0,400,0.03659677505493164,0.02262732676066835,0.021909745147755674,70800,-319.3887055690748,0.0
177,1.361191987991333,-347.66434412677336,10.115964076434375,-332.06304695658514,-358.9326951752917,0.0,0.36463053615228014,0.1,0.002953767776489258,0.06000971794128418,0.049182996,0.31307006,-343.76450196677257,-3.5495850324450773,-3.4452218546814306,0.0,400,0.039437055587768555,0.040804818471589704,0.03558622082250391,71200,-323.0859784616168,0.0
178,1.3618640899658203,-353.40558329512845,17.214476925553566,-327.85223456706717,-374.7153711886084,0.0,0.3949465151084043,0.1,0.002870798110961914,0.057969093322753906,0.04817506,0.28416577,-344.7286100996082,-3.527055566255055,-3.5034711050607736,0.0,400,0.037166595458984375,0.04160492933731319,0.04082145448110883,71600,-323.171837811014,0.0
179,1.349952220916748,-341.2214316871363,11.636702431256497,-329.1876460998703,-356.0978892713259,0.0,0.38041220668970477,0.1,0.0032041072845458984,0.06114363670349121,0.049415447,0.29089946,-344.37789225836104,-3.514936648083846,-3.3818515606673163,0.0,400,0.03807210922241211,0.04695712134805987,0.04542269709324381,72000,-324.1568474073205,0.0
180,1.3413550853729248,-337.8269162458384,14.55370032571656,-327.45282262559743,-362.7366635901574,0.0,0.398847903608912,0.1,0.003107786178588867,0.06093573570251465,0.04975607,0.27563304,-343.7227946571088,-3.47070379910302,-3.3480717651203213,0.0,400,0.03816699981689453,0.039190653572755016,0.033146556011698476,72400,-324.84159014169893,0.0
181,1.3437080383300781,-353.0337671231387,5.7390487741495795,-347.7860659115682,-362.32865002857045,0.0,0.3738038410325648,0.1,0.003045320510864258,0.061011314392089844,0.049867596,0.37209785,-344.65389190371184,-3.573840827929647,-3.4991196218437643,0.0,400,0.037995338439941406,0.03642566532852116,0.03373730065185125,72800,-324.2376062933159,0.0
182,1.3628613948822021,-346.42222252946266,14.95081974426889,-328.4974489363488,-367.4266064187275,0.0,0.395968160753779,0.1,0.0029861927032470703,0.060811519622802734,0.05006228,0.32433826,-344.83072496628694,-3.5079562891227773,-3.433679398157905,0.0,400,0.03850698471069336,0.03144325839132067,0.02891764416628809,73200,-327.99168302437005,0.0
183,1.3609249591827393,-341.10042442940136,9.039744173451021,-331.527115867081,-351.93474842891555,0.0,0.3996046214132253,0.1,0.003016233444213867,0.06803178787231445,0.048623614,0.24643399,-344.4576949125984,-3.553423122130294,-3.3800456943558785,0.0,400,0.039136409759521484,0.04804482535111867,0.040418790955013995,73600,-330.01459071290594,0.0
184,1.3649191856384277,-352.23980088493323,9.400264949263152,-337.0419737601161,-362.52910491155285,0.0,0.37592838520335975,0.1,0.003171682357788086,0.06123518943786621,0.051086154,0.2814058,-345.23590550983187,-3.583690866850413,-3.490715325898327,0.0,400,0.03904604911804199,0.03557720119693917,0.03462690258167453,74000,-329.75021821699613,0.0
185,1.3715364933013916,-346.3400450912384,3.393021147584509,-341.290990131817,-350.845887011959,0.0,0.39766673553536325,0.1,0.003033876419067383,0.06098341941833496,0.049808744,0.29276043,-345.34631946797253,-3.5664996127742983,-3.4331272507950987,0.0,400,0.04192972183227539,0.03950995212833303,0.037448502202800514,74400,-330.24284363686957,0.0
186,1.3865399360656738,-346.93890981747035,14.121088600440281,-327.7959956355874,-363.82318840382817,0.0,0.3912879911464134,0.1,0.0029985904693603516,0.06420683860778809,0.04987909,0.28233197,-345.50557850292233,-3.5322545567578727,-3.4386552798655012,0.0,400,0.03931879997253418,0.0469773907640296,0.04283614846931919,74800,-327.84502491702784,0.0
187,1.4014692306518555,-345.6823634325137,2.4953581463194614,-342.7717242906973,-349.63537293306877,0.0,0.3802675191561864,0.1,0.0029349327087402344,0.05940604209899902,0.050481237,0.29788375,-345.52325699588147,-3.5593914745737,-3.426292920715047,0.0,400,0.03825569152832031,0.042352345828236784,0.037224496604380694,75200,-330.18068006068285,0.0
188,1.3764660358428955,-344.88631430295595,7.767503420305222,-335.38870879755547,-354.0371995061356,0.0,0.37507597430074724,0.1,0.0029506683349609375,0.0586094856262207,0.050939426,0.29541972,-345.4595627265889,-3.48187586019379,-3.4183530898563372,0.0,400,0.03825807571411133,0.03549889140542807,0.032693276683946275,75600,-330.2589576208416,0.0
189,1.4095513820648193,-346.00350186898646,7.0686473260481115,-335.2583857295652,-352.63453194924494,0.0,0.39288240204715497,0.1,0.003020048141479492,0.06163668632507324,0.049807053,0.31022808,-345.51395664082867,-3.5216445636325338,-3.4292928899807347,0.0,400,0.03927302360534668,0.037100431410539,0.03609588769515667,76000,-331.46299659700486,0.0
190,1.4310054779052734,-341.7846648055096,8.732535471546298,-330.5890313185475,-353.240507092986,0.0,0.375024169109456,0.1,0.0030655860900878906,0.061697959899902344,0.049275428,0.31240574,-345.1410274572968,-3.490052442664671,-3.3879102899087505,0.0,400,0.03921842575073242,0.03880737718660001,0.03705850076574895,76400,-331.99604787346203,0.0
191,1.4328482151031494,-340.59562360145844,11.391626199203705,-327.8226028464835,-358.1224802314858,0.0,0.36304657514139005,0.1,0.002920389175415039,0.05865359306335449,0.049656544,0.31313884,-344.686487071713,-3.518557026968497,-3.375563660650842,0.0,400,0.03821754455566406,0.040673121077425003,0.039439087275407785,76800,-335.42402161216813,0.0
192,1.3524572849273682,-342.17868738168187,6.715904068010892,-336.35915161617055,-352.8794643117999,0.0,0.3987282247474645,0.1,0.003040313720703125,0.060544490814208984,0.051242426,0.27141526,-344.4357071027099,-3.5036907970224074,-3.391147807532869,0.0,400,0.039872169494628906,0.033525934037036416,0.030554134614561777,77200,-337.98048530108423,0.0
193,1.359626293182373,-345.0282881284258,18.914995381585335,-326.02962643027223,-376.35413347295315,0.0,0.3853705799589279,0.1,0.0031728744506835938,0.05986976623535156,0.04960854,0.2774017,-344.49496520528146,-3.523189160024918,-3.420328915917766,0.0,400,0.03944110870361328,0.0412948363806055,0.035532075792390067,77600,-337.25238399845006,0.0
194,1.3522987365722656,-337.72926187164825,5.64367142852909,-330.7310303775692,-346.4823796413631,0.0,0.38404944955014936,0.1,0.003011465072631836,0.06039714813232422,0.049046367,0.3518734,-343.81839487191814,-3.440242570818973,-3.3468394444715996,0.0,400,0.03721189498901367,0.06267745079202182,0.046002537982206784,78000,-336.201457413501,0.0
195,1.3830056190490723,-348.8983991193414,6.055227329211178,-340.4533446836923,-354.7459116084867,0.0,0.4039515503101511,0.1,0.002980947494506836,0.059830427169799805,0.050262168,0.25712997,-344.32639529666045,-3.579360060918983,-3.4575793352221926,0.0,400,0.03876018524169922,0.05292739168454607,0.035668506163289454,78400,-338.36372189581976,0.0
196,1.3610308170318604,-347.2177574730308,10.797736215629959,-330.4123595487683,-360.54565778054973,0.0,0.4142349150414177,0.1,0.002904653549194336,0.05909919738769531,0.049743485,0.24336508,-344.61553151429746,-3.5633356739613986,-3.4408692307726216,0.0,400,0.03757596015930176,0.04094147902624876,0.043534302436980477,78800,-336.81399497635545,0.0
197,1.3720452785491943,-358.32506024516636,5.240936734047572,-349.5936290860308,-363.4816843219348,0.0,0.38617115081481745,0.1,0.0028891563415527344,0.059354305267333984,0.050185427,0.31866992,-345.9864843873844,-3.623492255966571,-3.550972613476344,0.0,400,0.03908872604370117,0.0412085273840015,0.04023311932587016,79200,-337.169851839536,0.0
198,1.3575222492218018,-344.04229209717147,7.844081654596174,-335.4615813425065,-355.42339215073497,0.0,0.39272939242066407,0.1,0.0029926300048828125,0.060237884521484375,0.051006306,0.27311897,-345.7920651583631,-3.5592494827964947,-3.408799526090095,0.0,400,0.041558027267456055,0.036220506880127325,0.035658154346540565,79600,-338.28213952105386,0.0
199,1.3855466842651367,-349.96179820541045,10.797677516046265,-337.2713356310526,-364.25004058614974,0.0,0.3951901529276037,0.1,0.0030045509338378906,0.059867143630981445,0.04963166,0.28166658,-346.2090384630678,-3.5916579651017297,-3.4685598646324305,0.0,400,0.03944087028503418,0.0291007051687061,0.028165891129239146,80000,-337.7577227874381,0.0
200,1.3855133056640625,-357.70747370236387,11.013124927468944,-339.7824463180202,-367.35889959706833,0.0,0.4104748331731809,0.1,0.002955913543701172,0.060750484466552734,0.049678106,0.25395,-347.35888198699746,-3.599616491313734,-3.545451958632139,0.0,400,0.04182076454162598,0.03654695364876492,0.035949981143547416,80400,-338.91673498830426,0.0
201,1.3906285762786865,-359.48506347294153,6.976693871039062,-350.03640412766015,-369.7088518105396,0.0,0.41515522385358405,0.1,0.002991914749145508,0.06237220764160156,0.050663285,0.2470665,-348.57150013559186,-3.6069866188478574,-3.5630097822876987,0.0,400,0.04084420204162598,0.03316721119100683,0.03270871115780335,80800,-337.6022405739827,0.0
202,1.4004762172698975,-341.6586112749807,6.553667948565271,-330.8851004302339,-348.6206477410798,0.0,0.37501274184070127,0.1,0.0030546188354492188,0.06170845031738281,0.050112437,0.3060638,-347.88021124953076,-3.5361640375812105,-3.3848526127610876,0.0,400,0.03804922103881836,0.036437782961754074,0.033813771271485334,81200,-337.23699102393823,0.0
203,1.411778450012207,-356.5040145205818,9.175386949955277,-345.7272700954725,-370.28223452681635,0.0,0.4323170043381177,0.1,0.0029354095458984375,0.0661783218383789,0.0509383,0.26675403,-348.7425915766359,-3.626754744649868,-3.532842869569236,0.0,400,0.03872537612915039,0.035530313465457715,0.029375769600967775,81600,-337.2551157628137,0.0
204,1.3518309593200684,-358.65063313057965,4.125517314162851,-353.4997139628771,-365.0044100493233,0.0,0.3972438870476096,0.1,0.0031659603118896484,0.060309648513793945,0.05083485,0.28316596,-349.7333957320303,-3.6671390308517373,-3.5539337353987297,0.0,400,0.04243612289428711,0.036135302548385186,0.03582311979089247,82000,-337.40754674134274,0.0
205,1.3808948993682861,-348.6243887638331,13.312395389515515,-333.8478910509937,-369.76024959097606,0.0,0.3615428649652164,0.1,0.0029501914978027344,0.0621342658996582,0.05005354,0.31147492,-349.6224950352106,-3.556580204078836,-3.4547940699269173,0.0,400,0.03878378868103027,0.029015203472814766,0.02371349628121243,82400,-336.4279694136798,0.0
206,1.3524792194366455,-354.5378574365505,11.500540908377044,-341.26436538392403,-371.26735911379427,0.0,0.39202149818562226,0.1,0.002920866012573242,0.05928921699523926,0.049868993,0.27229556,-350.1140312753446,-3.6158829471852014,-3.512880555147817,0.0,400,0.03940176963806152,0.017609785695743674,0.017210205710592435,82800,-334.9053483913186,0.0
207,1.324110984802246,-346.58457303974444,9.305868603803528,-335.2856342473555,-359.2388070467036,0.0,0.38435359341788106,0.1,0.003015279769897461,0.060364484786987305,0.050005447,0.2886249,-349.7610854517846,-3.53885515524831,-3.435456733604073,0.0,400,0.03910374641418457,0.02880771117786284,0.028302512815253762,83200,-337.84311061458953,0.0
208,1.3318395614624023,-352.6945860292987,7.745762393882112,-343.6907908985729,-360.66425416169045,0.0,0.4454236264031615,0.1,0.0030248165130615234,0.05869626998901367,0.04936267,0.26530835,-350.054435509536,-3.5996307462319876,-3.494648138077328,0.0,400,0.03900027275085449,0.031999265132246206,0.028031017518129045,83600,-339.123250816911,0.0
209,1.3313970565795898,-352.80134868291316,7.701813310525878,-340.0645729163363,-360.3593445233281,0.0,0.40784832131368676,0.1,0.0030591487884521484,0.06038260459899902,0.05027991,0.2617334,-350.32912682687373,-3.6196206762303236,-3.4957438165902057,0.0,400,0.04396176338195801,0.02483900829404599,0.0243342565354911,84000,-341.8870600058799,0.0
210,1.3721997737884521,-349.84878976654306,17.91263634999893,-328.40538672383025,-371.5145589357323,0.0,0.41330142537843806,0.1,0.0030260086059570312,0.060539960861206055,0.04942892,0.2790934,-350.2810931208407,-3.5015010822668753,-3.467813888235087,0.0,400,0.04054999351501465,0.06737080000894746,0.04490095802737257,84400,-347.3266662645637,0.0
211,1.4765477180480957,-358.80291086731114,7.942601711805537,-350.4692153058757,-371.5591526224893,0.0,0.3656426449630532,0.1,0.0033402442932128906,0.06377744674682617,0.04936186,0.33543286,-351.1332748954878,-3.62957169607318,-3.555643182778842,0.0,400,0.03941607475280762,0.0636666253544244,0.024800606738230344,84800,-347.7392153041538,0.0
212,1.3772032260894775,-353.8815720122318,5.158374269422193,-348.1247135011752,-362.1636331071169,0.0,0.4357893668413479,0.1,0.0030629634857177734,0.0603485107421875,0.05024054,0.25689933,-351.40810460716216,-3.6407375590422557,-3.5060540291518953,0.0,400,0.040125131607055664,0.02915185416464926,0.033731717928493755,85200,-355.8084068130698,0.0
213,1.3719782829284668,-353.49853817462554,10.142971922309101,-336.7993478353997,-363.20959085051874,0.0,0.37551585346809424,0.1,0.0030508041381835938,0.06102609634399414,0.05065272,0.2837043,-351.6171479639085,-3.6260282131697137,-3.5027627676405206,0.0,400,0.04189276695251465,0.03245495533106173,0.02309503911520863,85600,-350.77233944959033,0.0
214,1.402221918106079,-354.4704864346692,6.177290098467415,-344.9211917453153,-361.74188260992315,0.0,0.3889473236946575,0.1,0.0029914379119873047,0.06113457679748535,0.049840923,0.28797385,-351.90248181098457,-3.614812234644896,-3.512517050543839,0.0,400,0.03955364227294922,0.024676571129637722,0.02381454480130401,86000,-349.7269283250643,0.0
215,1.4156272411346436,-353.64419214889307,4.351580128975357,-350.0923125349636,-361.0939823551321,0.0,0.4077013929785433,0.1,0.002834320068359375,0.060373544692993164,0.049598742,0.26700753,-352.0766528447754,-3.6378491087676994,-3.504179293750618,0.0,400,0.03940010070800781,0.02357817759372124,0.02328193636227479,86400,-348.1354234932341,0.0
216,1.3415169715881348,-347.03858550265187,14.033575497180516,-333.1365871215936,-363.9721321989143,0.0,0.4075462107239129,0.1,0.0030176639556884766,0.0671076774597168,0.049659632,0.26607463,-351.5728461105631,-3.5523050242395957,-3.4405152962865873,0.0,400,0.04380011558532715,0.03160450165465901,0.029259450916648565,86800,-350.6013752324248,0.0
217,1.360755205154419,-351.96941988227854,4.357263971853601,-348.9016760581246,-359.47333574541955,0.0,0.4293118271717797,0.1,0.003252267837524414,0.06082439422607422,0.050079595,0.22877121,-351.61250348773467,-3.6113466474470086,-3.4875224557071958,0.0,400,0.03984880447387695,0.027075668691883183,0.025542913076781523,87200,-349.7506157552203,0.0
218,1.3859374523162842,-349.01490549338143,12.567339959993387,-330.78384395377657,-365.4771897096367,0.0,0.39743736761986403,0.1,0.002923250198364258,0.05919241905212402,0.050397072,0.28025424,-351.3527436882993,-3.5797165880628588,-3.458438286725263,0.0,400,0.039980173110961914,0.02764043591176519,0.02695173018918138,87600,-348.9131435819859,0.0
219,1.3721685409545898,-353.64846218414846,9.784060841080644,-343.2438550705743,-368.8311452860684,0.0,0.36210955902318304,0.1,0.002918243408203125,0.058858633041381836,0.049987048,0.3033749,-351.58231553788426,-3.575183215969174,-3.5045889314282443,0.0,400,0.03929901123046875,0.02358866372527208,0.0234613422890858,88000,-354.22041101228666,0.0
220,1.38620924949646,-346.40295023231835,4.66588554634394,-340.55291363167953,-353.54437492773314,0.0,0.38450147249022826,0.1,0.0028688907623291016,0.05959749221801758,0.050860118,0.28930226,-351.06437900732766,-3.5619849052238823,-3.4310094404229567,0.0,400,0.03952479362487793,0.02540836609275653,0.022672124743628213,88400,-347.98742009865833,0.0
221,1.3853297233581543,-339.77292158669144,21.33300836765909,-316.44088432978634,-373.49182956929485,0.0,0.37494233079428074,0.1,0.002938508987426758,0.05952048301696777,0.04797173,0.28346878,-349.93523326526406,-3.488131133413509,-3.367517076536809,0.0,400,0.03966784477233887,0.02980494780105304,0.02523485981017869,88800,-346.0873168339526,0.0
222,1.3710169792175293,-348.398606754465,6.0286505300516255,-339.0148720172622,-355.46455248710447,0.0,0.3962641626195636,0.1,0.002890348434448242,0.05855202674865723,0.049266443,0.28888878,-349.7815706141842,-3.533948757986947,-3.453309337449627,0.0,400,0.03925061225891113,0.05091444838977981,0.045906473282136734,89200,-345.7144431159308,0.0
223,1.3827364444732666,-341.3408725689736,14.0321953151006,-323.7334500982376,-358.6724746800693,0.0,0.42296207696322863,0.1,0.0028982162475585938,0.05771207809448242,0.04950972,0.2555344,-348.93750080966316,-3.50221192519382,-3.381946543938194,0.0,400,0.03955245018005371,0.027081434627652643,0.026015019107761817,89600,-347.03040760710843,0.0
224,1.4228787422180176,-349.7692098464074,15.47986496523692,-333.3067818032113,-375.2070255479909,0.0,0.383900438733881,0.1,0.002852916717529297,0.057866573333740234,0.050153326,0.32608607,-349.0206717133376,-3.565096092652907,-3.465865932720761,0.0,400,0.037574052810668945,0.019626690352647757,0.016865262983142455,90000,-352.1547699983449,0.0
225,1.3879351615905762,-345.9112037539774,5.5794284554199995,-336.64329989450823,-351.0987675627913,0.0,0.3936911248109419,0.1,0.002825021743774414,0.05890655517578125,0.050158285,0.28494042,-348.7097249174016,-3.548901364563684,-3.428183398770014,0.0,400,0.03955864906311035,0.04820723067402288,0.038239329257767324,90400,-338.60184917973544,0.0
226,1.3881025314331055,-345.69577207722733,9.174659407865466,-335.5683269832672,-359.2823387593039,0.0,0.3701061596632419,0.1,0.0028884410858154297,0.058982133865356445,0.050281946,0.29875565,-348.4083296333842,-3.5363006320034565,-3.4256216313918313,0.0,400,0.03710341453552246,0.032046916342584594,0.03012995390387215,90800,-342.31231236545267,0.0
227,1.3997423648834229,-356.30558061369754,5.51561119715398,-350.90374884832966,-365.5255762218977,0.0,0.4263005874233183,0.1,0.002833127975463867,0.06293582916259766,0.049625035,0.2709295,-349.19805473141554,-3.6217102114249657,-3.5310683440397987,0.0,400,0.03842473030090332,0.03113126543791464,0.028121031549904717,91200,-342.1044835333534,0.0
228,1.3899953365325928,-336.5152682816575,5.271702907804499,-330.198101215116,-344.26767236244973,0.0,0.41273695892904844,0.1,0.0029244422912597656,0.0613408088684082,0.04982768,0.27835855,-347.92977608643974,-3.515998448810953,-3.334306672239854,0.0,400,0.039705514907836914,0.04499737660482593,0.022017168268202308,91600,-343.05846072156197,0.0
229,1.375873327255249,-341.19252580945647,10.871811005142025,-326.20507911529353,-356.92781651796116,0.0,0.40852007475651647,0.1,0.0030701160430908203,0.0609288215637207,0.0501696,0.2520727,-347.25605105874143,-3.5026851292514105,-3.381298838445933,0.0,400,0.04296135902404785,0.019736982202079135,0.01840359496720004,92000,-343.64266498621595,0.0
230,1.356985330581665,-339.84046608109566,10.377306503738206,-326.8930539776655,-355.1685816300936,0.0,0.3976616191627401,0.1,0.0030014514923095703,0.060938358306884766,0.050712034,0.2671253,-346.51449256097686,-3.43760069618047,-3.3687968394891628,0.0,400,0.043745994567871094,0.031115093774106827,0.020799621765953236,92400,-340.91178143276915,0.0
231,1.3333854675292969,-354.7926821614916,9.138584858012251,-341.14520075129815,-365.68695637916846,0.0,0.38869913355680524,0.1,0.0028710365295410156,0.05797600746154785,0.05009706,0.34285694,-347.3423115210283,-3.5873734841718283,-3.514612396652841,0.0,400,0.039968013763427734,0.02193336290800183,0.012469060603352225,92800,-344.53971370120763,0.0
232,1.4123680591583252,-347.112991204338,15.82338971801873,-333.19607655843254,-372.78618367817063,0.0,0.39656911879277246,0.1,0.003058195114135742,0.06012678146362305,0.04951112,0.27478972,-347.3193794893593,-3.5306673768772336,-3.4403459280310345,0.0,400,0.04012322425842285,0.0515786582119511,0.049466537124614796,93200,-343.9020666444489,0.0
233,1.3378126621246338,-348.8794554007207,7.2793482805467,-339.8989283776712,-358.1661002786995,0.0,0.41955844537268483,0.1,0.002849578857421875,0.05949521064758301,0.049332518,0.27739644,-347.4753870804954,-3.578278756720903,-3.4567242524274464,0.0,400,0.04048490524291992,0.022093680579350673,0.022200645973258614,93600,-346.8460822895517,0.0
234,1.3431675434112549,-352.10120639293797,12.109519230648493,-333.56578628907994,-367.15477068053184,0.0,0.38280059541372585,0.1,0.0033059120178222656,0.05858778953552246,0.050496902,0.30000705,-347.93796901173965,-3.580001696063828,-3.4887493153405376,0.0,400,0.0392453670501709,0.03112586709608873,0.02979786424793447,94000,-346.41067368794126,0.0
235,1.358154296875,-343.76042892233653,14.56139504905238,-330.125716753658,-367.6856568751812,0.0,0.40761742157241976,0.1,0.002945423126220703,0.05914592742919922,0.048823934,0.25434572,-347.5202150027994,-3.5566860592809757,-3.406728763118508,0.0,400,0.03998160362243652,0.03218596700930387,0.029582296340294054,94400,-344.29057279037585,0.0
236,1.3699944019317627,-331.9276041057941,8.846603361589308,-322.9260673171953,-345.13500262606874,0.0,0.3659158808532456,0.1,0.0030059814453125,0.05823397636413574,0.05061142,0.38237697,-345.9609539130989,-3.4281520574459328,-3.2892352254163186,0.0,400,0.03991198539733887,0.034677174427920794,0.02399018792412425,94800,-341.1981026144864,0.0
237,1.3947992324829102,-345.2240530093075,4.497945398133092,-339.09607748273294,-351.5769367036328,0.0,0.3916355745127356,0.1,0.002904653549194336,0.06401324272155762,0.05038064,0.28728852,-345.8872638227198,-3.5510416622955896,-3.420997039064668,0.0,400,0.04062604904174805,0.026472424886799805,0.021967624396106566,95200,-347.68366001923715,0.0
238,1.388916015625,-338.93134694113326,8.007120746295504,-327.95293793562223,-350.4671953116059,0.0,0.4075031673510473,0.1,0.003083944320678711,0.058728694915771484,0.05128373,0.30220145,-345.19167213456114,-3.48954076192968,-3.3591202713108936,0.0,400,0.0407557487487793,0.0250812340622297,0.02558628201926914,95600,-342.04503676681867,0.0
239,1.3880014419555664,-343.2556795536322,5.031730675513223,-334.63042259856286,-347.2064127959554,0.0,0.3895807129426537,0.1,0.003056764602661133,0.0614924430847168,0.05009609,0.28806683,-344.99807287646826,-3.4922138489678316,-3.402468783973423,0.0,400,0.040521860122680664,0.021389836034612666,0.020691262895724885,96000,-345.19950058804625,0.0
240,1.3867454528808594,-343.26572586247556,10.05828397841272,-331.96660175675066,-355.2676834381071,0.0,0.41001226960062837,0.1,0.0029761791229248047,0.06530523300170898,0.049356166,0.27335167,-344.824838175069,-3.5119533781324264,-3.401366421338917,0.0,400,0.04107809066772461,0.016995469600099487,0.016114662388865032,96400,-346.96889369779745,0.0
241,1.4479589462280273,-335.99568099659257,10.514135683602396,-323.7586055758446,-349.16749507734363,0.0,0.39037357365189645,0.1,0.0030732154846191406,0.06207633018493652,0.048862137,0.31370717,-343.9419224572214,-3.4682586062920424,-3.3279430971036588,0.0,400,0.040718793869018555,0.023849445319979373,0.0194219177231984,96800,-350.8452185634413,0.0
242,1.3807332515716553,-346.58108575123254,18.005681390762913,-328.4822818260542,-375.64792876790375,0.0,0.3605148305311624,0.1,0.003003835678100586,0.06121206283569336,0.05106139,0.306305,-344.2058387866225,-3.5528804527754683,-3.4328606076913415,0.0,400,0.04557943344116211,0.026221437400973616,0.017732749908766797,97200,-343.615899677846,0.0
243,1.3539636135101318,-342.5833094466456,5.9823579389456,-332.26389424657054,-346.6795495140201,0.0,0.4034153856453687,0.1,0.0030393600463867188,0.06442070007324219,0.049830902,0.25229847,-344.04358585262486,-3.536633464860783,-3.3949409157871084,0.0,400,0.04079079627990723,0.022186833106686364,0.020050100756450882,97600,-338.68984553507454,0.0
244,1.3811414241790771,-352.1718246070433,14.514862076680618,-332.3772719738706,-373.3404222650903,0.0,0.3789701221723282,0.1,0.0029234886169433594,0.058657169342041016,0.05096143,0.28828648,-344.85640972806675,-3.570365922545624,-3.490138339538202,0.0,400,0.03999018669128418,0.02304426890405864,0.017700664809457527,98000,-338.3307984662542,0.0
245,1.3756814002990723,-350.8227345055361,20.062616044978885,-333.28263540972915,-383.30639270037784,0.0,0.40164756335480933,0.1,0.0029251575469970703,0.06601381301879883,0.04966697,0.30224374,-345.4530422058137,-3.57774233527778,-3.476668844357574,0.0,400,0.04174971580505371,0.014599182436848209,0.011875590372077206,98400,-340.42745382673144,0.0
246,1.3604495525360107,-344.256558104747,8.935383861383654,-335.28982218206005,-359.1180373595003,0.0,0.4165144921118437,0.1,0.002998828887939453,0.059216976165771484,0.050856862,0.2829231,-345.333393795707,-3.5433547066657773,-3.411252719726185,0.0,400,0.03868436813354492,0.023906094718067657,0.01861030757820905,98800,-343.5366422244072,0.0
247,1.409367322921753,-343.318489286817,10.456361432324181,-328.131718386876,-353.9918078307819,0.0,0.37230230384177254,0.1,0.0029408931732177734,0.05972170829772949,0.04935122,0.31191164,-345.13190334481806,-3.514565542340607,-3.402454974897967,0.0,400,0.04223155975341797,0.03942826272286772,0.028635252932523923,99200,-346.3240015427869,0.0
248,1.3866136074066162,-344.31510979638733,7.89065683092498,-335.5391508957255,-357.012196619509,0.0,0.35001566056956335,0.1,0.0034668445587158203,0.06053781509399414,0.049661897,0.3056677,-345.050223989975,-3.5335859456527343,-3.4119281091658733,0.0,400,0.03999137878417969,0.013257751147166623,0.012505223061191388,99600,-343.29078596561175,0.0
249,1.4162075519561768,-338.438891930712,14.791914565946197,-316.7248518883712,-357.65770955133144,0.0,0.36440084156533353,0.1,0.0031096935272216797,0.060216426849365234,0.050140586,0.30390918,-344.38909078404873,-3.534892449888978,-3.353149129396,0.0,400,0.04115557670593262,0.023741254086444258,0.02136477495992392,100000,-336.4547747842016,0.0
250,1.3861534595489502,-342.73960302580554,9.897065279357784,-330.92006779687716,-357.83535638257325,0.0,0.36583885370327085,0.1,0.0031158924102783203,0.061594486236572266,0.049250267,0.30467212,-344.2241420082244,-3.5470735105474844,-3.3954952577850115,0.0,400,0.03980231285095215,0.03199871468247302,0.022185066017168086,100400,-334.1428138850815,0.0
251,1.404202938079834,-340.0249628478358,4.860866328720423,-334.7168996338287,-347.170956043097,0.0,0.3642370600849372,0.1,0.0032804012298583984,0.06059098243713379,0.050181963,0.29944745,-343.80422409218556,-3.541026056445717,-3.3687499162088725,0.0,400,0.04696393013000488,0.01317409938285232,0.012540197899692596,100800,-338.14391505183767,0.0
252,1.4233968257904053,-340.1317302387594,7.97446307089443,-326.7508922909671,-346.3863864160689,0.0,0.3700386872527127,0.1,0.0030188560485839844,0.06083965301513672,0.049785923,0.2872648,-343.43697470684293,-3.5020736783282964,-3.370544620055072,0.0,400,0.045897722244262695,0.01523121939782377,0.014292947231135153,101200,-334.46578454166394,0.0
253,1.4035518169403076,-351.56953628725665,4.83297545323929,-344.5823078011925,-358.1861392656067,0.0,0.39106413142183505,0.1,0.0030777454376220703,0.06098771095275879,0.05000118,0.29724494,-344.2502308648843,-3.605296506331144,-3.483492643085259,0.0,400,0.04216122627258301,0.017385451970637754,0.009925735947560445,101600,-346.01683249220235,0.0
254,1.3862950801849365,-356.2711527206313,5.1711245726980435,-350.59095990293673,-364.40576711346847,0.0,0.40022050003265036,0.1,0.003265857696533203,0.06199955940246582,0.049708053,0.27317595,-345.45232305045903,-3.6032349306914857,-3.530636676125721,0.0,400,0.04152488708496094,0.017581333936529144,0.017075488260633778,102000,-350.4231129534658,0.0
255,1.4101767539978027,-342.81447475378656,11.662828750381168,-324.3625625757197,-354.32200143160657,0.0,0.382071133751749,0.1,0.002973794937133789,0.06114387512207031,0.04917057,0.29438668,-345.18853822079177,-3.508665776996527,-3.3976096296932816,0.0,400,0.03986525535583496,0.01799021449435673,0.01652787402622056,102400,-353.4833502635575,0.0
256,1.4294028282165527,-341.389676192381,12.091537366331766,-325.04855551814387,-358.3768618887217,0.0,0.3835527812330237,0.1,0.003082752227783203,0.06168484687805176,0.049598966,0.32478827,-344.8086520179507,-3.544110804851727,-3.3825462110086675,0.0,400,0.041419267654418945,0.0249953702785595,0.01889220460610077,102800,-350.46866917787753,0.0
257,1.3854913711547852,-351.3829403997675,14.257742589853066,-332.00008545424106,-370.8273445866706,0.0,0.3830559745090365,0.1,0.0031554698944091797,0.06164813041687012,0.04920188,0.27360433,-345.4660808561324,-3.613466044610554,-3.481981610382398,0.0,400,0.04193377494812012,0.01748777800222365,0.016430653338512062,103200,-352.0238282394634,0.0
258,1.37168550491333,-364.46597226230983,5.729301461096535,-357.6357505039924,-370.66680989245054,0.0,0.3802505262583084,0.1,0.003058195114135742,0.06103110313415527,0.04965507,0.33367494,-347.3660699967502,-3.701824341867303,-3.6106286426976,0.0,400,0.04130911827087402,0.01130849121397038,0.010843189411081271,103600,-345.8470114734558,0.0
259,1.3716976642608643,-351.410436674011,6.4673408430188335,-340.8389796345143,-357.4459425634289,0.0,0.37807750703061016,0.1,0.0029726028442382812,0.060927629470825195,0.04971988,0.33089566,-347.7705066644763,-3.653452662179423,-3.4803531587465506,0.0,400,0.041712045669555664,0.012089419514192006,0.011094260668145452,104000,-347.4910875856063,0.0
260,1.400625228881836,-356.139613184545,9.252067729042295,-343.5219379437116,-369.5012414814225,0.0,0.3766520781582456,0.1,0.0029726028442382812,0.06599569320678711,0.050172936,0.2828478,-348.6074173164832,-3.590422650490783,-3.528878131168922,0.0,400,0.04169440269470215,0.017688016814647673,0.012879272615211657,104400,-342.8189426959088,0.0
261,1.4109001159667969,-341.77766357210396,11.444887184052712,-326.73159695825507,-358.7012300905237,0.0,0.3671778940280115,0.1,0.0029497146606445312,0.06336045265197754,0.050035685,0.30797294,-347.92444194204523,-3.5678295876552473,-3.3854451481474346,0.0,400,0.0448613166809082,0.016108220313514866,0.01277507884727863,104800,-338.49058959210885,0.0
262,1.3901257514953613,-348.97012474640223,10.434948471736476,-340.3409204836844,-366.0133412366412,0.0,0.35462032513077,0.1,0.002945423126220703,0.06023764610290527,0.049833957,0.3089058,-348.02901022248096,-3.587983708872228,-3.4567033330517787,0.0,400,0.04095864295959473,0.016059669079270134,0.015965193300122672,105200,-338.55048495318357,0.0
263,1.4165475368499756,-350.86339051230266,7.4381297308115615,-344.248191985302,-363.38891895981124,0.0,0.37793635100225853,0.1,0.0029549598693847656,0.06002068519592285,0.049300388,0.311993,-348.31244825146314,-3.608170673401112,-3.4753661118880994,0.0,400,0.04143834114074707,0.01832514982390809,0.017764757160624183,105600,-338.33597756341516,0.0
264,1.3550620079040527,-347.1046452151978,8.528053216839787,-335.1927647105906,-356.9535676158182,0.0,0.3920892411200634,0.1,0.003033876419067383,0.060413360595703125,0.048976783,0.29910493,-348.1916679478366,-3.5806868227982425,-3.439366695602818,0.0,400,0.04217243194580078,0.011947608866560095,0.011525240447708225,106000,-335.1202138124569,0.0
265,1.3487939834594727,-349.77729128391,7.494728248453584,-341.3896257374023,-359.48230189321254,0.0,0.4184560793973009,0.1,0.002941608428955078,0.0592808723449707,0.0493577,0.26858827,-348.35023028144394,-3.617471681442569,-3.465837669894879,0.0,400,0.04398751258850098,0.012417915396258406,0.011044322044672322,106400,-339.0186626385385,0.0
266,1.3341548442840576,-342.55311778523287,10.124581220901545,-325.25625296488,-351.04138514154215,0.0,0.36737609837368007,0.1,0.0029497146606445312,0.06061220169067383,0.04822445,0.31031674,-347.7705190318228,-3.5359409421674934,-3.393439733485212,0.0,400,0.04230189323425293,0.015160816765612387,0.01511444316891918,106800,-339.0058426349004,0.0
267,1.370011329650879,-337.79333365905967,15.858375553267162,-317.571953486071,-361.7773220865374,0.0,0.36752946017056365,0.1,0.0030062198638916016,0.063751220703125,0.04890657,0.2705355,-346.7728004945465,-3.5554722498803786,-3.345847405654922,0.0,400,0.041178226470947266,0.020781539607305267,0.018446560981837785,107200,-339.65709358457764,0.0
268,1.3407535552978516,-342.4818081124659,7.572311369489525,-333.16265424963615,-354.0606100505205,0.0,0.3968452550114441,0.1,0.0028989315032958984,0.05850958824157715,0.052690357,0.2680048,-346.3437012563385,-3.573747833849146,-3.3929010015073597,0.0,400,0.03946328163146973,0.015712267857099078,0.014954834096655961,107600,-338.6727337235219,0.0
269,1.336906909942627,-353.0883933420677,13.160816459543884,-330.5275934439601,-362.87852854051306,0.0,0.39970116757888957,0.1,0.002894163131713867,0.05898451805114746,0.049982756,0.28633782,-347.0181704649114,-3.638357679284464,-3.4976975793245546,0.0,400,0.041057586669921875,0.020927269133200775,0.020251093019787218,108000,-335.7106083652469,0.0
270,1.3570823669433594,-359.9091427951388,12.347289879577211,-341.5790988003263,-376.1097898116442,0.0,0.38055292043362143,0.1,0.0030341148376464844,0.06033754348754883,0.049315006,0.2727245,-348.30726769793415,-3.699290291871231,-3.565528102502949,0.0,400,0.047003746032714844,0.010537561443178084,0.009409706315069754,108400,-339.4252886281952,0.0
271,1.3519318103790283,-361.38459957646313,11.474410247394857,-347.13626450462107,-375.4461203862951,0.0,0.3867794293022838,0.1,0.003056764602661133,0.06226348876953125,0.0506838,0.27608714,-349.6150008857871,-3.6830433736307846,-3.5813335609619763,0.0,400,0.04106497764587402,0.017862652915019903,0.017380051183749468,108800,-336.2885315779654,0.0
272,1.37516450881958,-347.6828307662868,9.60205280415779,-337.3007178802468,-360.1218428340766,0.0,0.38751132299867463,0.1,0.003044605255126953,0.05867958068847656,0.049417,0.2811402,-349.42178387383706,-3.5954321194531813,-3.4439649798100085,0.0,400,0.04182863235473633,0.02168695241116076,0.016907255782836483,109200,-335.5802905521054,0.0
273,1.3576159477233887,-347.57945428180454,4.356904624028871,-341.65687734716136,-352.7975244180176,0.0,0.3779088111000643,0.1,0.003075122833251953,0.060945987701416016,0.050531894,0.30159828,-349.2375509146338,-3.6032131863571797,-3.442029176511757,0.0,400,0.03973722457885742,0.013475414546981002,0.012596370648521187,109600,-341.40318302049246,0.0
274,1.3473248481750488,-352.2960621285027,11.972747299293045,-336.9980119646676,-366.8650661062539,0.0,0.3760466507803551,0.1,0.0029349327087402344,0.0671384334564209,0.050429355,0.27905214,-349.5434020360207,-3.5931110247326234,-3.4908187231876497,0.0,400,0.04115462303161621,0.014891135452189359,0.013751665551972431,110000,-346.0904114531613,0.0
275,1.368018627166748,-358.48617575225444,7.096105538759464,-349.369595869,-367.8352717762795,0.0,0.37696901296572644,0.1,0.0030095577239990234,0.0615541934967041,0.048177604,0.32443324,-350.4376794076441,-3.683715353096133,-3.5509962607221732,0.0,400,0.043302297592163086,0.011661826746000997,0.011216712869560391,110400,-346.7882365370006,0.0
276,1.3416557312011719,-354.3709968129501,10.19622531732458,-346.6304856147928,-371.83778247512856,0.0,0.3800845188796649,0.1,0.0029234886169433594,0.06092071533203125,0.05005969,0.33704594,-350.83101114817475,-3.61237984383706,-3.511040385820446,0.0,400,0.04353213310241699,0.01627206439768872,0.014211249250357879,110800,-349.7171666711758,0.0
277,1.3570213317871094,-363.12631658921873,17.693610579066227,-342.39376542513867,-389.31797874695224,0.0,0.4396305889369759,0.1,0.003028392791748047,0.060796260833740234,0.049194265,0.2393294,-352.0605416922792,-3.66178809290375,-3.5990490292584996,0.0,400,0.04166769981384277,0.020115329119212256,0.017620515619699226,111200,-349.86163776147276,0.0
278,1.3508591651916504,-345.4190097533833,9.04026079995149,-333.1567278737043,-358.6549816346181,0.0,0.37537016905361487,0.1,0.07432675361633301,0.058809757232666016,0.04998069,0.27470374,-351.39638849838957,-3.5830527431428374,-3.421776094186798,0.0,400,0.044449567794799805,0.018938483722686673,0.01686431556120593,111600,-353.35971433539595,0.0
279,1.37795090675354,-341.0037733518969,3.803055231401491,-335.1233621674896,-345.7055754462787,0.0,0.3925192710031085,0.1,0.0028908252716064453,0.06409978866577148,0.049610015,0.27675742,-350.35712698374033,-3.598382048480706,-3.3774948650692638,0.0,400,0.03931713104248047,0.018956340707334398,0.01653513023611723,112000,-354.85979820376696,0.0
280,1.4058609008789062,-350.5781633691743,5.940057943361781,-341.7358004117878,-358.31585542726833,0.0,0.40007444552150495,0.1,0.002886056900024414,0.0598142147064209,0.05064177,0.25372496,-350.3792306222837,-3.603995220192648,-3.4726287431337566,0.0,400,0.040543556213378906,0.013183459641226015,0.010975771286727774,112400,-350.05278877167706,0.0
281,1.3617315292358398,-360.11356464837803,10.22243945056384,-343.5459021910801,-370.00166890295117,0.0,0.39052306420282845,0.1,0.0029163360595703125,0.05910158157348633,0.050162718,0.29037187,-351.3526640248932,-3.6991346775163008,-3.5673976264312377,0.0,400,0.04312252998352051,0.021689298857763023,0.017727849563528394,112800,-346.72185152496917,0.0
282,1.3827881813049316,-353.77239539676236,5.501559758680547,-344.35863555659154,-358.18924045125624,0.0,0.3825857576112416,0.1,0.002969503402709961,0.05942988395690918,0.04917605,0.3130285,-351.5946371620801,-3.645004035260427,-3.5047292110063926,0.0,400,0.04813647270202637,0.017790089322693787,0.015235650486454526,113200,-343.91709856749054,0.0
283,1.3831169605255127,-347.17527590837517,10.088284539574609,-330.19439445053615,-356.5520595561896,0.0,0.4000345084018657,0.1,0.0029442310333251953,0.05959463119506836,0.050101694,0.26897985,-351.15270103670963,-3.630534146701966,-3.438685302111395,0.0,400,0.041327476501464844,0.014916816278644883,0.014741484253848552,113600,-343.7255485694936,0.0
284,1.376047134399414,-354.5033828084028,10.278774207837989,-345.3830167337914,-370.9587776372116,0.0,0.4003522944004051,0.1,0.002929210662841797,0.06024003028869629,0.050245438,0.25520754,-351.48776921387895,-3.653354456026847,-3.5117776531160634,0.0,400,0.04117608070373535,0.02124546867680407,0.020384423230173775,114000,-344.9595536365178,0.0
285,1.3718059062957764,-339.9606168719761,3.799635845284681,-336.73423190708706,-346.1737288804862,0.0,0.3958265999044213,0.1,0.002843618392944336,0.05903124809265137,0.048254214,0.27900684,-350.33505397968867,-3.528628041951144,-3.367252604088586,0.0,400,0.04056358337402344,0.024978454146353066,0.01912049995286431,114400,-349.14395882372713,0.0
286,1.3623435497283936,-349.9718286244328,5.157843418994501,-342.1795485451432,-356.66635515177245,0.0,0.3503985215158163,0.1,0.0028553009033203125,0.05910897254943848,0.04984288,0.32627764,-350.2987314441631,-3.6278122043374013,-3.466877718533638,0.0,400,0.04547715187072754,0.025927308147214428,0.01915029931304835,114800,-341.0683503761816,0.0
287,1.3933348655700684,-344.6662802890406,5.035235673463847,-337.72868411238954,-351.28772522965073,0.0,0.3752773771957172,0.1,0.002962350845336914,0.060811519622802734,0.049279694,0.31279588,-349.73548632865084,-3.625430189857594,-3.413228096005697,0.0,400,0.043146371841430664,0.017034688975775415,0.014132921847799691,115200,-344.6342417157303,0.0
288,1.3906002044677734,-342.55167222151016,12.595974211242911,-330.24396447946475,-362.6088417530056,0.0,0.3737617261319976,0.1,0.0029311180114746094,0.06049609184265137,0.049203876,0.3389827,-349.01710491793676,-3.5252906967790847,-3.3943861999408105,0.0,400,0.04185819625854492,0.01861375984192263,0.015115924356540316,115600,-346.53252571356273,0.0
289,1.3843629360198975,-343.9784680948537,3.6226024902643714,-340.8484510020448,-350.0651570184659,0.0,0.3669699210947947,0.1,0.002942323684692383,0.06450152397155762,0.049587965,0.33330798,-348.51324123562847,-3.5686237004394092,-3.4064912989295095,0.0,400,0.03973269462585449,0.051296984254949114,0.04732028597392303,116000,-349.87104017784276,0.0
290,1.4223742485046387,-351.3049484366516,11.90560779981178,-332.1037192121191,-364.3782044661163,0.0,0.3717620529223366,0.1,0.002960205078125,0.06040000915527344,0.049205706,0.30695945,-348.7924119557308,-3.613740036915056,-3.480918631280439,0.0,400,0.04134225845336914,0.036907839064204424,0.03092662285643529,116400,-348.8326744888779,0.0
291,1.401876449584961,-360.65582706933213,15.92075876427957,-341.3628205806336,-381.8456448975174,0.0,0.40676747275083386,0.1,0.002997159957885742,0.06021475791931152,0.050312616,0.27807248,-349.978753467091,-3.7039507005434413,-3.5734810181934704,0.0,400,0.041190147399902344,0.022459598030640925,0.019459825934428146,116800,-343.8474640849926,0.0
292,1.3993678092956543,-348.6448294446594,5.872297407821358,-343.87337512495,-358.5140138080455,0.0,0.3685851002049422,0.1,0.003019094467163086,0.06005263328552246,0.04977102,0.3133037,-349.84536106484785,-3.6044320539073675,-3.453775949575145,0.0,400,0.04076743125915527,0.025337155566445335,0.014484159561287282,117200,-342.1278935413398,0.0
293,1.4316108226776123,-339.6247646366102,4.48036884373099,-334.2166925705313,-344.81148489319366,0.0,0.3759767962853665,0.1,0.0029747486114501953,0.06142711639404297,0.050203193,0.2744079,-348.8233014220241,-3.5055029515760667,-3.364440878735294,0.0,400,0.041651010513305664,0.0083329913200253,0.008545020865510969,117600,-342.9112137526751,0.0
294,1.4367530345916748,-353.97209001158103,12.996368820189002,-335.50667082657327,-367.166589450731,0.0,0.3751529591927702,0.1,0.0030417442321777344,0.06420683860778809,0.049972888,0.28207892,-349.33818028097977,-3.628610594536422,-3.5068216845731826,0.0,400,0.041018009185791016,0.015336663724956453,0.01279317782675635,118000,-345.2395156746292,0.0
295,1.433666467666626,-358.4528647541065,9.511314142315415,-347.7390985817542,-373.41440233414033,0.0,0.3511452893462255,0.1,0.0029706954956054688,0.059244394302368164,0.050142165,0.3081703,-350.24964872829247,-3.6921012681529497,-3.5517384046102816,0.0,400,0.04118514060974121,0.01697000467996861,0.01665479631994248,118400,-346.13262207459064,0.0
296,1.4212262630462646,-346.6386116887014,17.540924558370133,-328.86239426138695,-375.7701005811757,0.0,0.3760814420337674,0.1,0.0029587745666503906,0.05964493751525879,0.0498466,0.29677305,-349.8885450243334,-3.53385440543033,-3.4347418090726514,0.0,400,0.044022560119628906,0.019947192175806257,0.016148310824946475,118800,-350.0961604908584,0.0
297,1.7948744297027588,-344.8217401985634,5.585704851219398,-336.37098231809324,-352.050458399164,0.0,0.3594124814930095,0.1,0.0028722286224365234,0.06265902519226074,0.04879344,0.31524464,-349.3818645417564,-3.597356641018327,-3.4159629200246067,0.0,400,0.0410006046295166,0.011344130051329244,0.010840693611053921,119200,-347.688640226409,0.0
298,1.356734275817871,-341.6864979294783,7.270988809319434,-333.7042700204068,-353.2440728762659,0.0,0.4197554448598968,0.1,0.0031332969665527344,0.06020855903625488,0.050414253,0.26286763,-348.6123278805286,-3.5749204540559543,-3.384287663017366,0.0,400,0.043497562408447266,0.014627293183572926,0.012334134768966522,119600,-349.9509011554209,0.0
299,1.3700733184814453,-353.3598272035143,7.221212160852198,-341.14269114447336,-359.5069371198845,0.0,0.38216503268419777,0.1,0.003028392791748047,0.05929255485534668,0.05004703,0.30050847,-349.08707781282715,-3.641276641808575,-3.5010547901141615,0.0,400,0.04277515411376953,0.015165586151630881,0.014427116837302979,120000,-343.0701722319541,0.0
300,1.3936388492584229,-360.06773406164757,5.428135983731194,-350.95247235894163,-365.2598217747291,0.0,0.39368074149884125,0.1,0.003091573715209961,0.0620419979095459,0.04992742,0.27318862,-350.1851434377092,-3.7184471492152658,-3.5663633228306404,0.0,400,0.04254341125488281,0.01687045273669394,0.014029789496739305,120400,-347.69634927797307,0.0
301,1.374894142150879,-352.8897575817912,7.48972817312741,-345.8897225743292,-365.46060121525306,0.0,0.3922225126618581,0.1,0.003069162368774414,0.062128543853759766,0.050414864,0.3066318,-350.4556048521174,-3.627439368391709,-3.4970936235248717,0.0,400,0.04098248481750488,0.019959678524002725,0.014441915510129766,120800,-345.5616650164698,0.0
302,1.411851167678833,-353.5591154688811,3.6617393849717517,-349.5656673462644,-359.4202005289667,0.0,0.38147272175373204,0.1,0.002901792526245117,0.06041836738586426,0.049450707,0.29398596,-350.76595591379373,-3.6433981736367613,-3.502462595163469,0.0,400,0.04170989990234375,0.019519004806130825,0.016776132088212912,121200,-350.34636101901333,0.0
303,1.4018001556396484,-352.17415580099066,8.656367290491435,-343.6524821462262,-363.9991259199602,0.0,0.36627153344586233,0.1,0.003051280975341797,0.0629119873046875,0.049159374,0.28298718,-350.9067759025134,-3.618484228226292,-3.489253004741999,0.0,400,0.04137706756591797,0.016243951286400764,0.01581352467877036,121600,-345.35277903818,0.0
304,1.385699987411499,-346.742475349913,11.231068392578342,-333.8647197456545,-362.9537008021834,0.0,0.387154342851728,0.1,0.002961874008178711,0.06057381629943848,0.05010089,0.29175538,-350.49034584725337,-3.5938974532698404,-3.4350226274654396,0.0,400,0.042017459869384766,0.018235049091181236,0.01592644782234472,122000,-346.9240500399772,0.0
305,1.3795435428619385,-354.4736101811518,11.574381316957101,-335.7003575331608,-364.3590003012625,0.0,0.41850281913657517,0.1,0.0029647350311279297,0.059470415115356445,0.050555196,0.26694098,-350.8886722806432,-3.643915977089915,-3.5121906141609,0.0,400,0.04405951499938965,0.013244621473750207,0.011511650218035357,122400,-350.32621090880224,0.0
306,1.3958988189697266,-353.86134455595095,6.371584194378132,-346.3273309279348,-363.89191761615047,0.0,0.39267685298857324,0.1,0.0031523704528808594,0.05889081954956055,0.049610063,0.2802614,-351.185939508174,-3.6282635003586794,-3.506265156225389,0.0,400,0.04453921318054199,0.01399194415437651,0.013264474592210359,122800,-349.9109882293019,0.0
307,1.3816041946411133,-350.9041729968983,9.66524520429538,-342.40657294349694,-366.45314095567386,0.0,0.3641911141463695,0.1,0.00305938720703125,0.0660707950592041,0.050231777,0.2684829,-351.1577628570464,-3.5885990770284892,-3.476294375875135,0.0,400,0.041646480560302734,0.011340090904341958,0.011155034840453142,123200,-350.1724964430261,0.0
308,1.3785340785980225,-346.37083167594363,10.61172838858201,-329.84387932842736,-359.03733327816155,0.0,0.39825404809470877,0.1,0.0030472278594970703,0.05896568298339844,0.04925123,0.31860614,-350.67906973893616,-3.608678107714816,-3.4314790054654294,0.0,400,0.041394948959350586,0.012762962210884727,0.011710937652042265,123600,-349.8670325634018,0.0
309,1.3660235404968262,-352.2360875390449,4.818287856909418,-345.1329488000324,-358.3106945394001,0.0,0.37999399260938516,0.1,0.0030770301818847656,0.05883002281188965,0.04999922,0.29083765,-350.83477151894704,-3.642127532291423,-3.4895915211067265,0.0,400,0.041568756103515625,0.018555194979008226,0.01683159298363909,124000,-353.1753836802157,0.0
310,1.4325544834136963,-355.9388261218081,10.87673415545117,-341.4641676703009,-368.37756469790526,0.0,0.37050925438368365,0.1,0.0030841827392578125,0.06108212471008301,0.050130628,0.3384566,-351.3451769792332,-3.5900947730990325,-3.528114849741107,0.0,400,0.04210233688354492,0.03050559616738999,0.02236634368038338,124400,-349.8021015645134,0.0
311,1.4003136157989502,-354.16373852973516,8.105825309520725,-343.02120477530195,-362.73400288498516,0.0,0.3339873655642471,0.1,0.0030558109283447266,0.0667426586151123,0.04984616,0.31255466,-351.6270331342834,-3.6191928739257273,-3.5082658015112287,0.0,400,0.045113325119018555,0.030400166676583212,0.016610820747124447,124800,-344.70979338341067,0.0
312,1.3926472663879395,-347.8809768801852,2.311922125133728,-344.8692633861101,-351.03720322389296,0.0,0.40174028414441376,0.1,0.0030395984649658203,0.06157398223876953,0.050132155,0.24986684,-351.2524275088736,-3.5780466509363396,-3.4460494629295457,0.0,400,0.042557716369628906,0.021615969555025538,0.014876972398859212,125200,-346.46358350195277,0.0
313,1.4179644584655762,-356.38472136820053,19.11552848977208,-335.7087723039128,-386.11152362886014,0.0,0.4028295010138024,0.1,0.0030159950256347656,0.06675219535827637,0.050591506,0.2739405,-351.7656568948063,-3.6419434318184916,-3.530725080428392,0.0,400,0.04213428497314453,0.023122915755661163,0.021560454262477807,125600,-344.87593639719245,0.0
314,1.3454954624176025,-346.4797184636068,8.812532502238435,-340.0978912930801,-361.4898738606261,0.0,0.39744408440814866,0.1,0.00308990478515625,0.05966639518737793,0.050448608,0.28197357,-351.23706305168633,-3.583469278380817,-3.4323297573912788,0.0,400,0.04150199890136719,0.012203385856949255,0.012340597387468157,126000,-341.15528340933054,0.0
315,1.3380098342895508,-346.36766823467667,9.209866536244904,-332.35571503780506,-357.923630587029,0.0,0.3805397978423812,0.1,0.002979755401611328,0.05924487113952637,0.050087765,0.2865852,-350.75012356998536,-3.612813481370397,-3.429953539490857,0.0,400,0.04135298728942871,0.009045848601242126,0.008101216725747014,126400,-343.0799351560085,0.0
316,1.3550803661346436,-355.10515522967376,18.765052746767847,-340.12819009291974,-386.2350653977586,0.0,0.36799601734736875,0.1,0.0029480457305908203,0.0594785213470459,0.049147815,0.28456536,-351.1856267359542,-3.658564680348316,-3.5190018595036108,0.0,400,0.04094815254211426,0.0242116864779808,0.019778965760329174,126800,-349.2053097071459,0.0
317,1.3694581985473633,-347.66536775509746,3.9215729622726756,-341.714288054718,-352.6596029743707,0.0,0.40175674879611684,0.1,0.0029981136322021484,0.06197643280029297,0.04834245,0.2761549,-350.8336008378685,-3.584359642319627,-3.4445748404412972,0.0,400,0.04188942909240723,0.017251415859395724,0.015230953088030633,127200,-348.34323184292407,0.0
318,1.3622910976409912,-338.207795025707,12.029121933206644,-320.2363191468459,-353.9018656279705,0.0,0.36379357602944284,0.1,0.0031287670135498047,0.05968189239501953,0.050267,0.37058744,-349.5710202566524,-3.5092702683614947,-3.3515327637179557,0.0,400,0.041840553283691406,0.01331653823232935,0.012010250846669903,127600,-344.25211688858,0.0
319,1.3711602687835693,-348.73254460112116,7.323065783182252,-339.8611008740894,-358.9242748797883,0.0,0.3951091904740148,0.1,0.003086090087890625,0.06074070930480957,0.049928017,0.2897196,-349.48717269109926,-3.6365347064540545,-3.4547976076134104,0.0,400,0.042029619216918945,0.012321137580908005,0.00937036790371921,128000,-341.10100764475965,0.0
320,1.3893864154815674,-352.7531172842044,9.095061582102842,-343.96204020419054,-366.80472583288315,0.0,0.4083342675739814,0.1,0.003111124038696289,0.05959677696228027,0.050208684,0.28914613,-349.8137671504098,-3.647331169239149,-3.4948631049980525,0.0,400,0.04233074188232422,0.01859988501703066,0.01771681531889251,128400,-347.81773700300886,0.0
321,1.3703789710998535,-358.0772753024957,11.403293505629696,-342.0098716449375,-374.25766550018005,0.0,0.4018326437663752,0.1,0.002926349639892578,0.06038093566894531,0.04879166,0.2672292,-350.64011796561834,-3.6093495655845866,-3.547986681596022,0.0,400,0.0421905517578125,0.016449796903318718,0.015107039469632589,128800,-350.56118998999347,0.0
322,1.3765628337860107,-356.2125575588734,9.207309171356766,-345.3266644819184,-368.7618302874629,0.0,0.37110999122864907,0.1,0.003046751022338867,0.05893659591674805,0.04921264,0.31308532,-351.19736192494383,-3.6599338273156707,-3.529407093169348,0.0,400,0.04047417640686035,0.013312592785455267,0.011847850800071134,129200,-354.62845477779155,0.0
323,1.3620681762695312,-359.07470146335174,10.888794844547474,-341.60074913220177,-371.43737740491855,0.0,0.3865080346217259,0.1,0.0028717517852783203,0.05872392654418945,0.0499709,0.2899455,-351.98509587878465,-3.669849756194336,-3.5579128194502827,0.0,400,0.0401918888092041,0.012065333756660798,0.011603377539704335,129600,-354.3052251917184,0.0
324,1.4132423400878906,-352.22308833953093,3.1810489823733707,-348.14950739735286,-356.8815661433149,0.0,0.4240868292716618,0.1,0.0031595230102539062,0.060681819915771484,0.050063673,0.30856666,-352.0088951248593,-3.6208063796785823,-3.491088752690063,0.0,400,0.04207110404968262,0.024253201802011324,0.017427354187654204,130000,-354.8516826930963,0.0
325,1.5330193042755127,-352.3770270607695,18.52355660181445,-321.7049393991257,-368.2839184025907,0.0,0.3752542096666098,0.1,0.0031099319458007812,0.06080484390258789,0.050628997,0.30901033,-352.04570831845035,-3.5897260037998757,-3.491026340143719,0.0,400,0.04376840591430664,0.01922285565623891,0.015277179510169022,130400,-353.26236075381127,0.0
326,1.5651087760925293,-351.81567867045993,2.69764712298067,-348.18058586224925,-354.6509245301153,0.0,0.39052972049757223,0.1,0.0030832290649414062,0.060622453689575195,0.049128503,0.28047696,-352.0227053536513,-3.618465046782722,-3.487096869458003,0.0,400,0.0426325798034668,0.015316629609998035,0.013057995579139321,130800,-350.7818691367993,0.0
327,1.552215337753296,-347.23432856453195,6.006931908803912,-338.74153285861956,-352.9513899372745,0.0,0.3956264180534708,0.1,0.0031766891479492188,0.06526875495910645,0.050891727,0.2684888,-351.5438676747394,-3.5785355005149313,-3.440344208728642,0.0,400,0.041638851165771484,0.014388079694836275,0.010893830450296913,131200,-352.44567009849834,0.0
328,1.5606112480163574,-352.9388573759636,12.006287606991917,-339.1450039942704,-371.4439235008711,0.0,0.3964713321584472,0.1,0.0029098987579345703,0.0592188835144043,0.049149547,0.30381158,-351.68336664486185,-3.6273868656094885,-3.496936459144629,0.0,400,0.041358232498168945,0.016385696581647326,0.015479404242589647,131600,-351.0322957530515,0.0
329,1.5358340740203857,-341.69685458235676,4.4436958406748435,-336.2591167329491,-348.47703326906867,0.0,0.3908068353624938,0.1,0.002954721450805664,0.05874776840209961,0.050015684,0.2678078,-350.68471543861136,-3.5856155713218323,-3.385268667745525,0.0,400,0.04047203063964844,0.014047480562799477,0.010590019061218939,132000,-349.51195942662645,0.0
330,1.5439658164978027,-346.0379095568852,6.661742202644093,-334.95546748942036,-352.7590770893583,0.0,0.39495519952066216,0.1,0.0027964115142822266,0.05923891067504883,0.04963691,0.28212565,-350.22003485043876,-3.619913268343996,-3.429467613195077,0.0,400,0.04034280776977539,0.01377118640685958,0.010385246925841632,132400,-348.9877367384369,0.0
331,1.5783207416534424,-356.19023570530624,13.92408502000321,-338.14902710022386,-375.75801408556623,0.0,0.38588909680280353,0.1,0.003100872039794922,0.058525800704956055,0.049192138,0.34470382,-350.8170549359255,-3.699604742784847,-3.5285235264264383,0.0,400,0.041457414627075195,0.013540084450565508,0.012318021383856976,132800,-349.4732819272902,0.0
332,1.6123766899108887,-352.165794646521,3.0179575359286033,-347.8854995046249,-356.28589529779794,0.0,0.3983238688637252,0.1,0.0030634403228759766,0.060877084732055664,0.049368024,0.37163696,-350.9519289069851,-3.631418720421971,-3.489242510225677,0.0,400,0.046251535415649414,0.008845201580353857,0.007577045812811232,133200,-349.9757714266762,0.0
333,1.5098323822021484,-343.67027327069775,6.594311680109857,-334.5405838468331,-352.67062306750347,0.0,0.37620070901123304,0.1,0.003013134002685547,0.06141543388366699,0.050322276,0.26409206,-350.2237633433563,-3.5048498461604476,-3.4054577243165642,0.0,400,0.04211926460266113,0.008166129156660078,0.006837807463872909,133600,-352.0330394087461,0.0
334,1.5124058723449707,-353.20696675640465,17.96493216521753,-324.3165855296978,-373.7272915327697,0.0,0.3682318827796147,0.1,0.0030517578125,0.05942201614379883,0.04881111,0.34356508,-350.5220836846612,-3.65211636193325,-3.500051613776141,0.0,400,0.04156970977783203,0.013480069502302624,0.013108357362501058,134000,-348.2516171131853,0.0
335,1.5377693176269531,-347.92472879158834,6.116741582847333,-341.7762613546704,-357.198431399854,0.0,0.4020448209352387,0.1,0.0031006336212158203,0.06069445610046387,0.04993725,0.26123074,-350.2623481953539,-3.598362410847954,-3.4475504088824898,0.0,400,0.041589975357055664,0.009081265745691946,0.008942377970328397,134400,-352.6784560658545,0.0
336,1.5586495399475098,-353.33944619157853,6.793303944545913,-345.596958031347,-362.90068693981084,0.0,0.4326181746797187,0.1,0.002951383590698242,0.06067490577697754,0.0507382,0.2549023,-350.5700579949764,-3.632878089138332,-3.501708582069302,0.0,400,0.0404815673828125,0.007561833089360216,0.006523991619279942,134800,-351.49168524867076,0.0
337,1.3655903339385986,-348.76301152252734,9.0594628827417,-335.8422288956136,-359.57075151712814,0.0,0.3780279902472782,0.1,0.0029914379119873047,0.0590975284576416,0.051293865,0.29374912,-350.3893533477315,-3.586657006680642,-3.4562962567876214,0.0,400,0.0410006046295166,0.014287889985154982,0.014023942940712596,135200,-363.3579211504688,0.0
338,1.3802947998046875,-344.7664994607296,1.914546464117198,-342.69456051962305,-347.86102754696157,0.0,0.39073963038849824,0.1,0.003023386001586914,0.05894041061401367,0.049370006,0.2868452,-349.8270679590313,-3.5882510523455227,-3.4162206476338097,0.0,400,0.04384183883666992,0.006167802439963983,0.005613074912915598,135600,-360.514286553908,0.0
339,1.4053699970245361,-348.6879927056544,9.619816939050194,-335.63332213634334,-362.10904117047045,0.0,0.3779107412708368,0.1,0.00290679931640625,0.06311202049255371,0.050491966,0.30708286,-349.7131604336936,-3.6051194730457827,-3.4547428957969153,0.0,400,0.04126596450805664,0.017529916001451713,0.012627964427976585,136000,-365.1980477979535,0.0
340,1.380197286605835,-339.61528971166774,4.810692715137166,-335.3850646663517,-347.10690004232225,0.0,0.41123082360474916,0.1,0.0029153823852539062,0.058873653411865234,0.04909456,0.26497653,-348.703373361491,-3.5351621854243276,-3.3652447840456507,0.0,400,0.04093766212463379,0.018256105983705476,0.010711928765505249,136400,-360.95580864448385,0.0
341,1.3946514129638672,-347.3272617224114,4.26107705952072,-342.36727758635465,-351.5847424321313,0.0,0.3695608528509048,0.1,0.0029213428497314453,0.05851125717163086,0.04943578,0.31633487,-348.56576219758307,-3.6124606251894367,-3.4427038023669545,0.0,400,0.041085004806518555,0.013974600056370192,0.008953975278553997,136800,-359.57159253944934,0.0
342,1.3934226036071777,-344.8452778162103,5.6567545778798305,-335.9501000572597,-351.0765369205191,0.0,0.41232056028948727,0.1,0.002888917922973633,0.05838727951049805,0.048832506,0.2461593,-348.19371375944576,-3.578645487348325,-3.4176423529328637,0.0,400,0.04112100601196289,0.011695236080901845,0.009859456688508036,137200,-361.0115890072986,0.0
343,1.4224293231964111,-345.94181807864834,5.784109214890416,-339.3825760567929,-351.97654481328885,0.0,0.37485911747323714,0.1,0.0030040740966796875,0.060811519622802734,0.049450573,0.27111587,-347.96852419136604,-3.5782816212162065,-3.4283125034807043,0.0,400,0.04082989692687988,0.015331336139325866,0.011341012513072004,137600,-366.17180867921167,0.0
