iteration,time_sampling,stoc_pol_mean,stoc_pol_std,stoc_pol_max,stoc_pol_min,rollout_success,alpha,delta,time_vpg,time_npg,kl_dist,surr_improvement,running_score,rwd_sparse,rwd_dense,success_percentage,num_samples,time_VF,VF_error_before,VF_error_after,env_samples,eval_score,eval_success
0,1.3958711624145508,0.1115698648925604,0.005588760570966268,0.11911141940124333,0.10419159160831934,0.0,0.15438937972888594,0.1,0.05070757865905762,0.06117987632751465,0.053840473,1.093762,0.1115698648925604,0.0,0.0013846638836788076,0.0,300,0.03945755958557129,0.332112423330288,0.07972089778674316,300,0.10342927279089696,0.0
1,1.148271083831787,0.1162660300172966,0.010932351766082805,0.13479824550757666,0.10687168656784793,0.0,0.1770719065883864,0.1,0.0028455257415771484,0.05753183364868164,0.051055793,0.80260104,0.11203948140503403,0.0,0.0014723785931666218,0.0,300,0.01744389533996582,0.11281013566256538,0.09475040396175868,600,0.10230398331240083,0.0
2,1.1615228652954102,0.11508123056775987,0.010348636069005998,0.1249461002650456,0.0978928391827385,0.0,0.16661611072285407,0.1,0.0028378963470458984,0.05641031265258789,0.05367155,0.89760536,0.1123436563213066,0.0,0.0014341037617202142,0.0,300,0.01772594451904297,0.07247052164696192,0.06239973320815402,900,0.10791798251825302,0.0
3,1.1879932880401611,0.13848744429216586,0.045104518519279956,0.21393355439610265,0.09563251809455664,0.0,0.1787538201856289,0.1,0.0027837753295898438,0.05512809753417969,0.054232176,0.8819643,0.11495803511839253,0.0,0.0017489293751930715,0.0,300,0.016903400421142578,0.2871437795891465,0.2243742959483605,1200,0.11269399797188173,0.0
4,1.1984198093414307,0.13385709400424983,0.023626005643207822,0.1685224475675831,0.10363643020149756,0.0,0.1709534620387075,0.1,0.0028641223907470703,0.0594480037689209,0.0521127,1.0705234,0.11684794100697826,0.0,0.0016873075088660815,0.0,300,0.018436670303344727,0.17974873269740577,0.10889808504054674,1500,0.12143721026204406,0.0
5,1.2733995914459229,0.13654784427494476,0.0347720562791174,0.17317469308787103,0.09710704551923716,0.0,0.15854057023850024,0.1,0.0027952194213867188,0.06052803993225098,0.055982105,1.344453,0.11881793133377491,0.0,0.001742109428695184,0.0,300,0.018277645111083984,0.1560992647782061,0.1586874727658284,1800,0.13578444204822498,0.0
6,1.2282443046569824,0.13090629911214713,0.023562793941121953,0.15731715977645455,0.10508113931923663,0.0,0.16672104055812575,0.1,0.002844572067260742,0.05751967430114746,0.05110616,1.7909253,0.12002676811161214,0.0,0.001613051836019065,0.0,300,0.018121719360351562,0.11327019579694833,0.09757427078042931,2100,0.16077804492067965,0.0
7,1.2937343120574951,0.13732035226128597,0.018917919319288292,0.15768368276063005,0.1107437493933756,0.0,0.16629663962171928,0.1,0.0028951168060302734,0.056767940521240234,0.05044616,1.0001512,0.12175612652657952,0.0,0.0017350096527031134,0.0,300,0.01779913902282715,0.11317077585133076,0.11098583638224445,2400,0.16770112636522105,0.0
8,1.2793281078338623,0.17931506289320764,0.12225631757440103,0.39022166006921455,0.0990175309005035,0.0,0.16063939840093203,0.1,0.005532741546630859,0.06105637550354004,0.051595148,1.7253518,0.12751202016324234,0.0,0.0023323440054015807,0.0,300,0.017924070358276367,0.508535026243216,0.46975896551241586,2700,0.17225491379677815,0.0
9,1.2907283306121826,0.15776088170510524,0.030500157082718873,0.20377186690566726,0.12712915000394595,0.0,0.16555166263826085,0.1,0.0030107498168945312,0.0584561824798584,0.05140792,0.8324025,0.13053690631742862,0.0,0.001998804186913792,0.0,300,0.017624616622924805,0.08840093305992991,0.08771891892017744,3000,0.18083666980140087,0.0
10,1.1668438911437988,0.16899627443233758,0.0847755066111241,0.3140335289835867,0.10263909544505243,0.0,0.16725135116569076,0.1,0.0027632713317871094,0.060193777084350586,0.050082188,1.3849525,0.13438284312891952,0.0,0.002152428696860203,0.0,300,0.017362356185913086,0.2928640463318021,0.2851497928286088,3300,0.19221263566222105,0.0
11,1.311723232269287,0.16735148084712317,0.04142843319451495,0.2130153989429785,0.11319177991433771,0.0,0.1647315997762311,0.1,0.0028219223022460938,0.05860257148742676,0.049386736,0.83960706,0.13767970690073988,0.0,0.0021063291508487806,0.0,300,0.01803445816040039,0.10607998145130723,0.10109823848224997,3600,0.21494232783022219,0.0
12,1.426607370376587,0.2396856775267425,0.13916371255823828,0.47105882587094505,0.12324279569271596,0.0,0.18229674127725443,0.1,0.0027773380279541016,0.05674099922180176,0.051469296,1.2075135,0.14788030396334015,0.0,0.0029703523023815064,0.0,300,0.01755499839782715,0.557142557175056,0.44781237516650957,3900,0.2921424958125058,0.0
13,1.277428150177002,0.22183562472777,0.09854596046829465,0.3756887900401998,0.11862913734866623,0.0,0.1733329134271127,0.1,0.0029642581939697266,0.058511972427368164,0.05002368,0.8619522,0.15527583603978315,0.0,0.002790762258800359,0.0,300,0.017726659774780273,0.3672467720253677,0.3154368655001384,4200,0.2208718700353932,0.0
14,1.328686237335205,0.24892061669297313,0.10695381667541312,0.41977824286889237,0.12899555035050658,0.0,0.1621317566518881,0.1,0.009682416915893555,0.05912184715270996,0.048561268,1.2502077,0.16464031410510213,0.0,0.0032579246351989288,0.0,300,0.01832103729248047,0.42218369318726195,0.4015944531284657,4500,0.26018733495240676,0.0
15,1.2917282581329346,0.16500267747174355,0.06325773246987372,0.25553249889376345,0.08592685875550785,0.0,0.17116772687644768,0.1,0.002871990203857422,0.05491280555725098,0.051385123,0.8716589,0.1646765504417663,0.0,0.002104302256803796,0.0,300,0.017105579376220703,0.31620249793033806,0.3004037917841568,4800,0.2776261977643562,0.0
16,1.2629339694976807,0.208988569394012,0.05442721474499247,0.2861640312042084,0.13485988634549956,0.0,0.17573048109358652,0.1,0.002930164337158203,0.056958913803100586,0.05092045,0.98147637,0.16910775233699088,0.0,0.002676522630987571,0.0,300,0.017537593841552734,0.27801094010081195,0.19714946325014157,5100,0.35056774340104296,0.0
17,1.2346372604370117,0.18516216727711005,0.042969872969134106,0.2435171993498917,0.12216520772834663,0.0,0.1702055084918979,0.1,0.0027818679809570312,0.054711341857910156,0.049875192,1.1036596,0.1707131938310028,0.0,0.0023785269309758647,0.0,300,0.01686549186706543,0.17148938221427096,0.18631523062666025,5400,0.2921540177924106,0.0
18,1.279888391494751,0.28608204580696406,0.1533177902104713,0.5346279768345967,0.13472829377385154,0.0,0.16197686333188052,0.1,0.002823352813720703,0.05801844596862793,0.049140893,1.3256315,0.18225007902859894,0.0,0.0037325686897611947,0.0,300,0.01757502555847168,0.41212336213468076,0.3537288706353875,5700,0.3306357929405715,0.0
19,1.2680463790893555,0.18930677711822497,0.06512362274182529,0.25705027527461405,0.08172329302460035,0.0,0.17073621434039643,0.1,0.002790689468383789,0.05774974822998047,0.05128382,0.92171216,0.18295574883756155,0.0,0.0024885942451812657,0.0,300,0.017891883850097656,0.34501099089090026,0.23402713360158467,6000,0.6282988879317042,0.0
20,1.324575662612915,0.292530610040892,0.06877668665492412,0.3800584064663738,0.18767996874599063,0.0,0.16992435568238232,0.1,0.002855539321899414,0.056754112243652344,0.050359517,1.0595027,0.1939132349578946,0.0,0.003724904693554625,0.0,300,0.01740431785583496,0.3334834839456831,0.19643218691600386,6300,0.41024312190687134,0.0
21,1.3195488452911377,0.3167405284522709,0.23099590493600763,0.6856182485728557,0.11432337988987126,0.0,0.16401121736216728,0.1,0.0027725696563720703,0.05700516700744629,0.04942106,1.3127177,0.20619596430733222,0.0,0.004085515485053898,0.0,300,0.018216848373413086,0.4408718675382173,0.4599018396242699,6600,0.5682181508088437,0.0
22,1.4174535274505615,0.6636642346514777,0.5190182111134891,1.2551710319817442,0.12583703021428477,0.0,0.16882861438034505,0.1,0.0029075145721435547,0.05776858329772949,0.049576264,1.1469425,0.2519427913417468,0.0,0.008760636571951199,0.0,300,0.018096208572387695,0.5759264409834665,0.4814065757783795,6900,1.021169767501601,0.0
23,1.3344666957855225,0.31977159114898124,0.14221930463781016,0.5182015457891704,0.12425609558989731,0.0,0.18035956718363527,0.1,0.002764463424682617,0.057758331298828125,0.05088331,0.8218858,0.25872567132247026,0.0,0.004182418716299437,0.0,300,0.01780223846435547,1.084481255909897,0.3443736663831699,7200,1.6866681873909382,0.0
24,1.303945541381836,0.6643928278802126,0.4520521467333844,1.4259181040008904,0.29786454377398164,0.0,0.15556749831990016,0.1,0.002774477005004883,0.05847358703613281,0.049615595,1.5759501,0.2992923869782445,0.0,0.008802796007177214,0.0,300,0.01916360855102539,0.5559029010902207,0.512060101504908,7500,1.659067383853486,0.0
25,1.3094072341918945,0.21352491755433237,0.061063506530862253,0.2856434223218175,0.12065505995815914,0.0,0.16471190221778467,0.1,0.003138303756713867,0.05838370323181152,0.05154361,0.47417614,0.2907156400358533,0.0,0.002723650559341541,0.0,300,0.01795053482055664,1.1321452425969174,1.0172468805816828,7800,1.1796526366050364,0.0
26,1.3423147201538086,0.271058729257114,0.12843702951383482,0.48748834258282125,0.1673529498210818,0.0,0.1563932383408151,0.1,0.0028243064880371094,0.05698204040527344,0.050620843,0.67866796,0.28874994895797934,0.0,0.0034834329128611034,0.0,300,0.01779484748840332,0.5499769040187932,0.3241441708192625,8100,1.363979811457244,0.0
27,1.3301987648010254,0.4841928053255195,0.4116406358461429,1.1840861249171897,0.18262095222752323,0.0,0.16519991418550944,0.1,0.002783060073852539,0.05666780471801758,0.049526483,1.6837537,0.3082942345947334,0.0,0.006339809394930968,0.0,300,0.01754474639892578,0.5618549785118895,0.5640067094076648,8400,0.8617625234256746,0.0
28,1.2604522705078125,0.3669912248653332,0.216417384491541,0.6434588788246774,0.10615353090631834,0.0,0.15730132006882358,0.1,0.003014087677001953,0.05852699279785156,0.04878119,1.1570532,0.3141639336217934,0.0,0.00479925120031436,0.0,300,0.018249988555908203,0.34401708494590294,0.32541299356762,8700,1.1440362063510725,0.0
29,1.310875654220581,0.3936453796637283,0.3885438296182825,1.0643557660538192,0.14077217738317196,0.0,0.16350905250300857,0.1,0.0028302669525146484,0.05803179740905762,0.049506012,5.4500585,0.3221120782259869,0.0,0.005191903949110817,0.0,300,0.01775646209716797,0.6054448655091881,0.5945518606380804,9000,1.604846118253163,0.0
30,1.331127643585205,0.4591982643337175,0.3423346181873071,0.8531002777577847,0.10761976223529446,0.0,0.1716403104277644,0.1,0.0027909278869628906,0.05570721626281738,0.049869467,0.87250966,0.33582069683675997,0.0,0.006059736396907191,0.0,300,0.016771793365478516,0.42914737491555066,0.4081753495829615,9300,1.3265794258811456,0.0
31,1.2517526149749756,0.3962801715566177,0.21318994418325146,0.6662790998473199,0.17280964466002033,0.0,0.17077826640506988,0.1,0.002942323684692383,0.058550357818603516,0.04982071,0.6777514,0.34186664430874575,0.0,0.005223097262727779,0.0,300,0.01879143714904785,0.3825807187116259,0.3731066768641622,9600,1.542365976284114,0.0
32,1.3303818702697754,0.5051783423894504,0.15506326943781498,0.7004335243974071,0.2912587088438686,0.0,0.16536906787427907,0.1,0.0027618408203125,0.055437564849853516,0.04989926,0.8297272,0.35819781411681617,0.0,0.006681820618930976,0.0,300,0.016666412353515625,0.15163504018540372,0.1413064480699712,9900,1.5359004362485,0.0
33,1.3833823204040527,0.5281301085349692,0.22173355332776445,0.8953917885335346,0.29985900445555114,0.0,0.1628884562427194,0.1,0.0028450489044189453,0.05782270431518555,0.0496839,1.1503307,0.3751910435586315,0.0,0.0070100435306090225,0.0,300,0.022708654403686523,0.2938435801131041,0.2634931729758107,10200,1.7465638379604513,0.0
34,1.366936445236206,0.26918814492976284,0.16464712213182825,0.5527982350546508,0.15121747960782728,0.0,0.1536852430682774,0.1,0.0030374526977539062,0.05830574035644531,0.049557105,0.5886675,0.3645907536957446,0.0,0.003505696283107172,0.0,300,0.024264097213745117,1.0561133393607363,0.4938811496314015,10500,1.2732047440073835,0.0
35,1.3996496200561523,0.3857139656709998,0.1797353459033495,0.6126034279291447,0.12006015812123048,0.0,0.16021629228756623,0.1,0.0030226707458496094,0.05867457389831543,0.0502796,0.7621643,0.36670307489327014,0.0,0.005051436705242964,0.0,300,0.01800251007080078,0.28138486569835647,0.3064230276864353,10800,1.3056678367975019,0.0
36,1.4001893997192383,0.42860416962720727,0.3057565930669996,0.901878236019551,0.09261774162833979,0.0,0.1498291771477995,0.1,0.0028624534606933594,0.0597078800201416,0.04975274,1.77703,0.3728931843666639,0.0,0.005633848129761307,0.0,300,0.017806529998779297,0.49183265096019746,0.4293094997471921,11100,0.9898432579116857,0.0
37,1.404902696609497,0.4057669295995559,0.23806972501763915,0.7615613684089335,0.12334215055240634,0.0,0.15847123122513054,0.1,0.0028984546661376953,0.05754852294921875,0.04912906,1.3044666,0.3761805588899531,0.0,0.005373462939046094,0.0,300,0.016890287399291992,0.37968561026876335,0.37294298825330324,11400,1.0798509960404947,0.0
38,1.4705052375793457,0.47254318612886304,0.09265872846114825,0.6164857287050209,0.3696192983202613,0.0,0.16832645750682418,0.1,0.0028030872344970703,0.05768084526062012,0.048955906,0.87267834,0.3858168216138441,0.0,0.006264569606674449,0.0,300,0.017688512802124023,0.09860556096531257,0.09835218666632074,11700,1.4359054164187535,0.0
39,1.4151697158813477,0.41527192458139756,0.2126548911815159,0.7077469593695328,0.14208750694487157,0.0,0.16470818940422374,0.1,0.0028052330017089844,0.05713248252868652,0.05028752,0.9021081,0.38876233191059945,0.0,0.005500995775385648,0.0,300,0.01714348793029785,0.2832733208309692,0.25929471618062394,12000,1.518443493320042,0.0
40,1.429807424545288,0.6207101878387764,0.33117583150417806,1.1754119057090169,0.2981651350892922,0.0,0.15816878470422158,0.1,0.0028247833251953125,0.05500626564025879,0.050014306,1.3840226,0.4119571175034172,0.0,0.0081886383327584,0.0,300,0.017253637313842773,0.3897304013450111,0.3204889460488003,12300,1.365887996201531,0.0
41,1.4812088012695312,0.8838128374010261,0.7287113410818096,1.9922450418049356,0.160412636337761,0.0,0.1588756261737901,0.1,0.002897500991821289,0.05884146690368652,0.04838171,1.3204235,0.4591426894931781,0.0,0.011719577697297208,0.0,300,0.0178525447845459,0.5593894470586245,0.45966284191326096,12600,1.4129778104831197,0.0
42,1.4201843738555908,0.667185702270569,0.042908505021809276,0.7194870272508412,0.6035874351063817,0.0,0.17785730910292977,0.1,0.002844095230102539,0.05639839172363281,0.05042567,0.86989886,0.4799469907709172,0.0,0.008854731903777197,0.0,300,0.0168609619140625,0.30307615258373954,0.08368058668029102,12900,1.550593984499626,0.0
43,1.4051458835601807,0.8601195179209028,0.26555101185027574,1.1722029929699502,0.5342912323130651,0.0,0.17065290240605052,0.1,0.002742290496826172,0.05466938018798828,0.049258273,0.786614,0.5179642434859157,0.0,0.011336540653232597,0.0,300,0.016496658325195312,0.16944674250782435,0.1886542880081401,13200,1.6969465673014732,0.0
44,1.4410312175750732,0.8828749017399067,0.685332332570339,1.5875717831238514,0.08784678489550529,0.0,0.15303768319444727,0.1,0.003343820571899414,0.05779910087585449,0.04921916,0.90869576,0.5544553093113149,0.0,0.011693326709463605,0.0,300,0.018008947372436523,0.4176488365894469,0.3859390587717543,13500,2.0260482015569425,0.0
45,1.3617653846740723,0.2997551220333596,0.022271122830820052,0.3259439535313644,0.2737906327721535,0.0,0.16188349079734934,0.1,0.0030181407928466797,0.05906105041503906,0.049848054,0.5114394,0.5289852905835194,0.0,0.003945397166597019,0.0,300,0.01813030242919922,5.493578484253625,1.522004620944199,13800,1.9806593868830509,0.0
46,1.3751733303070068,0.4384065948706925,0.24758941153757058,0.709678537874467,0.10250438772363002,0.0,0.1554837633650875,0.1,0.0029947757720947266,0.057886600494384766,0.050323103,1.3025731,0.5199274210122368,0.0,0.00579380410858314,0.0,300,0.01862621307373047,0.4337307244780533,0.39178349378522975,14100,2.5333787300506607,0.0
47,1.3283071517944336,0.9759974853567024,0.6313080346421397,2.041247693080295,0.4015524112175541,0.0,0.15088445407392928,0.1,0.0029087066650390625,0.05821824073791504,0.049134575,2.2754114,0.5655344274466834,0.0,0.01292238100153946,0.0,300,0.01785588264465332,0.615273478339188,0.5570134986242395,14400,2.3699264145445786,0.0
48,1.3467402458190918,0.4026356917393409,0.22486266322761894,0.7818654205950227,0.19476573609285014,0.0,0.1466294996514409,0.1,0.0028028488159179688,0.055873870849609375,0.047846675,1.6685333,0.5492445538759492,0.0,0.00533503565492773,0.0,300,0.0180203914642334,0.3573274824635263,0.445057832478743,14700,2.5684406106338105,0.0
49,1.3687524795532227,0.5073866530055848,0.1842740153247352,0.7014017273062267,0.2189938944380242,0.0,0.1608721280486991,0.1,0.0029172897338867188,0.057512760162353516,0.049233656,0.7749097,0.5450587637889128,0.0,0.006717444117599237,0.0,300,0.017252445220947266,0.2125787058070618,0.22029321432911936,15000,2.0881026252366577,0.0
50,1.3942711353302002,0.36536006810657773,0.14441576025860206,0.5745107871484622,0.22838056633285,0.0,0.16963571077757775,0.1,0.002908468246459961,0.05852818489074707,0.05024587,0.9232955,0.5270888942206793,0.0,0.004805095703066178,0.0,300,0.017925262451171875,0.4534595460898113,0.3387873295493852,15300,1.7970966449739556,0.0
51,1.3831634521484375,0.4358618457815302,0.21678269564835606,0.6691622879291553,0.11835426778216972,0.0,0.1540998679719986,0.1,0.0029430389404296875,0.06192779541015625,0.04933809,0.8877188,0.5179661893767644,0.0,0.005716232943041453,0.0,300,0.018796205520629883,0.2774080034733179,0.25298528533834963,15600,2.0729624560008797,0.0
52,1.4150078296661377,0.8288182349908358,0.5250573571232175,1.5805302180913774,0.2074993995971797,0.0,0.15925831904266666,0.1,0.00293731689453125,0.05831742286682129,0.05006805,1.3980024,0.5490513939381716,0.0,0.010958733307718172,0.0,300,0.01783442497253418,0.5081363876940564,0.46225084674556177,15900,2.4191020878689993,0.0
53,1.411757230758667,0.6872013355475508,0.4815758548683918,1.4264651323263526,0.2105235966244797,0.0,0.15568996263024407,0.1,0.0029082298278808594,0.05945134162902832,0.04957182,1.5067978,0.5628663880991095,0.0,0.009098088321183063,0.0,300,0.01766490936279297,0.44017033005985057,0.38906611867209595,16200,2.1786659509187447,0.0
54,1.4093637466430664,0.6691066476119892,0.2519943915605505,0.9791810884369165,0.38839742001084165,0.0,0.17150394057756788,0.1,0.002812623977661133,0.05771946907043457,0.049460676,0.8440112,0.5734904140503975,0.0,0.008860842263760457,0.0,300,0.017672061920166016,0.19092427050348748,0.18993639620010166,16500,2.0521378203802962,0.0
55,1.4154422283172607,0.450654139868355,0.1669892697234128,0.6760319045122117,0.2118374661871513,0.0,0.1631459679965826,0.1,0.002857208251953125,0.056737661361694336,0.049276456,0.62325174,0.5612067866321933,0.0,0.005899387501176469,0.0,300,0.01792597770690918,0.547523677505019,0.350172505105456,16800,1.1514845404103726,0.0
56,1.3863184452056885,0.610684584970454,0.28486684664752776,1.0736922107250102,0.2958103141391653,0.0,0.15050341387302374,0.1,0.003152132034301758,0.05752921104431152,0.049256623,1.1679428,0.5661545664660192,0.0,0.008069217278855302,0.0,300,0.016715049743652344,0.22160951981267454,0.24336176261448766,17100,1.694909697934688,0.0
57,1.4711430072784424,0.9124280572436905,0.7263727605056143,1.9492611742992576,0.1854628878547069,0.0,0.15539419593727408,0.1,0.002876758575439453,0.06038236618041992,0.049463633,2.3278701,0.6007819155437863,0.0,0.012081131632553598,0.0,300,0.020449161529541016,0.5191943008133884,0.48302399266937923,17400,1.4891899606431114,0.0
58,1.4449386596679688,0.6945210185373704,0.4338581924712769,1.1331498753555649,0.15116951392142447,0.0,0.1471024488332113,0.1,0.0028166770935058594,0.05604839324951172,0.048958153,1.6927029,0.6101558258431448,0.0,0.009183392995246377,0.0,300,0.017706871032714844,0.3177012765823634,0.3011838141400765,17700,1.2994914808453244,0.0
59,1.4166004657745361,0.5937049772494272,0.39388008264726476,1.2139720948427661,0.19826952607952764,0.0,0.1557926356254525,0.1,0.0027077198028564453,0.05623340606689453,0.049487278,1.1448144,0.608510740983773,0.0,0.007842072040198024,0.0,300,0.016740083694458008,0.446073259942172,0.3962605734744195,18000,2.309748082075923,0.0
60,1.4174816608428955,0.41254307149226727,0.15638957039121035,0.604802515838252,0.23364220814679323,0.0,0.1571826641296656,0.1,0.002783536911010742,0.056824445724487305,0.04952735,0.45096287,0.5889139740346224,0.0,0.005381138166520016,0.0,300,0.01726078987121582,0.6055179404298187,0.28159723943960924,18300,2.695058000444209,0.0
61,1.4588291645050049,1.1809993711662745,0.5282909883514735,1.8096708650947573,0.6543266585038691,0.0,0.15839496191139374,0.1,0.002947568893432617,0.0564875602722168,0.04920061,1.3153247,0.6481225137477876,0.0,0.015719586104066416,0.0,300,0.0172882080078125,0.4866771172727505,0.3819140920960145,18600,2.590027404814996,0.0
62,1.341101884841919,0.7493497341034037,0.5417906284908567,1.6548035650298205,0.24506423442618047,0.0,0.1452585731836941,0.1,0.002966165542602539,0.05744624137878418,0.04962064,2.0972512,0.6582452357833493,0.0,0.009949795347967003,0.0,300,0.016652584075927734,0.3753638356083664,0.41411176232641533,18900,2.66584768982819,0.0
63,1.3843348026275635,0.4712979198286061,0.1505878907128781,0.7021885277367885,0.2817438721113488,0.0,0.16790431194456518,0.1,0.0029375553131103516,0.05817461013793945,0.050089665,0.6233733,0.639550504187875,0.0,0.006234161742858149,0.0,300,0.018706321716308594,0.9482648353378109,0.47773126588153214,19200,1.7755436063749306,0.0
64,1.3633873462677002,0.39190025774662185,0.1964113977406496,0.6600592775172301,0.17071588972324475,0.0,0.1588498076961405,0.1,0.0029120445251464844,0.0552821159362793,0.049823534,0.5333711,0.6147854795437497,0.0,0.005162636169600126,0.0,300,0.01681971549987793,0.8749630037177605,0.30655196912714494,19500,1.7663072933977475,0.0
65,1.379441499710083,0.795232314602228,0.39616810206011344,1.4717332812647412,0.483313274520386,0.0,0.16467730873968747,0.1,0.002942800521850586,0.0582120418548584,0.048719157,1.5007786,0.6328301630495976,0.0,0.010553446466026593,0.0,300,0.017947673797607422,0.3122836969248665,0.3596249564870332,19800,1.742799532128491,0.0
66,1.4041340351104736,1.1969973971550936,0.6925272409082471,2.0479610758382236,0.24697188684074664,0.0,0.1440966059569772,0.1,0.0029168128967285156,0.060712337493896484,0.04821338,1.9854736,0.6892468864601473,0.0,0.01592768313726803,0.0,300,0.019472837448120117,0.5471445351120313,0.4538346741301918,20100,1.8696174334839493,0.0
67,1.390394926071167,1.2034223195388567,0.9334981256138445,2.273382500479177,0.12987471065936101,0.0,0.1562070676505203,0.1,0.0028481483459472656,0.056558847427368164,0.049538244,1.2593426,0.7406644297680183,0.0,0.015883900402986775,0.0,300,0.01684880256652832,0.5543163888711276,0.427725622600894,20400,2.1118150490710947,0.0
68,1.399134635925293,0.6651322055689608,0.5021254763925589,1.4933575141612132,0.2614707592063278,0.0,0.16007628499096196,0.1,0.0028672218322753906,0.05957484245300293,0.049691413,1.1018856,0.7331112073481126,0.0,0.00885559749393736,0.0,300,0.020129919052124023,0.5814646588862667,0.680287158868446,20700,1.330929903537069,0.0
69,1.4139881134033203,0.7693327415734228,0.5567435482090821,1.6776651426282818,0.16846117870453028,0.0,0.17192721001929243,0.1,0.0028760433197021484,0.06039547920227051,0.049617387,0.83989376,0.7367333607706437,0.0,0.010252746133681243,0.0,300,0.018091678619384766,0.5039123161124396,0.3967181382729084,21000,1.1909675475995178,0.0
70,1.416264295578003,0.6630815884468624,0.4994589443740166,1.4890010479657145,0.1572347435064521,0.0,0.15890949317133807,0.1,0.005877017974853516,0.05975914001464844,0.0498599,0.8322444,0.7293681835382655,0.0,0.00877064816442266,0.0,300,0.018103837966918945,0.49625002658276035,0.43873256594839144,21300,1.1845944730173503,0.0
71,1.4008324146270752,0.7931886068783113,0.2578408207929874,1.1201584802066393,0.5365451280819588,0.0,0.15661776241393657,0.1,0.0028870105743408203,0.062287092208862305,0.048910934,2.1023774,0.7357502258722701,0.0,0.010565696102156342,0.0,300,0.018481016159057617,0.3005550003766988,0.2804520755956356,21600,1.6881496143955073,0.0
72,1.4333148002624512,1.1220184753998428,0.3597785948709529,1.7408311519523,0.8720164601709157,0.0,0.170235182608664,0.1,0.0028409957885742188,0.059123992919921875,0.05032653,1.670993,0.7743770508250274,0.0,0.014777894758864369,0.0,300,0.018185853958129883,0.2647471176670414,0.18685247848912734,21900,1.9190725830535384,0.0
73,1.4322326183319092,1.318818288363408,0.512517707417743,1.948627066403675,0.738281588414566,0.0,0.16099633918726758,0.1,0.003108501434326172,0.05862903594970703,0.049764995,1.1119518,0.8288211745788655,0.0,0.017523513498629045,0.0,300,0.01805734634399414,0.3081833416431753,0.19573904227714056,22200,2.4967386485867697,0.0
74,1.4556834697723389,0.7212045747791651,0.5383088667704322,1.414875168905055,0.14181139336392104,0.0,0.15524186754952024,0.1,0.0027861595153808594,0.05740213394165039,0.049491234,1.0851824,0.8180595145988955,0.0,0.009597698203115906,0.0,300,0.017926692962646484,0.6129391332417953,0.5926158976998593,22500,1.0710526461182963,0.0
75,1.431579828262329,0.6720801920010504,0.3626020870437029,1.2223901244993813,0.2644956516087283,0.0,0.1655022526266177,0.1,0.002834320068359375,0.05477261543273926,0.050341986,0.6904385,0.8034615823391109,0.0,0.008614002535935904,0.0,300,0.01664423942565918,0.6209564977207069,0.3327185657587489,22800,1.5522547817475718,0.0
76,1.4612526893615723,0.6703909455109782,0.13406969345213374,0.8342032139690954,0.48456802949744976,0.0,0.16634970049854517,0.1,0.0033416748046875,0.057958126068115234,0.050036266,0.73945487,0.7901545186562976,0.0,0.008830690133944774,0.0,300,0.0181276798248291,0.16525938452073405,0.10645625375215759,23100,1.0320376791395824,0.0
77,1.5515964031219482,1.0852002877344713,0.6276634701246521,1.7489242385199282,0.10760220012098261,0.0,0.1690422858187001,0.1,0.0028836727142333984,0.05722641944885254,0.05008097,0.93764967,0.819659095564115,0.0,0.01443881130954725,0.0,300,0.017573118209838867,0.3854524225248209,0.382627293391365,23400,1.411466603278029,0.0
78,1.3637990951538086,1.0151062728355829,0.6550950838753818,2.117447671047215,0.4988986321574002,0.0,0.15677338187919732,0.1,0.0029985904693603516,0.055628061294555664,0.0496248,2.4277966,0.8392038132912618,0.0,0.013477759187994903,0.0,300,0.017600536346435547,0.4072219245108591,0.3541349661843998,23700,1.169338827088733,0.0
79,1.4296281337738037,1.0667167429988076,0.7099993768576258,2.275002605489214,0.5306836540552274,0.0,0.1599021747508131,0.1,0.002972126007080078,0.05921339988708496,0.049533956,1.4749341,0.8619551062620164,0.0,0.014163669681135783,0.0,300,0.01806497573852539,0.38125618536521183,0.32360959076667556,24000,0.8834985551625859,0.0
80,1.4136252403259277,0.8718815627377999,0.360861463696749,1.2325216950730622,0.35498308483798163,0.0,0.15846011677468833,0.1,0.0029599666595458984,0.05728507041931152,0.04971833,0.89522797,0.8629477519095947,0.0,0.011579295624764084,0.0,300,0.017318010330200195,0.231692814576131,0.23253055271350156,24300,2.0721415460817707,0.0
81,1.391469955444336,1.0833979824756566,0.5956058801845822,2.042075942153243,0.4360969370620157,0.0,0.16075394321012523,0.1,0.002892732620239258,0.05580472946166992,0.04908036,1.2868435,0.884992774966201,0.0,0.01440791367374786,0.0,300,0.01820850372314453,0.2671808955694843,0.2600294921966142,24600,1.7254543529565336,0.0
82,1.3868744373321533,0.6926073914902148,0.21208353807305286,0.9923955308656596,0.4005242134191594,0.0,0.16386543913448487,0.1,0.002910137176513672,0.05840802192687988,0.050252907,0.49774912,0.8657542366186024,0.0,0.00903296299241058,0.0,300,0.01789569854736328,0.3790136509465045,0.22356954642042312,24900,1.3787178508365976,0.0
83,1.4083752632141113,1.1815530374247858,0.3065604647503954,1.5162741797698518,0.7677899610729986,0.0,0.15570648467305365,0.1,0.0028667449951171875,0.058149099349975586,0.04978341,2.0202882,0.8973341166992208,0.0,0.015698196964577714,0.0,300,0.018173694610595703,0.16354443270174535,0.1674777664172959,25200,1.542906451379365,0.0
84,1.4240317344665527,0.9602243860294674,0.4687548949408465,1.6917859388591021,0.5270087120318395,0.0,0.16625844135628204,0.1,0.002965211868286133,0.0596470832824707,0.04933604,1.0527275,0.9036231436322455,0.0,0.012801064559685391,0.0,300,0.0181729793548584,0.2678856700701022,0.22619329865332116,25500,0.5726128970279686,0.0
85,1.429201602935791,1.675127974366386,0.8698808601310902,2.7646881111878288,0.3318234239493589,0.0,0.16418086759603845,0.1,0.0029942989349365234,0.0653080940246582,0.05004272,0.8067445,0.9807736267056596,0.0,0.022142551413578425,0.0,300,0.017694950103759766,0.4119338665351645,0.30610342940280083,25800,0.8429160168084269,0.0
86,1.4180243015289307,0.9596945000630676,0.30871562224203297,1.4553061961403442,0.6241343660213665,0.0,0.1635814368355309,0.1,0.0028312206268310547,0.057865142822265625,0.05007601,1.2022833,0.9786657140414003,0.0,0.012784599654850062,0.0,300,0.020163297653198242,0.31662499085969187,0.32249978827382003,26100,1.1445911049417066,0.0
87,1.4453911781311035,1.0433925946670912,0.5076398266586187,1.5649768094656002,0.21892796182648475,0.0,0.16944580110126398,0.1,0.003248929977416992,0.05885744094848633,0.05043745,0.79751676,0.9851384021039695,0.0,0.013870886136455426,0.0,300,0.017958879470825195,0.3379151004410685,0.254070870318727,26400,0.9113890881121347,0.0
88,1.4522764682769775,0.9720066838552786,0.8319519752084927,2.3670987297464006,0.29956200349904943,0.0,0.14860219038898362,0.1,0.002937793731689453,0.05995297431945801,0.048200477,1.9064333,0.9838252302791005,0.0,0.012916600473991149,0.0,300,0.01807856559753418,0.4796902752062721,0.48628694324567284,26700,0.8599556021789406,0.0
89,1.4943275451660156,1.4772063210149258,0.738562514740532,2.1511565062334914,0.2291463098427412,0.0,0.1660738336671813,0.1,0.0028498172760009766,0.05883002281188965,0.049458057,0.75192034,1.0331633393526831,0.0,0.019640507247870132,0.0,300,0.017043113708496094,0.42385280670128583,0.37818089542933503,27000,0.9305833222194911,0.0
90,1.4877302646636963,0.878020189263653,0.6276201508347912,1.9592856001572956,0.42540648194517533,0.0,0.15607318188514546,0.1,0.0029036998748779297,0.05847358703613281,0.05011644,1.2379593,1.0176490243437801,0.0,0.01169017610152982,0.0,300,0.017711877822875977,0.3648897057260178,0.3765911710013517,27300,0.7956965491322533,0.0
91,1.4619066715240479,0.4672811789989601,0.35798707954354914,1.059309849525516,0.10296802040068345,0.0,0.16688507937476293,0.1,0.0028176307678222656,0.057987213134765625,0.049921416,0.624853,0.9626122398092982,0.0,0.006143620671491935,0.0,300,0.017885208129882812,1.3402234232787438,0.9163387558459868,27600,0.63250344606476,0.0
92,1.5203282833099365,0.8917546691947823,0.7092665083243321,1.9032630098677812,0.07448268368128273,0.0,0.16814277641810402,0.1,0.002879619598388672,0.05642366409301758,0.050266456,0.9873569,0.9555264827478466,0.0,0.011782956599689259,0.0,300,0.016824722290039062,0.44202550574565985,0.45625725288896823,27900,1.429413723301581,0.0
93,1.4865264892578125,0.6639103851700929,0.5567766157353388,1.6196706659857982,0.22413621445425028,0.0,0.14726206006195022,0.1,0.0030777454376220703,0.057514190673828125,0.050316717,3.508844,0.9263648729900713,0.0,0.008718017093668139,0.0,300,0.017106294631958008,0.4454627779578719,0.4267259955821248,28200,1.1580528402422041,0.0
94,1.5006334781646729,1.5129270405769208,0.614195721805751,2.3433498567937567,0.778472219297632,0.0,0.15734843606023602,0.1,0.002829313278198242,0.05856060981750488,0.04965229,2.7714705,0.9850210897487564,0.0,0.02015684517503226,0.0,300,0.01738572120666504,0.4246726117136583,0.3726391949889453,28500,1.0898138261679569,0.0
95,1.443760871887207,0.8373229681936984,0.5410616750271504,1.6127503117919026,0.2214588308171192,0.0,0.16272230951823766,0.1,0.003220081329345703,0.06128430366516113,0.050028924,1.1266091,0.9702512775932506,0.0,0.011109708438799517,0.0,300,0.021487951278686523,0.3355776413648234,0.349323910943567,28800,1.026642019161684,0.0
96,1.4294376373291016,1.687652712009247,0.4702211481021706,2.347616654297881,1.1269535043026417,0.0,0.15785668135523734,0.1,0.0030562877655029297,0.059584617614746094,0.05037314,1.982808,1.0419914210348502,0.0,0.022474604137797657,0.0,300,0.01806330680847168,0.2713092423825243,0.16653682110813378,29100,1.1776399445008183,0.0
97,1.4526464939117432,0.9862998885875875,0.8330793995172552,2.4042799449600003,0.3157295352046008,0.0,0.1578687058446949,0.1,0.0030307769775390625,0.06000661849975586,0.050483003,1.0027071,1.036422267790124,0.0,0.013104900875617689,0.0,300,0.018352031707763672,0.4555828141667321,0.4936743019533232,29400,0.660317469449382,0.0
98,1.4271697998046875,1.2631665857439902,1.002370757832829,2.886668618281898,0.3556262710824644,0.0,0.17095490337279864,0.1,0.003082752227783203,0.059418678283691406,0.049930286,0.6321996,1.0590966995855107,0.0,0.016755865224430733,0.0,300,0.018284320831298828,0.4537062111513931,0.44657577244097,29700,1.3218223668625342,0.0
99,1.453230381011963,1.7317508198251597,0.9019765365068952,3.290439062272027,1.112545367687803,0.0,0.16359551185975418,0.1,0.0028657913208007812,0.058022260665893555,0.05062336,1.6126251,1.1263621116094757,0.0,0.023032694085157155,0.0,300,0.0177152156829834,0.25786799066908966,0.2459010937306993,30000,2.1850886524587128,0.0
100,1.4669342041015625,0.7476594473792488,0.234663726762737,1.0002717380162967,0.4026044230668693,0.0,0.17047467113822568,0.1,0.002862691879272461,0.061260223388671875,0.049487215,0.603364,1.0884918451864531,0.0,0.009798802731071558,0.0,300,0.01802849769592285,0.9149495494968677,0.5243649313090255,30300,0.9258832058708073,0.0
101,1.4993107318878174,0.9490730373282685,0.7294342045095653,1.9275586193742162,0.19482574482407555,0.0,0.16342082584455062,0.1,0.0028803348541259766,0.058626413345336914,0.05023469,0.569919,1.0745499644006347,0.0,0.012560158791120065,0.0,300,0.01892685890197754,0.5027024303480222,0.4520916154803637,30600,0.5772144251935243,0.0
102,1.4631483554840088,1.3090336748035085,0.7600766788985299,2.259310400614655,0.4725083409369803,0.0,0.16676569525570753,0.1,0.003039121627807617,0.05855512619018555,0.05032206,1.0832359,1.0979983354409222,0.0,0.0174154230978764,0.0,300,0.019598722457885742,0.32208983866140867,0.34170170051838195,30900,0.6559619721499316,0.0
103,1.4436590671539307,1.0256081472283873,0.6947419441835402,2.1697325714548983,0.41721798687703987,0.0,0.1652550090500626,0.1,0.0030815601348876953,0.05886697769165039,0.049540773,1.1322758,1.0907593166196687,0.0,0.013414210735738296,0.0,300,0.018448352813720703,0.4136950508864165,0.37817762643604896,31200,0.8489714092797099,0.0
104,1.465843915939331,0.6908998383155388,0.4156201308503665,1.3931862765775143,0.3207149454243451,0.0,0.17409132977542005,0.1,0.0029358863830566406,0.05919241905212402,0.04996717,1.087088,1.0507733687892558,0.0,0.00917608804709864,0.0,300,0.0183870792388916,0.3985395197582869,0.40222688713729765,31500,1.5527604332961993,0.0
105,1.4659907817840576,1.2402908069624976,0.3730749227151685,1.6922496435562324,0.7903513762159695,0.0,0.1748699241645302,0.1,0.0029287338256835938,0.05806899070739746,0.05051639,0.73654854,1.06972511260658,0.0,0.016493670981920984,0.0,300,0.017992496490478516,0.19029368070639757,0.17529483888538477,31800,2.2018161542457015,0.0
106,1.4270684719085693,1.548080455070716,0.7536893783497686,2.55503017937604,0.7498559117729499,0.0,0.15920418020822152,0.1,0.0029137134552001953,0.057608842849731445,0.049901873,1.3124107,1.1175606468529937,0.0,0.020477677237415448,0.0,300,0.017101049423217773,0.36012706085233154,0.307581943320388,32100,1.0636083875745606,0.0
107,1.5596964359283447,1.9671059916688487,0.3198586700235303,2.471180222994808,1.627625157001389,0.0,0.1697550716798369,0.1,0.003052949905395508,0.05915999412536621,0.049861725,0.9146838,1.2025151813345794,0.0,0.02618990177018022,0.0,300,0.023892879486083984,0.2089742580940558,0.09658361240541623,32400,0.6712056329686836,0.0
108,1.5003862380981445,0.9164427703109821,0.2916761963325938,1.195195769765015,0.5040919567889578,0.0,0.16328651113601253,0.1,0.0031714439392089844,0.059412479400634766,0.049359526,0.78787035,1.1739079402322197,0.0,0.012138612625877593,0.0,300,0.019986391067504883,0.6820621678969981,0.5114083179966921,32700,0.6258865375645914,0.0
109,1.4805011749267578,0.5317510457475654,0.21645687366896957,0.7939962400664117,0.19560299485829147,0.0,0.1633002661734537,0.1,0.002872467041015625,0.05845141410827637,0.05031804,0.62358767,1.1096922507837543,0.0,0.007082755925138211,0.0,300,0.018243789672851562,3.127851838344459,0.6284030205944225,33000,1.3379121428326395,0.0
110,1.4954304695129395,1.0890728854145413,0.6343443619450094,2.072533951061384,0.3009500796594106,0.0,0.1467203056855023,0.1,0.0028753280639648438,0.06365251541137695,0.0491923,1.3731326,1.1076303142468331,0.0,0.014484122959521475,0.0,300,0.01796722412109375,0.2777436459751133,0.37758323025160107,33300,1.1722307348875631,0.0
111,1.4418423175811768,1.081743330714644,0.5484304571371342,1.8654612873269951,0.31719590737995007,0.0,0.1491868343784063,0.1,0.0032722949981689453,0.05942511558532715,0.049573585,1.3337721,1.1050416158936143,0.0,0.014243677838564294,0.0,300,0.02232813835144043,0.4058958959233216,0.3005681512266546,33600,0.8671082989399329,0.0
112,1.4025006294250488,0.8217046828655583,0.18059109724644912,1.057938595899404,0.6032996810374315,0.0,0.16186286605725556,0.1,0.003208637237548828,0.0574946403503418,0.04923718,0.8518661,1.0767079225908087,0.0,0.010849497694287816,0.0,300,0.017865657806396484,0.08139490169832926,0.08409435987733695,33900,2.804512650839378,0.0
113,1.4487957954406738,0.9351337544726411,0.857020032692299,2.4089561945620854,0.2808238950358027,0.0,0.16883444872032632,0.1,0.003039836883544922,0.05972409248352051,0.04983214,1.2180023,1.062550505778992,0.0,0.012406550538824461,0.0,300,0.018337011337280273,0.4594640159448478,0.46116223483077834,34200,2.3833993251846306,0.0
114,1.483945369720459,1.2035476254527637,0.5055530145746173,1.8951426899185204,0.7010721872715826,0.0,0.1577305992351314,0.1,0.0029120445251464844,0.0606379508972168,0.050475776,0.8673038,1.076650217746369,0.0,0.01591419175351736,0.0,300,0.018465042114257812,0.22713957379760097,0.1934249952403514,34500,1.928826593089222,0.0
115,1.4691162109375,1.0536969334607804,0.4638107738517071,1.7434975707479363,0.6260493371498711,0.0,0.15165681176021895,0.1,0.0029153823852539062,0.05708813667297363,0.050729517,4.7138844,1.07435488931781,0.0,0.014002502503212551,0.0,300,0.019016265869140625,0.2040816574347126,0.2032914037540637,34800,2.05471108515614,0.0
116,1.51302170753479,1.7287003878407,0.75794687368849,2.499257391815501,0.4740790330372481,0.0,0.15526236985607458,0.1,0.0030455589294433594,0.05897235870361328,0.049903374,0.98230064,1.1397894391700991,0.0,0.022982120499287773,0.0,300,0.017900705337524414,0.309806616347983,0.2378128664767947,35100,2.727197154764078,0.0
117,1.497481107711792,1.2487876360929513,0.7600640990767883,2.4526731612141446,0.41612744072850366,0.0,0.1610328751284167,0.1,0.002860546112060547,0.05811429023742676,0.049914524,1.1277187,1.1506892588623845,0.0,0.016615318449929407,0.0,300,0.017651081085205078,0.35180145595457607,0.37011766844391913,35400,2.6049580727133055,0.0
118,1.4728751182556152,1.5232839922854218,0.7083673441366594,2.4782156765749837,0.4827440269593154,0.0,0.16450195061149814,0.1,0.0029489994049072266,0.0556187629699707,0.04967673,0.7267369,1.1879487322046882,0.0,0.020228162111183452,0.0,300,0.01686716079711914,0.1933297545376034,0.19245666871282238,35700,2.8537199411147216,0.0
119,1.4924306869506836,1.4978413235369923,0.800459409436676,2.495390646289069,0.3446373245234665,0.0,0.1558258316041454,0.1,0.004769563674926758,0.05820131301879883,0.049382843,1.142814,1.2189379913379186,0.0,0.01980270142114378,0.0,300,0.018027305603027344,0.24415373066467866,0.23985810992530543,36000,2.7649115827719117,0.0
120,1.5313129425048828,1.2540955221222303,0.5748118370483174,1.9358554267205588,0.4655215995816722,0.0,0.16416797537378763,0.1,0.0030341148376464844,0.06014561653137207,0.049993273,0.6718518,1.2224537444163497,0.0,0.016477923460576565,0.0,300,0.01780533790588379,0.20796924486432583,0.19977840153414156,36300,2.802741112092195,0.0
121,1.5121629238128662,1.2936472911116097,0.6874094945155648,2.3286352979828555,0.4757980724980355,0.0,0.1557634432297859,0.1,0.002845287322998047,0.05486297607421875,0.049430285,0.7859755,1.2295730990858758,0.0,0.017218896786954943,0.0,300,0.016906023025512695,0.23593960914351672,0.22621938955328993,36600,2.9314495840503842,0.0
122,1.536961317062378,1.5024139221257653,0.8245638666484254,2.332279419633529,0.1362066850064481,0.0,0.1536262886674254,0.1,0.0030159950256347656,0.05894875526428223,0.04931864,0.50947154,1.2568571813898648,0.0,0.019928111868713752,0.0,300,0.018643617630004883,0.26475781667719156,0.2597188748992252,36900,3.1451150335751756,0.0
123,1.5208001136779785,1.1774531916372148,0.5345826574027303,1.6579198955725711,0.27125808797245926,0.0,0.14490971248281062,0.1,0.0029001235961914062,0.05752062797546387,0.0498557,0.4988181,1.2489167824145997,0.0,0.01536940396861472,0.0,300,0.01793837547302246,0.25034940876247763,0.22787732310022973,37200,3.8868228866445467,0.0
124,1.4942140579223633,0.5919527420799262,0.15529224860044577,0.7520373811157678,0.3440364410840891,0.0,0.1547648285705265,0.1,0.0028960704803466797,0.056708335876464844,0.05012628,0.50793934,1.1832203783811324,0.0,0.007747186009145344,0.0,300,0.018995046615600586,1.403950049512283,0.4203867518592989,37500,3.8365557858310546,0.0
125,1.5417473316192627,1.5639463884666571,0.4425494587927074,2.021377088845134,1.1137753936201216,0.0,0.16122353657614444,0.1,0.002908468246459961,0.05730462074279785,0.05004197,1.0526563,1.221292979389685,0.0,0.020820805808874968,0.0,300,0.017392873764038086,0.23381851123423827,0.26079310615101037,37800,3.6252081131182528,0.0
126,1.6749317646026611,0.9383336846880964,0.4475952425241024,1.4641435053614136,0.22956349972998433,0.0,0.15642130808266663,0.1,0.002803802490234375,0.05694079399108887,0.05019289,0.8112982,1.1929970499195262,0.0,0.012420357398547974,0.0,300,0.01842498779296875,0.23366084667187603,0.2245381569281905,38100,3.075202166288996,0.0
127,1.4251935482025146,1.3705995526556802,0.7083091063818991,2.3408971190616827,0.5678746431642469,0.0,0.16173874830497872,0.1,0.0030295848846435547,0.060126543045043945,0.049500648,1.4528192,1.2107573001931415,0.0,0.01825862696830917,0.0,300,0.0182187557220459,0.297731240974282,0.26029176111472674,38400,3.616977212007186,0.0
128,1.4896471500396729,1.5454091217403099,0.7569619947809805,2.277462836272571,0.4289556278738992,0.0,0.1643886321249963,0.1,0.0030405521392822266,0.05833935737609863,0.049564973,0.9153314,1.2442224823478583,0.0,0.02051523365290612,0.0,300,0.01776909828186035,0.2861591036780382,0.2448259993720873,38700,3.5055602983846037,0.0
129,1.5167484283447266,1.2359680401636453,1.2728290900118175,3.4305974257089584,0.3271600889094527,0.0,0.150858474532711,0.1,0.0029489994049072266,0.05875825881958008,0.050192032,1.4633836,1.2433970381294368,0.0,0.016406606072167443,0.0,300,0.019098281860351562,0.5155868618078892,0.5221667600669758,39000,3.205176613907364,0.0
130,1.4423539638519287,1.0585018409005593,0.44276403294614924,1.756082434465102,0.5650706204537852,0.0,0.1553784349178867,0.1,0.0029947757720947266,0.0557708740234375,0.04881926,1.115965,1.224907518406549,0.0,0.01407304611270149,0.0,300,0.016899585723876953,0.32666821128121126,0.2058756239461829,39300,2.989351152751407,0.0
131,1.4863619804382324,1.569189112529429,0.7770102997120435,2.416505916659944,0.3353237641352483,0.0,0.17015991339762926,0.1,0.003057718276977539,0.059018611907958984,0.050703913,0.7012604,1.2593356778188372,0.0,0.020804819779429773,0.0,300,0.018892526626586914,0.23086828799540013,0.24065098507308083,39600,3.1052631818435112,0.0
132,1.482811450958252,1.4078146310361217,0.5958718713786971,2.2821698271145405,0.5994043585153181,0.0,0.151730547191203,0.1,0.0029382705688476562,0.057817697525024414,0.049802672,1.1455475,1.2741835731405657,0.0,0.018701405898447657,0.0,300,0.017805814743041992,0.19771148750119788,0.18594192906961757,39900,3.337405494067854,0.0
133,1.455204963684082,1.7893865612954798,1.3750409381173692,4.066310716193692,0.5965646501169374,0.0,0.15443615705829253,0.1,0.002752542495727539,0.05520987510681152,0.04980619,1.5976394,1.3257038719560572,0.0,0.023799767993294117,0.0,300,0.016599178314208984,0.476168736055838,0.4234961176475981,40200,5.009643080152905,0.0
134,1.512305498123169,1.287977778212599,0.6154636822061802,2.201635844223281,0.46886498729609805,0.0,0.1564212715831028,0.1,0.002960205078125,0.057926177978515625,0.04971319,0.8497781,1.3219312625817115,0.0,0.017117114778807486,0.0,300,0.01807117462158203,0.23602950987592836,0.26586370684273664,40500,5.006841948488989,0.0
135,1.5319180488586426,1.3246010511389197,1.2441641609636953,3.3369321249239654,0.14241944034307694,0.0,0.1654940768583468,0.1,0.0028634071350097656,0.05834245681762695,0.04994492,0.902944,1.3221982414374325,0.0,0.017600173671571268,0.0,300,0.017546653747558594,0.5103442547978669,0.4981034350524845,40800,5.502599995551258,0.0
136,1.5440399646759033,2.3890096051829586,0.7567488036818598,3.326149836680918,1.2734228874828724,0.0,0.1633132510034003,0.1,0.0027892589569091797,0.0555577278137207,0.04894167,0.9603227,1.4288793778119853,0.0,0.031795121747643804,0.0,300,0.016521215438842773,0.2382984300635662,0.1667612433077977,41100,3.0273644971083478,0.0
137,1.571993350982666,1.719118177598872,0.7024816969362623,2.92294703230565,1.2161001697470972,0.0,0.1617547241831282,0.1,0.0028731822967529297,0.060176849365234375,0.05033542,1.2688733,1.457903257790674,0.0,0.022870670260761936,0.0,300,0.017325162887573242,0.2199336718622475,0.21232618225252936,41400,3.409353775618348,0.0
138,1.5074577331542969,1.7324073276902832,0.6495565345809999,2.6774266938431093,0.8764912604860193,0.0,0.1619012700971513,0.1,0.0029630661010742188,0.05816221237182617,0.05046604,0.83745044,1.4853536647806351,0.0,0.02285085566593857,0.0,300,0.018242359161376953,0.17994220307008527,0.15510732818913037,41700,3.3678662817723275,0.0
139,1.5000810623168945,2.294261217123571,0.6300840744678572,2.83404124811338,1.2202001193303742,0.0,0.1746859432879897,0.1,0.0027425289154052734,0.05519556999206543,0.04962233,1.0458544,1.5662444200149288,0.0,0.03053834253418635,0.0,300,0.016883373260498047,0.22589265835037378,0.15151877514477136,42000,2.703510268759952,0.0
140,1.5459296703338623,1.9278577765016842,1.036893667286189,3.549510928773356,0.7346554014688494,0.0,0.16513954845154266,0.1,0.0028684139251708984,0.057558298110961914,0.04994087,0.96872556,1.6024057556636044,0.0,0.025518391452855494,0.0,300,0.017556190490722656,0.25615363288422965,0.27567289701813175,42300,2.3090449259672927,0.0
141,1.5318808555603027,0.9935484316862662,0.2566393802876688,1.30093773125277,0.61059123701667,0.0,0.15829171322934005,0.1,0.0027379989624023438,0.05665993690490723,0.04989565,0.53500426,1.5415200232658706,0.0,0.01312687303521144,0.0,300,0.01715826988220215,1.293874903618784,0.4236194027789721,42600,2.101176316906514,0.0
142,1.469926357269287,1.8570795398000988,0.5952829734675953,2.5713579781305267,1.148287895078217,0.0,0.16505568460422507,0.1,0.002941608428955078,0.05659294128417969,0.050375056,0.88197166,1.5730759749192935,0.0,0.024559049268301547,0.0,300,0.017022132873535156,0.16455574756606176,0.22413757979315696,42900,1.5732299212106848,0.0
143,1.4766099452972412,1.789414673489914,1.3121244097283575,3.9258327814043574,0.4172815493122992,0.0,0.17435819855791732,0.1,0.0029709339141845703,0.06100058555603027,0.049694743,1.0702708,1.5947098447763555,0.0,0.023791850464875013,0.0,300,0.018947839736938477,0.4940983236211686,0.4689060512347046,43200,1.7533139457539102,0.0
144,1.5683400630950928,1.7913539191441956,1.444805232034623,4.169240266157277,0.4867507758035273,0.0,0.1484411188164369,0.1,0.0029006004333496094,0.05853867530822754,0.049062893,2.8980324,1.6143742522131397,0.0,0.023840219196372026,0.0,300,0.01867532730102539,0.44219231918572544,0.4135502151021863,43500,1.5592011822683183,0.0
145,1.4813165664672852,1.654952546809163,0.691433919347879,2.7186170328847408,0.9672886022748772,0.0,0.15846715612947124,0.1,0.0028624534606933594,0.05546879768371582,0.049192462,2.262261,1.618432081672742,0.0,0.02188009112144719,0.0,300,0.017146587371826172,0.17812841691413295,0.1807853887312589,43800,1.2831979333450023,0.0
146,1.4822170734405518,1.5544081606065299,1.1146707916639942,3.253738032767947,0.29379042498120167,0.0,0.16158293569416635,0.1,0.0029115676879882812,0.05860018730163574,0.04956644,0.92526704,1.6120296895661208,0.0,0.020369133534726008,0.0,300,0.017762184143066406,0.33184280468464206,0.33074304044346314,44100,1.2805313320523948,0.0
147,1.4742019176483154,0.6275509561082729,0.16804518068941027,0.8457333793122433,0.39716892763575284,0.0,0.16293034835232809,0.1,0.002904176712036133,0.060788631439208984,0.050238404,0.5488147,1.513581816220336,0.0,0.008271664929038369,0.0,300,0.01764082908630371,3.417095992311632,1.6888174404011083,44400,1.2025457478799313,0.0
148,1.4956259727478027,1.3384900119050263,1.1792515441177895,2.9564211324286123,0.12331045248775335,0.0,0.1615093237294255,0.1,0.0028655529022216797,0.057065725326538086,0.05017947,0.9821295,1.4960726357888052,0.0,0.017797062834861384,0.0,300,0.017627954483032227,0.46907820597915073,0.4702215315999857,44700,0.8635713020956538,0.0
149,1.5472090244293213,2.2206025171043065,0.6014170427128689,3.116488024064671,1.4725287063135073,0.0,0.16777791473586465,0.1,0.0028693675994873047,0.06002330780029297,0.049980816,0.80793107,1.5685256239203553,0.0,0.029380126062034953,0.0,300,0.01943516731262207,0.3290543267315353,0.3033260909859336,45000,1.2133882663378337,0.0
150,1.5931427478790283,1.9047224671777603,0.4178870768152723,2.596847608347807,1.4749964626897782,0.0,0.15900450990813905,0.1,0.002863645553588867,0.060501813888549805,0.04994782,1.1686944,1.6021453082460957,0.0,0.025353680707782468,0.0,300,0.017566204071044922,0.22067278608243998,0.1489774215601275,45300,1.9484306469945836,0.0
151,1.5707664489746094,1.9902678148188018,0.8801784685919958,3.366976581821086,1.1767317395612276,0.0,0.15449629529250342,0.1,0.002809286117553711,0.05671381950378418,0.049701396,1.5964068,1.6409575589033665,0.0,0.026507528346862076,0.0,300,0.017071008682250977,0.23849209811057265,0.20259534355058537,45600,1.449357244940184,0.0
152,1.5505950450897217,1.7241366395098456,1.351883051278907,3.2692494761954305,0.35814836480400347,0.0,0.15931115870349616,0.1,0.002995729446411133,0.059126853942871094,0.050007448,0.86145425,1.6492754669640144,0.0,0.02283911173422501,0.0,300,0.01906108856201172,0.3969397538082045,0.40102987881012775,45900,1.3327669216083817,0.0
153,1.5087413787841797,1.4429638170111068,1.0836503224614573,2.9858441739412425,0.3941580571069101,0.0,0.16855924830670316,0.1,0.0028820037841796875,0.058125972747802734,0.049963508,0.7278319,1.6286443019687238,0.0,0.01919552779200126,0.0,300,0.01740860939025879,0.532482197470988,0.4873781948725825,46200,1.5847977671947462,0.0
154,1.5325074195861816,1.6151047272016412,0.5440614369380372,2.3923161457751205,0.8551844337828821,0.0,0.15100287050044148,0.1,0.0028412342071533203,0.05575108528137207,0.050097454,1.2332627,1.6272903444920157,0.0,0.021509707134698526,0.0,300,0.01699209213256836,0.2349163416459936,0.15710408982362423,46500,1.8305447059499533,0.0
155,1.559709072113037,1.7280220099966548,0.8404819990565797,2.452808744716014,0.2962101195889397,0.0,0.1562101847398906,0.1,0.002841949462890625,0.058061838150024414,0.049492333,0.58690685,1.6373635110424796,0.0,0.022864116449301017,0.0,300,0.017695188522338867,0.21815945975972187,0.23098367228715824,46800,2.424265008867937,0.0
156,1.9459872245788574,1.8462953744673163,0.6263045890476816,2.7954416916391325,1.034752028277794,0.0,0.15593547212420517,0.1,0.0029976367950439453,0.05986475944519043,0.04970034,1.237416,1.6582566973849633,0.0,0.02456039731465104,0.0,300,0.018018245697021484,0.16575313391977997,0.1482549604684079,47100,1.4370764990744742,0.0
157,1.49965238571167,1.7057592843912042,1.1566521559849179,3.5746867663338935,0.6686956189981426,0.0,0.1577823818470548,0.1,0.0029850006103515625,0.06072568893432617,0.049676076,1.4127424,1.6630069560855874,0.0,0.022692666329221994,0.0,300,0.018164396286010742,0.3330987960674914,0.33099705377397953,47400,1.61975492249437,0.0
158,1.5333924293518066,1.8514523839173584,0.9536004889516709,3.414458461754874,0.9186203562705076,0.0,0.1665344378621978,0.1,0.002947568893432617,0.05962872505187988,0.049831662,1.0597684,1.6818514988687645,0.0,0.02464816605492049,0.0,300,0.04709792137145996,0.24241075809796075,0.2305843930154847,47700,2.1603504989348896,0.0
159,1.5083940029144287,0.9799630941692168,0.33003015576950195,1.5396375852568105,0.7182764783581777,0.0,0.17108744735604048,0.1,0.002855062484741211,0.06270623207092285,0.050102286,0.57013446,1.6116626583988096,0.0,0.012722475439966775,0.0,300,0.01903510093688965,0.8005229721017711,0.5783787876669727,48000,2.196183525793043,0.0
160,1.501180648803711,2.422628785234076,1.18629816459881,3.963623886041737,1.1021776541873374,0.0,0.15529943379416572,0.1,0.0029494762420654297,0.0594182014465332,0.050249614,1.1047567,1.6927592710823363,0.0,0.03223862281430901,0.0,300,0.019468069076538086,0.32077796353473487,0.3133468272580771,48300,1.8793120634930538,0.0
161,1.535834550857544,1.8134424168983632,0.7252404214141338,2.7835070345235713,0.7513446535532466,0.0,0.15937661631276054,0.1,0.002965211868286133,0.05925297737121582,0.049747337,0.92928314,1.704827585663939,0.0,0.02412078367679319,0.0,300,0.017744779586791992,0.16097498262198282,0.15601915431030663,48600,1.2539967216022332,0.0
162,1.5759589672088623,1.4042052372147542,0.15577723769876403,1.6185318847928394,1.2513062314490655,0.0,0.16243465475008517,0.1,0.002902984619140625,0.05831575393676758,0.049948644,0.5493909,1.6747653508190206,0.0,0.018642342227488905,0.0,300,0.017414331436157227,0.1726700013485327,0.13441039911600483,48900,1.5685703000651927,0.0
163,1.558997631072998,1.8518011811127795,0.7940731052827058,2.7856723191954202,0.7771020532659487,0.0,0.1640114855888618,0.1,0.002984762191772461,0.05870318412780762,0.05080378,0.6983125,1.6924689338483965,0.0,0.024437456923547058,0.0,300,0.016062498092651367,0.20317596144881614,0.20242403307163243,49200,1.7782390071243919,0.0
164,1.6231226921081543,2.5272172418905656,1.3472986048254603,3.6251739027935757,0.30703324772993473,0.0,0.16131244341292938,0.1,0.002887248992919922,0.05914807319641113,0.049703054,0.7278433,1.7759437646526135,0.0,0.03355391394853418,0.0,300,0.019955873489379883,0.3434139152330663,0.31060950317615044,49500,1.5801939371115596,0.0
165,1.6229679584503174,1.637084245021962,1.4117741733624962,3.9226974963152412,0.4424135778604087,0.0,0.16032680911626024,0.1,0.0029020309448242188,0.06066489219665527,0.049900103,0.996215,1.7620578126895485,0.0,0.021480505862331335,0.0,300,0.01643848419189453,0.4461568469393927,0.455668982340717,49800,3.5598448021478735,0.0
166,1.559603214263916,2.085820031748162,0.5094532876569154,2.90504763066314,1.557416797585078,0.0,0.15941166918428076,0.1,0.002960681915283203,0.06158566474914551,0.050251104,1.1115754,1.79443403459541,0.0,0.027737250917922066,0.0,300,0.01803731918334961,0.06067823925827089,0.057637543797190986,50100,1.1366433602946293,0.0
167,1.5710666179656982,1.5995794890659085,0.61313709303092,2.433556454290632,0.9242510787628324,0.0,0.16594187998387244,0.1,0.0029227733612060547,0.05969953536987305,0.049920462,0.6273439,1.77494858004246,0.0,0.021108963258053035,0.0,300,0.018166065216064453,0.19279482241962947,0.1740354427478428,50400,2.0600695312923194,0.0
168,1.5885980129241943,2.2031270729825554,0.45294377994451335,2.8946455909873787,1.6331572886489178,0.0,0.16449461195815246,0.1,0.002854585647583008,0.05917024612426758,0.04935875,1.0090356,1.8177664293364697,0.0,0.029033888840141804,0.0,300,0.01816248893737793,0.09852728727291697,0.09446398018378646,50700,3.864135880156019,0.0
169,1.6267683506011963,2.0985393504889673,1.1486837807918064,3.4941686741654423,0.31491317879516884,0.0,0.1566666685923824,0.1,0.0029592514038085938,0.05949115753173828,0.049941838,0.8202081,1.8458437214517196,0.0,0.027870613811621835,0.0,300,0.018241405487060547,0.27038076639553127,0.267768179347256,51000,2.5729636503806037,0.0
170,1.5482418537139893,1.7888829142628682,0.9402861181343529,2.7589994901153942,0.8148331550347757,0.0,0.16193866367094623,0.1,0.002942323684692383,0.05817556381225586,0.04974587,0.91454417,1.8401476407328345,0.0,0.02383612093785656,0.0,300,0.0178225040435791,0.239041863141442,0.22696726100286757,51300,3.1873634714384687,0.0
171,1.653947114944458,1.9809314759216732,1.1587844339838047,3.9281974456215276,1.0685138499171571,0.0,0.15682851246094104,0.1,0.0032308101654052734,0.05803060531616211,0.0494625,0.9626393,1.8542260242517186,0.0,0.026318125222990537,0.0,300,0.01798415184020996,0.2453497386630109,0.24557142970042542,51600,3.143118479702132,0.0
172,1.5964605808258057,1.0143086471074858,0.5029018353884411,1.6604634541483234,0.27999575405456006,0.0,0.1720079257628679,0.1,0.002901792526245117,0.05966949462890625,0.05019168,0.44996879,1.7702342865372955,0.0,0.01337079908320708,0.0,300,0.018419504165649414,1.0000684638503081,0.4521390662981866,51900,1.3309979068407343,0.0
173,1.4954736232757568,1.7951536176643539,0.8304734107364146,2.4549107782990243,0.4136627072974797,0.0,0.1601015761389248,0.1,0.0031175613403320312,0.06063961982727051,0.049563702,0.79760236,1.7727262196500013,0.0,0.023881622845979757,0.0,300,0.02083301544189453,0.20249503951988498,0.24814385138954326,52200,1.7257873081049269,0.0
174,1.5830516815185547,2.1285667755509565,0.8048972389237036,3.2875383975340866,1.0332517035617281,0.0,0.15184971627014274,0.1,0.003093242645263672,0.06129789352416992,0.04994968,2.2269275,1.808310275240097,0.0,0.02825564527316319,0.0,300,0.018301963806152344,0.30224522110126983,0.2263841596622416,52500,3.102349423112266,0.0
175,1.5438973903656006,1.8185996673697014,0.9095077639412039,3.0990044228285014,0.9470962006547203,0.0,0.15455873089558556,0.1,0.003064393997192383,0.0624849796295166,0.04984887,1.0340798,1.8093392144530576,0.0,0.02410261761920096,0.0,300,0.018861055374145508,0.31430467124106504,0.28567285256942054,52800,4.304213325235013,0.0
176,1.5652081966400146,2.538581167015695,0.709447273029939,3.6421256801702726,1.666096150756554,0.0,0.1633659073806261,0.1,0.0030336380004882812,0.06064128875732422,0.04959392,1.0767584,1.8822634097093214,0.0,0.033830213499935494,0.0,300,0.018195629119873047,0.17519942968694704,0.1332590132752273,53100,2.8095434355033544,0.0
177,1.5597867965698242,1.5682943957165842,0.6141608432636185,2.5922767424911557,0.9940166827207746,0.0,0.1574909791087253,0.1,0.0028924942016601562,0.05771780014038086,0.049987234,0.67652494,1.8508665083100477,0.0,0.020852969066173527,0.0,300,0.01689910888671875,0.4290143826279268,0.22226151024492916,53400,4.056908480607183,0.0
178,1.57012939453125,1.902789898922949,1.1547213693986333,3.681516437868953,0.5937300005687334,0.0,0.15802706232367691,0.1,0.003050088882446289,0.06006360054016113,0.049952056,0.8824751,1.856058847371338,0.0,0.02531429772664266,0.0,300,0.01787090301513672,0.30887962776433464,0.31050591771397673,53700,3.502954146344108,0.0
179,1.5519499778747559,2.5436153991725368,0.949579619059008,3.7172240098771754,1.3288530863463774,0.0,0.15302716482260792,0.1,0.0030202865600585938,0.06148695945739746,0.049565278,1.2688738,1.9248145025514578,0.0,0.0338156645378575,0.0,300,0.018633127212524414,0.21434161418454226,0.18860205472976102,54000,3.464783339247035,0.0
180,1.5761101245880127,1.4293102440268042,0.8554011817722065,2.543219649888969,0.15734851734666083,0.0,0.15526850963772096,0.1,0.003050088882446289,0.05919694900512695,0.05081438,0.5609502,1.8752640766989925,0.0,0.018994835685320198,0.0,300,0.02100086212158203,0.32531413974897033,0.34969271067973107,54300,2.8112916490470643,0.0
181,1.5839598178863525,1.7996324716745382,0.861910553196374,2.920330131060335,0.893769392368516,0.0,0.15917575886020371,0.1,0.002956867218017578,0.05976104736328125,0.049928088,0.62816375,1.8677009161965472,0.0,0.023946999009340927,0.0,300,0.018010616302490234,0.2110925079246975,0.20638934421702523,54600,3.1691501279474537,0.0
182,1.5353903770446777,2.576483117899051,1.7022409448753708,5.199377456997684,0.6944368920435243,0.0,0.16928362056039084,0.1,0.0028753280639648438,0.058539390563964844,0.049884196,0.97726685,1.9385791363667977,0.0,0.034193244731599286,0.0,300,0.018873214721679688,0.37632482338927004,0.32444001538061007,54900,3.5045542122006856,0.0
183,1.5097718238830566,1.4907005907079554,1.1900172250552654,3.4728247089531665,0.5074244623496281,0.0,0.15323485690502253,0.1,0.0028638839721679688,0.05644369125366211,0.04903614,1.2146739,1.8937912818009135,0.0,0.01974665437328796,0.0,300,0.01679205894470215,0.5310445914508541,0.5368547154110169,55200,2.8811612017384323,0.0
184,1.562495231628418,2.125973860198849,0.6669630927797546,3.144584343596465,1.3237403436094002,0.0,0.1695857867852525,0.1,0.003036022186279297,0.06088709831237793,0.04976117,0.8354542,1.917009539640707,0.0,0.028251994287284588,0.0,300,0.018250465393066406,0.1477870324191709,0.14021858764292827,55500,4.20784455602663,0.0
185,1.6216967105865479,3.549987883938673,3.81720483243278,10.142940252033574,1.0767471927894103,0.0,0.14279042408258805,0.1,0.00299072265625,0.05888867378234863,0.04900318,2.9489417,2.080307374070504,0.0,0.04723351640146598,0.0,300,0.01977252960205078,0.6507050019138285,0.6098597473761724,55800,4.283706226362818,0.0
186,1.5657286643981934,3.403186210747549,1.3925567857961159,5.192981844749544,1.3244797896363474,0.0,0.16034795305047836,0.1,0.002841472625732422,0.0560147762298584,0.05004173,0.7176748,2.2125952577382084,0.0,0.045151111791763995,0.0,300,0.017180681228637695,0.24654839659802966,0.1582548693771456,56100,3.947023996250854,0.0
187,1.6403396129608154,1.569167513263007,1.1616224435433766,3.0928537096874886,0.39600608816807703,0.0,0.16559856168901774,0.1,0.002940654754638672,0.05958199501037598,0.050361536,0.61261016,2.148252483290688,0.0,0.020909796061545367,0.0,300,0.021755456924438477,1.4645910225823648,0.7431971071219917,56400,5.889903243533715,0.0
188,1.5746042728424072,2.321939087346583,0.9437160064717091,3.603829298302445,1.0469644360677552,0.0,0.15714480012348847,0.1,0.0029196739196777344,0.061452388763427734,0.049995665,0.78324974,2.165621143696278,0.0,0.030919515643289028,0.0,300,0.020342350006103516,0.19874869629413353,0.20320384990619117,56700,5.922616332628427,0.0
189,1.5387213230133057,2.372777062640496,1.6429958210083295,5.0270064890061645,0.5405096761024467,0.0,0.16012208783865647,0.1,0.0028853416442871094,0.05485391616821289,0.04990243,0.9332079,2.1863367355906997,0.0,0.03148938950365694,0.0,300,0.017799854278564453,0.3975902371795445,0.4003403896097489,57000,3.019545930338321,0.0
190,1.5921924114227295,1.2632403245745347,0.9426801837171533,2.730553994487902,0.27559964561019895,0.0,0.15540767084918047,0.1,0.0029397010803222656,0.05940818786621094,0.050106876,0.6487318,2.0940270944890833,0.0,0.016799579977717628,0.0,300,0.018096208572387695,0.6599497278612232,0.5956671009246891,57300,4.873084238064252,0.0
191,1.6096012592315674,1.1674471983833101,0.8025139036504582,2.5350396668086246,0.48538509519483103,0.0,0.15652688039295592,0.1,0.004546403884887695,0.058789968490600586,0.050088793,0.8185243,2.001369104878506,0.0,0.015536802448509766,0.0,300,0.01759958267211914,0.538555684870789,0.4042078582960481,57600,3.264842438976954,0.0
192,1.6167891025543213,1.1161575697881356,0.6046779757042046,1.8933858096171812,0.19552351626619285,0.0,0.15840679710313993,0.1,0.003323078155517578,0.0586700439453125,0.04947502,0.64514345,1.912847951369469,0.0,0.014864299148302635,0.0,300,0.019113779067993164,0.4632558904394564,0.3044245084298506,57900,4.052090778893664,0.0
193,1.5284273624420166,1.7270593554020768,1.366315044037826,3.461752553119451,0.2893616537651106,0.0,0.1627608404033109,0.1,0.0030252933502197266,0.05944633483886719,0.04970199,0.8475709,1.8942690917727296,0.0,0.023004010828842406,0.0,300,0.020016193389892578,0.506795075804063,0.5078702200167342,58200,3.2409065062778875,0.0
194,1.570098638534546,2.80102385922405,1.2808914820219253,4.744846638888921,1.1452951864818448,0.0,0.17339409481617793,0.1,0.0029010772705078125,0.05823874473571777,0.050839145,1.0226166,1.9849445685178617,0.0,0.03703816204924175,0.0,300,0.020757675170898438,0.48939577681622487,0.38311810495512333,58500,1.7535960493791551,0.0
195,1.5408375263214111,2.740072442710816,1.4054846339775613,4.66208819100563,0.7387383432878712,0.0,0.15967756420994356,0.1,0.002969026565551758,0.05883598327636719,0.04965432,1.2821151,2.060457355937157,0.0,0.03644527253362402,0.0,300,0.018553733825683594,0.41411811357971046,0.28833787629879837,58800,2.5054619859896508,0.0
