iteration,time_sampling,stoc_pol_mean,stoc_pol_std,stoc_pol_max,stoc_pol_min,rollout_success,alpha,delta,time_vpg,time_npg,kl_dist,surr_improvement,running_score,rwd_sparse,rwd_dense,success_percentage,num_samples,time_VF,VF_error_before,VF_error_after,env_samples,eval_score,eval_success
0,1.3768510818481445,4.020369539065979,0.011440340569567869,4.028820109700948,4.000654766035213,0.0,0.0945325422859543,0.1,0.016358375549316406,0.0843813419342041,0.051360406,4.177304,4.020369539065979,0.0,0.08038978040629785,0.0,78,0.005052089691162109,0.9886868075570349,0.9886868075570349,78,3.5130299307781208,0.0
1,1.2706899642944336,3.533425729831425,0.8854150229646512,4.093327384034101,2.0007394867492305,0.0,0.10213228935029083,0.1,0.0028333663940429688,0.09507012367248535,0.05478394,4.3066983,3.9716751581425234,0.0,0.06060182842051662,0.0,77,0.00325775146484375,0.9870325510147809,0.9870325510147809,155,4.104127883613484,0.0
2,1.224898099899292,3.7696835790634173,0.4442618191760232,4.048033779020258,3.0005586878433794,0.0,0.10669866601402551,0.1,0.002553224563598633,0.06678342819213867,0.054192666,3.5442631,3.9514760002346128,0.0,0.070381935286702,0.0,82,0.003891468048095703,0.9875432430796115,0.9875432430796115,237,3.4253304877089685,0.0
3,1.3571553230285645,4.024705249571058,1.2469312137958135,6.067880616852128,3.0003464031875824,0.0,0.0986571814817851,0.1,0.0026836395263671875,0.07828879356384277,0.05217536,3.1341753,3.9587989251682574,0.0,0.06048245313730927,0.0,72,0.005531787872314453,1.0106573071736629,1.0106573071736629,309,4.439137348534828,0.0
4,1.2784652709960938,3.0159267201191065,1.0108897075118513,4.049603304536696,2.0012269145183823,0.0,0.0937117418829172,0.1,0.002565145492553711,0.06332516670227051,0.050998416,2.4301329,3.864511704663342,0.0,0.05031609810690193,0.0,59,0.0034477710723876953,0.9858839534375761,0.9858839534375761,368,4.188407305718385,0.0
5,1.1688659191131592,3.789951568374337,0.456858225291216,4.097967297489857,3.000523196624222,0.0,0.10040493990859478,0.1,0.0028553009033203125,0.055925607681274414,0.051683567,2.7962205,3.857055691034442,0.0,0.07078485391404386,0.0,75,0.003155946731567383,0.9879617438508537,0.9879617438508537,443,3.84434585921524,0.0
6,1.155259609222412,3.5239903885901422,0.8800054967941322,4.07063056614111,2.000361166104133,0.0,0.08845165496888736,0.1,0.0024776458740234375,0.05235934257507324,0.047804397,13.35345,3.8237491607900123,0.0,0.06043795439339257,0.0,52,0.002717733383178711,0.9908485703701552,0.9908485703701552,495,3.4311704574250173,0.0
7,1.198822021484375,4.018696409522495,0.01753460982482586,4.046867150011201,4.001052922840511,0.0,0.08924752994216956,0.1,0.002368927001953125,0.054937124252319336,0.051019587,4.855208,3.8432438856632607,0.0,0.08037927306979774,0.0,66,0.002580881118774414,0.9910202170060176,0.9910202170060176,561,3.4408623611640636,0.0
8,1.2111666202545166,4.065943685020454,0.09288498255069726,4.225853290847124,4.001149161079171,0.0,0.10856489412810566,0.1,0.002822399139404297,0.0528874397277832,0.0478866,3.7048504,3.86551386559898,0.0,0.08118636156042792,0.0,94,0.0029592514038085938,0.9863158280294037,0.9863158280294037,655,3.77042554737605,0.0
9,1.211263656616211,4.033623138904207,0.02929718600348173,4.081210714698942,4.0024431691227225,0.0,0.10544498259922533,0.1,0.0028192996978759766,0.056804656982421875,0.05058882,5.561565,3.882324792929503,0.0,0.08067470835228056,0.0,113,0.005127668380737305,0.9858865956119301,0.9858865956119301,768,4.101270431379372,0.0
10,1.0835633277893066,2.511259331294058,0.8850262539589603,4.044169768933926,2.0002716792256603,0.0,0.07187412362635202,0.1,0.0025298595428466797,0.11062312126159668,0.050321914,2.5442383,3.7452182467659587,0.0,0.03522187506882509,0.0,25,0.0027213096618652344,0.9992553288506005,0.9992553288506005,793,3.7604378432102146,0.0
11,1.310204267501831,4.278145045039039,1.12863459481706,6.101207418145404,3.005201937711222,0.0,0.10086529950670951,0.1,0.0034224987030029297,0.05861353874206543,0.04994292,2.3305953,3.7985109265932664,0.0,0.06555943205212673,0.0,76,0.0031414031982421875,1.0087634242606198,1.0087634242606198,869,4.094209229733932,0.0
12,1.1444976329803467,3.512993678879016,0.8722860962127365,4.0252431618350615,2.002177665796234,0.0,0.09813664927509881,0.1,0.002515554428100586,0.055763959884643555,0.04894321,2.9245806,3.7699592018218415,0.0,0.06524122703388802,0.0,65,0.003043651580810547,0.9891091948406882,0.9891091948406882,934,3.4274278123576285,0.0
13,1.3315207958221436,5.039897062424323,1.0358679265070683,6.075788585396692,4.002647036113631,0.0,0.11157595933596455,0.1,0.005052328109741211,0.05753064155578613,0.049366158,4.8951015,3.8969529878820897,0.0,0.08079544297267896,0.0,130,0.015420198440551758,1.0053372601095234,0.9974119406501021,1064,3.1870421268288553,0.0
14,1.3032479286193848,4.032741230898699,0.053112451799896356,4.124731749248255,4.001490325355008,0.0,0.09338635771301625,0.1,0.0028181076049804688,0.05858159065246582,0.04914937,2.5403864,3.9105318121837507,0.0,0.08063277280528533,0.0,67,0.003408670425415039,0.9937334321113823,0.9937334321113823,1131,4.028741132847227,0.0
15,1.2590513229370117,3.51087735516964,0.8720950245173229,4.019906740311292,2.0003967111039858,0.0,0.08055718342696135,0.1,0.0026314258575439453,0.08846473693847656,0.05043898,5.0663323,3.8705663664823398,0.0,0.06521381883521127,0.0,42,0.003306150436401367,0.9931752396984451,0.9931752396984451,1173,4.5389296306597275,0.0
16,1.3872120380401611,3.5314859724654117,2.2030766701300855,6.072085108505269,0.0003654089199691679,0.0,0.09408747619073982,0.1,0.003336668014526367,0.06234288215637207,0.048292138,5.929333,3.836658327080647,0.0,0.055620708466288624,0.0,93,0.003377676010131836,0.9945695386837231,0.9945695386837231,1266,4.034023184481843,0.0
17,1.1400344371795654,3.50376665879108,0.8666366086099646,4.00713578710436,2.0027124535826117,0.0,0.08338286697863265,0.1,0.0026657581329345703,0.10953330993652344,0.050209336,1.8175867,3.8033691602516906,0.0,0.06508326754997087,0.0,32,0.003014802932739258,0.9988280621090344,0.9988280621090344,1298,3.6975401289042185,0.0
18,1.1414220333099365,3.2647387476225664,0.8194114665560166,4.019574237335138,2.0382497086492335,0.0,0.078877666415515,0.1,0.0026009082794189453,0.0946512222290039,0.049980942,8.588538,3.749506118988778,0.0,0.05511341429654594,0.0,34,0.005544185638427734,0.9950423098378007,0.9950423098378007,1332,4.191310542256322,0.0
19,1.4091970920562744,4.521648855099693,0.8873625356890058,6.058578751986874,4.000820066548277,0.0,0.10287066069097583,0.1,0.003237485885620117,0.06065797805786133,0.05022577,2.5206995,3.82672039259987,0.0,0.08042554865260132,0.0,97,0.0033731460571289062,0.9941820307151147,0.9941820307151147,1429,3.4494427708043016,0.0
20,1.305917739868164,4.020516327709556,0.021142505228054716,4.056207453535366,4.0009645499709565,0.0,0.08939196493940535,0.1,0.006369113922119141,0.05433368682861328,0.050169416,3.644272,3.846099986110839,0.0,0.08038498514022774,0.0,54,0.0029158592224121094,0.9921679951526975,0.9921679951526975,1483,4.293581117048968,0.0
21,1.386775016784668,4.020707202291506,0.016142718815500973,4.0436148799289295,4.0037265305079845,0.0,0.10138673494970955,0.1,0.003177642822265625,0.05790138244628906,0.050016213,2.631893,3.863560707728906,0.0,0.08038358281183844,0.0,76,0.003118753433227539,0.98878090867487,0.98878090867487,1559,5.564594883014331,0.0
22,1.4123671054840088,2.9275384733621506,1.4608307421847602,4.413559346205921,1.001308249893445,0.0,0.0907668422127571,0.1,0.0027196407318115234,0.057669639587402344,0.04959455,6.9988856,3.7699584842922307,0.0,0.048071954821484894,0.0,62,0.003988981246948242,0.9893859791700345,0.9893859791700345,1621,3.789480318765238,0.0
23,1.3971834182739258,3.7815034258759885,0.45025503614907764,4.076126311521278,3.0029853368737944,0.0,0.09931439540289343,0.1,0.0025665760040283203,0.060631752014160156,0.05025538,1.7105951,3.771112978450607,0.0,0.0706097562656793,0.0,59,0.003299713134765625,0.9927175969854384,0.9927175969854384,1680,5.892834115112918,0.0
24,1.3691914081573486,4.041803779516547,0.05985300576011448,4.1452639697708795,4.001170440425334,0.0,0.09770616958406153,0.1,0.002443075180053711,0.06081056594848633,0.049062856,2.417839,3.7981820585572006,0.0,0.07571344248572445,0.0,62,0.004526853561401367,0.9920817976576257,0.9920817976576257,1742,4.426283373754024,0.0
25,1.2864618301391602,4.00716933682013,0.004755147560248677,4.014159066577448,4.00074310202117,0.0,0.08777536278718392,0.1,0.0023720264434814453,0.09013605117797852,0.050109275,3.217891,3.819080786383494,0.0,0.0751380387583891,0.0,41,0.003325939178466797,0.9956744615478728,0.9956744615478728,1783,3.649940524074308,0.0
26,1.233574628829956,3.5119426456569203,0.8724990112603132,4.032836935974489,2.0008402004435304,0.0,0.09172840729977964,0.1,0.0023546218872070312,0.08504152297973633,0.049532413,1.8594719,3.7883669723108366,0.0,0.060207270794627746,0.0,41,0.002883434295654297,0.9941490252331813,0.9941490252331813,1824,3.8173666563304636,0.0
27,1.2427053451538086,4.027314287854594,0.019236700616088512,4.058657620951689,4.0072967989748385,0.0,0.11382525351201923,0.1,0.002666473388671875,0.07219290733337402,0.04954951,2.3043654,3.8122617038652122,0.0,0.08054020822737705,0.0,89,0.0028562545776367188,0.9879156070087638,0.9879156070087638,1913,3.649117712350771,0.0
28,1.0717499256134033,3.509453126077408,0.8712527023954731,4.027546339170474,2.0004882803882595,0.0,0.07419386057167039,0.1,0.002775430679321289,0.11340618133544922,0.04897329,1.706044,3.781980846086432,0.0,0.06017858517858758,0.0,31,0.007315397262573242,1.0005645625274182,1.0005645625274182,1944,4.060319919330439,0.0
29,1.20296311378479,3.5068434218297053,0.8696484950821346,4.017058469200503,2.0005935973690216,0.0,0.09572377924486279,0.1,0.002666950225830078,0.05425906181335449,0.04842262,2.693447,3.7544671036607595,0.0,0.06512843908130399,0.0,59,0.003166675567626953,0.9854241117055405,0.9854241117055405,2003,3.0473801560478684,0.0
30,1.1577599048614502,3.517768834919091,0.8761844247064376,4.058490501212418,2.0006393337470376,0.0,0.08307502020350878,0.1,0.0024034976959228516,0.0903463363647461,0.049191814,2.7103388,3.7307972767865927,0.0,0.06033328280129385,0.0,43,0.0030121803283691406,0.9967441185289784,0.9967441185289784,2046,3.6348076877581548,0.0
31,1.1684200763702393,4.013663898878157,0.005314745676475594,4.020475853682927,4.005561388226763,0.0,0.10057402445545771,0.1,0.002656221389770508,0.05259561538696289,0.050471354,2.1441267,3.759083938995749,0.0,0.08024788781700787,0.0,56,0.003348112106323242,0.9913252407292834,0.9913252407292834,2102,3.303774731141686,0.0
32,1.3558733463287354,4.025604156300745,0.020958201312117036,4.0517409623622775,4.001610392224689,0.0,0.11562485307330274,0.1,0.002844572067260742,0.059568166732788086,0.0501138,2.3666515,3.785735960726249,0.0,0.08050201997782556,0.0,89,0.0033555030822753906,0.9894354351062105,0.9894354351062105,2191,3.7133106768161444,0.0
33,1.443232774734497,4.038190427086594,1.446676949143798,6.095411198677024,2.0037666553744296,0.0,0.10857124637215883,0.1,0.002789020538330078,0.059627532958984375,0.048025027,4.1910996,3.8109814073622834,0.0,0.06574447814129786,0.0,101,0.008355855941772461,0.9926271742491851,0.9926271742491851,2292,3.8102174494111813,0.0
34,1.435117483139038,5.809850440681959,3.1123932443487714,11.200638844408187,4.002827056932935,0.0,0.10351902264012355,0.1,0.0030739307403564453,0.05952119827270508,0.050414115,1.2548018,4.010868310694251,0.0,0.1161820850374141,0.0,91,0.003452777862548828,1.0043095319150515,1.0043095319150515,2383,4.569923406271419,0.0
35,1.300995111465454,2.2587116758894137,1.9277071303812818,4.030913527183806,-0.9999324688451081,0.0,0.07960638125188822,0.1,0.004228115081787109,0.09711098670959473,0.05012219,5.8929043,3.8356526472137675,0.0,0.03017631245296979,0.0,33,0.0030663013458251953,0.9928086674257426,0.9928086674257426,2416,3.7157662130654145,0.0
36,1.4791276454925537,4.8567010071273735,1.4514608297889389,7.370636765721035,4.003589070519,0.0,0.11603748829708017,0.1,0.002968311309814453,0.06625628471374512,0.049619664,1.7676395,3.9377574832051283,0.0,0.08205282782913001,0.0,114,0.005661487579345703,1.0006997487184948,1.0006997487184948,2530,3.1795946236086063,0.0
37,1.5149788856506348,2.56603039571091,2.7635090550089476,6.18384906091658,-0.9999304582956323,0.0,0.10611613198036937,0.1,0.0030400753021240234,0.06035733222961426,0.04717756,4.0719075,3.8005847744557064,0.0,0.031285231036652164,0.0,89,0.003453969955444336,0.9958334515103816,0.9958334515103816,2619,3.282562052809801,0.0
38,1.319441318511963,4.023632539345133,0.016366115256273,4.051763291564144,4.012483562197002,0.0,0.10103487037113244,0.1,0.0027000904083251953,0.05743575096130371,0.049836166,2.8650858,3.822889550944649,0.0,0.08040230322347436,0.0,63,0.0029549598693847656,0.9896307513430211,0.9896307513430211,2682,3.4415693822922298,0.0
39,1.5352363586425781,4.061973871961749,0.08248739395684711,4.204717579771331,4.009384891545088,0.0,0.10102930863090695,0.1,0.002792835235595703,0.06145334243774414,0.04920797,3.96656,3.846797983046359,0.0,0.08123719075102065,0.0,101,0.006972074508666992,0.98851083766511,0.98851083766511,2783,3.393584194630605,0.0
40,1.4191863536834717,3.2618484351375407,1.3055313953420957,4.03236031874764,1.0006819482365845,0.0,0.09105284270900511,0.1,0.003418445587158203,0.0580441951751709,0.0495564,7.1969113,3.788303028255477,0.0,0.06023419881814822,0.0,54,0.003296375274658203,0.9926205479949304,0.9926205479949304,2837,4.309305835454576,0.0
41,1.4061088562011719,4.075872038394662,0.0677442122885781,4.179027898518081,4.001487453055584,0.0,0.11053994365498167,0.1,0.0031490325927734375,0.0621790885925293,0.049438827,2.750081,3.8170599292693956,0.0,0.08132185963494332,0.0,98,0.003156900405883789,0.9885085084296136,0.9885085084296136,2935,4.746277795837723,0.0
42,1.3985826969146729,3.512515929644852,0.873075343472411,4.0237250397096656,2.0003284255355394,0.0,0.10394160856376923,0.1,0.0023641586303710938,0.05072021484375,0.049050707,2.0005288,3.786605529306941,0.0,0.06525096643385499,0.0,69,0.002776622772216797,0.9895331525325529,0.9895331525325529,3004,3.2939435859137247,0.0
43,1.2952630519866943,4.036247754134031,0.6759100560735742,4.892169563236649,3.001223574490678,0.0,0.11733739991626309,0.1,0.002965688705444336,0.057726144790649414,0.04843782,2.6377676,3.81156975178965,0.0,0.07554979539811958,0.0,108,0.007492780685424805,0.9920655924779719,0.9920655924779719,3112,4.382082831697877,0.0
44,1.282010793685913,6.112818537126725,3.648024861062502,12.431381933029996,4.004167693914445,0.0,0.10600487917788069,0.1,0.002990245819091797,0.0545806884765625,0.048929676,1.5333068,4.041694630323358,0.0,0.1172396604255854,0.0,89,0.0028228759765625,1.0031885911263263,1.0031885911263263,3201,3.7090162340351895,0.0
45,1.3065211772918701,4.049116515998593,0.049584182468475096,4.128123436416751,4.005846125880256,0.0,0.10403405818773612,0.1,0.002689361572265625,0.055260658264160156,0.05072354,2.8431969,4.042436818890882,0.0,0.08093722771484357,0.0,82,0.0028429031372070312,0.9918669671567197,0.9918669671567197,3283,3.809450968892301,0.0
46,1.2237942218780518,4.030709536398083,0.02554850582984614,4.074777057372817,4.013142182753113,0.0,0.10333640950728631,0.1,0.002627134323120117,0.050215721130371094,0.04907676,5.0032954,4.041264090641602,0.0,0.0756003674814186,0.0,95,0.0031049251556396484,0.9909021722447945,0.9909021722447945,3378,3.5562164618962444,0.0
47,1.1368076801300049,4.007793640918688,0.004120609928239208,4.011562294756539,4.000872098425566,0.0,0.09852304803168843,0.1,0.0023956298828125,0.04767942428588867,0.050085045,1.857709,4.03791704566931,0.0,0.07514667801462119,0.0,56,0.0025255680084228516,0.9932533998376664,0.9932533998376664,3434,3.537867168868781,0.0
48,1.294243335723877,3.348812742633987,1.3581867592165122,4.199698352360446,1.0004109581986076,0.0,0.0928368110782892,0.1,0.0027964115142822266,0.053717851638793945,0.048893284,3.637641,3.969006615365778,0.0,0.056760705709709945,0.0,69,0.002993345260620117,0.9908059822409426,0.9908059822409426,3503,3.0291833920355984,0.0
49,1.2527039051055908,3.276322018493394,1.3047637096372997,4.070002099467449,1.0168233865969687,0.0,0.09957311406794175,0.1,0.0024712085723876953,0.05431723594665527,0.048729915,2.6405401,3.89973815567854,0.0,0.06050751625074785,0.0,71,0.0027320384979248047,0.9893052415240361,0.9893052415240361,3574,3.819870013751473,0.0
50,1.4606120586395264,4.071436588577149,0.08439302668298378,4.216981946838274,4.015078810152041,0.0,0.12569156874088325,0.1,0.003390073776245117,0.06089925765991211,0.050372075,3.145457,3.916907998968401,0.0,0.08140543515153428,0.0,121,0.0071451663970947266,0.9877481546830313,0.9877481546830313,3695,4.20744533685235,0.0
51,1.352217674255371,4.019500565007645,0.02897499362358055,4.0696236802710235,4.001447504075983,0.0,0.08941133868378504,0.1,0.002733469009399414,0.0551295280456543,0.049398266,2.812806,3.927167255572326,0.0,0.0803152380055673,0.0,50,0.003156900405883789,0.9944899644727817,0.9944899644727817,3745,4.219293570883892,0.0
52,1.394256830215454,3.8906616454684126,0.5452839066317929,4.492859336567622,3.0041265935569186,0.0,0.11109376588849645,0.1,0.0028319358825683594,0.059679269790649414,0.0505588,4.624124,3.9235166945619344,0.0,0.0727320204148991,0.0,95,0.003570556640625,0.9907405594618112,0.9907405594618112,3840,3.9578211629058333,0.0
53,1.2493205070495605,4.012366431186838,0.015172651321075857,4.038571982919056,4.0020294097386095,0.0,0.09380509685628725,0.1,0.002678394317626953,0.08593201637268066,0.049825944,1.6440383,3.932401668224425,0.0,0.07523063084840523,0.0,44,0.0032014846801757812,0.9943688589220567,0.9943688589220567,3884,3.6220871422442595,0.0
54,1.1999998092651367,1.5042339672572667,2.0664673352846914,4.016231192965919,-0.9999272288036474,0.0,0.07064373957062062,0.1,0.002105236053466797,0.03687644004821777,0.049671635,2.3088725,3.689584898127709,0.0,0.01508367420973868,0.0,15,0.008785009384155273,1.002883321253702,1.002883321253702,3899,4.041715084722283,0.0
55,1.368852138519287,3.00414074964011,1.73435145494068,4.007538672209477,0.00015709769479488322,0.0,0.08191276316322939,0.1,0.0028896331787109375,0.09329485893249512,0.050494444,3.0482073,3.621040483278949,0.0,0.055071967182359634,0.0,40,0.0052318572998046875,0.9965552974561804,0.9965552974561804,3939,3.6873928242529295,0.0
56,1.4089405536651611,3.2661107742726525,1.3078166098198407,4.048127908887821,1.001095343256969,0.0,0.07937702596061878,0.1,0.006256103515625,0.1017305850982666,0.050718542,3.1270976,3.5855475123783194,0.0,0.06031725043172684,0.0,36,0.0028433799743652344,0.9953484782585205,0.9953484782585205,3975,4.276160386804224,0.0
57,1.4776456356048584,3.529941959323743,0.8833404498688783,4.075040933082457,2.0004361052640736,0.0,0.0998072110195187,0.1,0.003019094467163086,0.06026029586791992,0.050124273,3.3376527,3.5799869570728617,0.0,0.06556433125490144,0.0,78,0.0030198097229003906,0.989616080010875,0.989616080010875,4053,3.5297354677105304,0.0
58,1.3102233409881592,3.3259497364346595,1.346722203221755,4.296776893480339,1.0026801444558302,0.0,0.08851361441126858,0.1,0.0022592544555664062,0.050272464752197266,0.049488332,3.217957,3.5545832350090416,0.0,0.056368597761100134,0.0,55,0.002833127975463867,0.9927830344857809,0.9927830344857809,4108,4.046391501828913,0.0
59,1.4089109897613525,2.0120441063755363,2.13161660516996,4.0261826495573185,-0.9999287563366879,0.0,0.09414735752607098,0.1,0.0028493404388427734,0.05637073516845703,0.049995754,8.560433,3.400329322145691,0.0,0.030225680012421943,0.0,56,0.003557443618774414,0.9885798833301581,0.9885798833301581,4164,3.6078874311518856,0.0
60,1.25742506980896,1.7595213162565764,1.9310643965038605,4.035705765349858,-0.999934084829508,0.0,0.08011188221790153,0.1,0.002972841262817383,0.0876307487487793,0.05024198,8.161026,3.23624852155678,0.0,0.020187886430537882,0.0,41,0.0030558109283447266,0.9918289955192864,0.9918289955192864,4205,4.082853584120283,0.0
61,1.3712167739868164,4.0082618483355725,0.006773825694837696,4.019823004625657,4.0029647224733775,0.0,0.08671796087902817,0.1,0.002758026123046875,0.05740785598754883,0.049348153,3.2204497,3.3134498542346593,0.0,0.08014943454423373,0.0,56,0.007860660552978516,0.9934749103397522,0.9934749103397522,4261,3.276106969007412,0.0
62,1.4669973850250244,4.089169586911144,1.5355643489425244,6.342001820394261,2.0053579318672545,0.0,0.08680977596565026,0.1,0.002537250518798828,0.05796551704406738,0.049223304,6.380503,3.391021827502308,0.0,0.06176966408403935,0.0,68,0.003850221633911133,1.0085281872274543,1.0085281872274543,4329,4.280200899178511,0.0
63,1.3300368785858154,4.038838780219004,0.04360392593507753,4.112047786239634,4.00243234369211,0.0,0.09673981813419516,0.1,0.0030755996704101562,0.05862832069396973,0.049801223,3.0393276,3.455803522773978,0.0,0.07565532511899985,0.0,66,0.003306150436401367,0.9918919811716147,0.9918919811716147,4395,4.124559239249094,0.0
64,1.5360291004180908,4.532816175972437,0.9010736948441457,6.093387659339597,4.000776456221939,0.0,0.10488451631181053,0.1,0.0028650760650634766,0.07471275329589844,0.049001746,5.06065,3.5635047880938235,0.0,0.0806381721338916,0.0,92,0.005277872085571289,0.9978544318550447,0.9978544318550447,4487,3.452039651672283,0.0
65,1.4075927734375,3.6525677236726937,0.9806977742234567,4.575023425085013,2.0004295961946577,0.0,0.09099518202240975,0.1,0.002838611602783203,0.06485867500305176,0.0495754,6.4018145,3.5724110816517105,0.0,0.06779934613421588,0.0,69,0.004669904708862305,0.9913822276352162,0.9913822276352162,4556,2.7712274910044083,0.0
66,1.4259960651397705,3.2866374444070034,1.32050341277038,4.120157312604795,1.0007179701864701,0.0,0.09337350218559397,0.1,0.003030061721801758,0.059148550033569336,0.050912518,2.6097257,3.5438337179272397,0.0,0.060687148477686484,0.0,63,0.004187822341918945,0.9911283588987836,0.9911283588987836,4619,4.2772885089475965,0.0
67,1.3811182975769043,4.0089533577111816,0.006662578401187269,4.020410809847151,4.004421775745206,0.0,0.09574796290300738,0.1,0.002501964569091797,0.06065654754638672,0.049560998,2.35066,3.590345681905634,0.0,0.08016826342049095,0.0,58,0.003154277801513672,0.9945351894690385,0.9945351894690385,4677,3.9344040699102454,0.0
68,1.4814345836639404,3.2822264107661394,0.8430160217309217,4.051871886855038,2.0241414445513706,0.0,0.09662855739586967,0.1,0.002706289291381836,0.060570716857910156,0.048989777,3.3991578,3.5595337547916843,0.0,0.05559425255577052,0.0,69,0.002988576889038086,0.9890536803000805,0.9890536803000805,4746,3.8560044801095477,0.0
69,1.5631294250488281,4.088350531880292,0.14895892465462196,4.346354086732309,4.001856731953422,0.0,0.10684644305782365,0.1,0.003015756607055664,0.0611422061920166,0.0505859,1.8354131,3.6124154325005455,0.0,0.08157998337669631,0.0,79,0.0030786991119384766,0.9923686011837739,0.9923686011837739,4825,3.857740739837087,0.0
70,1.4623126983642578,4.0334347317842205,0.049426945364962956,4.11896761108314,4.001499713904634,0.0,0.09405983809134826,0.1,0.0024614334106445312,0.06314921379089355,0.049038544,3.159912,3.6545173624289133,0.0,0.0806740147199588,0.0,63,0.003480672836303711,0.9897058719185744,0.9897058719185744,4888,4.353012082805983,0.0
71,1.4078149795532227,1.5232749150965512,2.52340753726277,4.091309804838028,-0.9999363838363668,0.0,0.078287896488021,0.1,0.002857685089111328,0.12445712089538574,0.04934902,3.4860704,3.4413931176956774,0.0,0.020327262359494683,0.0,32,0.005868434906005859,0.9916694900571392,0.9916694900571392,4920,3.511272090418457,0.0
72,1.3981828689575195,3.506165270022764,0.8694447956306495,4.013143785667388,2.0002520766213316,0.0,0.08767301948563859,0.1,0.0035185813903808594,0.12981963157653809,0.04882739,2.5888667,3.447870332928386,0.0,0.06509914206092973,0.0,40,0.0035860538482666016,0.9924457530398565,0.9924457530398565,4960,3.51286264971967,0.0
73,1.6386055946350098,4.0281926717051055,1.4297624175572021,6.048814008592099,2.005219325807184,0.0,0.10139195830755351,0.1,0.003191232681274414,0.059450387954711914,0.04937001,6.426366,3.5059025668060584,0.0,0.0605585275112986,0.0,95,0.00823211669921875,0.9962108969158809,0.9962108969158809,5055,3.677846257032968,0.0
74,1.492440938949585,4.665284052947744,0.8788479860413593,6.18260672119936,4.0507714700431805,0.0,0.12850336880556407,0.1,0.0035250186920166016,0.05803871154785156,0.05007845,2.6462939,3.6218407154202272,0.0,0.08322577197632186,0.0,154,0.010947704315185547,0.9931161807147489,0.9784543836788137,5209,3.4312402872459953,0.0
75,1.3179502487182617,3.0026448552256535,1.0014874585178157,4.004763905240351,2.000251424754219,0.0,0.0754357006090434,0.1,0.0024271011352539062,0.11548471450805664,0.050096888,4.1995397,3.55992112940077,0.0,0.05005076910653724,0.0,28,0.002559661865234375,0.9959594957339434,0.9959594957339434,5237,4.177479930106883,0.0
76,1.4349637031555176,4.062057420170181,0.0684262916832204,4.176201190930525,4.003449573154481,0.0,0.12149504965148766,0.1,0.003206491470336914,0.05638480186462402,0.04967627,2.1539822,3.6101347584777113,0.0,0.08112972768731512,0.0,105,0.0042934417724609375,0.9734357882736356,0.9734357882736356,5342,4.195267425659827,0.0
77,1.4033892154693604,4.019490975978267,0.017576404971397595,4.0438154779145465,4.000961851582158,0.0,0.09558586083001198,0.1,0.0025815963745117188,0.05618786811828613,0.04975998,2.8082807,3.651070380227767,0.0,0.08032951357957058,0.0,61,0.0027666091918945312,0.9795873866427641,0.9795873866427641,5403,4.192078945046233,0.0
78,1.4227087497711182,4.049190714278684,0.014582030602494436,4.069649436231634,4.028425288726888,0.0,0.10523962578577133,0.1,0.002892732620239258,0.05574536323547363,0.048584227,2.7478867,3.690882413632859,0.0,0.08093458564680449,0.0,83,0.002786397933959961,0.9748786999319625,0.9748786999319625,5486,3.94357911948136,0.0
79,1.5277049541473389,4.582991235101317,0.9555046860679085,6.237837679981393,4.014066561427243,0.0,0.12128759095441495,0.1,0.003892660140991211,0.07480287551879883,0.04991541,2.0418937,3.7800932957797047,0.0,0.09161918674060512,0.0,136,0.0138092041015625,0.9804505290746653,0.96418502176728,5622,3.9353726904207016,0.0
80,1.329948902130127,2.503034969419895,1.5024929109572078,4.008084785263677,1.0003366467376937,0.0,0.07948916339663234,0.1,0.002663850784301758,0.11954331398010254,0.049278464,2.544191,3.652387463143724,0.0,0.04005623189180654,0.0,29,0.0029785633087158203,0.9834851021349901,0.9834851021349901,5651,4.025546387048646,0.0
81,1.483647108078003,5.672083691761244,3.995491883192533,10.333200925306679,0.00021403774580930346,0.0,0.10083759568214465,0.1,0.0036492347717285156,0.06717443466186523,0.04918385,4.477318,3.854357086005476,0.0,0.10324662326369646,0.0,86,0.0033359527587890625,1.0328078283242796,1.0328078283242796,5737,3.0256822745635525,0.0
82,1.4101190567016602,3.2584706153331986,1.3037956443185998,4.023947274382262,1.0002722014739949,0.0,0.08733890820055644,0.1,0.0025463104248046875,0.10036158561706543,0.050791577,4.0084457,3.7947684389382483,0.0,0.060154008198969086,0.0,41,0.004230976104736328,0.9747500498814626,0.9747500498814626,5778,3.7729972471255517,0.0
83,1.4809460639953613,3.2930169776088087,1.324484010244755,4.130695677678259,1.000265863437386,0.0,0.10166208504025877,0.1,0.003228425979614258,0.06263208389282227,0.04821703,6.4332237,3.7445932928053045,0.0,0.06078955387141711,0.0,64,0.007241010665893555,0.949716239143764,0.949716239143764,5842,3.9384931898746736,0.0
84,1.434342384338379,3.7559984897098175,0.43622003509569207,4.011543810853574,3.000460038472518,0.0,0.08431506577020303,0.1,0.002794504165649414,0.09095144271850586,0.04972061,3.622298,3.745733812495756,0.0,0.07010603040024883,0.0,39,0.006303071975708008,0.9928090009348151,0.9928090009348151,5881,3.6869720979222524,0.0
85,1.4832661151885986,3.0086922879339424,1.7292339265027252,4.00968463155292,0.013572815887069822,0.0,0.08696384229216031,0.1,0.002512693405151367,0.08829545974731445,0.048469026,2.7987764,3.6720296600395743,0.0,0.05016734322110376,0.0,39,0.004214763641357422,0.9734392724742548,0.9734392724742548,5920,3.7932952388672843,0.0
86,1.530064344406128,4.02926304299597,0.03276600161874618,4.085948751711461,4.007921052208927,0.0,0.10865056319821989,0.1,0.0035254955291748047,0.06311488151550293,0.050137606,11.23812,3.7077529983352138,0.0,0.0805779623406033,0.0,90,0.002964496612548828,0.9500499249192915,0.9500499249192915,6010,3.9353040988536994,0.0
87,1.48378586769104,4.0210987228886275,0.028857574418353536,4.070836801438108,4.00218649059059,0.0,0.09855947227395849,0.1,0.0033080577850341797,0.061392784118652344,0.05055107,2.5771816,3.7390875707905553,0.0,0.08034499836693372,0.0,67,0.006224393844604492,0.9564280383994945,0.9564280383994945,6077,3.934873902035457,0.0
88,1.484020471572876,3.7950755048945863,0.45293822642637477,4.137709824783374,3.0156222840483906,0.0,0.08802003640149365,0.1,0.0024509429931640625,0.056841373443603516,0.049823537,5.2945952,3.7446863642009585,0.0,0.07089982192314029,0.0,62,0.002859830856323242,0.9650913430618364,0.9650913430618364,6139,4.017411195066795,0.0
89,1.5210392475128174,2.7673142913737596,2.1751282044916773,4.0588930191725145,-0.9999265123810328,0.0,0.10360382531810819,0.1,0.002808809280395508,0.05364179611206055,0.051056918,2.8096511,3.6469491569182386,0.0,0.0503409508817036,0.0,71,0.003235340118408203,0.95576440931423,0.95576440931423,6210,2.598018395095418,0.0
90,1.3903634548187256,4.013093321510536,0.009931356513277615,4.0284720393092455,4.001811777856414,0.0,0.09776196934080048,0.1,0.0023925304412841797,0.05666661262512207,0.04936364,5.3537436,3.6835635733774685,0.0,0.07524323754337799,0.0,55,0.0033545494079589844,0.9680843804321593,0.9680843804321593,6265,4.177678683388718,0.0
91,1.5681769847869873,4.112007932452059,0.1199419795227916,4.306783097887619,4.004522346767151,0.0,0.11269364158575584,0.1,0.0025467872619628906,0.06699371337890625,0.050304566,2.7085514,3.7264080092849277,0.0,0.0822405230338146,0.0,102,0.006991386413574219,0.9535187267379088,0.9535187267379088,6367,3.934340532335364,0.0
92,1.4018886089324951,2.257211882516075,1.7922364515035005,4.022501613718227,0.00014157768011169303,0.0,0.08345605113259931,0.1,0.0022699832916259766,0.10836982727050781,0.049978305,2.6040301,3.579488396608043,0.0,0.03511294085008712,0.0,30,0.0037908554077148438,0.9644695815808169,0.9644695815808169,6397,3.9311206163489074,0.0
93,1.642646312713623,4.030844141571935,0.03480186484025299,4.09043050670398,4.004035767257808,0.0,0.10606526929006559,0.1,0.0032515525817871094,0.06234335899353027,0.050113626,2.6542552,3.624623971104432,0.0,0.08059979316838256,0.0,89,0.0032079219818115234,0.9537177803985623,0.9537177803985623,6486,3.6798385623439493,0.0
94,1.5654864311218262,4.0099335886230465,0.0013761778503929443,4.011888889139455,4.008004175597749,0.0,0.10964020989876236,0.1,0.0031375885009765625,0.06096363067626953,0.048454285,2.186476,3.663154932856294,0.0,0.08018148355846871,0.0,87,0.0046885013580322266,0.9503533510026471,0.9503533510026471,6573,4.435136418534372,0.0
95,2.2095417976379395,4.009948812710162,0.009496556071054011,4.024960545821786,4.001283270563164,0.0,0.10551966100830956,0.1,0.0026357173919677734,0.06773591041564941,0.048672073,2.0647507,3.6978343208416806,0.0,0.0751927940372341,0.0,78,0.0033898353576660156,0.9577232155336493,0.9577232155336493,6651,4.016545977482161,0.0
96,1.639641523361206,4.058271044739808,1.4939627352958076,6.2232814985967915,2.0004362032776086,0.0,0.09486409773841399,0.1,0.003262042999267578,0.06966161727905273,0.04947762,7.300368,3.7338779932314936,0.0,0.06616376095804083,0.0,70,0.003214597702026367,1.0284725148527953,1.0284725148527953,6721,3.176747426657457,0.0
97,1.2733607292175293,3.0073822234356147,1.7362175459281592,4.013612285074196,0.00017025382639546116,0.0,0.09175184866772243,0.1,0.002687692642211914,0.05732226371765137,0.04875095,4.8183475,3.661228416251906,0.0,0.05513251222592712,0.0,61,0.0029668807983398438,0.9538749095889235,0.9538749095889235,6782,3.3471169308012456,0.0
98,1.491602897644043,3.605089114760024,0.9383810306269668,4.385735534551618,2.000830146378758,0.0,0.10475306194204388,0.1,0.0028569698333740234,0.0604555606842041,0.0476133,2.8394017,3.655614486102718,0.0,0.0671028000683911,0.0,84,0.003400087356567383,0.9514830039655271,0.9514830039655271,6866,3.7646851337819065,0.0
99,1.3554484844207764,4.1873451466394584,0.2954629647713193,4.6979740224891735,4.0006744007110555,0.0,0.09681495729504802,0.1,0.0027251243591308594,0.05450296401977539,0.049563494,4.1636496,3.708787552156392,0.0,0.07849288494613282,0.0,84,0.0030379295349121094,0.9584292724926645,0.9584292724926645,6950,3.3458981744856846,0.0
100,1.3862507343292236,2.0122429986455312,2.011615559056604,4.023889929290991,0.0003415251151170917,0.0,0.09686363497337787,0.1,0.0025529861450195312,0.05634713172912598,0.048909567,5.7736583,3.539133096805306,0.0,0.03022943514131657,0.0,56,0.0030286312103271484,0.942473378775356,0.942473378775356,7006,3.174191704929561,0.0
101,1.4643678665161133,3.774662176370827,0.44270804598433683,4.059771120150827,3.0085468777291196,0.0,0.11743961036549375,0.1,0.002728700637817383,0.06264114379882812,0.04928282,2.0767822,3.5626860047618583,0.0,0.07047778891432191,0.0,91,0.002814769744873047,0.9490294735527323,0.9490294735527323,7097,4.0198655117734505,0.0
102,1.3501391410827637,4.060979546089641,0.04535237352119212,4.127018813436502,4.006622008387724,0.0,0.11819974008026621,0.1,0.002637624740600586,0.05103182792663574,0.05111803,2.073006,3.612515358894637,0.0,0.08120501806329165,0.0,96,0.0027234554290771484,0.9504673560263255,0.9504673560263255,7193,3.512688750580653,0.0
103,1.425184726715088,3.055076078860823,1.7639291101626242,4.141950791025009,0.0009544914121735193,0.0,0.10745645795642135,0.1,0.002765178680419922,0.05674266815185547,0.04945701,5.9274373,3.5567714308912555,0.0,0.05607565251263025,0.0,89,0.0031223297119140625,0.9428946112359415,0.9428946112359415,7282,4.01612194819574,0.0
104,1.4317376613616943,4.058007279577453,0.06392259917197962,4.163368654055207,4.004682663076125,0.0,0.10416615690064945,0.1,0.002727031707763672,0.0588994026184082,0.049952857,2.2899044,3.6068950157598754,0.0,0.08107908284315057,0.0,80,0.002960681915283203,0.9564024718012034,0.9564024718012034,7362,3.764801238526992,0.0
105,1.5346081256866455,2.514227475975961,1.5136856155229188,4.047714425350441,1.0003307440634566,0.0,0.08853048030830361,0.1,0.0025701522827148438,0.060729026794433594,0.049003314,7.114027,3.497628261781484,0.0,0.04025872161205917,0.0,51,0.003139495849609375,0.9415073714031452,0.9415073714031452,7413,3.846948997242636,0.0
106,1.5036098957061768,4.036365660453634,0.03572296085213169,4.095615877659004,4.004988774700556,0.0,0.1074256756085059,0.1,0.0026938915252685547,0.06032061576843262,0.049906492,3.1367805,3.551502001648699,0.0,0.0806904697536422,0.0,82,0.0038378238677978516,0.9513551922109432,0.9513551922109432,7495,3.923231824219012,0.0
107,1.4690465927124023,3.2596275173665408,1.304306974467029,4.020130790846384,1.0005163194040252,0.0,0.09876271903161653,0.1,0.00313568115234375,0.08101248741149902,0.050082874,2.360069,3.5223145532204834,0.0,0.05517490186384194,0.0,49,0.0029103755950927734,0.96259142058353,0.96259142058353,7544,4.009180300157596,0.0
108,1.4156060218811035,4.014226808672216,0.00715526958537279,4.023929690622106,4.006395509816365,0.0,0.09431115354783522,0.1,0.0026540756225585938,0.05627274513244629,0.05030357,2.4722137,3.5715057787656566,0.0,0.08026648210691256,0.0,56,0.005340576171875,0.9686543027751557,0.9686543027751557,7600,3.3475167679981674,0.0
109,1.382936954498291,3.0089874549359066,1.734993814289016,4.029794910208798,0.003958535146197706,0.0,0.08152651515902262,0.1,0.0030989646911621094,0.09655499458312988,0.04948954,4.1322722,3.5152539463826815,0.0,0.05515829307883888,0.0,36,0.0029397010803222656,0.9816963747276015,0.9816963747276015,7636,3.1866521982719083,0.0
110,1.4596645832061768,1.2511647335821907,1.6409966269563345,4.004070576554132,0.0001335635445385286,0.0,0.07694594230763559,0.1,0.002573728561401367,0.11408495903015137,0.048981223,5.185767,3.2888450251026327,0.0,0.010020092026607457,0.0,27,0.0029892921447753906,0.9507913016530769,0.9507913016530769,7663,3.258824833801689,0.0
111,1.4294989109039307,4.004597477688185,0.003463744063699655,4.010457445361349,4.001779873106073,0.0,0.08904041491932778,0.1,0.0028333663940429688,0.09412837028503418,0.04961255,1.7449057,3.360420270361188,0.0,0.07508637032006496,0.0,39,0.002974987030029297,0.9898754455823003,0.9898754455823003,7702,3.2572745324388293,0.0
112,1.612506628036499,2.7979764917672094,2.1930885940506815,4.129707273152411,-0.9999235693524005,0.0,0.10045194955431273,0.1,0.0031921863555908203,0.06058239936828613,0.04866586,5.505743,3.3041758925017906,0.0,0.050895820995869645,0.0,105,0.0060863494873046875,0.9397770967742767,0.9397770967742767,7807,3.175406152881377,0.0
113,1.6109960079193115,4.012293671748812,0.00786892707876433,4.025405383828098,4.0047959626656935,0.0,0.10095899330310233,0.1,0.002768278121948242,0.0600733757019043,0.04895697,3.799423,3.374987670426493,0.0,0.08022672721017478,0.0,81,0.0034525394439697266,0.9550678370684065,0.9550678370684065,7888,3.1756975700509655,0.0
114,1.541806936264038,4.144739680262204,0.2412031653022938,4.562495265979586,4.002773593553283,0.0,0.09541638482323687,0.1,0.003340005874633789,0.061192989349365234,0.04894781,2.9667978,3.4519628714100645,0.0,0.08286494532411134,0.0,71,0.003687620162963867,0.9707279857851863,0.9707279857851863,7959,3.9301147865195722,0.0
115,1.5806493759155273,3.3467656410047306,2.6852453435904367,6.355614896940048,-0.9999300777408522,0.0,0.10036965724833745,0.1,0.0033349990844726562,0.0641930103302002,0.049249373,2.2257023,3.441443148369531,0.0,0.05193977850805607,0.0,74,0.0035276412963867188,1.013378963826642,1.013378963826642,8033,3.2611556529281853,0.0
116,1.5883879661560059,4.55203213571716,0.9267007424101523,6.1570371129605075,4.0020428116829345,0.0,0.1093328813618521,0.1,0.0030951499938964844,0.06516671180725098,0.05009076,3.020125,3.552502047104294,0.0,0.08101610114889354,0.0,109,0.004154205322265625,0.9774588472560277,0.9774588472560277,8142,3.1736239355776483,0.0
117,1.4345529079437256,2.754442660032838,2.1675892209065277,4.011031066428912,-0.9999279156577754,0.0,0.08685680533041133,0.1,0.0029478073120117188,0.10068392753601074,0.050371755,3.6647575,3.472696108397148,0.0,0.05007690192365563,0.0,37,0.0038826465606689453,0.9810927647028528,0.9810927647028528,8179,4.017774608986422,0.0
118,1.5129127502441406,2.5257611922314602,2.0802572378253275,4.088515171104752,-0.9999274916125245,0.0,0.09150214045130363,0.1,0.002804994583129883,0.05810189247131348,0.049427804,3.7122629,3.3780026167805794,0.0,0.04046773374126065,0.0,52,0.0031609535217285156,0.9494532808874953,0.9494532808874953,8231,3.6792910078922216,0.0
119,1.430666446685791,3.5153875662342764,0.8748755347384757,4.057646285401779,2.0005765549489736,0.0,0.07728929691784045,0.1,0.002914905548095703,0.11036920547485352,0.051174857,1.4532406,3.391741111725949,0.0,0.060303242683708735,0.0,31,0.0030732154846191406,1.0032752544087524,1.0032752544087524,8262,4.010024622524322,0.0
120,1.6153326034545898,3.0281497983444243,1.7483451428272363,4.0882014254457975,0.00042601762699012724,0.0,0.10049707478236578,0.1,0.003623485565185547,0.060760498046875,0.04908565,3.427144,3.3553819803877967,0.0,0.05557293794654696,0.0,74,0.003345489501953125,0.9518313828711897,0.9518313828711897,8336,3.5926237351771904,0.0
121,1.657332181930542,3.0317040751386988,2.157897029508511,6.093076926941254,1.000354480411982,0.0,0.09103598700496479,0.1,0.002948760986328125,0.05906534194946289,0.048515588,8.13273,3.323014189862887,0.0,0.040629384671535956,0.0,64,0.0033774375915527344,1.0233783913299284,1.0233783913299284,8400,3.679143896020847,0.0
122,1.6525700092315674,3.577049131176179,0.9124648671959258,4.177069152325162,2.0004317228304505,0.0,0.10828927973957657,0.1,0.0028951168060302734,0.06112313270568848,0.050484505,4.0758367,3.3484176839942164,0.0,0.06640080563303,0.0,93,0.0041043758392333984,0.9485441933837513,0.9485441933837513,8493,3.17289304834355,0.0
123,1.3569543361663818,4.014577000636305,0.01591470599715022,4.042048172251642,4.004201618031721,0.0,0.09887540784203909,0.1,0.0025174617767333984,0.05230069160461426,0.050294936,1.9488723,3.415033615658426,0.0,0.08019101247009723,0.0,61,0.0025594234466552734,0.9710545133443688,0.9710545133443688,8554,3.5180087353037073,0.0
124,1.5102713108062744,3.5416057582877265,2.209430826031728,6.09322903452624,0.002164593241146706,0.0,0.10500735573511238,0.1,0.0026094913482666016,0.053025007247924805,0.049565673,2.6374807,3.4276908299213558,0.0,0.05579052914918771,0.0,105,0.003284454345703125,0.976360491408162,0.976360491408162,8659,3.7618924559695723,0.0
125,1.5391333103179932,5.29394951038101,1.714411009897279,8.21476399405544,4.016554261490354,0.0,0.13011617026325595,0.1,0.002950906753540039,0.05578422546386719,0.05001556,1.5575297,3.6143166979673214,0.0,0.10084055078922338,0.0,154,0.011303901672363281,0.9935646726063323,0.9903444877566931,8813,4.0220928112748435,0.0
126,1.4465246200561523,5.395331910367187,1.4327118364025953,7.262247248743975,4.00103666014965,0.0,0.10919205681378574,0.1,0.002841949462890625,0.048919677734375,0.04927066,2.8319435,3.792418219207308,0.0,0.09275067437803546,0.0,101,0.007918596267700195,1.0512575513798097,1.0512575513798097,8914,3.2618131972624003,0.0
127,1.552677869796753,4.0592180419488955,0.06866277164839757,4.173760744502593,4.004987593202824,0.0,0.10624042735131853,0.1,0.0026214122772216797,0.05395793914794922,0.049113635,1.944756,3.819098201481467,0.0,0.08111826516727084,0.0,75,0.0028243064880371094,0.9432431970736773,0.9432431970736773,8989,4.008564313352355,0.0
128,1.5184402465820312,4.021513331639197,0.02818216200743036,4.0697588702927305,4.001260722009465,0.0,0.09719856000100816,0.1,0.0030291080474853516,0.05445528030395508,0.049235076,2.371009,3.83933971449724,0.0,0.07528000530806275,0.0,66,0.0032465457916259766,0.9492451171795742,0.9492451171795742,9055,3.8473060741789133,0.0
129,1.4908640384674072,6.41938756398799,1.9280245964771665,9.403977417472055,4.012954149668453,0.0,0.12663362915339718,0.1,0.0029621124267578125,0.05346107482910156,0.049714223,2.4042275,4.097344499446315,0.0,0.10330147647677565,0.0,162,0.011396408081054688,1.043926055425806,1.0392545933737152,9217,4.005242053488153,0.0
130,1.645078182220459,3.6259420450073163,0.9587547064717243,4.487608951306085,2.0003569760484012,0.0,0.08653206211401532,0.1,0.002624034881591797,0.056642770767211914,0.04954235,5.899525,4.0502042540024155,0.0,0.06751171878555791,0.0,64,0.0033369064331054688,0.95530254806218,0.95530254806218,9281,4.012351609571268,0.0
131,1.6139907836914062,3.512304732305362,0.8729242955797383,4.038712932685416,2.0005443312479434,0.0,0.09183826584538532,0.1,0.0031321048736572266,0.06262660026550293,0.05021401,3.5676315,3.99641430183271,0.0,0.06522042691249177,0.0,54,0.0030095577239990234,0.9540570281300813,0.9540570281300813,9335,4.0067185738594455,0.0
132,1.6863715648651123,4.585368657321455,0.9473837150532449,6.2249579245524655,4.006376042253027,0.0,0.11042316726841038,0.1,0.0039441585540771484,0.06982755661010742,0.049835425,2.5396206,4.0553097373815845,0.0,0.08164522395403838,0.0,96,0.003125429153442383,0.9852456258972438,0.9852456258972438,9431,3.5911699596362934,0.0
133,1.485036849975586,2.753079828663962,2.166805181016705,4.008154149354649,-0.9999343485013239,0.0,0.08282295890880528,0.1,0.003200054168701172,0.13513946533203125,0.050125204,2.539581,3.9250867465098223,0.0,0.04505255086051477,0.0,32,0.004152774810791016,0.982288274059946,0.982288274059946,9463,4.179601526807022,0.0
134,1.6863634586334229,5.130994050729049,1.0944466015370835,6.283912100351881,4.036936864256617,0.0,0.12828406784872967,0.1,0.004134416580200195,0.07114315032958984,0.051416926,2.0342064,4.045677476931745,0.0,0.087567098813374,0.0,151,0.01637434959411621,0.9833267079515497,0.9800966604793944,9614,3.421391682608942,0.0
135,1.7092101573944092,4.540360719248385,0.8996991924903214,6.09865753480044,4.015442565152579,0.0,0.11482977688580184,0.1,0.0037512779235839844,0.07477450370788574,0.050109383,3.1689687,4.095145801163409,0.0,0.08076802789312759,0.0,99,0.004477262496948242,0.9753143375431175,0.9753143375431175,9713,2.9212519095994054,0.0
136,1.7374897003173828,3.5439379405312796,0.893321634830678,4.163385432466296,2.0006800427457274,0.0,0.09686884875779585,0.1,0.003565073013305664,0.06721282005310059,0.048217047,3.0897498,4.040025015100196,0.0,0.06584285622155478,0.0,69,0.004049062728881836,0.9570007773335379,0.9570007773335379,9782,3.5955586379818367,0.0
137,1.69989013671875,4.588547458388825,0.9820664898379872,6.28925660193375,4.001072033462658,0.0,0.10088087336393274,0.1,0.0029876232147216797,0.06747794151306152,0.050362766,2.2508454,4.094877259429059,0.0,0.07675909500824862,0.0,72,0.00365447998046875,1.0227425409098083,1.0227425409098083,9854,2.9204999020047686,0.0
138,1.700643539428711,3.0689050524389687,1.7725216614395722,4.164105117772365,0.00016104073641542982,0.0,0.11162844717484643,0.1,0.008550167083740234,0.06337642669677734,0.050487403,2.2119625,3.9922800387300503,0.0,0.051153133797068734,0.0,78,0.0032796859741210938,0.9352950539602777,0.9352950539602777,9932,3.1760605903130568,0.0
139,1.6092240810394287,4.015785974743476,0.014064797731775063,4.039007608662798,4.00149474643136,0.0,0.10239379512401753,0.1,0.002664804458618164,0.06642818450927734,0.050266333,2.2584472,3.994630632331393,0.0,0.08029257723340866,0.0,68,0.0039899349212646484,0.952276600414333,0.952276600414333,10000,3.5890495805794367,0.0
140,1.5718507766723633,4.006436031885262,0.003386295473072925,4.01186151145999,4.002573562583288,0.0,0.08896491102487503,0.1,0.0032563209533691406,0.08676028251647949,0.04898708,2.699529,3.99581117228678,0.0,0.0801237681567335,0.0,48,0.003365039825439453,0.9716435829481749,0.9716435829481749,10048,3.1732732224649287,0.0
141,1.5561625957489014,2.764262722282566,2.1732986390021964,4.0414126378031225,-0.9999254256260137,0.0,0.07297846098465936,0.1,0.0030660629272460938,0.12281322479248047,0.049886737,2.5750327,3.872656327286359,0.0,0.05027556485277211,0.0,28,0.004138469696044922,0.9906807400939118,0.9906807400939118,10076,4.014518298321359,0.0
142,1.5762808322906494,4.012594289856068,0.011612701322518812,4.028559494517034,4.001008271328908,0.0,0.09451561618835311,0.1,0.0035347938537597656,0.08810663223266602,0.04951313,2.1215844,3.8866501235433297,0.0,0.07523392642357873,0.0,49,0.006123781204223633,0.9754468011531986,0.9754468011531986,10125,4.004568866081891,0.0
143,1.766509771347046,3.7949419994474556,1.837407308542639,6.1619226358556585,1.0002868199225534,0.0,0.11352969910073851,0.1,0.0037832260131835938,0.06791114807128906,0.050342288,2.3992367,3.8774793111337424,0.0,0.05589450053533166,0.0,81,0.0028581619262695312,0.9901116944193871,0.9901116944193871,10206,3.3376831013438397,0.0
144,1.7799522876739502,4.04048048843612,1.444425512113512,6.088810815559899,2.003423356704025,0.0,0.10900234915246927,0.1,0.003387451171875,0.06940269470214844,0.049971625,2.647354,3.89377942886398,0.0,0.06578251574504956,0.0,96,0.004751682281494141,0.9649848682423118,0.9649848682423118,10302,3.838401580732769,0.0
145,1.523799180984497,2.0008276800084066,2.121994149312747,4.001551856161768,-0.9999346780179936,0.0,0.07107267864136724,0.1,0.002197265625,0.039579153060913086,0.04891862,2.546991,3.704484253978423,0.0,0.025013702210727594,0.0,18,0.005481719970703125,1.0144868601308972,1.0144868601308972,10320,4.005236589921547,0.0
146,1.6431596279144287,3.258642026917892,1.3038173932914299,4.017248670317617,1.0003840180341352,0.0,0.08972491203652255,0.1,0.0031943321228027344,0.09362149238586426,0.049203012,2.4549518,3.65990003127237,0.0,0.06015637486874784,0.0,49,0.0056018829345703125,0.9562640006955271,0.9562640006955271,10369,3.087516511611426,0.0
147,1.6184039115905762,3.0066683480274143,1.7358106211146411,4.010512383245539,0.00015668443793859232,0.0,0.0927379464669714,0.1,0.0038208961486816406,0.062471866607666016,0.04989329,2.6877604,3.594576862947875,0.0,0.05512292143980822,0.0,53,0.0032622814178466797,0.9545878310473471,0.9545878310473471,10422,3.504894301380142,0.0
148,1.7724688053131104,4.040618483479527,0.03719885441216185,4.101824003518865,4.004885428578058,0.0,0.1075771512887069,0.1,0.00328826904296875,0.0657203197479248,0.051228642,3.7730377,3.63918102500104,0.0,0.08078596612025574,0.0,78,0.004094600677490234,0.9515032420126748,0.9515032420126748,10500,3.5882972555517267,0.0
149,1.7043592929840088,3.5979463663038658,2.2803775369208674,6.334617073570247,0.0007320206552368091,0.0,0.11176451472675612,0.1,0.003952741622924805,0.07280516624450684,0.049588766,4.0285687,3.635057559131323,0.0,0.05693025620068855,0.0,88,0.0031502246856689453,0.9799356374754604,0.9799356374754604,10588,3.591318691054165,0.0
150,1.5739290714263916,3.5265482194585234,0.8803449827557556,4.095829818948892,2.003144911206048,0.0,0.09846216204506823,0.1,0.002853870391845703,0.05641818046569824,0.048184354,4.3837395,3.6242066251640432,0.0,0.060523637355746035,0.0,64,0.0028526782989501953,0.9507874486794815,0.9507874486794815,10652,3.339576546358163,0.0
151,1.4977190494537354,3.7912254465588306,0.4575269771963448,4.083553551827855,3.0006609664199795,0.0,0.1026162504595751,0.1,0.0029189586639404297,0.06293129920959473,0.0497591,2.6684194,3.6409085073035223,0.0,0.07078930704207086,0.0,92,0.0031316280364990234,0.9335140987532473,0.9335140987532473,10744,3.594359679230712,0.0
152,1.5675315856933594,4.1093566997160575,0.11319401333389945,4.287235122592364,4.010054203312142,0.0,0.11528211529007866,0.1,0.0030035972595214844,0.06023144721984863,0.048616033,2.9398525,3.687753326544776,0.0,0.08209427540764294,0.0,114,0.0049703121185302734,0.935511351670682,0.935511351670682,10858,3.2583857175518887,0.0
153,1.649616003036499,3.063520538757455,1.7707111454464204,4.223719552674314,0.00014737544319332052,0.0,0.10668560110521037,0.1,0.003755331039428711,0.06494379043579102,0.05043794,2.7499568,3.625330047766044,0.0,0.0560670828413127,0.0,95,0.00449681282043457,0.936020245140612,0.936020245140612,10953,3.2578098713255463,0.0
154,1.5899674892425537,3.290448517831045,0.8657708539611161,4.118354442368819,2.0005509574710425,0.0,0.10306576498648812,0.1,0.002923727035522461,0.05611729621887207,0.049971733,3.670749,3.591841894772544,0.0,0.0557705692056234,0.0,87,0.0036725997924804688,0.9288394787426639,0.9288394787426639,11040,4.007542092408989,0.0
155,1.5317037105560303,4.0258725096321415,0.01841489251671324,4.0556718353009,4.006268771906228,0.0,0.1083822796903386,0.1,0.0030519962310791016,0.06166529655456543,0.05064637,2.6207511,3.635244956258504,0.0,0.08043608443983064,0.0,81,0.003515481948852539,0.9371232965810417,0.9371232965810417,11121,4.00790116467448,0.0
156,1.5903427600860596,3.542898437694946,0.8927696882787086,4.158782557788642,2.0003547681381217,0.0,0.09778681727785679,0.1,0.003428936004638672,0.06307840347290039,0.04969315,4.48006,3.6260103044021483,0.0,0.06580351053567898,0.0,72,0.003175497055053711,0.940495101754254,0.940495101754254,11193,3.2568823758600995,0.0
157,1.580388069152832,2.823817812403414,2.209997556061421,4.264153971022692,-0.9999279228762861,0.0,0.09644382885570224,0.1,0.0027778148651123047,0.0596923828125,0.050137173,4.1246614,3.5457910552022747,0.0,0.051296779431320494,0.0,66,0.00274658203125,0.9414442759371542,0.9414442759371542,11259,3.4236304992652298,0.0
158,1.7052578926086426,4.276678374383235,1.7933357578172184,7.027925122628804,2.000862677244199,0.0,0.1197773510821913,0.1,0.00331878662109375,0.061670780181884766,0.048389558,1.3299634,3.618879787120371,0.0,0.07042236527572464,0.0,92,0.0030503273010253906,1.0005263832987823,1.0005263832987823,11351,3.8387876160487067,0.0
159,1.4181041717529297,4.002958853800045,0.0008901639212778156,4.004271050990836,4.001872018398611,0.0,0.10018493328205103,0.1,0.0025517940521240234,0.050473690032958984,0.049417622,2.041467,3.6572876937883385,0.0,0.08005821833452523,0.0,56,0.0026412010192871094,0.9737098776853135,0.9737098776853135,11407,3.5883946762142522,0.0
160,1.569810152053833,4.067921895858002,0.08657529056093273,4.216160410574282,4.0070141176926,0.0,0.11965712200531321,0.1,0.0030269622802734375,0.05712008476257324,0.051216822,4.455738,3.698351113995305,0.0,0.0813435714274395,0.0,113,0.0046002864837646484,0.9321651795938497,0.9321651795938497,11520,3.5917380992316876,0.0
161,1.6391820907592773,3.349400535531854,2.6809016479574477,6.332231163767172,-0.9999290276650306,0.0,0.10998465279437115,0.1,0.0028231143951416016,0.05486607551574707,0.049532797,2.4124277,3.6634560561489597,0.0,0.0518484723192326,0.0,82,0.0031321048736572266,0.9905890669681076,0.9905890669681076,11602,3.338961779932904,0.0
162,1.5594751834869385,4.026009264308291,0.027492269126641877,4.068472191302362,4.001073842022892,0.0,0.10370057596012627,0.1,0.0027358531951904297,0.05852842330932617,0.05044805,3.2040806,3.699711376964893,0.0,0.08048129334816592,0.0,80,0.003113985061645508,0.9414843515874214,0.9414843515874214,11682,3.2577080459207406,0.0
163,1.4865078926086426,3.5148115866977707,0.8741532991729277,4.049324440818554,2.001066802239456,0.0,0.09389861295320262,0.1,0.0025098323822021484,0.08151626586914062,0.05004363,1.9455154,3.6812213979381805,0.0,0.06523175131347558,0.0,44,0.0029196739196777344,0.9724034523927368,0.9724034523927368,11726,3.3413559843386866,0.0
164,1.6501305103302002,4.013221729934226,0.010796102581490608,4.028555956049065,4.002749567885608,0.0,0.10227561133617874,0.1,0.0028378963470458984,0.06103157997131348,0.049213883,2.233964,3.7144214311377852,0.0,0.08023930006752322,0.0,75,0.0032491683959960938,0.948422752933257,0.948422752933257,11801,3.7579895489480752,0.0
165,1.692948341369629,3.057592389663202,1.767362686048858,4.218839858971072,0.00014365433016316764,0.0,0.10310827582789671,0.1,0.0028269290924072266,0.06043529510498047,0.04875286,3.4429908,3.6487385269903267,0.0,0.05608079921875955,0.0,75,0.0032339096069335938,0.9422451855141484,0.9422451855141484,11876,3.2586855745859054,0.0
166,1.7285962104797363,4.062198480102843,0.08584081843260363,4.209202785400055,4.002175104926093,0.0,0.10216977459598314,0.1,0.0025720596313476562,0.06074333190917969,0.04934235,2.9240549,3.6900845223015786,0.0,0.07624167261456528,0.0,73,0.003542661666870117,0.9562927503489769,0.9562927503489769,11949,3.5916413334762107,0.0
167,1.5362374782562256,3.259157158570708,1.3040142437433684,4.013996984090932,1.0005417924347564,0.0,0.10006000192782766,0.1,0.003223896026611328,0.06502413749694824,0.04928241,5.089889,3.6469917859284915,0.0,0.06017765157173171,0.0,63,0.0033693313598632812,0.9370204038428965,0.9370204038428965,12012,3.1727265674500167,0.0
168,1.5734784603118896,4.0252879484698365,0.031480013628614446,4.079500072501098,4.002964663094653,0.0,0.09646563027921082,0.1,0.003098011016845703,0.06299209594726562,0.04957626,2.9820697,3.6848214021826258,0.0,0.08047704703602944,0.0,67,0.003778696060180664,0.9569773946758483,0.9569773946758483,12079,3.926424553083986,0.0
169,1.6375224590301514,2.7678158617560236,2.1753733620175666,4.048680609598183,-0.999930501432374,0.0,0.09242778491938403,0.1,0.0032835006713867188,0.06495165824890137,0.04913334,3.8076935,3.5931208481399657,0.0,0.05034189383378667,0.0,68,0.0038385391235351562,0.9316789936903447,0.9316789936903447,12147,3.6860599934924387,0.0
170,1.5115687847137451,3.005892515473074,1.7353600749041564,4.008820552663648,0.0001608950171561041,0.0,0.08749474732009857,0.1,0.0028645992279052734,0.10857009887695312,0.050214883,3.2778027,3.5343980148732768,0.0,0.050107138960485215,0.0,35,0.0062100887298583984,0.9734661253786772,0.9734661253786772,12182,3.9237055589916845,0.0
171,1.6258878707885742,4.009045083837368,0.005060891965882921,4.014503741947064,4.003143448599674,0.0,0.09406698545671816,0.1,0.0035185813903808594,0.061187028884887695,0.048902515,2.9433038,3.581862721769686,0.0,0.08016342522978379,0.0,70,0.00461578369140625,0.9506413461455948,0.9506413461455948,12252,3.2568722962012853,0.0
172,1.739065170288086,3.0760435435210525,1.7792640420309689,4.281025394899088,0.00017960664237959278,0.0,0.09795132158575098,0.1,0.003068685531616211,0.0681905746459961,0.049597092,3.169434,3.531280803944823,0.0,0.05649445927933151,0.0,73,0.0035829544067382812,0.9364231175601835,0.9364231175601835,12325,3.43053738791664,0.0
173,1.6346187591552734,4.024603229158243,0.03779289971963163,4.090037387296547,4.001112170540437,0.0,0.09333016411994152,0.1,0.0027887821197509766,0.061786651611328125,0.048964128,2.2184565,3.580613046466165,0.0,0.08049987931443653,0.0,55,0.0033159255981445312,0.9665923317402295,0.9665923317402295,12380,3.512607177969251,0.0
174,1.5142884254455566,4.025730716020849,0.02256830679182304,4.052020781127412,4.0012979397714545,0.0,0.11567971355988788,0.1,0.002611875534057617,0.05398297309875488,0.049876437,3.6177876,3.6251248134216336,0.0,0.07547143968479954,0.0,86,0.0028455257415771484,0.9457627030989936,0.9457627030989936,12466,2.8545633647686053,0.0
175,1.572998046875,3.044020656071739,1.758408553464739,4.159435396601357,0.00025039668229442924,0.0,0.0943634449178081,0.1,0.0025191307067871094,0.05285501480102539,0.048803408,3.2613425,3.5670143976866444,0.0,0.055832460364188895,0.0,52,0.0029001235961914062,0.9555306476680347,0.9555306476680347,12518,3.806004370777464,0.0
176,1.4900994300842285,4.527368828313402,0.8959753517762613,6.079143814015986,4.001062399155311,0.0,0.10215856790161902,0.1,0.002472400665283203,0.04874992370605469,0.050640386,2.4599125,3.6630498407493204,0.0,0.07555247195962397,0.0,85,0.0034821033477783203,0.9972538604049004,0.9972538604049004,12603,3.3425319412105385,0.0
177,1.3624370098114014,4.02099839483134,0.016347383843339926,4.041598785957763,4.001447229699629,0.0,0.08561078434223834,0.1,0.0023162364959716797,0.08345770835876465,0.05016487,1.9133343,3.698844696157522,0.0,0.08041446229701463,0.0,40,0.002483844757080078,0.9815102045589678,0.9815102045589678,12643,3.7611134374114883,0.0
178,1.6083056926727295,2.91731658259478,3.534218663522205,8.658002911562987,-0.9999296745749662,0.0,0.09161881004120266,0.1,0.004770040512084961,0.048867225646972656,0.048872817,48.84456,3.620691884801248,0.0,0.033228102879065115,0.0,59,0.0025987625122070312,1.0491480144280236,1.0491480144280236,12702,2.9562463337202183,0.0
179,1.5222365856170654,4.7131881795259005,1.0602450747340282,6.539471080402402,4.010710284605817,0.0,0.12140393266191346,0.1,0.002924203872680664,0.05120587348937988,0.049318124,2.9703703,3.7299415142737136,0.0,0.0841665613630495,0.0,132,0.012009143829345703,0.9666724983265441,0.9629616810524194,12834,3.7748684388623635,0.0
180,1.6683542728424072,3.807250181497399,0.4681945980000456,4.161164719576083,3.0016504255211247,0.0,0.10088611195136107,0.1,0.00503993034362793,0.05762481689453125,0.049714915,2.869268,3.737672380996082,0.0,0.07112670241781287,0.0,82,0.0035429000854492188,0.9393938841448083,0.9393938841448083,12916,3.5512026713788027,0.0
181,1.421358346939087,1.5104767163765849,2.5104048736316145,4.020909372483628,-0.9999293757951899,0.0,0.08347436967292748,0.1,0.003152132034301758,0.10550856590270996,0.05014884,3.8152118,3.5149528145341327,0.0,0.02019652282051165,0.0,33,0.002848386764526367,0.9594328651445364,0.9594328651445364,12949,3.824272798161753,0.0
182,1.6739246845245361,3.792027259597118,1.8270799019810748,6.1288625042494385,1.0012351814420772,0.0,0.11357396917717387,0.1,0.0035560131072998047,0.05878400802612305,0.05038128,1.907037,3.542660259040431,0.0,0.060813279887873176,0.0,80,0.003426074981689453,0.9833459727110992,0.9833459727110992,13029,4.31448010593498,0.0
183,1.6208083629608154,5.358430919202458,2.252195168765236,9.259112420724115,4.020601626994347,0.0,0.11791310525870018,0.1,0.003127574920654297,0.06268715858459473,0.05002454,1.1996802,3.724237325056634,0.0,0.1069699249371286,0.0,115,0.011516332626342773,1.0028038480246935,1.0028038480246935,13144,3.032775248291348,0.0
184,1.766014814376831,3.568297435661134,2.238263035431154,6.186026967821581,0.00015414448417816473,0.0,0.1016721468316456,0.1,0.004279136657714844,0.06693053245544434,0.048704386,4.49747,3.7086433361170843,0.0,0.05619520932524187,0.0,90,0.0037348270416259766,0.9719036717058115,0.9719036717058115,13234,3.7152165017231042,0.0
185,1.7012929916381836,4.1089072600581735,0.17541768950873804,4.412688246147262,4.002392806967148,0.0,0.11133263180145432,0.1,0.003180265426635742,0.06495451927185059,0.050055973,1.9931774,3.748669728511193,0.0,0.08198376480213991,0.0,78,0.0037190914154052734,0.9399946540393027,0.9399946540393027,13312,3.365192699164298,0.0
186,1.7011303901672363,4.1602048694508955,0.25090967485874155,4.594411464224103,4.001524018543865,0.0,0.12226031203358313,0.1,0.0029687881469726562,0.07055497169494629,0.050141,1.9818233,3.7898232426051637,0.0,0.08306811703994593,0.0,105,0.00661015510559082,0.9378861716517245,0.9378861716517245,13417,4.768247424002499,0.0
187,1.7846944332122803,3.315833727970086,2.012354337166867,6.252647521143499,1.0002959035276264,0.0,0.09690037042049951,0.1,0.003301382064819336,0.06133317947387695,0.049562853,7.9958158,3.742424291141656,0.0,0.04629994614692144,0.0,67,0.003558635711669922,1.0068287061863246,1.0068287061863246,13484,4.066960957508208,0.0
188,1.7210872173309326,3.2793743397560564,1.3160997360754982,4.09612271538674,1.0006294207402058,0.0,0.1130329273001652,0.1,0.0036840438842773438,0.06419825553894043,0.050018426,6.482855,3.6961192960030957,0.0,0.06058039301538451,0.0,82,0.00359344482421875,0.9322567557351082,0.9322567557351082,13566,3.9410781702231894,0.0
189,1.6739330291748047,3.922417167580439,1.7370425485101448,6.667638849897522,2.00034894268372,0.0,0.09759719213510008,0.1,0.002647876739501953,0.054952144622802734,0.04904197,4.195653,3.71874908316083,0.0,0.058295171330699405,0.0,80,0.0029790401458740234,1.001396169052339,1.001396169052339,13646,3.8536327760570335,0.0
190,1.4613173007965088,4.008916336039186,0.005632819188438185,4.017826003137106,4.002302523246173,0.0,0.08405195185352665,0.1,0.002584218978881836,0.08101391792297363,0.050324183,2.9089043,3.747765808448666,0.0,0.07518199330612496,0.0,42,0.0028922557830810547,0.9831001708151116,0.9831001708151116,13688,3.37372009594633,0.0
191,1.5466053485870361,2.502843808297662,1.660372993635744,4.009081572197257,0.00024311072860072613,0.0,0.08656878984694388,0.1,0.0024328231811523438,0.07696819305419922,0.049409054,3.5114374,3.6232736084335655,0.0,0.04005273318974647,0.0,45,0.002645730972290039,0.9497398837470654,0.9497398837470654,13733,3.775785475838171,0.0
192,1.6292901039123535,4.1400794812692165,0.8490159882143471,5.392227262662586,3.000495090714036,0.0,0.10140288971504151,0.1,0.002751588821411133,0.05758833885192871,0.04968128,2.5514073,3.6749541957171306,0.0,0.06743482139054013,0.0,83,0.0035033226013183594,0.9498191298103108,0.9498191298103108,13816,3.77360364306713,0.0
193,1.6337099075317383,3.780728224694725,0.4504195423071101,4.051467896277713,3.0006656202295314,0.0,0.11174846137851269,0.1,0.0026443004608154297,0.057161808013916016,0.050237443,2.819366,3.68553159861489,0.0,0.07060398635483664,0.0,83,0.003065347671508789,0.9341322715473539,0.9341322715473539,13899,3.017512257403789,0.0
194,1.694817304611206,3.324773793784908,1.3469035217579695,4.285897916859426,1.0002526594946899,0.0,0.09584403729939651,0.1,0.0025207996368408203,0.05403900146484375,0.050535914,5.3989334,3.649455818131892,0.0,0.06149480715670034,0.0,65,0.0035729408264160156,0.9496330658956256,0.9496330658956256,13964,3.8543272003930014,0.0
195,1.7265291213989258,4.105346277696185,0.11250341245304032,4.274337128460764,4.002658809190432,0.0,0.11023158651708671,0.1,0.003131389617919922,0.06201887130737305,0.050018422,1.8844275,3.6950448640883216,0.0,0.08190314670477011,0.0,91,0.0038270950317382812,0.9377367895874232,0.9377367895874232,14055,3.7471951050358157,0.0
196,1.7012712955474854,3.0168574071932683,1.7417591222076112,4.04175963472127,0.00013427660604015124,0.0,0.09987635693577841,0.1,0.003607511520385742,0.0663292407989502,0.049258385,4.6967845,3.6272261183988164,0.0,0.0553132027555174,0.0,80,0.0033385753631591797,0.9350077226534989,0.9350077226534989,14135,4.205425941762546,0.0
197,1.5314600467681885,2.252552976796272,1.7861134085136363,4.005415994093797,0.0028462247330653945,0.0,0.07087174558171315,0.1,0.002006053924560547,0.041639089584350586,0.049999565,2.6309617,3.489758804238562,0.0,0.035049690262133754,0.0,19,0.0036721229553222656,1.0065246909082126,1.0065246909082126,14154,4.04494111857736,0.0
198,1.7559900283813477,4.239071753560797,1.7140461423908242,6.826403061608383,2.0040145208663507,0.0,0.12024322727701518,0.1,0.003715038299560547,0.06952834129333496,0.049148314,2.9207187,3.5646900991707855,0.0,0.06975185348758464,0.0,130,0.016606569290161133,0.9594830964751628,0.9515665071836413,14284,3.9845456583971846,0.0
199,1.6262521743774414,3.01161056195095,1.7386776602948535,4.025635980131765,0.0001578333173821722,0.0,0.09316315009010404,0.1,0.0032346248626708984,0.06781506538391113,0.0497205,2.7257967,3.509382145448802,0.0,0.055216603088242965,0.0,54,0.003030061721801758,0.9411862440343712,0.9411862440343712,14338,4.566071793324604,0.0
200,1.6149675846099854,3.513248076432002,0.8735911981202737,4.034199120909309,2.000275505054839,0.0,0.09560374355956532,0.1,0.0026276111602783203,0.0605621337890625,0.050366826,1.7671665,3.509768738547122,0.0,0.06525366947426707,0.0,50,0.0028400421142578125,0.9503175453751909,0.9503175453751909,14388,3.989788691114576,0.0
201,1.6991889476776123,3.837471626495736,0.4886893091028179,4.202686999404951,3.0004445719509727,0.0,0.10731971016626883,0.1,0.003175020217895508,0.06598210334777832,0.049661927,2.5356433,3.5425390273419834,0.0,0.07143907680855793,0.0,77,0.003634214401245117,0.9313761933087987,0.9313761933087987,14465,4.578789282417511,0.0
202,1.704836368560791,4.079641751945588,0.08010117989169267,4.196622938000225,4.004911407303827,0.0,0.1148290837777326,0.1,0.003185272216796875,0.06353402137756348,0.048990577,2.8511405,3.596249299802344,0.0,0.08157870023786201,0.0,122,0.0056459903717041016,0.9246115180378971,0.9246115180378971,14587,4.216583711881731,0.0
203,1.4735357761383057,3.757354330489051,0.43686140874018714,4.026793865257931,3.000910629255632,0.0,0.09886673888936845,0.1,0.002824544906616211,0.05238175392150879,0.04983544,1.7347107,3.6123598028710147,0.0,0.06515087407472371,0.0,56,0.002817869186401367,0.9521400925314427,0.9521400925314427,14643,4.293277467576712,0.0
204,1.375396490097046,4.01446485205277,0.0163591416465735,4.042278282276864,4.001805043522073,0.0,0.09420175637131278,0.1,0.002677440643310547,0.04848313331604004,0.048949238,2.524463,3.6525703077891905,0.0,0.08027490873156892,0.0,54,0.0027008056640625,0.9467740352050886,0.9467740352050886,14697,4.307835775928484,0.0
205,1.4492199420928955,4.039531476649904,0.051285014912551025,4.126477023538427,4.000888419625867,0.0,0.09637514095394024,0.1,0.003003835678100586,0.04979825019836426,0.0489067,2.9638295,3.691266424675262,0.0,0.08068909393441198,0.0,81,0.0026221275329589844,0.9378977075461905,0.9378977075461905,14778,3.5377421525196446,0.0
206,1.4673306941986084,4.529493084021853,0.9025743712771455,6.092784633747786,4.002807219011727,0.0,0.11689981777983252,0.1,0.002978086471557617,0.05184340476989746,0.04972685,3.0622919,3.7750890906099213,0.0,0.08057301905719041,0.0,101,0.005224466323852539,0.9700669775600977,0.9700669775600977,14879,3.6943117827878935,0.0
207,1.4037816524505615,4.01290203700531,0.008436413582658724,4.0251902355235805,4.002461218671163,0.0,0.09096043503039664,0.1,0.0026319026947021484,0.0501248836517334,0.048977423,2.6563005,3.7988703852494603,0.0,0.08025018844125781,0.0,51,0.0028104782104492188,0.9645865813986079,0.9645865813986079,14930,4.114481365485586,0.0
208,1.5963811874389648,4.701237681458738,3.7251922362920284,10.430410066879238,0.00014109892019265047,0.0,0.11022185421201969,0.1,0.0027396678924560547,0.05608558654785156,0.050457086,1.5335355,3.889107114870388,0.0,0.07895447343016945,0.0,101,0.005118370056152344,1.018109300724032,1.018109300724032,15031,3.4031090618292468,0.0
209,1.4497535228729248,3.5289653246837154,0.5295279814504722,4.105005174780965,3.000456754494837,0.0,0.09599493696306478,0.1,0.0029053688049316406,0.05537271499633789,0.050133415,2.2984571,3.8530929358517207,0.0,0.06050495675676597,0.0,50,0.0029599666595458984,0.9411820974020348,0.9411820974020348,15081,3.847922220933631,0.0
210,1.4626705646514893,4.012102578453097,0.008819737721768457,4.025306720501857,4.0008195154418775,0.0,0.08696856560382565,0.1,0.002591371536254883,0.1046760082244873,0.04994082,2.2900271,3.8689939001118585,0.0,0.08023861130999467,0.0,37,0.0026035308837890625,0.9825826495677383,0.9825826495677383,15118,3.558488457341735,0.0
211,1.7731306552886963,4.2930455956350455,1.1413789247256354,6.136438385611752,3.005387850816258,0.0,0.10405417107696265,0.1,0.0032825469970703125,0.06536698341369629,0.049247395,3.3455415,3.9113990696641774,0.0,0.07085282126289526,0.0,88,0.004031181335449219,0.9712892531536619,0.9712892531536619,15206,4.206234337814794,0.0
212,1.6675968170166016,4.035499406579992,0.05129677869224477,4.124269213695151,4.002471905267289,0.0,0.10195245269336795,0.1,0.0032148361206054688,0.06159162521362305,0.04968919,3.0926888,3.923809103355759,0.0,0.0806673537019132,0.0,69,0.0033905506134033203,0.9429634530750768,0.9429634530750768,15275,3.844490494727287,0.0
213,1.6487457752227783,4.008624361477221,0.005916241483696914,4.017487508755988,4.002451950842072,0.0,0.10162295364759678,0.1,0.0030596256256103516,0.06317305564880371,0.04963651,2.0365317,3.932290629167905,0.0,0.08016348825584083,0.0,69,0.0035660266876220703,0.9327784877018693,0.9327784877018693,15344,4.017170245224818,0.0
214,1.7896878719329834,4.54731997984957,0.9391294019128315,6.173938751295788,4.003427808158483,0.0,0.12147789028704933,0.1,0.003048419952392578,0.06554555892944336,0.048805486,1.5352498,3.993793564236072,0.0,0.0809173488411396,0.0,98,0.006286144256591797,0.9688924376766592,0.9688924376766592,15442,3.263959743694814,0.0
215,1.6469027996063232,3.5131081500218433,0.5117192469735155,4.044132383695278,3.0013767850161344,0.0,0.10059889969540159,0.1,0.0030357837677001953,0.06295561790466309,0.049251623,2.2607276,3.9457250228146488,0.0,0.06024053592787254,0.0,56,0.0038940906524658203,0.9357701379898234,0.9357701379898234,15498,3.9734852156868286,0.0
216,1.6709599494934082,4.788817506856304,1.338917250382477,7.107839925765165,4.005807301872312,0.0,0.11294232331789548,0.1,0.0034432411193847656,0.06892991065979004,0.049213868,3.310617,4.030034271218814,0.0,0.0907600706443335,0.0,95,0.0032167434692382812,0.9712932126844521,0.9712932126844521,15593,3.1918830741279636,0.0
217,1.6763989925384521,4.05087691494982,0.07763678780186668,4.185310143767603,4.004513054570449,0.0,0.10548051117449538,0.1,0.003008604049682617,0.06329894065856934,0.049435243,2.1477203,4.0321185355919145,0.0,0.08087439144832281,0.0,79,0.0033392906188964844,0.9361980914799297,0.9361980914799297,15672,2.7876050797305805,0.0
218,1.704420804977417,3.792376712880326,0.4612373129911702,4.156466843522322,3.0005855743232925,0.0,0.10804767192818969,0.1,0.0030901432037353516,0.06249403953552246,0.049856383,2.6347566,4.0081443533207555,0.0,0.07059330103628413,0.0,70,0.0036017894744873047,0.9353040719150483,0.9353040719150483,15742,3.7917428727695284,0.0
219,1.7916738986968994,4.043597379371579,0.037380940730167136,4.086865958783971,4.000563444172795,0.0,0.11099241019804525,0.1,0.003341197967529297,0.0662531852722168,0.04917812,2.2895582,4.011689655925838,0.0,0.0807898006910161,0.0,92,0.003490447998046875,0.922899123427696,0.922899123427696,15834,3.435349681502995,0.0
220,1.6230497360229492,4.534863799728925,0.8661512190508208,6.033492810547197,4.001631997893697,0.0,0.11603765220073997,0.1,0.0029456615447998047,0.06322741508483887,0.04911467,2.245475,4.064007070306147,0.0,0.08058900054677214,0.0,101,0.004945039749145508,0.958501184664393,0.958501184664393,15935,3.678532528370424,0.0
221,1.5948960781097412,3.88055809826223,0.5376381651086473,4.462509586705062,3.0014387006341243,0.0,0.1098093616942079,0.1,0.003076314926147461,0.057245731353759766,0.04962246,4.9426265,4.045662173101755,0.0,0.0725364980896834,0.0,94,0.0029418468475341797,0.9211983943359977,0.9211983943359977,16029,3.2564419987709345,0.0
222,1.5700185298919678,3.802600270773425,0.4585470556798671,4.104265740510623,3.011197181650586,0.0,0.12209897083392048,0.1,0.0027599334716796875,0.056978464126586914,0.0501401,1.697478,4.021355982868922,0.0,0.07104888892312845,0.0,91,0.0030984878540039062,0.9193098184314026,0.9193098184314026,16120,3.533869681402747,0.0
223,1.5106816291809082,3.2784538988919656,1.3157651555168894,4.094679397314421,1.0002810685274508,0.0,0.09786853662624341,0.1,0.0027425289154052734,0.05529022216796875,0.05000505,2.34542,3.9470657744712265,0.0,0.06046748281541689,0.0,54,0.0033800601959228516,0.9417290327499233,0.9417290327499233,16174,3.0992874205696226,0.0
224,1.5403335094451904,4.017835284574542,0.02195701768745389,4.055648584188723,4.002393289138404,0.0,0.0925925640666822,0.1,0.002646207809448242,0.05586409568786621,0.050277833,2.258931,3.954142725481558,0.0,0.08027907944610059,0.0,51,0.0028333663940429688,0.9591223361337071,0.9591223361337071,16225,3.6176545661344126,0.0
225,1.608323335647583,4.273493108101329,0.44974291581149883,5.052306287315192,4.003559019913721,0.0,0.10781953593085666,0.1,0.003007173538208008,0.05580329895019531,0.05011548,1.7089727,3.986077763743535,0.0,0.08017370311741744,0.0,66,0.0033423900604248047,0.9560418831109059,0.9560418831109059,16291,4.275598283614304,0.0
226,1.518559455871582,3.011071196281101,1.7383840796720793,4.028613783251743,0.00014271916718988642,0.0,0.09142146219953891,0.1,0.0025577545166015625,0.08364176750183105,0.04963076,4.1144056,3.8885771069972916,0.0,0.05521812714267548,0.0,46,0.00238037109375,0.951586737252442,0.951586737252442,16337,4.531932007928918,0.0
227,1.4497685432434082,3.5042476897201915,0.8680803279847011,4.006166524252779,2.000688805566539,0.0,0.09046514606582029,0.1,0.0025877952575683594,0.09214448928833008,0.050485123,2.469305,3.850144165269582,0.0,0.06508010698846073,0.0,43,0.0025217533111572266,0.9602236341387985,0.9602236341387985,16380,3.444129398204282,0.0
228,1.6568007469177246,2.824476524298102,2.2082701800822213,4.135283541998691,-0.9999277533304267,0.0,0.10569332466439704,0.1,0.003075838088989258,0.06701827049255371,0.04971351,3.067061,3.7475774011724337,0.0,0.05131204580416804,0.0,86,0.0033195018768310547,0.9251931619068925,0.9251931619068925,16466,2.932527112659519,0.0
229,1.4573605060577393,2.7579333730262463,1.292563548017834,4.005164959138384,1.0242073516471684,0.0,0.07802111405596446,0.1,0.0028853416442871094,0.10561156272888184,0.04949925,2.6533334,3.648612998357815,0.0,0.045157631307010684,0.0,29,0.0028982162475585938,0.9791768009566606,0.9791768009566606,16495,3.9381545526063384,0.0
230,1.6799333095550537,4.133850456809814,0.21317398895245315,4.503032993904999,4.006459128505748,0.0,0.10683137609071258,0.1,0.003198862075805664,0.05870246887207031,0.049901016,2.1635287,3.697136744203015,0.0,0.0826687378783589,0.0,77,0.0032820701599121094,0.9389141221365661,0.9389141221365661,16572,3.9412432905376082,0.0
231,1.5612049102783203,2.7651657675600236,2.1738114897196588,4.035712858137985,-0.9999308411430385,0.0,0.09898239253426647,0.1,0.0026388168334960938,0.05666494369506836,0.05077062,3.1470995,3.6039396465387163,0.0,0.05030996990127041,0.0,59,0.0032958984375,0.9389872456321547,0.9389872456321547,16631,4.056889287067096,0.0
232,1.5346145629882812,3.512098277221493,0.8717718379556537,4.038427822071506,2.0023448942453226,0.0,0.10020761594905457,0.1,0.0031397342681884766,0.05605936050415039,0.050511174,2.0593178,3.594755509606994,0.0,0.06523516308433193,0.0,52,0.002943277359008789,0.9454280833358387,0.9454280833358387,16683,3.5964569366604366,0.0
233,1.6767926216125488,4.059778828454048,0.07347326885164486,4.186480664267623,4.01151962616067,0.0,0.10771361749384163,0.1,0.0028519630432128906,0.05943107604980469,0.04928191,8.258091,3.6412578414916994,0.0,0.08102382677790215,0.0,80,0.0032455921173095703,0.9425385025191372,0.9425385025191372,16763,4.0213357031660335,0.0
234,1.655379295349121,3.52019232590147,0.8771918728192744,4.075661375629414,2.0017523717445798,0.0,0.09243964353416476,0.1,0.002552032470703125,0.08405709266662598,0.050112817,2.9265697,3.6291512899326763,0.0,0.06539994846130086,0.0,49,0.002956390380859375,0.9431772132330903,0.9431772132330903,16812,4.184810000392773,0.0
235,1.6157009601593018,5.042632834367303,1.7412216696685658,8.058287258520869,4.01098843724398,0.0,0.107256341231414,0.1,0.002918243408203125,0.0577850341796875,0.049814153,1.8721479,3.770499444376139,0.0,0.09582915113739233,0.0,93,0.003145456314086914,0.987932296531523,0.987932296531523,16905,3.7599018728600977,0.0
236,1.6460041999816895,4.560267821403235,0.9373355401003581,6.183580407767546,4.001798121195611,0.0,0.1170226984694109,0.1,0.002775907516479492,0.05734992027282715,0.049963046,1.6407439,3.849476282078849,0.0,0.08114657750741809,0.0,101,0.0057294368743896484,0.9640886754229153,0.9640886754229153,17006,2.8447571319850424,0.0
237,1.7437796592712402,4.790819788376744,0.8646327946471474,6.098381491755399,4.008567847497311,0.0,0.11473868310096234,0.1,0.002995729446411133,0.060593366622924805,0.04946664,2.1006677,3.9436106327086384,0.0,0.08079294215064489,0.0,102,0.004034519195556641,0.9803182039218351,0.9803182039218351,17108,4.266709495768139,0.0
238,1.581003189086914,3.7526263938721547,0.43408070795825954,4.004100209411126,3.000778577399488,0.0,0.0843573496489553,0.1,0.003401517868041992,0.08495616912841797,0.049573284,1.7792561,3.92451220882499,0.0,0.07004584472410985,0.0,41,0.0031147003173828125,0.9697238177334658,0.9697238177334658,17149,4.264801666357351,0.0
239,1.7375614643096924,0.7545169458129807,1.9277130947525636,4.0176663416841345,-0.9999257482941815,0.0,0.07626601811594201,0.1,0.002650737762451172,0.1044149398803711,0.045564704,18.687819,3.6075126825237893,0.0,8.29157635026806e-05,0.0,33,0.0028405189514160156,0.9150658818885491,0.9150658818885491,17182,4.0150074184918525,0.0
240,1.8520269393920898,3.3944968416458057,1.3913082590363675,4.440155756489241,1.0004687722835082,0.0,0.10881446852558531,0.1,0.003376007080078125,0.0620882511138916,0.049904995,2.4340935,3.586211098435991,0.0,0.06284089944688238,0.0,91,0.0031321048736572266,0.9281590275676739,0.9281590275676739,17273,4.43625337958136,0.0
241,1.6609914302825928,3.529719481925609,0.882641524330758,4.085048872899976,2.0017891344509726,0.0,0.09382104544979246,0.1,0.003273487091064453,0.08410048484802246,0.049957898,1.8973733,3.580561936784953,0.0,0.06546357555587522,0.0,47,0.0031185150146484375,0.9616190950221679,0.9616190950221679,17320,4.042927795295012,0.0
242,1.6805930137634277,4.021676087206896,0.012761000367299664,4.035733609722625,4.002070199758849,0.0,0.11119263327872599,0.1,0.0034027099609375,0.06252336502075195,0.049704637,1.9585658,3.6246733518271474,0.0,0.08040923316284347,0.0,77,0.003496408462524414,0.9325927985900352,0.9325927985900352,17397,3.6119666142194764,0.0
243,1.840014934539795,5.421877430359141,1.3578221200662852,7.234638067677057,4.03148062294662,0.0,0.12704873052160434,0.1,0.004045963287353516,0.07057738304138184,0.049396846,2.4283147,3.804393759680347,0.0,0.08841332988866613,0.0,167,0.013338565826416016,0.9833290252151697,0.9775382306531285,17564,3.630751912604126,0.0
244,1.6499454975128174,3.51169417750088,0.8726629873846536,4.032181255403781,2.0003231559090633,0.0,0.08595576070834027,0.1,0.0030565261840820312,0.0935511589050293,0.049909,2.449644,3.7751238014624007,0.0,0.0602166358013234,0.0,38,0.0034775733947753906,0.9517929228805369,0.9517929228805369,17602,4.542845962831045,0.0
245,1.6075949668884277,3.252839511587139,0.8300438099762214,4.006258010689901,2.002278653701589,0.0,0.08777538858471647,0.1,0.002897024154663086,0.10108423233032227,0.050177917,1.8014563,3.7228953724748743,0.0,0.055040067884184266,0.0,33,0.0030984878540039062,0.965799432353632,0.965799432353632,17635,4.0414181280177655,0.0
246,1.6558375358581543,3.007423078407559,1.7362568273129984,4.019578947163074,0.0001581881839070043,0.0,0.08714738970241474,0.1,0.0029609203338623047,0.09509420394897461,0.050570004,1.828807,3.651348143068143,0.0,0.0501248037666254,0.0,38,0.0032711029052734375,0.9583403310421655,0.9583403310421655,17673,4.370431034538341,0.0
247,1.6451983451843262,2.6769606177271488,2.205144391942107,4.672825131191401,-0.9999254976113467,0.0,0.09714276595236938,0.1,0.002709627151489258,0.05208730697631836,0.04997373,2.731217,3.5539093905340438,0.0,0.03836884131904605,0.0,53,0.0027124881744384766,0.9345702972283764,0.9345702972283764,17726,3.143928783459142,0.0
248,1.5973622798919678,4.18691712881313,0.16659410091886492,4.445766619560809,4.0005512629039695,0.0,0.11936183989295782,0.1,0.002699613571166992,0.050957441329956055,0.04990085,2.304969,3.6172101643619525,0.0,0.08348805457387609,0.0,119,0.005410909652709961,0.9033264600639257,0.9033264600639257,17845,3.5753749900096543,0.0
249,1.5083966255187988,2.7611001376978,2.171451458501956,4.030156944879245,-0.999925680298454,0.0,0.10028604224129789,0.1,0.0024871826171875,0.047759056091308594,0.050539836,2.7426717,3.5315991616955373,0.0,0.04520208554484584,0.0,65,0.0026814937591552734,0.9161658883279946,0.9161658883279946,17910,4.415768465301625,0.0
250,1.5488743782043457,3.3182337427166777,1.3418991357540992,4.252205502013582,1.00030783953147,0.0,0.10019738309902348,0.1,0.002421855926513672,0.049078941345214844,0.050064422,3.0406544,3.5102626197976514,0.0,0.061321953025314846,0.0,64,0.00281524658203125,0.9282636333696643,0.9282636333696643,17974,4.7637332451207826,0.0
251,1.4007301330566406,2.5024597433348905,2.063247422936726,4.006215918447232,-0.9999240434629408,0.0,0.08262060567067434,0.1,0.002354145050048828,0.12264060974121094,0.048751567,1.829916,3.4094823321513754,0.0,0.04004962007195415,0.0,26,0.0024306774139404297,0.9610230897531706,0.9610230897531706,18000,4.010618527444978,0.0
252,1.635481834411621,1.5121690186432744,2.062687012121734,4.018942390779342,-0.9999252203289777,0.0,0.08308159873055612,0.1,0.002585172653198242,0.10637283325195312,0.049172353,3.8161983,3.2197510008005654,0.0,0.015238135882807247,0.0,28,0.0025069713592529297,0.9609606243259423,0.9609606243259423,18028,4.636449417690605,0.0
253,1.6561272144317627,2.7871707834306934,2.1868381071354914,4.110746330695384,-0.9999283304039581,0.0,0.0879306428363758,0.1,0.0028274059295654297,0.08367133140563965,0.04944143,3.9478605,3.1764929790635783,0.0,0.05071285939354508,0.0,49,0.003195047378540039,0.9328166869014882,0.9328166869014882,18077,5.031967176339387,0.0
254,1.6200056076049805,4.013861684028802,0.012072530841430257,4.032711510992312,4.000840313196513,0.0,0.09537508417281611,0.1,0.003327608108520508,0.05442452430725098,0.049988374,2.7141187,3.2602298495601008,0.0,0.08027041104429197,0.0,54,0.0027942657470703125,0.9503233923139934,0.9503233923139934,18131,4.342198886833391,0.0
255,1.7374346256256104,4.052171365401355,1.4833240380645345,6.194343181976954,2.0008379508784238,0.0,0.10610564940986714,0.1,0.00311279296875,0.0600278377532959,0.049421355,2.3377137,3.339424001144226,0.0,0.06603613030309868,0.0,87,0.003371000289916992,0.9533908236145439,0.9533908236145439,18218,3.7742610089935673,0.0
256,1.777355432510376,3.76756138408538,0.44330026304710357,4.0569881001371275,3.000592152912371,0.0,0.09486670720464552,0.1,0.00267791748046875,0.05889391899108887,0.049917046,2.5560098,3.3822377394383416,0.0,0.07026945211330729,0.0,57,0.003056049346923828,0.9475713643660737,0.9475713643660737,18275,4.563051812919503,0.0
257,1.7123849391937256,4.029347198959222,0.03600020646032155,4.091565463095559,4.004933780520345,0.0,0.10372113981889082,0.1,0.0028891563415527344,0.06025266647338867,0.049829766,1.9006827,3.4469486853904296,0.0,0.07553440608907686,0.0,61,0.006055355072021484,0.9414264363000456,0.9414264363000456,18336,3.776491327315922,0.0
258,1.7338471412658691,2.78111795977221,2.1832577208764654,4.096930912527322,-0.9999288132928836,0.0,0.09190371113815796,0.1,0.0031244754791259766,0.08365345001220703,0.050196707,2.890584,3.3803656128286077,0.0,0.05056952025865078,0.0,49,0.0031080245971679688,0.9344809426158548,0.9344809426158548,18385,3.7162768213651773,0.0
259,1.8319694995880127,4.043318611959564,0.058663470105621666,4.144522389223426,4.001443928464686,0.0,0.11143820937355225,0.1,0.0030624866485595703,0.0593719482421875,0.049158696,3.1101904,3.446660912741703,0.0,0.07586569011610268,0.0,88,0.0037822723388671875,0.9060813334687822,0.9060813334687822,18473,4.454340681945377,0.0
260,1.6728906631469727,4.553936316106473,0.9407697337951473,6.183349507740729,4.0029228823275815,0.0,0.11288274459362821,0.1,0.00274658203125,0.05689668655395508,0.04840568,3.6037686,3.5573884530781803,0.0,0.08103025257647728,0.0,89,0.0028269290924072266,0.9623051025660199,0.9623051025660199,18562,3.9628960597276204,0.0
261,1.647681474685669,3.684167320945187,1.016169762217054,4.729029963423708,2.000531065978773,0.0,0.10024697902288311,0.1,0.002531766891479492,0.0535273551940918,0.049165916,1.9274257,3.570066339864881,0.0,0.06363895670612502,0.0,66,0.0027370452880859375,0.9367938502854439,0.9367938502854439,18628,4.405159897524247,0.0
262,1.7827050685882568,4.871949220559082,1.4950231143564283,7.461399900988895,4.005666299241827,0.0,0.10792117602780364,0.1,0.0034499168395996094,0.05953788757324219,0.04916646,2.3835697,3.700254627934301,0.0,0.08732054216403973,0.0,96,0.0037043094635009766,0.9951540460664143,0.9951540460664143,18724,4.059416476918291,0.0
263,1.7157611846923828,4.018954248659686,0.024311051439370502,4.060930849011614,4.0027132694901555,0.0,0.10082136257959931,0.1,0.002744913101196289,0.06406068801879883,0.048639495,2.8575945,3.73212459000684,0.0,0.08034281564285213,0.0,72,0.0032634735107421875,0.9244882293261151,0.9244882293261151,18796,4.851386477001865,0.0
264,1.8035974502563477,4.057046768934221,0.06555435377281547,4.168560729332986,4.001172910975101,0.0,0.10690292382484702,0.1,0.002869844436645508,0.06349706649780273,0.050157964,2.6933658,3.7646168078995785,0.0,0.08084526252604127,0.0,81,0.0031561851501464844,0.9248590469273306,0.9248590469273306,18877,5.983185686423695,0.0
265,1.768442153930664,4.017514755496526,0.007157881412564844,4.02896117148566,4.010327790029262,0.0,0.11945648285490328,0.1,0.0032448768615722656,0.06344723701477051,0.050127126,1.5199769,3.7899066026592734,0.0,0.08033513057003623,0.0,79,0.00331878662109375,0.9187570096733022,0.9187570096733022,18956,4.558453691516431,0.0
266,1.7463786602020264,3.2665232467083327,1.3083733675433018,4.045466452837634,1.0004958914580353,0.0,0.08786597481157653,0.1,0.0026323795318603516,0.05780649185180664,0.049511522,3.0622492,3.737568267064179,0.0,0.06029956936535604,0.0,53,0.003301382064819336,0.9210521269440527,0.9210521269440527,19009,3.9370819069758163,0.0
267,1.9524335861206055,3.797207079019867,0.4630897770271162,4.148210311447534,3.0003895153802724,0.0,0.10202317951811739,0.1,0.0029337406158447266,0.06307148933410645,0.049342416,3.4804738,3.743532148259748,0.0,0.0708510015493241,0.0,70,0.0031321048736572266,0.9230817129655303,0.9230817129655303,19079,4.747905386853239,0.0
268,1.9334123134613037,3.621380246860747,2.321103136750395,6.474796029523944,0.00014769193308539208,0.0,0.10749157798597643,0.1,0.003251314163208008,0.06467294692993164,0.0506746,5.1489716,3.731316958119848,0.0,0.05741642090236315,0.0,75,0.003358125686645508,1.0005590704877436,1.0005590704877436,19154,4.024351822243847,0.0
269,1.6830720901489258,4.620621786941244,0.9339734294714449,6.23264146384748,4.005400886010716,0.0,0.12877966616889366,0.1,0.002902507781982422,0.06078839302062988,0.049932286,1.8879235,3.8202474410019875,0.0,0.08210880111512908,0.0,124,0.004116535186767578,0.9333145297270194,0.9333145297270194,19278,3.7525444707116797,0.0
270,1.6029629707336426,4.07549105172785,0.11088139968860686,4.267258229672036,4.0046725818953295,0.0,0.10669900775823014,0.1,0.0026407241821289062,0.05272269248962402,0.049925603,1.9190589,3.845771802074574,0.0,0.08140165870009558,0.0,74,0.0029311180114746094,0.9164561394205659,0.9164561394205659,19352,4.083296568292335,0.0
271,1.6171722412109375,3.770563111047445,1.8078562542518555,6.0701805387216,1.000300146829269,0.0,0.12364143777786936,0.1,0.002658843994140625,0.052225351333618164,0.04987127,1.8236495,3.8382509329718615,0.0,0.06039504830778307,0.0,89,0.0033872127532958984,0.9620271432028921,0.9620271432028921,19441,3.8789614247798236,0.0
272,1.6022496223449707,3.3897785696404754,2.647470202966076,6.100573595266718,-0.9999295805067845,0.0,0.1255358387920112,0.1,0.004885673522949219,0.0533907413482666,0.04988616,2.2293425,3.793403696638723,0.0,0.05266226962628884,0.0,131,0.01054835319519043,0.9266188831433825,0.9105524038186863,19572,3.945050265141242,0.0
273,1.6316428184509277,4.5992046123045105,1.010238529752985,6.348768267206548,4.000619917495208,0.0,0.1226946428884452,0.1,0.0031032562255859375,0.062070608139038086,0.04956278,3.5053484,3.8739837882053014,0.0,0.07697644870376358,0.0,115,0.004665374755859375,0.9382969016275601,0.9382969016275601,19687,3.55644727176352,0.0
274,1.6268703937530518,2.2734125748145293,2.060791483405112,4.068824970955735,-0.9999292953282,0.0,0.08978120456615558,0.1,0.002537965774536133,0.08621835708618164,0.04901111,3.8112915,3.7139266668662243,0.0,0.03545413101459637,0.0,44,0.003071308135986328,0.8933373092785943,0.8933373092785943,19731,4.082334387576995,0.0
275,1.7358472347259521,3.35813379897945,3.0040869784212947,7.427823002131503,-0.9999272514875504,0.0,0.0996610972518108,0.1,0.0026328563690185547,0.05434918403625488,0.049016196,4.283168,3.678347380077547,0.0,0.04681095829915449,0.0,66,0.002696990966796875,1.0463699388016867,1.0463699388016867,19797,4.330475277880373,0.0
276,1.6221935749053955,4.0076568991813595,0.007137985869109796,4.019788622988491,4.0020844339697135,0.0,0.09638369169813657,0.1,0.0027017593383789062,0.05563616752624512,0.050122496,1.8413259,3.711278331987928,0.0,0.08014965992303676,0.0,55,0.002580404281616211,0.9219918460060876,0.9219918460060876,19852,3.9224863069775817,0.0
277,1.8847928047180176,3.695653273636717,1.0272692749977146,4.773089690184321,2.001518102426476,0.0,0.10485258199159396,0.1,0.0026950836181640625,0.060570716857910156,0.050201476,2.8444595,3.709715826152807,0.0,0.06869082969002656,0.0,71,0.0030863285064697266,0.9174917222391523,0.9174917222391523,19923,4.023553101735237,0.0
278,1.8149518966674805,2.764620823558685,2.1735155656671834,4.0433127355340766,-0.9999252087035713,0.0,0.10315342473856207,0.1,0.004533529281616211,0.060082197189331055,0.04957616,3.8030252,3.6152063258933946,0.0,0.045281431595926055,0.0,61,0.003121614456176758,0.9080718301787062,0.9080718301787062,19984,3.957213179791218,0.0
279,1.8468115329742432,4.5472556959654815,0.9315192921337211,6.160664801143141,4.001306041886149,0.0,0.12182568547442756,0.1,0.0033953189849853516,0.06474590301513672,0.05058639,1.8238772,3.7084112629006034,0.0,0.08088868597623862,0.0,89,0.0031890869140625,0.9665829603858367,0.9665829603858367,20073,4.024090521256401,0.0
280,1.6962101459503174,2.2518271139072725,1.7864517789133099,4.0045647480391,0.00015524613029693768,0.0,0.08301513349009569,0.1,0.0027942657470703125,0.11136460304260254,0.050031368,2.4603498,3.5627528480012707,0.0,0.035031903066180356,0.0,27,0.0032927989959716797,0.9432089854208299,0.9432089854208299,20100,3.7871376085015043,0.0
281,1.7952649593353271,2.782368658213837,2.183790937347499,4.073940994115776,-0.9999266392075419,0.0,0.10295943646058262,0.1,0.004246234893798828,0.0603485107421875,0.05002761,4.5217123,3.484714429022527,0.0,0.05056529208639414,0.0,82,0.004204988479614258,0.8719593735990364,0.8719593735990364,20182,3.7617942420600916,0.0
282,1.8277368545532227,4.0113477043336285,0.0053253775816370355,4.018368268167878,4.0050551678581945,0.0,0.11136118758813711,0.1,0.0027923583984375,0.06180858612060547,0.05002674,1.7168634,3.5373777565536373,0.0,0.08022477184169585,0.0,72,0.0033228397369384766,0.9075959821502385,0.9075959821502385,20254,3.6799727547740644,0.0
283,1.5338201522827148,2.754056230956369,2.1673645141940128,4.010229043618045,-0.9999252727054724,0.0,0.08268733472717693,0.1,0.002475738525390625,0.11360669136047363,0.049967572,1.7512006,3.4590456039939106,0.0,0.05007588115755737,0.0,29,0.0028476715087890625,0.9470166261162934,0.9470166261162934,20283,3.7689625788869368,0.0
284,1.708181619644165,4.367063057189805,0.6014292580384811,5.4086666768838185,4.006997387083592,0.0,0.11556264087506142,0.1,0.003319978713989258,0.05691027641296387,0.05007132,1.8052777,3.5498473493135,0.0,0.08730055050409877,0.0,101,0.004652500152587891,0.9129267680615952,0.9129267680615952,20384,4.535705521429754,0.0
285,1.703127145767212,3.265341626627991,1.30456016616319,4.036646351502903,1.0058738939662806,0.0,0.10903504502029654,0.1,0.0029709339141845703,0.05603742599487305,0.0494699,2.1179235,3.5213967770449495,0.0,0.06029446208661384,0.0,68,0.003315448760986328,0.8868068942681067,0.8868068942681067,20452,3.8267266768648667,0.0
286,1.727224349975586,3.536656772073461,0.8844475104814357,4.1218671844404176,2.0068304676457993,0.0,0.09790019451667484,0.1,0.002783536911010742,0.056203603744506836,0.050089467,3.2152534,3.5229227765478006,0.0,0.06568601276406905,0.0,65,0.003078937530517578,0.9048597407501584,0.9048597407501584,20517,3.4301464762878333,0.0
287,1.6763744354248047,3.0178051880305135,1.7422222233347178,4.057099730889822,0.0003996660764176152,0.0,0.08861689912849334,0.1,0.002752542495727539,0.0906229019165039,0.04916903,2.193708,3.4724110176960723,0.0,0.05032098932199202,0.0,42,0.002716541290283203,0.92825719290652,0.92825719290652,20559,3.513380535774417,0.0
288,1.820786714553833,2.00954017292019,2.1271471335199457,4.028198170797503,-0.9999291071290961,0.0,0.08460508308773815,0.1,0.002870321273803711,0.09827446937561035,0.04925912,3.6253695,3.3261239332184838,0.0,0.030190131776771593,0.0,42,0.0034134387969970703,0.9006674825264098,0.9006674825264098,20601,3.0145525339167407,0.0
289,1.9024553298950195,3.5426464359057848,0.8908691904785756,4.082641074257655,2.000512281933769,0.0,0.10895611115385492,0.1,0.002819061279296875,0.06360244750976562,0.05069506,3.6913726,3.3477761834872144,0.0,0.06572793015616905,0.0,80,0.0030634403228759766,0.8992128546720635,0.8992128546720635,20681,3.9318019176333507,0.0
290,1.599776029586792,4.913646297550075,1.557648994360001,7.611527803381449,4.000673232601724,0.0,0.10902955658452405,0.1,0.0030875205993652344,0.05870366096496582,0.049460545,1.8712486,3.5043631948935006,0.0,0.0930482369961813,0.0,86,0.002843141555786133,0.9877836332838004,0.9877836332838004,20767,3.345152639811524,0.0
291,1.543393850326538,4.037469219471645,0.02615757485619708,4.075587498625325,4.007711074898716,0.0,0.11062024902737054,0.1,0.0031173229217529297,0.058814287185668945,0.05093467,5.9255595,3.557673797351315,0.0,0.08071853598950283,0.0,81,0.003214120864868164,0.8875193364526662,0.8875193364526662,20848,3.7665078762699253,0.0
292,1.629084587097168,3.3112512003813865,1.3353799264951853,4.187411479847683,1.0012589767219984,0.0,0.09605861739380686,0.1,0.002705097198486328,0.05343008041381836,0.049977556,7.7219815,3.533031537654322,0.0,0.06113184028212251,0.0,70,0.0028221607208251953,0.9045507166316022,0.9045507166316022,20918,3.8413230462646504,0.0
293,1.562751054763794,4.109028422376481,0.10541239660009023,4.241607961482748,4.001124661216596,0.0,0.11115414039523468,0.1,0.002804994583129883,0.057953596115112305,0.049872655,1.9269718,3.590631226126538,0.0,0.07689585226899415,0.0,76,0.004269838333129883,0.9149559577023094,0.9149559577023094,20994,3.5912189649244617,0.0
294,1.547990083694458,3.005711768825741,0.707478632007209,4.001337315807438,2.000392395875756,0.0,0.08136287804655107,0.1,0.002616405487060547,0.12933659553527832,0.05069435,1.9722372,3.5321392803964584,0.0,0.04510216544035783,0.0,25,0.0026819705963134766,0.9871544739438125,0.9871544739438125,21019,3.595085246563979,0.0
295,1.4879605770111084,3.263079480120115,1.3064694656220612,4.029333671796595,1.0002769752936982,0.0,0.08872869252732832,0.1,0.0030813217163085938,0.04998469352722168,0.05073828,2.5042884,3.505233300368824,0.0,0.055191411609672565,0.0,50,0.0026845932006835938,0.921966269601096,0.921966269601096,21069,3.0055849932534606,0.0
296,1.467853307723999,2.0146184849995428,2.1349542232493257,4.047437084559432,-0.9999295677526001,0.0,0.08380635116437993,0.1,0.002362966537475586,0.10204100608825684,0.04881572,3.7920372,3.3561718188318963,0.0,0.030266913408394557,0.0,32,0.00225067138671875,0.9353980854804181,0.9353980854804181,21101,3.847117201382685,0.0
297,1.5802710056304932,4.054387932675374,0.08280691237881926,4.197649297385775,4.002463910755373,0.0,0.0967478013258917,0.1,0.0029222965240478516,0.07963132858276367,0.050774876,1.2502173,3.425993430216244,0.0,0.0758827148598019,0.0,44,0.0027327537536621094,0.9384210999186325,0.9384210999186325,21145,3.25635564460555,0.0
298,1.6096417903900146,4.020558786990459,0.011833416439308655,4.04032605216841,4.009006672485678,0.0,0.1131949650483781,0.1,0.0032105445861816406,0.05794167518615723,0.04993086,1.941086,3.4854499658936655,0.0,0.08040771523392276,0.0,83,0.0030241012573242188,0.8930162687822235,0.8930162687822235,21228,3.3458641590414158,0.0
299,1.678624153137207,2.758856873785913,2.170147894604713,4.023303210522277,-0.9999293530841977,0.0,0.10489276447206689,0.1,0.003120899200439453,0.06117415428161621,0.04931387,3.4752223,3.4127906566828905,0.0,0.050172792780179686,0.0,65,0.0034461021423339844,0.8893051056416934,0.8893051056416934,21293,4.009364953833223,0.0
300,1.6704399585723877,2.7526622507796956,2.1665593621142913,4.0071057476494225,-0.9999264660069476,0.0,0.0837053681436021,0.1,0.003025054931640625,0.11653399467468262,0.050396092,1.4834967,3.3467778160925707,0.0,0.04505083711767096,0.0,27,0.0036687850952148438,0.9673427895212582,0.9673427895212582,21320,3.5168409994070173,0.0
301,1.89961576461792,4.628116819803406,1.001616768907813,6.362627167155915,4.030480604971887,0.0,0.12340427275117609,0.1,0.0032989978790283203,0.07186269760131836,0.050242946,1.8461269,3.4749117164636543,0.0,0.0824804330759425,0.0,116,0.0062503814697265625,0.9273696163210409,0.9273696163210409,21436,3.6008452950380296,0.0
302,1.7271778583526611,3.0248601603606713,1.2452178716827345,4.097385229364339,1.0003969826897348,0.0,0.09116654617929879,0.1,0.003076791763305664,0.10206437110900879,0.04976706,1.9960155,3.429906560853356,0.0,0.050339517956409334,0.0,37,0.0027611255645751953,0.9308181291908743,0.9308181291908743,21473,3.7628050539801223,0.0
303,1.729935646057129,4.011810111131936,0.010430594886030918,4.027206665031223,4.001337785817697,0.0,0.0981976283524542,0.1,0.0029544830322265625,0.060568809509277344,0.04979465,2.0558164,3.488096915881214,0.0,0.08022338153552651,0.0,53,0.003506183624267578,0.93197382327106,0.93197382327106,21526,3.5144108168824992,0.0
304,1.8839232921600342,4.548078568300274,0.8934215653359567,6.09425259078256,4.000665886758425,0.0,0.1155944267348531,0.1,0.0033676624298095703,0.06612968444824219,0.05024829,1.7065539,3.5940950811231205,0.0,0.08086958740608559,0.0,103,0.006657123565673828,0.9357700941729238,0.9357700941729238,21629,3.262416016106581,0.0
305,1.719040870666504,4.290856739834562,1.1436268750586056,6.137873958305537,3.000456163855973,0.0,0.12102921488418869,0.1,0.003042936325073242,0.05935168266296387,0.051014483,2.2361465,3.6637712469942647,0.0,0.07079723195601459,0.0,98,0.003263711929321289,0.929558444842009,0.929558444842009,21727,4.011899813507276,0.0
306,1.6708881855010986,4.028334082552398,0.03731620570931214,4.092152573287482,4.002061444638942,0.0,0.10990398825475446,0.1,0.002758502960205078,0.06004476547241211,0.049017247,1.9502754,3.7002275305500785,0.0,0.08055894405377197,0.0,76,0.003612995147705078,0.9082499929427966,0.9082499929427966,21803,3.9350384001771044,0.0
307,1.7745788097381592,3.417828032550456,1.4142771798906724,4.593983953506259,1.0002766734236235,0.0,0.11368679457188205,0.1,0.0030999183654785156,0.06261110305786133,0.05094233,2.910743,3.671987580750116,0.0,0.06321873088035657,0.0,100,0.005583286285400391,0.8797498062241177,0.8797498062241177,21903,3.5953686245339935,0.0
308,1.7137463092803955,3.0255061984126748,1.7467607909523937,4.050405294900695,0.00022686834602358985,0.0,0.1066462732110981,0.1,0.0027709007263183594,0.05985450744628906,0.049576636,2.1986926,3.6073394425163725,0.0,0.05548307993482704,0.0,61,0.0030164718627929688,0.8993579494619184,0.8993579494619184,21964,3.7635158933216744,0.0
309,1.7825710773468018,2.625698879774308,2.1578002554698674,4.425706449089148,-0.9999316980129345,0.0,0.11446282816443064,0.1,0.0033254623413085938,0.06375288963317871,0.04963345,2.5309277,3.509175386242166,0.0,0.042292042464568094,0.0,91,0.003372669219970703,0.8883067116588254,0.8883067116588254,22055,3.9268849890609174,0.0
310,1.5078589916229248,2.5073595757901708,1.664744812956094,4.016428266066284,0.00012178977517285361,0.0,0.0898639217915846,0.1,0.0026755332946777344,0.12055587768554688,0.049880218,1.7303096,3.4089938051969666,0.0,0.035149430485709995,0.0,29,0.002949237823486328,0.9598625067578157,0.9598625067578157,22084,3.3492940708127787,0.0
311,1.5736186504364014,3.536305310944404,2.911230475055497,7.124348734233555,-0.9999282768158106,0.0,0.11256580185678855,0.1,0.002662181854248047,0.04954671859741211,0.05044932,1.214299,3.4217249557717104,0.0,0.06568476175575412,0.0,69,0.0026092529296875,0.9957804066124938,0.9957804066124938,22153,3.5920686658522016,0.0
312,1.5624914169311523,1.0118394894410008,1.8895729696154904,4.046815559067314,-0.9999300817874606,0.0,0.09449679190675073,0.1,0.0028955936431884766,0.08491110801696777,0.050528497,3.9539402,3.1807364091386394,0.0,0.005243625680163911,0.0,38,0.0025267601013183594,0.8963636659016406,0.8963636659016406,22191,3.261295492374257,0.0
313,1.698427677154541,3.6204679738054875,2.308916478307293,6.428985703320916,0.00013505171581496,0.0,0.11059483929794175,0.1,0.003244161605834961,0.05849719047546387,0.049407415,2.0660331,3.224709565605324,0.0,0.05725967490106775,0.0,87,0.0029785633087158203,0.9664245901006552,0.9664245901006552,22278,3.9299513733161455,0.0
314,1.7545747756958008,3.3144160553482864,1.338208113251538,4.208147182202313,1.0002822690653135,0.0,0.11158121869947059,0.1,0.0029256343841552734,0.05862569808959961,0.049853377,2.384885,3.233680214579621,0.0,0.06128413005183271,0.0,92,0.0031075477600097656,0.8834050740193288,0.8834050740193288,22370,3.771120214619502,0.0
315,1.5966644287109375,4.015718732408124,0.005838899241459681,4.025237469038965,4.009414165874919,0.0,0.10549863047218933,0.1,0.0029218196868896484,0.06093263626098633,0.049823828,2.227844,3.311884066362471,0.0,0.08031369613009162,0.0,73,0.003352642059326172,0.9055249365993254,0.9055249365993254,22443,3.6766077092911593,0.0
316,1.6190392971038818,2.5186878337756897,1.6735329490371895,4.065102122048941,0.0017047784868733373,0.0,0.09399635723664132,0.1,0.0025320053100585938,0.08939528465270996,0.04967156,3.421652,3.232564443103793,0.0,0.04036398316315942,0.0,39,0.002802610397338867,0.9143425178331951,0.9143425178331951,22482,3.611494627685406,0.0
317,1.631725549697876,4.006150179694518,0.003938094550269368,4.010440049254999,4.00135342691525,0.0,0.10086046045262696,0.1,0.0026683807373046875,0.059058427810668945,0.049657132,1.7764708,3.3099230167628657,0.0,0.0751161609358311,0.0,52,0.002902984619140625,0.9257812476694307,0.9257812476694307,22534,3.600010946635806,0.0
318,1.8608362674713135,3.9721821347806765,2.04952176471941,6.79329668793127,1.0003182827349366,0.0,0.12565763733910784,0.1,0.003603219985961914,0.06364035606384277,0.049774725,2.0332274,3.376148928564647,0.0,0.06427542493592019,0.0,108,0.006039142608642578,0.9532400102095269,0.9532400102095269,22642,3.679742334412633,0.0
319,1.8078298568725586,4.100814641429917,0.07602314366422648,4.193324650922557,4.018114423491821,0.0,0.11472856814524285,0.1,0.0030279159545898438,0.06384158134460449,0.048786893,2.5910733,3.448615499851174,0.0,0.08192337046721794,0.0,98,0.003360271453857422,0.9003934652763006,0.9003934652763006,22740,3.0113404761671325,0.0
320,1.8445539474487305,4.538342540338624,0.8766097783328365,6.055718913868421,4.000953463976835,0.0,0.12712578337011674,0.1,0.0031752586364746094,0.08220386505126953,0.049681235,1.6136286,3.557588203899919,0.0,0.07571293840645153,0.0,120,0.006325244903564453,0.9148555748414645,0.9148555748414645,22860,3.0923573163544966,0.0
321,1.888382911682129,1.3214344366311617,2.0233582915314674,4.284473954085263,-0.999934191701841,0.0,0.10059837055264637,0.1,0.002811908721923828,0.05921173095703125,0.048385132,9.227538,3.3339728271730436,0.0,0.011423850464095702,0.0,51,0.0039033889770507812,0.8882097284600518,0.8882097284600518,22911,3.8456802989085084,0.0
322,1.8490467071533203,4.561390753072706,0.9179728661286449,6.150673355070801,4.003020172415717,0.0,0.12127162489604,0.1,0.0030546188354492188,0.06452250480651855,0.049256742,1.9902871,3.4567146197630096,0.0,0.08122439755903811,0.0,110,0.0062868595123291016,0.9267922467924322,0.9267922467924322,23021,3.3449535163282427,0.0
323,1.784454584121704,4.198977572534471,0.28618478459550933,4.694002550524213,4.010848999363926,0.0,0.1201358010078744,0.1,0.0032529830932617188,0.06326961517333984,0.049043477,3.5884218,3.530940915040156,0.0,0.08396671244346252,0.0,103,0.006563663482666016,0.8942003681912725,0.8942003681912725,23124,3.7598552871735422,0.0
324,1.8721370697021484,4.583958087432963,0.9638124316657918,6.252849069750483,4.006689505143308,0.0,0.12822765088636284,0.1,0.003509998321533203,0.06579923629760742,0.04984492,1.6916634,3.6362426322794366,0.0,0.07657551407647817,0.0,107,0.005587100982666016,0.9409151236034172,0.9409151236034172,23231,4.011011995785526,0.0
325,1.73323655128479,3.782639107770695,0.4522287383203248,4.080226473130007,3.000493498816273,0.0,0.10868645731455054,0.1,0.002900362014770508,0.05997300148010254,0.04914888,1.8183239,3.6508822798285623,0.0,0.07062875628147941,0.0,66,0.0032885074615478516,0.9084068003542058,0.9084068003542058,23297,4.009195886666331,0.0
326,1.648390531539917,3.0177492335049703,1.7413523309283838,4.037230454313859,0.0017097735264748337,0.0,0.08897205009866026,0.1,0.0025932788848876953,0.09277606010437012,0.049626984,2.3724818,3.587568975196203,0.0,0.05534919178809225,0.0,43,0.0025959014892578125,0.9169843254886191,0.9169843254886191,23340,4.022431682271749,0.0
327,1.795818567276001,4.0070042382445745,1.2321728754756764,6.018842287138474,3.0006454067636024,0.0,0.11476270468476744,0.1,0.002715587615966797,0.05820178985595703,0.050014343,2.0233703,3.6295125015010403,0.0,0.06014140512219085,0.0,72,0.003361225128173828,0.9740457413545028,0.9740457413545028,23412,3.927142055066827,0.0
328,1.6881906986236572,4.09694444707679,0.14683891773504232,4.351050421144713,4.0029658089010995,0.0,0.1163374919092184,0.1,0.002637624740600586,0.055357933044433594,0.049327284,3.4487934,3.6762556960586155,0.0,0.08165039487336084,0.0,100,0.002622365951538086,0.8818466035840553,0.8818466035840553,23512,4.010007221650835,0.0
329,1.4719574451446533,4.01562651287222,0.01906539459373172,4.048265406256549,4.002283521788129,0.0,0.09843797386956997,0.1,0.002316713333129883,0.07822489738464355,0.049003825,1.2728826,3.710192777739976,0.0,0.07531023345508085,0.0,40,0.002627134323120117,0.9470727328325133,0.9470727328325133,23552,4.013065876193273,0.0
330,2.0289714336395264,3.0799918888786633,1.7825673738074441,4.311623967684995,0.0001630565408017315,0.0,0.10836856838672279,0.1,0.0026781558990478516,0.06288266181945801,0.049107328,3.8489218,3.647172688853845,0.0,0.056565217122462944,0.0,73,0.003792285919189453,0.9020349385290518,0.9020349385290518,23625,2.838654696535381,0.0
331,1.9661731719970703,4.102506283001431,1.5278324918813604,6.317960226903021,2.0003433621413143,0.0,0.11129286279538948,0.1,0.0036132335662841797,0.06617951393127441,0.04942576,2.623022,3.6927060482686036,0.0,0.06701565850530136,0.0,97,0.00462794303894043,0.950271752670227,0.950271752670227,23722,2.67780757506539,0.0
332,1.8967580795288086,4.015886994535123,0.00778051294235102,4.02724279562478,4.006171647441264,0.0,0.11298149776810573,0.1,0.0027267932891845703,0.06248354911804199,0.049891878,2.6699202,3.7250241428952555,0.0,0.08027935641205462,0.0,76,0.004349231719970703,0.8964236544735098,0.8964236544735098,23798,3.928120798845374,0.0
333,1.9695444107055664,4.059308272083204,0.05604146554241829,4.132521927415289,4.002092577936114,0.0,0.1098440975452406,0.1,0.0034279823303222656,0.06496214866638184,0.04935902,2.4265501,3.75845255581405,0.0,0.0811659294265829,0.0,95,0.0035452842712402344,0.8947745122163331,0.8947745122163331,23893,3.675306904735661,0.0
334,1.8571581840515137,3.518737945465507,0.876478180816429,4.026724303324954,2.0006374303545322,0.0,0.1107886607886175,0.1,0.0026407241821289062,0.06117963790893555,0.04888087,4.1402626,3.7344810947791958,0.0,0.06533732269642983,0.0,65,0.002963542938232422,0.8960143733517307,0.8960143733517307,23958,3.8388105954995404,0.0
335,1.8784816265106201,4.093797949080406,0.15459016075043783,4.361532325341914,4.001637241842707,0.0,0.11536045631586236,0.1,0.0030918121337890625,0.06089615821838379,0.04942431,1.4282213,3.770412780209317,0.0,0.08148552492688417,0.0,70,0.003006458282470703,0.8897984095860473,0.8897984095860473,24028,3.594340185644093,0.0
336,1.7117748260498047,4.015151406557235,0.014336097730646431,4.039101981171596,4.004014424910013,0.0,0.10160450772376259,0.1,0.0030634403228759766,0.06162142753601074,0.04982004,1.4187905,3.7948866428441086,0.0,0.08026305433492324,0.0,51,0.003331422805786133,0.9247342243180201,0.9247342243180201,24079,3.8405311078392597,0.0
337,1.6896235942840576,4.018806081541378,0.028745067268947783,4.068571704155313,4.001079777489755,0.0,0.09463243935123088,0.1,0.003011465072631836,0.053638458251953125,0.04973599,1.9114573,3.8172785867138357,0.0,0.07538241842943401,0.0,54,0.002585887908935547,0.9236746169793446,0.9236746169793446,24133,4.013871291693389,0.0
338,1.6035451889038086,2.773763281375021,2.178901588654236,4.0742697450382135,-0.9999341289053529,0.0,0.10733798027075463,0.1,0.0030701160430908203,0.05502128601074219,0.04918798,1.9237919,3.712927056179954,0.0,0.05047425213103853,0.0,61,0.0026874542236328125,0.9039185508596561,0.9039185508596561,24194,3.0075758558898573,0.0
339,1.7616384029388428,3.5051706058265264,0.8688112257241488,4.013038367648794,2.0003621257968858,0.0,0.102116017085657,0.1,0.002882242202758789,0.09017252922058105,0.049937334,1.5133357,3.692151411144611,0.0,0.06510320112043817,0.0,48,0.00579071044921875,0.9257603436330739,0.9257603436330739,24242,2.755713451802236,0.0
340,1.9233880043029785,5.166136706004618,1.692887987482959,8.079317462166264,4.007469427649687,0.0,0.13666110134089152,0.1,0.004677772521972656,0.07247519493103027,0.050024323,1.1066139,3.839549940630612,0.0,0.09807513419666064,0.0,138,0.013533592224121094,0.9626096709025326,0.9525777620204958,24380,3.9270746954642983,0.0
341,1.9060299396514893,3.13366921344989,1.821625880536286,4.525833686202859,0.00014409454818209433,0.0,0.1011320710867047,0.1,0.0034475326538085938,0.06453251838684082,0.049445845,2.9642262,3.7689618679125396,0.0,0.057665312838043624,0.0,60,0.003901243209838867,0.8880323943987678,0.8880323943987678,24440,4.008006265043343,0.0
342,1.8909106254577637,2.26615965344172,1.8009862586944942,4.046961472364362,0.00016451934796735124,0.0,0.09883889476746932,0.1,0.0029571056365966797,0.0658712387084961,0.048909422,2.5322819,3.6186816464654576,0.0,0.03527763483288924,0.0,53,0.003586292266845703,0.8734528946726942,0.8734528946726942,24493,2.7588981441338363,0.0
343,1.935680866241455,4.113150734615416,0.11314750981537643,4.285495358160162,4.0106536584814805,0.0,0.11313429533580632,0.1,0.002990245819091797,0.0714409351348877,0.049503706,2.3997245,3.668128555280454,0.0,0.08212540204842896,0.0,95,0.005883455276489258,0.8788920132134561,0.8788920132134561,24588,3.2597313888602635,0.0
344,1.7869853973388672,3.253418418940819,1.296233637523113,4.002557733599319,1.0082760483383477,0.0,0.09271289391798888,0.1,0.0031681060791015625,0.12142205238342285,0.050821748,1.102401,3.6266575416464906,0.0,0.06006677638925494,0.0,32,0.00319671630859375,0.9387736065128485,0.9387736065128485,24620,4.007943105067542,0.0
345,1.8281419277191162,4.006257673282526,0.004799002062109323,4.012752709981505,4.001577095518531,0.0,0.10189493074921346,0.1,0.0036258697509765625,0.07246851921081543,0.049916185,1.7344735,3.664617554810094,0.0,0.08011343439428101,0.0,58,0.004395484924316406,0.9060392479878399,0.9060392479878399,24678,4.01268665251821,0.0
346,1.7474548816680908,1.5010841360467522,2.5010127414310492,4.0035534129590244,-0.9999295783338984,0.0,0.08443722529979288,0.1,0.0018923282623291016,0.04101371765136719,0.04993387,1.9100988,3.44826421293376,0.0,0.020017977899996056,0.0,21,0.0028166770935058594,0.9681895020590682,0.9681895020590682,24699,3.9286895799587334,0.0
347,1.837925672531128,3.265410535436817,1.307649684898635,4.034179432147609,1.000548872443804,0.0,0.10817551304545592,0.1,0.0035173892974853516,0.09494209289550781,0.05008046,1.4394737,3.4299788451840656,0.0,0.06026583468624104,0.0,42,0.0032448768615722656,0.9073094412804796,0.9073094412804796,24741,3.34141907539262,0.0
348,1.8566057682037354,4.526252851267656,0.8132488001828551,5.932335243001918,4.009734832698189,0.0,0.11149735630296317,0.1,0.0036966800689697266,0.06831622123718262,0.049862526,2.6566713,3.5396062457924247,0.0,0.08531330138586786,0.0,88,0.003367185592651367,0.9226657903620465,0.9226657903620465,24829,3.5145266929085395,0.0
349,1.9568040370941162,3.360327893980913,1.3706113691363164,4.397493269847383,1.0014210997429593,0.0,0.10642035234462426,0.1,0.002608060836791992,0.06222224235534668,0.050463505,2.1467602,3.5216784106112735,0.0,0.06218189810193087,0.0,70,0.003603219985961914,0.8972279621407946,0.8972279621407946,24899,3.430485254345657,0.0
350,1.938901662826538,5.62170115244014,2.303785826899663,9.580528214268293,4.005580645705104,0.0,0.1189244607684089,0.1,0.003194093704223633,0.07122063636779785,0.050322056,1.4098545,3.7316806847941604,0.0,0.11192673286119183,0.0,122,0.011207103729248047,0.9935967395033773,0.9935967395033773,25021,3.675109725804838,0.0
351,1.9728748798370361,4.617425450088967,1.0390574082180912,6.417033166074963,4.007084787923018,0.0,0.12371141433737112,0.1,0.0030345916748046875,0.07462072372436523,0.049735155,2.589164,3.820255161323641,0.0,0.08229666661276638,0.0,124,0.006508350372314453,0.9148582067567058,0.9148582067567058,25145,3.7612590544591082,0.0
352,1.8218271732330322,4.01236141354106,0.00619212583496527,4.022520807294038,4.006283193835758,0.0,0.10491609435236397,0.1,0.0027103424072265625,0.06280136108398438,0.050374895,2.3263774,3.839465786545383,0.0,0.08021629450515858,0.0,61,0.003599882125854492,0.8934210629722342,0.8934210629722342,25206,4.012722046712168,0.0
353,1.957707405090332,2.9515463464857614,1.5128599355757075,4.758882056240873,1.0033587331752045,0.0,0.11293384358007776,0.1,0.003180265426635742,0.06257104873657227,0.049589485,2.6665742,3.750673842539421,0.0,0.04900770652316931,0.0,74,0.0034027099609375,0.8671798893635987,0.8671798893635987,25280,3.7612042025403043,0.0
354,1.825490951538086,3.0037325034442697,1.7341113290791248,4.009465111721202,0.00016779785076437292,0.0,0.10515889075771605,0.1,0.0027141571044921875,0.08536481857299805,0.050118208,1.8234959,3.6759797086299058,0.0,0.0550633067462945,0.0,45,0.003021240234375,0.8917199725165249,0.8917199725165249,25325,3.6846317278495477,0.0
355,1.709238052368164,4.053891692961113,0.0399557652873525,4.100708001299231,4.013288938575709,0.0,0.11375129857436875,0.1,0.0026259422302246094,0.05497384071350098,0.04960111,1.9565104,3.7137709070630267,0.0,0.08097860286926109,0.0,83,0.0047838687896728516,0.8657992301656107,0.8657992301656107,25408,3.6797254679798517,0.0
356,1.5692293643951416,3.516033579171846,0.8751407910662996,4.056154534913254,2.000703745337538,0.0,0.1009301287185151,0.1,0.002822399139404297,0.05379199981689453,0.049290705,2.0624158,3.6939971742739086,0.0,0.060320752692055224,0.0,50,0.0026781558990478516,0.9040783325240714,0.9040783325240714,25458,3.4218722607538994,0.0
357,1.686689853668213,4.047320685476738,0.05612729960594052,4.142794762339581,4.004203732750874,0.0,0.11385747427516124,0.1,0.003176450729370117,0.05930614471435547,0.04942088,2.4912362,3.7293295253941916,0.0,0.08088264835375253,0.0,88,0.0034918785095214844,0.8659982766551559,0.8659982766551559,25546,3.510451511114072,0.0
358,1.6832234859466553,4.105812072677885,0.14669579109510975,4.358557279598713,4.005611990568538,0.0,0.11859238215674756,0.1,0.0029075145721435547,0.05807828903198242,0.050037023,1.770885,3.766977780122561,0.0,0.08193504171708516,0.0,95,0.003380298614501953,0.8792369046467731,0.8792369046467731,25641,3.5111629825147115,0.0
359,1.8492248058319092,4.31787171108262,0.4894977219650537,5.164837242000696,4.014100456377674,0.0,0.12059108513184615,0.1,0.003045320510864258,0.06477212905883789,0.049675126,1.788618,3.822067173218567,0.0,0.08624983264116261,0.0,97,0.0037496089935302734,0.8858844302614711,0.8858844302614711,25738,4.010082134804077,0.0
360,1.8958632946014404,4.034137532899275,0.026547486891141895,4.068910540188213,4.002618060348709,0.0,0.11822931182037744,0.1,0.002869844436645508,0.061707258224487305,0.04935095,2.71204,3.843274209186638,0.0,0.08065829224190257,0.0,96,0.003568410873413086,0.8808920011440341,0.8808920011440341,25834,3.2598282585090668,0.0
361,1.558485507965088,4.0069323831736465,0.002761403283549632,4.010442477049406,4.003325478838606,0.0,0.10208407416543216,0.1,0.0025653839111328125,0.05305933952331543,0.050160285,1.7100426,3.859640026585339,0.0,0.08012048108095182,0.0,54,0.012581586837768555,0.9072765086162875,0.9072765086162875,25888,3.4224598627095943,0.0
362,1.563302755355835,2.2800265788199523,2.0707469160217875,4.107826482415714,-0.9999285303452905,0.0,0.09682873774004502,0.1,0.00276947021484375,0.052637338638305664,0.049492,2.9180937,3.7016786818088003,0.0,0.035595498387580866,0.0,52,0.002654552459716797,0.8711675015838718,0.8711675015838718,25940,3.5917049406295027,0.0
363,1.6560211181640625,4.050788012307429,2.888606431587108,8.169739817495994,0.00015101624782687395,0.0,0.0900812804013712,0.1,0.002509593963623047,0.05110597610473633,0.048893448,1.8742288,3.736589614858663,0.0,0.0710109811899654,0.0,53,0.009582281112670898,1.0300494084012108,1.0300494084012108,25993,3.3435388307213647,0.0
364,1.8493566513061523,3.118908434948554,1.8030227949168764,4.381016142008879,0.005206897010571643,0.0,0.12067595385823844,0.1,0.00307464599609375,0.0630645751953125,0.04959613,2.1877215,3.674821496867652,0.0,0.05735709251278259,0.0,102,0.006212949752807617,0.8614052742337909,0.8614052742337909,26095,3.5469918993647123,0.0
365,1.7840681076049805,3.7794992139180357,0.44244912848004103,4.06811979622267,3.0140476693339426,0.0,0.12584154098150593,0.1,0.003200054168701172,0.06518030166625977,0.05003003,1.7275201,3.6852892685726903,0.0,0.0705339906410159,0.0,79,0.003570079803466797,0.8822481844873635,0.8822481844873635,26174,3.345272524364828,0.0
366,1.8559350967407227,4.028603321365792,0.04202949292162598,4.1013872368141335,4.003160131807193,0.0,0.1045018201952427,0.1,0.0026111602783203125,0.05612802505493164,0.049101856,4.551299,3.7196206738520003,0.0,0.0804944235134898,0.0,86,0.002738475799560547,0.8881191442814715,0.8881191442814715,26260,3.9289685700393497,0.0
367,1.7463631629943848,4.531595184314098,0.9041565399043733,6.0975693172857115,4.002537318822293,0.0,0.12125674904870765,0.1,0.0026772022247314453,0.05457139015197754,0.050635926,2.1917913,3.80081812489821,0.0,0.080593457981002,0.0,97,0.0050013065338134766,0.9215224729865904,0.9215224729865904,26357,4.022082560547737,0.0
