iteration,time_sampling,stoc_pol_mean,stoc_pol_std,stoc_pol_max,stoc_pol_min,rollout_success,alpha,delta,time_vpg,time_npg,kl_dist,surr_improvement,running_score,rwd_sparse,rwd_dense,success_percentage,num_samples,time_VF,VF_error_before,VF_error_after,env_samples,eval_score,eval_success
0,1.2351396083831787,0.020802426039737927,0.010402027830347205,0.03732159987548189,0.010583536900399934,0.0,0.14486761602759846,0.1,0.043807268142700195,0.05452609062194824,0.053471502,0.9833156,0.020802426039737927,0.0,0.0004139864213044941,0.0,200,0.062068939208984375,68.10386228893643,7.724857631648323,200,0.018320850375226672,0.0
1,1.108710527420044,0.022298566071025813,0.005351897011749043,0.030449603887778023,0.016353981307175285,0.0,0.14309549490159082,0.1,0.002605438232421875,0.049861907958984375,0.046641976,0.59224683,0.02095204004286672,0.0,0.0004368948677399068,0.0,200,0.03097367286682129,7.855974597584253,3.083869392612153,400,0.017207880833220383,0.0
2,1.2931029796600342,0.012832190850626977,0.007475829879056379,0.02529720575254077,0.006781615808126104,0.0,0.16600957090396107,0.1,0.0025827884674072266,0.04836130142211914,0.06562251,0.83372164,0.020140055123642746,0.0,0.0002525061779697619,0.0,200,0.0472416877746582,12.23618576179363,14.735815062619542,600,0.016781534499259492,0.0
3,1.2631819248199463,0.04242183208642514,0.02745495230014255,0.08876383271461487,0.017900797657783758,0.0,0.14694765995595838,0.1,0.0027587413787841797,0.05646777153015137,0.052768543,0.9638476,0.022368232819920984,0.0,0.0008483628937165797,0.0,200,0.05295276641845703,0.6012359205000422,0.49481706781432844,800,0.02385865318975447,0.0
4,1.253903865814209,0.04150297275624465,0.026547195174477782,0.08555228442288673,0.017272440980932887,0.0,0.14898750992780552,0.1,0.0028502941131591797,0.05572915077209473,0.047444273,0.96434456,0.02428170681355335,0.0,0.0008262994148565985,0.0,200,0.07999134063720703,0.5281418044481921,0.5649565556502164,1000,0.024245821431553866,0.0
5,1.2499980926513672,0.0236425986059036,0.01315110487563675,0.04638409877708309,0.015407626714422262,0.0,0.1467852220518588,0.1,0.0028374195098876953,0.05026888847351074,0.051179547,1.221906,0.024217795992788376,0.0,0.0004670953670885215,0.0,200,0.05976724624633789,0.5204651435119929,0.46435032548282673,1200,0.04004562306480281,0.0
6,1.191575050354004,0.033860162294954435,0.029504072560212678,0.08144906299329069,0.008006304806769114,0.0,0.1452664877909232,0.1,0.002537965774536133,0.04871773719787598,0.05225692,1.4491534,0.02518203262300498,0.0,0.0006742655669623919,0.0,200,0.06050682067871094,0.7208158767330961,0.7135194599858875,1400,0.03828889004035282,0.0
7,1.2352089881896973,0.021301016915686356,0.006858793041261011,0.03244498742720317,0.015284391983125799,0.0,0.1495256144146915,0.1,0.0026721954345703125,0.05086326599121094,0.04823545,0.70771354,0.024793931052273118,0.0,0.00041358231396566305,0.0,200,0.04421091079711914,0.4109297473916177,0.32851828138456834,1600,0.04439954205493784,0.0
8,1.2504587173461914,0.03911769072343568,0.030173655454079268,0.08105928484201058,0.005252968763352365,0.0,0.14050720008983286,0.1,0.002593994140625,0.04933500289916992,0.05266261,2.166733,0.026226307019389373,0.0,0.0007813026099012077,0.0,200,0.022844791412353516,0.6113444840475858,0.5263503921506649,1800,0.05090545721438769,0.0
9,1.2708544731140137,0.02845388362365639,0.025041953091954863,0.07043793722304527,0.0042356844649442255,0.0,0.15161266361206113,0.1,0.0028085708618164062,0.05059385299682617,0.052701097,1.1442544,0.026449064679816073,0.0,0.0005565422264098169,0.0,200,0.0425572395324707,0.6142054819948779,0.6244560074085674,2000,0.04542156143064516,0.0
10,1.1905312538146973,0.04853758509996457,0.050060921266089756,0.13422367301611032,0.009413361446343319,0.0,0.1378886679987154,0.1,0.00801706314086914,0.05070185661315918,0.049360868,1.8570192,0.028657916721830923,0.0,0.0009703566219791843,0.0,200,0.04921841621398926,0.6563977866745245,0.6319264712691179,2200,0.04519690951809307,0.0
11,1.2328908443450928,0.04793791483197315,0.024584833996758468,0.07315207008235196,0.019645420006133434,0.0,0.14033767756162377,0.1,0.0027446746826171875,0.04828023910522461,0.051158935,1.1976589,0.030585916532845144,0.0,0.0009523462260181267,0.0,200,0.05496549606323242,0.34685815346455046,0.33561356523909586,2400,0.05247319555006031,0.0
12,1.2371165752410889,0.07006501314130803,0.036259977321877385,0.10696114680739753,0.02115421861069303,0.0,0.14213584692633283,0.1,0.00266265869140625,0.050296783447265625,0.049647514,1.0552626,0.034533826193691435,0.0,0.0013944582703535376,0.0,200,0.12331485748291016,0.4152031255800438,0.3686415457255219,2600,0.07541883959532518,0.0
13,1.2910840511322021,0.03275759455059172,0.026579664869763302,0.07616706922023771,0.010754452091181862,0.0,0.13535384357116156,0.1,0.002656698226928711,0.04888129234313965,0.04974459,1.8451663,0.034356203029381464,0.0,0.0006510840916264866,0.0,200,0.06284070014953613,0.9639578604922306,0.7374638159408584,2800,0.09272216101583314,0.0
14,1.2485606670379639,0.12476870881446535,0.13169040168440857,0.34837800188512064,0.027989349715360465,0.0,0.13808082666039187,0.1,0.002641916275024414,0.058728694915771484,0.048991207,1.639686,0.04339745360788985,0.0,0.0024836884117458357,0.0,200,0.05333137512207031,0.7434163528104455,0.661750534902732,3000,0.09894216525255335,0.0
15,1.2958173751831055,0.06763204219213878,0.03594272797471121,0.10525942015989474,0.024032822111643808,0.0,0.13765675486944404,0.1,0.002668142318725586,0.04991936683654785,0.051211767,0.97771454,0.04582091246631475,0.0,0.0013199641954578932,0.0,200,0.0944375991821289,0.3879573240738236,0.5019045008588896,3200,0.10213971824677637,0.0
16,1.2947592735290527,0.05549753392323681,0.026875117132868123,0.0899436355678358,0.021287740415655863,0.0,0.14310671546330134,0.1,0.0026819705963134766,0.05958104133605957,0.05092842,1.1317807,0.04678857461200696,0.0,0.001084960015536538,0.0,200,0.053037405014038086,0.5886732930309584,0.34044823841280886,3400,0.11887520731091004,0.0
17,1.399688959121704,0.1349944889394757,0.09411428714808201,0.2502163100293004,0.03243043777203898,0.0,0.1359252829306308,0.1,0.0028426647186279297,0.04836297035217285,0.049820248,1.1063708,0.05560916604475383,0.0,0.0026890822310175373,0.0,200,0.08329486846923828,0.534304285728219,0.46419943724213447,3600,0.22493445103831053,0.0
18,1.3430535793304443,0.17016144102510736,0.1776285447730633,0.4645972331223142,0.019714534721072225,0.0,0.12721455419870775,0.1,0.029595375061035156,0.16530394554138184,0.049130768,1.9468845,0.06706439354278919,0.0,0.003384895753007233,0.0,200,0.14457368850708008,0.6765822154043459,0.5798764041315412,3800,0.26149775205424913,0.0
19,1.3110644817352295,0.14803967130639756,0.058579516704027834,0.1982347478291906,0.05445525528175759,0.0,0.13936810783771011,0.1,0.007585048675537109,0.05065751075744629,0.050182387,0.919097,0.07516192131915003,0.0,0.0029241668860477774,0.0,200,0.03406548500061035,0.2066471311993484,0.26301447295311275,4000,0.29871721289169173,0.0
20,1.282677412033081,0.11065643937717907,0.07783515166270046,0.23053577553432747,0.030295721625102093,0.0,0.1349417465443548,0.1,0.0026655197143554688,0.053963661193847656,0.049387693,1.3998228,0.07871137312495294,0.0,0.002214652108751008,0.0,200,0.022155046463012695,0.8338866604069431,0.4522476899457974,4200,0.2759709883747381,0.0
21,1.3353896141052246,0.13355579534820639,0.09454551894367368,0.2770208721815259,0.018643953580446515,0.0,0.12834642128254944,0.1,0.002617359161376953,0.049968719482421875,0.050754514,1.9145888,0.08419581534727828,0.0,0.0026334495367007675,0.0,200,0.0941781997680664,0.40179733221893693,0.47526841010877113,4400,0.4290333464120801,0.0
22,1.3207488059997559,0.15126700249070169,0.16030267834683604,0.42375879967739,0.011406935207379862,0.0,0.14573676289988108,0.1,0.0027413368225097656,0.05810093879699707,0.0492278,1.6360344,0.09090293406162063,0.0,0.0030011076448863807,0.0,200,0.03290295600891113,0.6537893436197982,0.6205465331877991,4600,0.47484070716130783,0.0
23,1.2255520820617676,0.29951663503577625,0.2045500424241319,0.6212446141538095,0.07851895747994382,0.0,0.1328610071613431,0.1,0.0029833316802978516,0.05129671096801758,0.049548224,1.6711786,0.1117643041590362,0.0,0.005936792981644862,0.0,200,0.058148860931396484,0.6930545781448894,0.4857055911620555,4800,0.49241322721463804,0.0
24,1.4052841663360596,0.1537958047662584,0.132695959977172,0.3560329324365024,0.0180761608757119,0.0,0.13845089066817565,0.1,0.002468585968017578,0.048913002014160156,0.050440203,1.1215012,0.11596745421975842,0.0,0.003034593616033964,0.0,200,0.03222465515136719,0.5005573516741667,0.6924534870664837,5000,0.4684770344276241,0.0
25,1.292405366897583,0.0750497092082187,0.03982382997543635,0.1396496533055372,0.03072444207353805,0.0,0.1354295600484757,0.1,0.002633810043334961,0.049916744232177734,0.049348146,3.0751977,0.11187567971860446,0.0,0.0014654396327547638,0.0,200,0.026073217391967773,5.490098474365267,1.9642490086137376,5200,0.47989031565650825,0.0
26,1.2801978588104248,0.13678327875437066,0.10208696776136295,0.30005572313950507,0.018495798360260732,0.0,0.14141888818247014,0.1,0.0025768280029296875,0.050882816314697266,0.049562,1.181292,0.11436643962218107,0.0,0.002712733029107969,0.0,200,0.07244205474853516,0.4720697014290971,0.4510065327945093,5400,0.5054867492453784,0.0
27,1.2469611167907715,0.1496187441730962,0.14985430759782553,0.4060720945270971,0.03417519292099279,0.0,0.13031291852674945,0.1,0.0028476715087890625,0.04779386520385742,0.04885023,1.9777329,0.11789167007727258,0.0,0.0029868804349617822,0.0,200,0.03800249099731445,0.598916102636215,0.6622518240801301,5600,0.577984853109606,0.0
28,1.3991940021514893,0.1102813921744215,0.052821297140507206,0.1852338466639287,0.050105659459159624,0.0,0.12358983997322709,0.1,0.002735137939453125,0.05047750473022461,0.048982546,1.5714614,0.11713064228698748,0.0,0.0021927704476965245,0.0,200,0.05360770225524902,0.30347654242429023,0.32109434898154965,5800,0.5496319052269173,0.0
29,1.2775123119354248,0.1805533571080647,0.13619271939087052,0.3185636383066303,0.025371454815588893,0.0,0.13211724259187685,0.1,0.002653360366821289,0.05924630165100098,0.05008689,1.1318138,0.12347291376909521,0.0,0.003546431909784751,0.0,200,0.08376145362854004,0.6225241325329975,0.5584054647866327,6000,0.5658059480058,0.0
30,1.269028902053833,0.22196884775172454,0.1776350198829658,0.5172950380551754,0.043057366437829654,0.0,0.14297670225930964,0.1,0.007901668548583984,0.0508725643157959,0.05033561,1.5018293,0.13332250716735816,0.0,0.004437907738434889,0.0,200,0.12562251091003418,0.607288211439517,0.5078137967252723,6200,0.5878672550659928,0.0
31,1.2912797927856445,0.13497590896474354,0.10209062623105435,0.30440700458461617,0.03673836685325193,0.0,0.13177955716775652,0.1,0.002252817153930664,0.048185110092163086,0.048761252,1.8167535,0.1334878473470967,0.0,0.0026961648644868432,0.0,200,0.06338286399841309,0.46122172346349066,0.5214763478349546,6400,0.6056179010462036,0.0
32,1.2894949913024902,0.2528081050607764,0.21454315538995875,0.5856575504265519,0.060697875477985566,0.0,0.13163321162973263,0.1,0.0027153491973876953,0.0492243766784668,0.04929946,1.4273193,0.14541987311846466,0.0,0.004967748411482446,0.0,200,0.03486776351928711,0.5586390766506206,0.5038831140238229,6600,0.5823153761847418,0.0
33,1.277301549911499,0.13855078042988575,0.07717714024942933,0.24276506562615033,0.027955845843739772,0.0,0.1422141433496072,0.1,0.0027158260345458984,0.05975818634033203,0.04988086,1.0017599,0.14473296384960677,0.0,0.0027505574346020994,0.0,200,0.09145641326904297,0.6365637173458093,0.6699068964615409,6800,0.6582517855974893,0.0
34,1.3333187103271484,0.20405243461211844,0.13844082814862876,0.3669419133900809,0.0509231972101916,0.0,0.1326785621207229,0.1,0.0025336742401123047,0.0472867488861084,0.049390424,1.0659792,0.15066491092585793,0.0,0.004033069426311132,0.0,200,0.14339423179626465,0.4149344243691068,0.39817904273148097,7000,0.6632034415475552,0.0
35,1.4313225746154785,0.15188996022619428,0.11507318629615458,0.297300510826487,0.03901805854204269,0.0,0.13714512168509668,0.1,0.003351926803588867,0.08635902404785156,0.049387537,0.9347333,0.15078741585589156,0.0,0.0030094826218133816,0.0,200,0.03935861587524414,0.4872065439196599,0.4203135584796421,7200,0.6588242129307941,0.0
36,1.340278148651123,0.17339839469885054,0.15505931854926563,0.4406743350146198,0.06509392766875213,0.0,0.12181150976662622,0.1,0.002604961395263672,0.04994916915893555,0.05039889,2.149641,0.15304851374018746,0.0,0.003390016252736517,0.0,200,0.0480341911315918,0.547081328686565,0.5543926071754363,7400,0.7899963712537462,0.0
37,1.3785080909729004,0.13509090420761308,0.10601707046467572,0.3151790003194311,0.04129374358578002,0.0,0.13464409643291916,0.1,0.0026061534881591797,0.04798126220703125,0.050468802,1.6055602,0.15125275278693004,0.0,0.002557190769368413,0.0,200,0.03196907043457031,0.46851623552505534,0.46556399756031625,7600,0.7301534329137379,0.0
38,1.4751200675964355,0.19415650659726005,0.06392258432693806,0.2626151394807257,0.11121523155089999,0.0,0.13799949439347617,0.1,0.002642393112182617,0.05088686943054199,0.049684606,1.0751188,0.15554312816796304,0.0,0.003831036313322596,0.0,200,0.2268519401550293,0.2253833896460973,0.21179238698280903,7800,0.8254079428344477,0.0
39,1.3973278999328613,0.23479558832500283,0.12863561802023646,0.3693414255340287,0.02631695262566012,0.0,0.13982079450241033,0.1,0.002658367156982422,0.04907417297363281,0.050071154,0.88754165,0.163468374183667,0.0,0.004638693535801051,0.0,200,0.043343305587768555,0.4086295973198402,0.34463281931095235,8000,0.7444283694995301,0.0
40,1.3311748504638672,0.18793070918339314,0.09913382008578096,0.28182629390638525,0.037063191839738246,0.0,0.13910327524537883,0.1,0.009892463684082031,0.062274932861328125,0.050246313,0.946147,0.1659146076836396,0.0,0.003676223377335186,0.0,200,0.12291312217712402,0.2863142279351639,0.290500242622527,8200,0.8153137600137309,0.0
41,1.3095128536224365,0.2553278745141221,0.1548756797585774,0.48209575753969347,0.11003499413637154,0.0,0.1337862852404566,0.1,0.002913951873779297,0.05232524871826172,0.04929222,1.3876404,0.17485593436668787,0.0,0.005065618715201861,0.0,200,0.04407835006713867,0.35161218101991154,0.325960294701175,8400,0.7647209444198787,0.0
42,1.2830896377563477,0.29065805773612674,0.17576948112287819,0.5529238426705746,0.11697933745572252,0.0,0.13720149120728578,0.1,0.0028378963470458984,0.14759111404418945,0.05059373,1.7433722,0.18643614670363176,0.0,0.005801002926318607,0.0,200,0.05306124687194824,0.3682445560852633,0.35497257358587486,8600,0.6209412399073038,0.0
43,1.307732105255127,0.5222269476241799,0.3483549691731395,1.0534405720975855,0.18320899362479628,0.0,0.1274912196428786,0.1,0.002686023712158203,0.05055713653564453,0.048299894,1.9765482,0.22001522679568658,0.0,0.010413326374123365,0.0,200,0.024441003799438477,0.48423168366956865,0.38963024611156416,8800,0.4906735436996365,0.0
44,1.364997148513794,0.19717839034485246,0.11563498042313652,0.38090706567205784,0.08148501385218826,0.0,0.13763300999077274,0.1,0.0028333663940429688,0.06647920608520508,0.05038611,1.1107925,0.21773154315060317,0.0,0.0038973639886408294,0.0,200,0.1384892463684082,1.1239871676625697,0.8846448826646033,9000,0.8741266438194137,0.0
45,1.32273530960083,0.488664415822074,0.5709486295696867,1.474610233244555,0.10488699632756984,0.0,0.13259604082460652,0.1,0.0028061866760253906,0.05223584175109863,0.049736965,1.696326,0.24482483041775027,0.0,0.009769722828961788,0.0,200,0.1100766658782959,0.6308744981365182,0.6224939715516671,9200,0.7371519814213419,0.0
46,1.335489273071289,0.37908052223584576,0.37129583959375323,1.0018188439726243,0.024996947648181,0.0,0.13048030944338612,0.1,0.008186817169189453,0.05373835563659668,0.04969222,1.9890757,0.2582503995995598,0.0,0.0074857267581085385,0.0,200,0.1280651092529297,0.5224227633708485,0.5132377700195832,9400,1.280822907232597,0.0
47,1.4385452270507812,0.3510982230501976,0.33027534963429755,0.9073345188260787,0.05749185345801674,0.0,0.12683492237301114,0.1,0.002779245376586914,0.049675941467285156,0.050088264,3.7441583,0.2675351819446236,0.0,0.0069850057210022135,0.0,200,0.032761573791503906,0.5327856607241791,0.513239424642447,9600,0.7469078422306,0.0
48,1.3617825508117676,0.27185477935415037,0.13461885919491662,0.45173847220745433,0.07206318318726175,0.0,0.12836257979693033,0.1,0.0026388168334960938,0.057524919509887695,0.049309883,1.1749372,0.2679671416855763,0.0,0.005432164311648877,0.0,200,0.1206207275390625,0.5100754156895504,0.28658666295844537,9800,1.001273841721634,0.0
49,1.4341990947723389,0.44980101034681863,0.11468265956461027,0.6385242990976552,0.35619183730010523,0.0,0.12703315591835435,0.1,0.002939462661743164,0.06722426414489746,0.04957759,1.3198929,0.28615052855170053,0.0,0.00886059086005628,0.0,200,0.03980517387390137,0.2550044720474202,0.2544450484271295,10000,1.8053210662142207,0.0
50,1.3917710781097412,0.37773703678634196,0.052320335934501846,0.43593143464938966,0.30023576809236585,0.0,0.1279434025604654,0.1,0.0024297237396240234,0.047820329666137695,0.049294665,1.0276697,0.2953091793751647,0.0,0.00753156184198023,0.0,200,0.1733078956604004,0.15976809342499954,0.10274858146644815,10200,1.4437662601932015,0.0
51,1.3810200691223145,0.1783392597632738,0.07292725273048828,0.2567154173026731,0.061055516158398555,0.0,0.13325519230872146,0.1,0.008501291275024414,0.04951667785644531,0.050609827,0.9132764,0.28361218741397565,0.0,0.0035641455758945,0.0,200,0.03621268272399902,1.1478394522169764,0.9000900004429891,10400,0.9891893501697978,0.0
52,1.4798638820648193,0.13469762938176155,0.06459697383047011,0.214093060054295,0.04811696250076509,0.0,0.13205640883515057,0.1,0.0028815269470214844,0.049355268478393555,0.050568536,0.87005025,0.2687207316107542,0.0,0.002649544841891894,0.0,200,0.05731201171875,2.486604850081183,0.8186533654599497,10600,1.2117973316179127,0.0
53,1.4862072467803955,0.3999489818659411,0.17789889915102378,0.5648509569328397,0.12751353950154568,0.0,0.13495475993462056,0.1,0.17093992233276367,0.07362794876098633,0.050294064,1.1447276,0.2818435566362729,0.0,0.007923782234360736,0.0,200,0.12441205978393555,0.3830884891078904,0.446717057075223,10800,1.1115560172698258,0.0
54,1.426619529724121,0.31438371432556916,0.12265260387765468,0.5086891057151286,0.17294672335037883,0.0,0.13254300326382124,0.1,0.002507925033569336,0.08817172050476074,0.04983074,1.0508758,0.28509757240520256,0.0,0.006248760370986186,0.0,200,0.04587841033935547,0.30933703235439997,0.2659154996402224,11000,1.2509975966321905,0.0
55,1.5317697525024414,0.3168905669990737,0.23003514411435702,0.6949600548491697,0.08414576566611341,0.0,0.12243290826692632,0.1,0.0029680728912353516,0.07187843322753906,0.049092595,1.8631864,0.28827687186458967,0.0,0.0062468884642613446,0.0,200,0.05553555488586426,0.45837075551187334,0.41488799605178833,11200,1.109965326641342,0.0
56,1.5050642490386963,0.4184983181116083,0.2744248012166841,0.8557918527255404,0.09941030239193685,0.0,0.12613984899273956,0.1,0.002507925033569336,0.04921221733093262,0.050346363,1.9471878,0.3012990164892916,0.0,0.0081737632331352,0.0,200,0.1901543140411377,0.4739275878992124,0.38925134000050016,11400,1.0272145130586254,0.0
57,1.510977029800415,0.7434212814586281,0.795482203031895,2.084872836675155,0.014932178530064108,0.0,0.13079101267742876,0.1,0.007902860641479492,0.09247422218322754,0.04944937,1.6244407,0.34551124298622526,0.0,0.014606385469709542,0.0,200,0.3391401767730713,0.6833211216756043,0.5755315248689793,11600,0.7118650802252516,0.0
58,1.4838974475860596,0.2476566517841765,0.0603474955887076,0.3433384187635638,0.17658167747700462,0.0,0.12681792364194194,0.1,0.0026366710662841797,0.05223727226257324,0.050338935,0.8466396,0.3357257838660204,0.0,0.004938897922626816,0.0,200,0.05551576614379883,1.9222655805719187,2.0015981357146133,11800,0.7800997313891519,0.0
59,1.493708848953247,0.298304527198639,0.11858358297639958,0.4309878843521034,0.14291805591715925,0.0,0.12626447167934637,0.1,0.012871026992797852,0.06212973594665527,0.04951499,4.5691657,0.33198365819928227,0.0,0.0059434442279519255,0.0,200,0.06799173355102539,0.9098388481257598,0.3053342560055568,12000,0.987959712037301,0.0
60,1.5002503395080566,0.11131054871282325,0.0405557653996721,0.15314468294533912,0.07060601423244449,0.0,0.13051168032271046,0.1,0.09784674644470215,0.04942131042480469,0.049483933,0.8843637,0.3099163472506363,0.0,0.0022256665426983236,0.0,200,0.03831648826599121,6.3549395142973575,1.6806509398909564,12200,0.3759715378784601,0.0
61,1.4493663311004639,0.7034223053944644,0.37731035550527336,1.313948021835416,0.2961058635243269,0.0,0.13045009908017338,0.1,0.0038242340087890625,0.10269522666931152,0.04917679,1.5853171,0.34926694306501915,0.0,0.013834876073527808,0.0,200,0.052611351013183594,0.5729270773064608,0.6057063649212312,12400,0.32407536943911874,0.0
62,1.4897689819335938,0.29666667920364287,0.147046090199727,0.45555388665025526,0.13461992613988977,0.0,0.1266868959331653,0.1,0.0026237964630126953,0.04764556884765625,0.050245058,1.3485684,0.3440069166788815,0.0,0.005907879034305508,0.0,200,0.0335690975189209,0.30890635611917855,0.30038641624957285,12600,0.2488150154292171,0.0
63,1.4443011283874512,0.3277346168885896,0.18011545654395664,0.5338075630629187,0.057866842018870844,0.0,0.12969649122323385,0.1,0.002665996551513672,0.04936671257019043,0.049960785,0.9734987,0.34237968669985236,0.0,0.006329873337197076,0.0,200,0.05733442306518555,0.33836444167085145,0.32241533785326076,12800,0.5610015289973254,0.0
64,1.57883620262146,0.24830546315485036,0.08799373644572443,0.34493863569499034,0.1060885404265476,0.0,0.13303766624823946,0.1,0.002652406692504883,0.05057668685913086,0.049474888,1.320072,0.33297226434535215,0.0,0.004940734645498653,0.0,200,0.051819562911987305,0.18641027503309238,0.1950851186329462,13000,0.6669859374470054,0.0
65,1.4700934886932373,0.4839285565322627,0.4110433835185844,1.1777396816639396,0.1343194109314976,0.0,0.1287071573414696,0.1,0.0027785301208496094,0.13820171356201172,0.04975913,1.9585534,0.3480678935640432,0.0,0.009482856152872365,0.0,200,0.0664365291595459,0.5485974476727603,0.5217140173270883,13200,0.47170645409490675,0.0
66,1.537461757659912,0.6279939711172582,0.3009490042683036,1.1483966367300185,0.4371542015599396,0.0,0.13113461849155206,0.1,0.002605438232421875,0.04901432991027832,0.049939126,1.5616717,0.37606050131936475,0.0,0.012476036411176717,0.0,200,0.04777121543884277,0.44054202243561813,0.3582432339233854,13400,0.6977588910023895,0.0
67,1.4973878860473633,0.21035153654551603,0.20730462362956392,0.5552903146403423,0.04779895776653719,0.0,0.13343771852905084,0.1,0.0027964115142822266,0.052276611328125,0.049598563,1.7062396,0.3594896048419799,0.0,0.004189679068735417,0.0,200,0.12403011322021484,0.9621047719332313,1.1195854930599145,13600,0.7158319285160345,0.0
68,1.4691531658172607,0.4767134359814014,0.318855370020352,0.946513863423334,0.05174056534482735,0.0,0.1333512066639837,0.1,0.0029129981994628906,0.07132506370544434,0.05010189,1.3512136,0.37121198795592203,0.0,0.009388639143248938,0.0,200,0.08546757698059082,0.38342987979562854,0.3768505583435688,13800,0.8974010210924966,0.0
69,1.5586318969726562,0.2979536787012993,0.09421251099798426,0.385233537701369,0.14896264968410045,0.0,0.12368373425323853,0.1,0.0027923583984375,0.051252126693725586,0.050343048,1.3339404,0.3638861570304598,0.0,0.005924621600421977,0.0,200,0.1340465545654297,0.321301770308699,0.2827277418175643,14000,1.1351250380821538,0.0
70,1.6117072105407715,0.37917148349086005,0.167520360528643,0.5208148379014776,0.10106873538416836,0.0,0.12527677335079138,0.1,0.0029022693634033203,0.049837350845336914,0.04978393,1.2620023,0.3654146896764998,0.0,0.007509260975267128,0.0,200,0.05173659324645996,0.2189591389048516,0.2066849404075703,14200,0.9573771020780654,0.0
71,1.5362417697906494,0.7417306202215944,0.7258734265037012,1.992949005445172,0.2086914459939875,0.0,0.1229895744710855,0.1,0.002331972122192383,0.06584358215332031,0.050610565,2.572282,0.4030462827310093,0.0,0.014395942146978199,0.0,200,0.06036734580993652,0.61679644538863,0.5839328245750548,14400,0.6676512012677326,0.0
72,1.5902652740478516,0.8989214045917554,0.5577616112755917,1.594919021823565,0.2123753212318167,0.0,0.1257506047951254,0.1,0.008551359176635742,0.04890131950378418,0.049092665,1.494039,0.4526337949170839,0.0,0.01757191092604567,0.0,200,0.044533491134643555,0.5208352596537981,0.41375217837714884,14600,0.9309859188199603,0.0
73,1.5249228477478027,0.22998305233469207,0.10797588546233453,0.3534917404997293,0.10065344683452516,0.0,0.13171736866720346,0.1,0.0026209354400634766,0.04983091354370117,0.050272,1.0762187,0.4303687206588447,0.0,0.004572398343008549,0.0,200,0.09293103218078613,2.3343812001993096,2.9902603728740376,14800,1.1112383292591292,0.0
74,1.3923394680023193,0.4777203418055248,0.25137668541315966,0.8693098747764784,0.17772351016637633,0.0,0.1244823300187243,0.1,0.0028314590454101562,0.050744056701660156,0.049990345,2.2611823,0.4351038827735127,0.0,0.009417118591337106,0.0,200,0.10431599617004395,0.36595104409331586,0.29069979842833404,15000,1.0751300041155065,0.0
75,1.4515392780303955,0.23036733167926743,0.13787333230364332,0.45110767837572674,0.08419957151555639,0.0,0.13214002192478416,0.1,0.0027174949645996094,0.05140995979309082,0.049398474,0.76982224,0.4146302276640882,0.0,0.004503873833469293,0.0,200,0.03268098831176758,1.775712577617555,0.9284052833747849,15200,1.6269629148413662,0.0
76,1.4864649772644043,0.41408620604365143,0.15735535139320941,0.6793720966219282,0.29365064768742677,0.0,0.12945619810974843,0.1,0.002736806869506836,0.04961848258972168,0.049950875,1.7832079,0.4145758255020445,0.0,0.008177035185726085,0.0,200,0.06795144081115723,0.17849522731659237,0.19486071712312894,15400,1.3800561962353255,0.0
77,1.5359241962432861,0.26380907637995255,0.15099035995562088,0.4534355034185827,0.063818464427772,0.0,0.12977188437116025,0.1,0.0025904178619384766,0.04999732971191406,0.05020908,1.0615394,0.3994991505898354,0.0,0.005216610741207583,0.0,200,0.15217995643615723,0.40053969805062123,0.2998353097042197,15600,1.0004037849766956,0.0
78,1.482271671295166,0.4275258564348126,0.2636300213719976,0.7909665817992364,0.07648960671855654,0.0,0.1307603621552643,0.1,0.002720355987548828,0.051558732986450195,0.049264956,1.4107052,0.4023018211743331,0.0,0.008441061221259592,0.0,200,0.08513855934143066,0.4274105801940418,0.4433010420831944,15800,0.974914415046085,0.0
79,1.5238893032073975,0.25519516598579345,0.15452377040269596,0.4737029529762283,0.060893811150671474,0.0,0.13336946613464679,0.1,0.0027322769165039062,0.0512089729309082,0.050131332,0.9801859,0.3875911556554792,0.0,0.004998727897331516,0.0,200,0.03864765167236328,0.3075343986489797,0.30170042420449283,16000,1.2798658932573248,0.0
80,1.576329231262207,0.3679900543021474,0.14779895850950547,0.5561980632611534,0.20918663364414553,0.0,0.12479169974820661,0.1,0.006190061569213867,0.10123181343078613,0.04889968,1.3804,0.38563104552014604,0.0,0.007271191065164862,0.0,200,0.03859138488769531,0.23180493230124258,0.22399046983325557,16200,1.3282226994707447,0.0
81,1.540971040725708,0.3958374705783756,0.3626685338495035,0.9996249079702932,0.06124217575445713,0.0,0.12727223906020532,0.1,0.002715587615966797,0.06856393814086914,0.0490185,1.8967624,0.386651688025969,0.0,0.00789877809965428,0.0,200,0.03020453453063965,0.5255826284053856,0.5104158228700403,16400,1.3877737539267663,0.0
82,1.5187327861785889,0.33410143646256074,0.10391684538314833,0.43872753987770396,0.17378586337511578,0.0,0.12527840467206397,0.1,0.0027875900268554688,0.10087347030639648,0.05075994,1.2192008,0.38139666286962814,0.0,0.006670146179189952,0.0,200,0.06926727294921875,0.15917731251387127,0.15502272020778163,16600,0.9943640945049959,0.0
83,1.488034963607788,0.40736911059231784,0.1467195743665963,0.5835683759635157,0.25546976378868436,0.0,0.11917954665575378,0.1,0.0027916431427001953,0.050168752670288086,0.050307292,1.4238822,0.3839939076418971,0.0,0.00792654323974384,0.0,200,0.03472757339477539,0.23755102154321095,0.21245124842296725,16800,1.1438483154652872,0.0
84,1.5264208316802979,0.7057900789910247,0.4828592734285715,1.4992969784823336,0.21064840983132227,0.0,0.12332211002589812,0.1,0.02734208106994629,0.04919600486755371,0.04951894,1.9556674,0.4161735247768099,0.0,0.013892512175706886,0.0,200,0.05127429962158203,0.5637104595221788,0.4998755013141058,17000,1.2371591343264137,0.0
85,1.4949228763580322,0.6770306914115898,0.5186550955224719,1.473003327924735,0.054177411967823684,0.0,0.12630496898128818,0.1,0.0027511119842529297,0.04899716377258301,0.049720354,1.6217824,0.4422592414402879,0.0,0.01320787691241665,0.0,200,0.03064107894897461,0.5189259514995126,0.45077243604746264,17200,1.6932310719986294,0.0
86,1.5670475959777832,0.3947927740684349,0.37992132999306716,1.050637137267129,0.1300451134956273,0.0,0.12753566393272994,0.1,0.002531766891479492,0.04885053634643555,0.05058708,1.5483215,0.4375125947031026,0.0,0.007758302575617108,0.0,200,0.06241130828857422,0.5598385652537067,0.6294759771496077,17400,1.7939522622762587,0.0
87,1.5928869247436523,0.22757433261397864,0.14674788045525447,0.430677837917995,0.030099834305154637,0.0,0.129431743829565,0.1,0.0027418136596679688,0.05882430076599121,0.05011704,1.1979764,0.4165187684941902,0.0,0.004486987141545883,0.0,200,0.03133511543273926,2.3978095704555016,1.6463267763656007,17600,2.307485549530379,0.0
88,1.5597403049468994,0.4920860725535572,0.22786527901093673,0.8129835587253266,0.21619812694401944,0.0,0.12382715058061922,0.1,0.016873598098754883,0.05031085014343262,0.05002662,0.96707594,0.42407549890012686,0.0,0.009727886431568538,0.0,200,0.07878279685974121,0.23654822756644972,0.23123974965111943,17800,1.8088768991840902,0.0
89,1.613095998764038,0.2927358314294536,0.1884429468935724,0.5725599500747025,0.046435846233138296,0.0,0.13000350666405847,0.1,0.0025207996368408203,0.054144859313964844,0.048808023,0.97804177,0.41094153215305956,0.0,0.005754700820880132,0.0,200,0.06755900382995605,0.5911100924411431,0.4229569466190945,18000,1.9632616503529736,0.0
90,1.5063791275024414,0.35103719298948216,0.267978515199221,0.7213608433329534,0.039794001329752623,0.0,0.1290747102300592,0.1,0.0028057098388671875,0.050543785095214844,0.049526583,1.2337978,0.40495109823670183,0.0,0.006867327547091957,0.0,200,0.06262326240539551,0.40007851586240484,0.3951345575804128,18200,2.2926473627039345,0.0
91,1.4591753482818604,0.14863080560804612,0.1335952285312649,0.3649744950074139,0.03531609584908064,0.0,0.129679465015602,0.1,0.002840757369995117,0.060961246490478516,0.05005908,0.98537534,0.37931906897383627,0.0,0.0029273320040482127,0.0,200,0.03339695930480957,1.3997545147226034,0.8939346918819846,18400,2.59320507721379,0.0
92,1.52590012550354,0.32090983432468795,0.14977278802298674,0.5431058976114383,0.12067472229470931,0.0,0.12569847196282827,0.1,0.0033223628997802734,0.07381129264831543,0.0502668,1.5556287,0.37347814550892144,0.0,0.00630716777964881,0.0,200,0.11899423599243164,0.30946086777414356,0.3464372489277847,18600,1.8370428216064292,0.0
93,1.440093755722046,0.3599529898773547,0.32378937547011166,0.91269068474149,0.08838542763291729,0.0,0.11870505209066644,0.1,0.0026667118072509766,0.05371403694152832,0.049631115,2.772571,0.37212562994576476,0.0,0.007070183344741715,0.0,200,0.02797698974609375,0.5445560228934382,0.5277219280437111,18800,2.259462966283131,0.0
94,1.5447824001312256,0.3421568504120144,0.168783246173048,0.5496178959793461,0.10137359660958951,0.0,0.12277132574054232,0.1,0.06295275688171387,0.1005401611328125,0.04929521,1.3532367,0.3691287519923897,0.0,0.006813210772760524,0.0,200,0.09576892852783203,0.32713354856340965,0.2842281698663659,19000,1.2400344914852761,0.0
95,1.4949891567230225,0.43225108415002644,0.1434354953974055,0.5547598684719587,0.18902269074162148,0.0,0.12322293790601895,0.1,0.0027489662170410156,0.050710439682006836,0.050011806,1.0121357,0.3754409852081534,0.0,0.008614115078092831,0.0,200,0.03215312957763672,0.24683300330191527,0.21145506231129632,19200,1.4925159435461428,0.0
96,1.6584782600402832,0.9593435426595567,0.5466007509905597,1.8030911327046304,0.3315327503756639,0.0,0.11697792188185632,0.1,0.007448434829711914,0.04948163032531738,0.049069572,2.8136432,0.43383124095329373,0.0,0.01909579032791972,0.0,200,0.04091668128967285,0.6127607845262347,0.5240334232108662,19400,1.1147482602599195,0.0
97,1.528813123703003,0.7906638234063342,0.2447489026979904,1.0742799886890126,0.4535072152768851,0.0,0.12713816795776878,0.1,0.08233475685119629,0.05024433135986328,0.05058916,1.0684627,0.4695144991985978,0.0,0.015570189476982394,0.0,200,0.0352480411529541,0.3463932471669876,0.19525318304736572,19600,1.3356418278695654,0.0
98,1.5190935134887695,0.692534715684279,0.3974648034030151,1.2105964420119308,0.10530379962682455,0.0,0.12395741426544407,0.1,0.0028798580169677734,0.05244565010070801,0.04918263,1.5040616,0.49181652084716593,0.0,0.013774460025058874,0.0,200,0.038045406341552734,0.3104002071277078,0.32871821020338104,19800,0.8073908751204667,0.0
99,1.6076045036315918,0.5395485471172606,0.4581333724772118,1.3254662450985895,0.18217759150553267,0.0,0.12446722506001502,0.1,0.0030345916748046875,0.05047297477722168,0.04978108,2.014432,0.4965897234741754,0.0,0.010568182711034447,0.0,200,0.057790517807006836,0.5935766186754544,0.5706746093054258,20000,1.1195999108981294,0.0
100,1.5978684425354004,0.29002160767489515,0.160861529376611,0.5613995152099382,0.14160668133012216,0.0,0.13593806790854884,0.1,0.002798795700073242,0.053202152252197266,0.049964923,1.00142,0.4759329118942474,0.0,0.005770167978341248,0.0,200,0.038973093032836914,2.3557117542038477,1.1349129403824354,20200,1.5936478941258405,0.0
101,1.5760374069213867,0.4339789500797027,0.2782323006498335,0.8061244682553177,0.10816538837847231,0.0,0.1316859644094923,0.1,0.0023958683013916016,0.048493146896362305,0.0509931,1.1583366,0.47173751571279293,0.0,0.00856134746685788,0.0,200,0.048815011978149414,0.5177660848444184,0.3658117544058357,20400,1.351593486245369,0.0
102,1.5492241382598877,0.6269822898056151,0.5243035222858659,1.2587379645578616,0.09019787874492242,0.0,0.13194297693227067,0.1,0.0027675628662109375,0.04900074005126953,0.05044925,1.2001895,0.4872619931220752,0.0,0.012387984505813994,0.0,200,0.10619354248046875,0.4547645002963216,0.4840535540909442,20600,1.6923598989733248,0.0
103,1.652501106262207,0.43336240444095137,0.04874116774293943,0.5143824439790841,0.3923734504591972,0.0,0.12180642943914036,0.1,0.003483295440673828,0.0737457275390625,0.050225154,1.0159009,0.4818720342539628,0.0,0.008523216255082204,0.0,200,0.0453188419342041,0.09106371922227605,0.09511667422547054,20800,1.0530857283525614,0.0
104,1.6787819862365723,0.4028486781275273,0.19396676841723146,0.6991302448199718,0.19095778321971824,0.0,0.12442652653109837,0.1,0.0025260448455810547,0.05790972709655762,0.05015923,1.3834121,0.4739696986413192,0.0,0.007990291260867718,0.0,200,0.09240412712097168,0.24450794868441939,0.24209090607287034,21000,1.2419200925593066,0.0
105,1.6375579833984375,0.44568517266771746,0.14187576229417098,0.5974690590661761,0.29530380414157065,0.0,0.12840984001495995,0.1,0.005503177642822266,0.1394209861755371,0.04978788,0.9878104,0.47114124604395907,0.0,0.008853702022525358,0.0,200,0.042508840560913086,0.14160585287915983,0.14030823658377597,21200,2.0776257680134758,0.0
106,1.7335073947906494,0.37095295945470375,0.137453733911295,0.5481380902954274,0.16396678031214235,0.0,0.12709739282510626,0.1,0.002343893051147461,0.0473024845123291,0.050115056,1.5907384,0.46112241738503357,0.0,0.007361625480600866,0.0,200,0.04189658164978027,0.17110985998467015,0.16939838050831482,21400,1.2352594991825099,0.0
107,1.775580883026123,0.937772197020721,0.29485686048926013,1.1382765503757946,0.4282850973543434,0.0,0.1292593856846655,0.1,0.0026831626892089844,0.050766944885253906,0.050192267,0.86164176,0.5087873953486023,0.0,0.018503694436536208,0.0,200,0.027782678604125977,0.41674120931595177,0.35174542771919426,21600,0.7226938834064914,0.0
108,1.6249730587005615,0.8547716079072809,0.5004359741670413,1.6180484542377873,0.2729462441445352,0.0,0.1263430673805068,0.1,0.002720355987548828,0.05600118637084961,0.050383,1.6123309,0.5433858166044702,0.0,0.01689955377400893,0.0,200,0.07369828224182129,0.43632501801779483,0.3466632120198783,21800,1.2112150710748326,0.0
109,1.5605382919311523,0.1481280747823015,0.07159729356229573,0.26629599819936395,0.0743269220868493,0.0,0.12381077147659211,0.1,0.0028221607208251953,0.052240848541259766,0.050617047,1.4115001,0.5038600424222532,0.0,0.002903441248742091,0.0,200,0.11983251571655273,6.622181682545256,7.948059630224106,22000,0.8492071938843768,0.0
110,1.5131263732910156,0.26231667906893213,0.12680730201134185,0.4116833735446988,0.07434921036168204,0.0,0.1266951911519361,0.1,0.002794027328491211,0.05095171928405762,0.04979308,1.2878021,0.4797057060869211,0.0,0.005226468949476122,0.0,200,0.0628209114074707,1.96381951337566,1.307604751355941,22200,0.7233637469795169,0.0
111,1.5270390510559082,0.46633859801330363,0.37991069053789595,1.1156215046245357,0.15749594108519185,0.0,0.12276645964508913,0.1,0.008238792419433594,0.052153825759887695,0.04990719,1.7901181,0.47836899527955934,0.0,0.009131575173505208,0.0,200,0.047644853591918945,0.4452147253876359,0.4351273349904474,22400,0.567765727272629,0.0
112,1.5295417308807373,0.1160605207253215,0.05623260028438465,0.1791071894620333,0.05165177445540036,0.0,0.12391607948023184,0.1,0.0028319358825683594,0.04936408996582031,0.0495336,0.7864601,0.4421381478241355,0.0,0.002312261541102776,0.0,200,0.039430856704711914,8.162004813759598,4.833745182105324,22600,0.806305269983441,0.0
113,1.6287939548492432,0.427131085971601,0.14628253919729725,0.58406642023368,0.2744188663445454,0.0,0.12376520760183508,0.1,0.015517234802246094,0.0880136489868164,0.04986477,1.174215,0.4406374416388821,0.0,0.008505931793561922,0.0,200,0.05717658996582031,0.1239771199134973,0.1598771720636007,22800,1.0047541253577104,0.0
114,1.635939121246338,0.4213363185852933,0.22987566052957312,0.736063491351966,0.14572400395208884,0.0,0.12415421941372502,0.1,0.024412155151367188,0.30457615852355957,0.050042294,1.0827959,0.4387073293335232,0.0,0.008348877704338148,0.0,200,0.21669816970825195,0.3170910810527401,0.3346569419666358,23000,1.7936573020147417,0.0
115,1.604672908782959,0.5886985255802162,0.13302898884862815,0.7632842016060082,0.38874083669325965,0.0,0.12471689177290605,0.1,0.0027396678924560547,0.05077481269836426,0.050484713,1.136283,0.4537064489581925,0.0,0.011692380334398273,0.0,200,0.10089230537414551,0.3008469734092204,0.2717633503766446,23200,1.4651339595873247,0.0
116,1.652531385421753,0.3457606109770732,0.1696212542365541,0.528507952731756,0.06825456043415376,0.0,0.12070311768526007,0.1,0.0026018619537353516,0.05210757255554199,0.049784336,0.85653937,0.4429118651600806,0.0,0.00678341524909173,0.0,200,0.046984195709228516,0.2321261002561856,0.23000980137530155,23400,1.4013015805305276,0.0
117,1.5589380264282227,0.5357206458667433,0.5186256391520093,1.4084341222440702,0.09417620508721204,0.0,0.11375080728834745,0.1,0.0025179386138916016,0.05241560935974121,0.050098516,2.6095948,0.4521927432307469,0.0,0.010624836071130583,0.0,200,0.032331228256225586,0.5921726780144828,0.5760550490486431,23600,1.2153488800722332,0.0
118,1.5753443241119385,0.5283817551552361,0.21503987276743564,0.8066277026397289,0.2171281504195822,0.0,0.12545151279412017,0.1,0.002683401107788086,0.04904484748840332,0.049699277,1.2903802,0.45981164442319583,0.0,0.010423907550085312,0.0,200,0.038964033126831055,0.23615878673136903,0.21265249256378937,23800,1.009548107709803,0.0
119,1.482865810394287,0.49110025570590105,0.16545237901922513,0.7244461583217154,0.2706566015893681,0.0,0.13025674466057474,0.1,0.0023529529571533203,0.05483531951904297,0.050044924,1.29947,0.4629405055514664,0.0,0.009607995594341757,0.0,200,0.03976082801818848,0.1827501973927998,0.16020870946093108,24000,1.0501874249488112,0.0
120,1.505462646484375,0.5070327055503857,0.3205868345977168,0.9967885387101331,0.17960069256473593,0.0,0.11909006166024762,0.1,0.002266407012939453,0.0458371639251709,0.049696025,2.6026263,0.46734972555135834,0.0,0.010019506660963457,0.0,200,0.08527207374572754,0.3394469055340381,0.3272088261880644,24200,1.0951681194064935,0.0
121,1.4721927642822266,0.537256649934423,0.17312721502163028,0.8306211066395923,0.40826623553777497,0.0,0.10826920032012809,0.1,0.0066030025482177734,0.044126272201538086,0.04688525,15.223602,0.47434041798966486,0.0,0.010662086132888958,0.0,200,0.04231691360473633,0.16831548367382065,0.1570801772140794,24400,0.7848487356013095,0.0
122,1.9220969676971436,0.3573543988455966,0.19516345440477464,0.6715990073991254,0.1562234258292896,0.0,0.12520814219309287,0.1,0.0028150081634521484,0.04937291145324707,0.049868044,1.3288832,0.46264181607525806,0.0,0.007037960473257633,0.0,200,0.057451486587524414,0.40382033825148,0.39656768542370946,24600,0.9877391852599439,0.0
123,1.5316290855407715,0.47126975836760826,0.15628884028026463,0.6192189346441278,0.21618898854201946,0.0,0.1259143083958111,0.1,0.0023543834686279297,0.04348111152648926,0.05007684,1.0385658,0.4635046103044931,0.0,0.009332668767309645,0.0,200,0.062399864196777344,0.15296979611580264,0.13791730586752818,24800,0.7008708761673379,0.0
124,1.6446919441223145,0.5456524769269886,0.23785371716600043,0.9025355234302648,0.2925429516862635,0.0,0.12190242529124028,0.1,0.002679109573364258,0.05021953582763672,0.050031487,1.352024,0.47171939696674264,0.0,0.01068465057425259,0.0,200,0.27104926109313965,0.20102692973492287,0.20302794223470733,25000,0.7627823218318325,0.0
125,1.6450040340423584,0.27448376841273137,0.12412925338099201,0.4352913494038443,0.10531546570580279,0.0,0.12476454315365818,0.1,0.0632321834564209,0.05413508415222168,0.049831744,1.1849097,0.45199583411134153,0.0,0.005335439777683063,0.0,200,0.08305501937866211,0.5179544634082752,0.46004776728752667,25200,1.5616400347837411,0.0
126,1.6401124000549316,0.5446684563148402,0.13991325737073487,0.7868188542226943,0.45699988661468494,0.0,0.12429090229250293,0.1,0.0026292800903320312,0.048113346099853516,0.049105298,2.1854088,0.4612630963316914,0.0,0.010826306741787499,0.0,200,0.17284607887268066,0.1327589891949183,0.13667594155889817,25400,1.3564424419254444,0.0
