iteration,time_sampling,stoc_pol_mean,stoc_pol_std,stoc_pol_max,stoc_pol_min,rollout_success,alpha,delta,time_vpg,time_npg,kl_dist,surr_improvement,running_score,rwd_sparse,rwd_dense,success_percentage,num_samples,time_VF,VF_error_before,VF_error_after,env_samples,eval_score,eval_success
0,1.5052692890167236,-347.2845647866776,18.397722349809147,-320.8181045571976,-366.2895235341511,0.0,0.2123411660937374,0.1,0.03391671180725098,0.0640110969543457,0.056966633,0.7796465,-347.2845647866776,-3.4222626092525372,-3.4849747119500405,0.0,400,0.03224587440490723,0.9995609246869185,0.9973894459571302,400,-357.92185269863177,0.0
1,1.4196462631225586,-345.7125732437371,18.448103842852625,-326.0829029729294,-367.98607841636095,0.0,0.33673409893339945,0.1,0.003129243850708008,0.06719493865966797,0.050552603,0.2995063,-347.1273656323836,-3.405499871081024,-3.4684814395766668,0.0,400,0.025998592376708984,0.9973629205483777,0.9931597186303912,800,-360.1257184995273,0.0
2,1.5124995708465576,-363.5950950537144,5.4298178188901876,-357.56472069183064,-369.73271101458823,0.0,0.37892168074064375,0.1,0.00304412841796875,0.06371355056762695,0.050567493,0.3058597,-348.77413857451666,-3.5831871353641893,-3.645763093275032,0.0,400,0.02698206901550293,0.9935196123245776,0.9848182661579878,1200,-362.62957244772207,0.0
3,1.4935753345489502,-349.1227051462436,9.944178015838142,-333.19747679176527,-360.34133618897977,0.0,0.3381867591167642,0.1,0.0028748512268066406,0.06324148178100586,0.051601958,0.35068482,-348.8089952316894,-3.438272716900814,-3.502337248434391,0.0,400,0.025813579559326172,0.984374383236956,0.9670386151306376,1600,-361.0628055320603,0.0
4,1.5160975456237793,-351.21437638474134,16.08765150203134,-324.1237237866044,-366.0682313122201,0.0,0.3230355839959225,0.1,0.002964496612548828,0.06233668327331543,0.053824794,0.353351,-349.0495333469946,-3.4599096246109498,-3.5236543494165073,0.0,400,0.025992155075073242,0.9670278000685462,0.9363582098317654,2000,-354.5056553704971,0.0
5,1.5034210681915283,-352.7747251261909,10.525713679542129,-335.063047845941,-361.2558869920244,0.0,0.3357327312201768,0.1,0.0034911632537841797,0.0654749870300293,0.051063508,0.32241192,-349.4220525249143,-3.4760315631659604,-3.53870226874638,0.0,400,0.03275251388549805,0.9367650019649009,0.8877738495998962,2400,-341.6719000730202,0.0
6,1.4922075271606445,-337.1046963318695,12.986057715296859,-321.58670095520034,-355.4417466210518,0.0,0.35619395204196874,0.1,0.0029506683349609375,0.06383395195007324,0.050717488,0.29487514,-348.19031690560985,-3.3202353777820157,-3.3833775624542164,0.0,400,0.026182174682617188,0.884674827055201,0.8114647474628219,2800,-356.91623338927906,0.0
7,1.4979724884033203,-357.0968338751047,11.616306639171492,-337.12859053573726,-365.91752719230425,0.0,0.3353933283932975,0.1,0.0030503273010253906,0.06343889236450195,0.047301527,0.30249408,-349.0809686025594,-3.516944812662115,-3.580905817828718,0.0,400,0.026432514190673828,0.8159103559456351,0.7188517703935129,3200,-329.18728029649094,0.0
8,1.5166337490081787,-356.3414216774064,11.05061549352059,-340.5587941320521,-371.45975175025114,0.0,0.34387175993209534,0.1,0.0029435157775878906,0.06467127799987793,0.052024975,0.31666288,-349.80701391004413,-3.5103969240178396,-3.5744341224137752,0.0,400,0.025784730911254883,0.7217879762575259,0.6049085875368603,3600,-322.02304585014997,0.0
9,1.5359411239624023,-337.57248234830536,8.374050277278922,-330.1270928585635,-351.28725386439487,0.0,0.3358206550126937,0.1,0.0030891895294189453,0.06395483016967773,0.049272474,0.30348647,-348.58356075387024,-3.3230321875455004,-3.3881647900201504,0.0,400,0.027800321578979492,0.5873652032898262,0.46298800593106476,4000,-328.97613602534136,0.0
10,1.546720266342163,-348.6955856723598,14.455596923709734,-328.7827961067797,-364.25350524247557,0.0,0.33669986416827274,0.1,0.0030586719512939453,0.06112408638000488,0.050321322,0.31052512,-348.5947632457192,-3.433474885815708,-3.4980055692201275,0.0,400,0.025180578231811523,0.4758779920874373,0.3647818833132119,4400,-324.23861739272456,0.0
11,1.5507805347442627,-354.1510032711897,8.300675448658982,-343.6732966235738,-366.67377342968484,0.0,0.3513100680072189,0.1,0.0029876232147216797,0.0628805160522461,0.049820967,0.30535597,-349.15038724826627,-3.4893449350437487,-3.552942518045919,0.0,400,0.025448083877563477,0.36875382394102163,0.28480890798612873,4800,-318.5923737787403,0.0
12,1.5704975128173828,-336.1786336296987,2.9960327193198855,-331.8375800182062,-340.0067515010938,0.0,0.3267729243381492,0.1,0.006503105163574219,0.06918740272521973,0.050592642,0.36329606,-347.85321188640955,-3.3104782368176777,-3.3741892909090034,0.0,400,0.0249178409576416,0.2770560010904372,0.24252116145279426,5200,-316.9763314607795,0.0
13,1.574214220046997,-355.37203407323676,14.731430255474528,-330.48050485800445,-368.35766226382594,0.0,0.32908543157724696,0.1,0.002945423126220703,0.06339788436889648,0.050673276,0.29927415,-348.6050941050923,-3.50015548628461,-3.5644922298001527,0.0,400,0.02504110336303711,0.25123649482770427,0.23877006772110665,5600,-317.02341187134266,0.0
14,1.5830726623535156,-338.45608944330706,8.604303944562652,-329.04061143698294,-350.55368213404824,0.0,0.3520818625329412,0.1,0.002919435501098633,0.06324052810668945,0.05016848,0.26632106,-347.5901936389138,-3.3318118725686885,-3.396124836865721,0.0,400,0.02507925033569336,0.24074189774956664,0.2330071415572169,6000,-322.2451165351033,0.0
15,1.6110713481903076,-336.1681020339146,8.758408641262704,-325.51489044825314,-348.5177446778149,0.0,0.3114269928643355,0.1,0.002951383590698242,0.06345462799072266,0.050431088,0.3559965,-346.4479844784139,-3.3082001756235977,-3.3735168250952547,0.0,400,0.025623798370361328,0.2285078844655426,0.2186236990021243,6400,-323.27326312876085,0.0
16,1.5349657535552979,-343.1741464149591,11.10908470787964,-327.07232518810827,-356.7193323556485,0.0,0.3302278277008953,0.1,0.003094911575317383,0.06391215324401855,0.050581764,0.3249411,-346.12060067206846,-3.379370610542219,-3.4433387863494436,0.0,400,0.025463342666625977,0.2183961542846921,0.21133580433863233,6800,-327.6604339344786,0.0
17,1.5583136081695557,-339.12968360894274,14.733197857588678,-327.57223727271435,-364.2042104944054,0.0,0.3531400081373809,0.1,0.0029108524322509766,0.0647125244140625,0.05036805,0.30622357,-345.42150896575595,-3.339174680532668,-3.403509595609855,0.0,400,0.03167557716369629,0.2135203989109856,0.20583259185699299,7200,-325.02221396713963,0.0
18,1.5222017765045166,-342.62516596757257,6.673376131924541,-332.6723282693914,-349.546188083673,0.0,0.3227226886152307,0.1,0.005204916000366211,0.0646512508392334,0.049028598,0.35108808,-345.1418746659376,-3.3740443345781777,-3.4387315969856114,0.0,400,0.024358510971069336,0.19564749425357605,0.18626382820470752,7600,-309.7718236240815,0.0
19,1.5407989025115967,-334.41821044214714,11.442972175913573,-321.19085800492263,-348.8908862527188,0.0,0.35661032326602105,0.1,0.0030603408813476562,0.06501054763793945,0.04814208,0.29633287,-344.0695082435586,-3.292689671282388,-3.357222903931369,0.0,400,0.03830122947692871,0.18488739489524048,0.17554863553261615,8000,-313.9615885068481,0.0
20,1.5573713779449463,-350.5873493438483,3.8707738583132056,-344.5657061014091,-355.36634107442154,0.0,0.36338915645194386,0.1,0.0031371116638183594,0.07042288780212402,0.049597513,0.28274065,-344.7212923535875,-3.4525822679142175,-3.5165311841498736,0.0,400,0.025920867919921875,0.19132801403335434,0.18376649005427179,8400,-318.6030030673916,0.0
21,1.5667529106140137,-338.89762491839895,10.71663714126798,-328.7171856385104,-356.91416158456633,0.0,0.332051510155413,0.1,0.0031092166900634766,0.06828880310058594,0.050748076,0.35863486,-344.13892561006867,-3.3358599106939764,-3.4004205260263487,0.0,400,0.031920671463012695,0.17408075651218255,0.16588468080294622,8800,-311.95968794547673,0.0
22,1.591498613357544,-347.17275433510764,16.070376480945765,-330.78145369264143,-366.16303256406877,0.0,0.3241725277172346,0.1,0.003282308578491211,0.07279014587402344,0.050205883,0.41031823,-344.44230848257257,-3.4185423851542227,-3.4828251134184955,0.0,400,0.02646160125732422,0.17553940158646525,0.1671984943374775,9200,-309.7424306825431,0.0
23,1.5877976417541504,-341.1123241673924,13.144063868342988,-327.7453155489881,-358.6477843145409,0.0,0.3322662513252396,0.1,0.0030298233032226562,0.06788349151611328,0.049191173,0.349746,-344.1093100510546,-3.359158375543541,-3.4237819447380184,0.0,400,0.025447845458984375,0.16620515410710704,0.1564377372422896,9600,-306.0136931554354,0.0
24,1.60746431350708,-332.92477079063076,5.94025658619531,-327.5318954428072,-342.0089704399106,0.0,0.35588242410771664,0.1,0.0031349658966064453,0.06505823135375977,0.050269417,0.3297144,-342.9908561250122,-3.2748028979021275,-3.3414629342583977,0.0,400,0.026455402374267578,0.15099498230119648,0.14210317948236315,10000,-307.3263483341082,0.0
25,1.5878381729125977,-334.0402401074373,1.4340900912765173,-332.8606197680578,-336.4943251035179,0.0,0.3443146877317201,0.1,0.003050565719604492,0.06717228889465332,0.049515653,0.3120454,-342.09579452325477,-3.2896269751558957,-3.3536695045575544,0.0,400,0.031040191650390625,0.13561952269332447,0.1269927000277226,10400,-313.7621267377569,0.0
26,1.6072869300842285,-330.15603647686214,3.6215156600226854,-326.26769011613754,-335.383126583717,0.0,0.4127348844831706,0.1,0.003050088882446289,0.0642251968383789,0.051320072,0.25543365,-340.9018187186155,-3.2496984604336365,-3.3151135232404236,0.0,400,0.02667975425720215,0.1266814414402632,0.11821965867652298,10800,-310.9173400183167,0.0
27,1.6063156127929688,-326.76157537972165,5.306419539045816,-319.0978878087799,-331.73690200450005,0.0,0.37063851523188834,0.1,0.0029473304748535156,0.062439680099487305,0.051129922,0.31471786,-339.48779438472616,-3.2163725652508806,-3.28104848741297,0.0,400,0.025608539581298828,0.12500713730828802,0.11636318617169583,11200,-308.92195270634994,0.0
28,1.7450995445251465,-327.97073188143503,2.5059804582313805,-324.90550840955825,-331.881285715428,0.0,0.3607645761885227,0.1,0.0029304027557373047,0.06786251068115234,0.04972248,0.33044547,-338.336088134397,-3.228039471294128,-3.2923516889583175,0.0,400,0.025450706481933594,0.1158780506232991,0.10782726118715304,11600,-298.8056576402541,0.0
29,1.6311192512512207,-336.95723852889233,13.017429220433106,-322.3567102512807,-357.60769404307985,0.0,0.3573559668673025,0.1,0.002994537353515625,0.06246066093444824,0.04996357,0.31793126,-338.19820317384654,-3.317315210281733,-3.381463620247218,0.0,400,0.025960206985473633,0.12284286951354831,0.1161728137958534,12000,-303.01411162775327,0.0
30,1.5200438499450684,-326.45840228862255,1.1949328070022278,-324.5340684171673,-327.5206240292007,0.0,0.34459605892691897,0.1,0.0030982494354248047,0.0631418228149414,0.050198864,0.32378432,-337.02422308532414,-3.211842684292971,-3.2762278764304327,0.0,400,0.023903369903564453,0.10778290964959483,0.10073375270375894,12400,-304.12779211801933,0.0
31,1.5421409606933594,-325.71310942283355,5.178289764755323,-317.8031004822038,-332.32128665157165,0.0,0.3899146636555825,0.1,0.003015756607055664,0.06490564346313477,0.04997848,0.30615756,-335.8931117190751,-3.2059220907842447,-3.2699512260320978,0.0,400,0.0365903377532959,0.09723411426073006,0.09038784904797631,12800,-298.47303642840785,0.0
32,1.5581328868865967,-328.3195982707649,2.625917049015512,-324.8206730876965,-332.0856232776257,0.0,0.3679933440502107,0.1,0.0031349658966064453,0.06422853469848633,0.05080892,0.34841228,-335.13576037424406,-3.2313775751479286,-3.295986457956914,0.0,400,0.026103496551513672,0.10133256518109222,0.09568919162925511,13200,-295.564810832162,0.0
33,1.5509133338928223,-333.3048649941282,9.377665639428143,-321.6679562054293,-343.7212579648004,0.0,0.3861998846443496,0.1,0.0031037330627441406,0.06620216369628906,0.048816074,0.29100245,-334.95267083623247,-3.281322382243921,-3.344694378825822,0.0,400,0.027022600173950195,0.11611568972575807,0.11222483806914076,13600,-298.62283181400716,0.0
34,1.5739972591400146,-333.9449088578905,12.906497997136283,-313.2462610812427,-348.01652730166813,0.0,0.3385796406031415,0.1,0.0030059814453125,0.06879615783691406,0.050165124,0.38515338,-334.8518946383983,-3.2876380500870024,-3.3508735281384054,0.0,400,0.025243759155273438,0.0997575311431373,0.09533700993498007,14000,-297.87968095572575,0.0
35,1.563415288925171,-341.09916419877834,7.6107780546745305,-330.0152356073823,-348.40138948593176,0.0,0.3751628256198668,0.1,0.0031938552856445312,0.06493926048278809,0.05033674,0.29947883,-335.47662159443627,-3.358223649259956,-3.4216625681458925,0.0,400,0.02956700325012207,0.09296310985905969,0.08691079627637444,14400,-299.98893200767026,0.0
36,1.5734851360321045,-342.90529107181703,11.637747488875052,-326.6571631517864,-358.26544588694253,0.0,0.34920960314525495,0.1,0.0030252933502197266,0.06875419616699219,0.048523426,0.33106127,-336.21948854217436,-3.3748709634445713,-3.439075998015554,0.0,400,0.028267621994018555,0.08943948921487994,0.0845750217174706,14800,-287.7639059480554,0.0
37,1.5924737453460693,-344.1868143874958,7.281959261100965,-336.20737541773764,-353.3430589299857,0.0,0.3730323490128334,0.1,0.010059595108032227,0.06669020652770996,0.050461378,0.32599655,-337.0162211267065,-3.38859819869369,-3.452075525367027,0.0,400,0.02912116050720215,0.08716590304488972,0.08309780069285201,15200,-282.48484385415077,0.0
38,1.6054325103759766,-337.97146612429265,6.5729410268090485,-330.5210788926966,-347.84470165889894,0.0,0.36297221481673125,0.1,0.0029387474060058594,0.07102108001708984,0.050893337,0.3147419,-337.11174562646517,-3.3265036787146522,-3.39074377217003,0.0,400,0.02638387680053711,0.07946748655330019,0.07678694136416105,15600,-278.1739622005946,0.0
39,1.5979313850402832,-348.52625181277847,10.35115924416719,-330.9972517618597,-356.9595031474556,0.0,0.35792951557665953,0.1,0.0028662681579589844,0.06317996978759766,0.049251903,0.31663576,-338.2531962450965,-3.431383812690973,-3.494724427641859,0.0,400,0.025416851043701172,0.08321292501622096,0.07661165079847913,16000,-282.7804603909514,0.0
40,1.610114574432373,-342.8347372716236,11.12697950298313,-326.14521772479276,-356.42341190702894,0.0,0.35898121095852525,0.1,0.0029363632202148438,0.06655502319335938,0.050082672,0.33214846,-338.7113503477492,-3.375358530950198,-3.4390116766133216,0.0,400,0.026494741439819336,0.08012406293376186,0.07584607574829486,16400,-283.92887825856263,0.0
41,1.528977632522583,-346.69249090774457,4.198530978143652,-341.76103415453946,-352.3994329486368,0.0,0.3895654888738763,0.1,0.003005504608154297,0.063690185546875,0.04970912,0.28582072,-339.5094644037488,-3.4135833248189913,-3.476985993568167,0.0,400,0.030314922332763672,0.0873697100926754,0.0854724525667054,16800,-280.7635260776085,0.0
42,1.513343334197998,-343.04639944725506,12.485421957394243,-328.2444391010833,-362.2235876733617,0.0,0.3492005799280708,0.1,0.0030336380004882812,0.06562137603759766,0.049543392,0.3457365,-339.8631579080994,-3.3758578802362376,-3.4405543800220153,0.0,400,0.02637934684753418,0.08720717647414881,0.08585338640506358,17200,-286.4276889674365,0.0
43,1.5376107692718506,-337.8352530994143,13.691954962530366,-320.98182311393913,-355.42137501962543,0.0,0.35002417200104263,0.1,0.003336668014526367,0.06685733795166016,0.049341816,0.36773372,-339.6603674272309,-3.3258567266698664,-3.3899669145604,0.0,400,0.025990962982177734,0.07839297935672877,0.07612048944079836,17600,-296.8887217385153,0.0
44,1.5230231285095215,-337.6207804434263,11.014576598176092,-318.8430000004385,-345.7906153113526,0.0,0.33985833912532326,0.1,0.003064393997192383,0.06477618217468262,0.050004672,0.36070138,-339.4564087288504,-3.3229840332826424,-3.3866994832057307,0.0,400,0.0259244441986084,0.06459946031162224,0.0603802230142246,18000,-289.9938830664767,0.0
45,1.536790132522583,-327.15103955037966,10.656143301922182,-316.6165386086346,-344.1001816765863,0.0,0.3528933116809325,0.1,0.002846240997314453,0.06284570693969727,0.05065554,0.3529985,-338.2258718110034,-3.2181635011205323,-3.28338281675395,0.0,400,0.02505636215209961,0.06968031227034763,0.06779417428010882,18400,-289.19714713603753,0.0
46,1.6131675243377686,-341.1675030206959,10.946038610024672,-330.97542490935143,-357.0431877138979,0.0,0.349309730367762,0.1,0.0030281543731689453,0.06185126304626465,0.050924663,0.33444607,-338.52003493197265,-3.3588498722601647,-3.422801842122025,0.0,400,0.026463747024536133,0.06930851625367113,0.06743298536882061,18800,-291.64796527321516,0.0
47,1.575727939605713,-338.4323262318801,12.568595637168848,-318.31185566997385,-352.3514362689901,0.0,0.3489051549412339,0.1,0.0029821395874023438,0.06519317626953125,0.049491983,0.34357727,-338.5112640619634,-3.333558397847668,-3.395691260219296,0.0,400,0.025577783584594727,0.07524897482237139,0.07195973717570493,19200,-292.3265475764621,0.0
48,1.5507237911224365,-337.40535893472486,12.103748178223007,-323.3217988754912,-353.52181605347835,0.0,0.3410944613557191,0.1,0.002966642379760742,0.062258243560791016,0.04937581,0.39922738,-338.40067354923957,-3.3207355601292505,-3.385132324418355,0.0,400,0.02544569969177246,0.06051567674477427,0.05675185783200003,19600,-292.2220703142507,0.0
49,1.5930428504943848,-345.0595757864549,2.948847498085869,-340.79662587890726,-348.6996917070699,0.0,0.3730530650340257,0.1,0.003000497817993164,0.06573271751403809,0.049389552,0.326726,-339.0665637729611,-3.397262065539582,-3.460924552629197,0.0,400,0.02807784080505371,0.06819374006740572,0.06518250512271404,20000,-291.41495511218363,0.0
50,1.5825862884521484,-330.93530913478344,14.038124590653958,-311.339359453356,-348.48743843584447,0.0,0.34866576897603724,0.1,0.0028166770935058594,0.06636834144592285,0.04925878,0.3378638,-338.25343830914335,-3.2561620875017354,-3.3207960461045603,0.0,400,0.026655197143554688,0.06591051934330888,0.06073738939385426,20400,-291.4574250770728,0.0
51,1.6069583892822266,-336.6899935957452,12.5828359240621,-322.76459693609195,-353.56048983517803,0.0,0.37607923856549197,0.1,0.002938508987426758,0.06449556350708008,0.0502617,0.313461,-338.0970938378035,-3.313783482421427,-3.3784833114448656,0.0,400,0.02572345733642578,0.05718211181120009,0.056367042228699024,20800,-288.54207569022907,0.0
52,1.622269630432129,-329.75773248216314,11.132251375915278,-311.5520563368843,-341.2995160047349,0.0,0.35935425736985455,0.1,0.0032050609588623047,0.06822729110717773,0.049843807,0.33079314,-337.2631577022395,-3.244824442918212,-3.3090046132878697,0.0,400,0.0265960693359375,0.06385545262638455,0.05680992694419135,21200,-286.76576320652435,0.0
53,1.5316390991210938,-333.80674506545364,11.899251637323895,-314.27394741110254,-344.72212642488677,0.0,0.3340162593114981,0.1,0.0032775402069091797,0.06630587577819824,0.051173497,0.36710098,-336.9175164385609,-3.2842390721575145,-3.3486219519573623,0.0,400,0.029039621353149414,0.06326580691198933,0.06186607156956792,21600,-287.0068787499726,0.0
54,1.522160291671753,-339.02935778271257,8.57695887757034,-324.5520375005871,-345.7177418733942,0.0,0.3702898830130675,0.1,0.0030536651611328125,0.06721234321594238,0.04846779,0.30781543,-337.1287005729761,-3.337405977032682,-3.4009400803181844,0.0,400,0.02703380584716797,0.06856024770344664,0.06651632965974352,22000,-286.756897797286,0.0
55,1.5293266773223877,-335.84761621728,8.581544638793595,-322.0119086423623,-344.92397132874027,0.0,0.40374520698022176,0.1,0.003004312515258789,0.06357717514038086,0.049789056,0.2637236,-337.00059213740644,-3.3066672322901582,-3.369681538734937,0.0,400,0.024686813354492188,0.0707543110443246,0.06860062365238229,22400,-294.8851771801841,0.0
56,1.5233745574951172,-335.7615752183858,6.424770891833965,-329.5334538018321,-344.35889233034754,0.0,0.34665164860304903,0.1,0.002963542938232422,0.06925415992736816,0.050256528,0.3462003,-336.8766904455044,-3.3048247477024137,-3.3683541035182847,0.0,400,0.030470609664916992,0.060570269930180005,0.05884990393481357,22800,-282.3220574363222,0.0
57,1.5391836166381836,-334.40137990100925,2.722176540295159,-331.8157519974701,-338.6135539993819,0.0,0.33847807900845045,0.1,0.007033586502075195,0.06289148330688477,0.050121192,0.4004295,-336.6291593910549,-3.2917698135537785,-3.3552611263812704,0.0,400,0.025049448013305664,0.06714138919914323,0.06414860493743861,23200,-292.7982406937105,0.0
58,1.5362393856048584,-321.2161527142049,3.377352278701013,-316.2048345133852,-325.54641142455597,0.0,0.35622563348745,0.1,0.002864360809326172,0.06316661834716797,0.049291003,0.36287174,-335.0878587233699,-3.1602156918427835,-3.224385200645224,0.0,400,0.024964332580566406,0.07022833744661924,0.06835997980721302,23600,-296.98012162985077,0.0
59,1.5452356338500977,-333.96808560038664,6.301242571135052,-325.31404661222666,-340.5125020500334,0.0,0.37989807332215814,0.1,0.0029718875885009766,0.06277012825012207,0.05002963,0.2986486,-334.97588141107155,-3.286833192047936,-3.3506729256212515,0.0,400,0.029749155044555664,0.0821717913451296,0.07970751363353414,24000,-291.9003133540425,0.0
60,1.5438344478607178,-324.5445491151838,5.823939259359342,-317.1741933699942,-330.5312780409461,0.0,0.354748860852918,0.1,0.0031769275665283203,0.06507492065429688,0.050657813,0.32970038,-333.9327481814828,-3.194768368443433,-3.257903447626537,0.0,400,0.025296688079833984,0.08206712350565588,0.07733808849541506,24400,-290.7332870522827,0.0
61,1.5712628364562988,-332.42778101303134,4.703330468735576,-325.24379594286887,-336.72338521605326,0.0,0.3640319425679932,0.1,0.0031561851501464844,0.06436419486999512,0.04967289,0.3304058,-333.7822514646377,-3.2718550851427706,-3.335239785819139,0.0,400,0.03265047073364258,0.07636517763476083,0.06838362518107735,24800,-286.95485571393095,0.0
62,1.6202468872070312,-327.7141115044847,9.636744114522903,-312.9448318533505,-338.7749158908615,0.0,0.3497660000233109,0.1,0.0032105445861816406,0.06658935546875,0.048984703,0.35385585,-333.17543746862236,-3.2247866297026393,-3.2887985603049885,0.0,400,0.026384592056274414,0.0587068608881204,0.056981544857012956,25200,-291.6130071495128,0.0
63,1.619196891784668,-327.87740453314836,8.429413122103847,-322.05336367306603,-342.3285434012978,0.0,0.34610030956147886,0.1,0.002940654754638672,0.06413626670837402,0.05036736,0.33715317,-332.645634175075,-3.2262043468174557,-3.290800703855463,0.0,400,0.026717185974121094,0.0697360416109061,0.06839462503371299,25600,-291.0786338982496,0.0
64,1.620894432067871,-319.7813130368776,8.110902294326108,-311.14152708264555,-328.601437472546,0.0,0.36984624562330504,0.1,0.003043651580810547,0.0643012523651123,0.05047153,0.30538726,-331.35920206125525,-3.1453145914229275,-3.2104007546451774,0.0,400,0.025803327560424805,0.06588176269166175,0.062099948147901055,26000,-291.9764342399279,0.0
65,1.6517581939697266,-327.6380989337348,7.027570246160631,-320.22145538383137,-336.029655310047,0.0,0.36328224657133484,0.1,0.003129720687866211,0.06614184379577637,0.05086339,0.3161471,-330.98709174850325,-3.223450209105573,-3.28720222256316,0.0,400,0.025984525680541992,0.0891681595042902,0.08399371999817781,26400,-297.6444862757376,0.0
66,1.631847620010376,-320.3970176914888,4.259966239844451,-315.7625531726027,-327.3389563716085,0.0,0.342127706719264,0.1,0.0031299591064453125,0.06309700012207031,0.049507953,0.32559678,-329.9280843428018,-3.150869818303578,-3.2157802429695805,0.0,400,0.025595426559448242,0.05501415168912485,0.05207104442013651,26800,-296.8814267601031,0.0
67,1.629852533340454,-325.90933023719816,10.182751502555858,-310.79099091237686,-335.48012807262455,0.0,0.359853461866158,0.1,0.003117799758911133,0.06457924842834473,0.050541557,0.32473806,-329.52620893224145,-3.2060629750570997,-3.2707518071122244,0.0,400,0.025810956954956055,0.05451943840690019,0.05238711992986088,27200,-290.93830489924227,0.0
68,1.6272697448730469,-328.4122960955219,8.475377365950232,-314.30404819069776,-335.82797099191595,0.0,0.3391775156815047,0.1,0.0030269622802734375,0.06389999389648438,0.049572695,0.3590557,-329.4148176485695,-3.231662828974517,-3.295693270672242,0.0,400,0.026363134384155273,0.05638575827015775,0.05565321140558888,27600,-290.90445296125773,0.0
69,1.553964376449585,-317.96656741250655,3.6666123826823935,-314.3905587989428,-324.08396837550066,0.0,0.35498284675624797,0.1,0.0031223297119140625,0.06608700752258301,0.04969479,0.40590036,-328.26999262496327,-3.127407123634482,-3.1923387111482544,0.0,400,0.026682615280151367,0.04478630623632818,0.04317226661163171,28000,-289.22408834563123,0.0
70,1.5420453548431396,-320.64810364033724,10.199504682915324,-310.8472471091854,-335.6438022394864,0.0,0.3638161200690661,0.1,0.0030541419982910156,0.06543302536010742,0.0489991,0.34027362,-327.5078037265007,-3.1534020750188065,-3.2187375351111336,0.0,400,0.030198097229003906,0.05582898060165943,0.053998145000562145,28400,-288.2363251211656,0.0
71,1.5589728355407715,-319.1599717187356,6.527778809407798,-312.10316228020366,-326.26193650369254,0.0,0.3643841002139237,0.1,0.002988576889038086,0.0650796890258789,0.049715176,0.3178504,-326.6730205257242,-3.1388158889920965,-3.203788322772277,0.0,400,0.02699422836303711,0.04272797008535146,0.04130447473791544,28800,-288.57069248911534,0.0
72,1.5565719604492188,-331.2854571894558,11.11702550751121,-312.48266050376384,-341.0924080945603,0.0,0.37785143419849776,0.1,0.006432771682739258,0.06712222099304199,0.050378863,0.3052068,-327.13426419209736,-3.259548841300143,-3.3238315316317375,0.0,400,0.0261228084564209,0.0654214686282785,0.06333392349792435,29200,-290.3226688050761,0.0
73,1.5574305057525635,-323.16773816809007,16.683277522921436,-307.57961055087725,-350.2812972286086,0.0,0.3629698205350794,0.1,0.003171205520629883,0.06908130645751953,0.05157721,0.30450335,-326.73761158969666,-3.1788864121343483,-3.2438926017384513,0.0,400,0.02642679214477539,0.04388714069540252,0.042592739025567074,29600,-289.68894949472144,0.0
74,1.5497913360595703,-321.9655286828381,7.212298650460132,-311.8566163876303,-331.659167813521,0.0,0.38114012647149426,0.1,0.002931833267211914,0.06737351417541504,0.049234096,0.29931158,-326.26040329901076,-3.1674163074201416,-3.2321719884248017,0.0,400,0.026808977127075195,0.04527367140819071,0.04184346444232926,30000,-288.73140707219284,0.0
75,1.5555436611175537,-326.50937591911094,8.265138386982585,-313.45924403065703,-336.1142105891688,0.0,0.3524874217399917,0.1,0.002967357635498047,0.06599807739257812,0.05008137,0.32254055,-326.2853005610208,-3.2118904249786815,-3.276449418216192,0.0,400,0.026126384735107422,0.04945900184645957,0.046023075691849935,30400,-291.5038886789004,0.0
76,1.5731263160705566,-318.22388578381117,13.141908146301867,-304.25747029621647,-339.6846388239572,0.0,0.351362399931638,0.1,0.002975940704345703,0.06959795951843262,0.04969729,0.34430858,-325.4791590832998,-3.130408796985172,-3.1960324937943447,0.0,400,0.02785801887512207,0.043058700334669076,0.039718074180533774,30800,-290.09488604397444,0.0
77,1.6003663539886475,-326.77079081697593,12.457001509750553,-310.6510596038405,-339.3131881513684,0.0,0.3312530375464288,0.1,0.003135204315185547,0.06924176216125488,0.049760915,0.33833373,-325.6083222566674,-3.214399528335717,-3.2793116147983876,0.0,400,0.026206016540527344,0.044340746855982896,0.03811612323541686,31200,-290.1706811472652,0.0
78,1.6089022159576416,-315.75696959791276,6.466801205879265,-307.7775059095455,-325.8228506312661,0.0,0.3235224759385144,0.1,0.0030863285064697266,0.06468963623046875,0.050647892,0.376203,-324.62318699079196,-3.104879295095688,-3.170112779265867,0.0,400,0.025693416595458984,0.04653505556038382,0.044085642428309826,31600,-290.8843149757336,0.0
79,1.6065454483032227,-333.3128869084729,8.011257844124344,-323.0224711169787,-345.22260435104283,0.0,0.37787359067766935,0.1,0.003252744674682617,0.06658935546875,0.050997645,0.29542455,-325.4921569825601,-3.2789128111285017,-3.3433734487107705,0.0,400,0.026666641235351562,0.048529109998613124,0.04735301496379421,32000,-292.42079994686236,0.0
80,1.609607219696045,-342.2002626168718,6.486056301759596,-332.08629167408947,-350.08933440004955,0.0,0.37928060740110453,0.1,0.0031309127807617188,0.0691993236541748,0.05034857,0.33774826,-327.1629675459913,-3.366504591837339,-3.4319958045631256,0.0,400,0.0326387882232666,0.05143652782012642,0.049194299801068035,32400,-294.1666720032435,0.0
81,1.6291441917419434,-332.4331520117684,11.632129748748048,-312.3310120510336,-340.1878769293119,0.0,0.3489091676627518,0.1,0.0029463768005371094,0.06375455856323242,0.04902828,0.33308426,-327.68998599256906,-3.2702508671583725,-3.335129817417059,0.0,400,0.02579212188720703,0.0453969301521455,0.042689649303676386,32800,-291.8976279941505,0.0
82,1.6658852100372314,-328.360428306392,17.4897901327589,-310.50375669147746,-346.4382605162017,0.0,0.35033652065627097,0.1,0.0029854774475097656,0.06302976608276367,0.05210723,0.33620805,-327.75703022395135,-3.2305908087231194,-3.2961411948561983,0.0,400,0.02744460105895996,0.04594462871963007,0.04452456814463896,33200,-291.5620460164084,0.0
83,1.5453765392303467,-327.3408457170324,13.161740409009347,-311.05528656781723,-347.66714065707527,0.0,0.35505627161967973,0.1,0.003211498260498047,0.06319165229797363,0.04993825,0.32103944,-327.71541177325946,-3.219048127440563,-3.28502340444938,0.0,400,0.02582073211669922,0.03885849480058263,0.036567547401595894,33600,-289.5622631012975,0.0
84,1.5468766689300537,-324.0240694694513,9.110728550751677,-309.8088314696083,-334.5661332895799,0.0,0.35822416348681874,0.1,0.003618478775024414,0.06765484809875488,0.050489426,0.32737088,-327.3462775428786,-3.1865334487466037,-3.2516165713484715,0.0,400,0.027739763259887695,0.04476476970644623,0.04458866982458478,34000,-290.7867872124694,0.0
85,1.5648725032806396,-335.76975719976014,5.677799533413956,-327.31916339038753,-343.1585072582278,0.0,0.3978428553336262,0.1,0.002984762191772461,0.063995361328125,0.049352974,0.29264703,-328.1886255085668,-3.3035806087028194,-3.368494486666973,0.0,400,0.026580095291137695,0.039402203538159465,0.03422949044812963,34400,-295.10167830480356,0.0
86,1.5749711990356445,-325.0522763002784,10.0390305130173,-310.2600590308536,-337.3189875169216,0.0,0.35256905192724236,0.1,0.0030105113983154297,0.06604123115539551,0.050978865,0.3202317,-327.87499058773795,-3.197520113803007,-3.262422760043627,0.0,400,0.025123119354248047,0.04132162600102924,0.03579831761143867,34800,-293.5548212913326,0.0
87,1.5704467296600342,-317.157294201328,7.8607717101465955,-308.88976233529104,-330.06765349005684,0.0,0.3528259194026456,0.1,0.003002166748046875,0.07007932662963867,0.048618525,0.35163674,-326.80322094909695,-3.119417417990289,-3.1844740598782444,0.0,400,0.028189420700073242,0.02930282103952868,0.02759802867845452,35200,-293.45571246348965,0.0
88,1.5721571445465088,-319.34671424938085,7.281232485102648,-313.74421834501703,-331.84471970699957,0.0,0.34147501557380344,0.1,0.002882242202758789,0.06246209144592285,0.049809013,0.32416716,-326.05757027912534,-3.1403763395910778,-3.206347887459547,0.0,400,0.02734065055847168,0.02724201256954093,0.02442836029320372,35600,-289.97529335832263,0.0
89,1.5732762813568115,-335.49302399665544,9.266985414658357,-320.1924631356936,-343.8985753071213,0.0,0.3417231081028112,0.1,0.003245830535888672,0.06582379341125488,0.04980155,0.35652313,-327.0011156508783,-3.2992150464788,-3.364141764155106,0.0,400,0.02626824378967285,0.04638025714000625,0.04495921689271304,36000,-290.7183819390344,0.0
90,1.587759017944336,-322.070142326898,16.151820280641296,-309.2696783287057,-349.7865783602436,0.0,0.3734325195751709,0.1,0.0030913352966308594,0.06811094284057617,0.048966046,0.30116943,-326.5080183184803,-3.1681268148569153,-3.234214848548958,0.0,400,0.02563333511352539,0.0407248727929817,0.03973031647207972,36400,-290.0384005999704,0.0
91,1.5796196460723877,-334.4353146966325,8.516288885794076,-326.15406484527074,-346.1349154339238,0.0,0.39096225622042735,0.1,0.0030295848846435547,0.0648050308227539,0.04930357,0.27868104,-327.30074795629554,-3.2899796130570413,-3.3553777453469555,0.0,400,0.02641439437866211,0.0396356671609971,0.03871683609339919,36800,-292.9200132214411,0.0
92,1.593921184539795,-317.4280081366902,7.510327631368846,-310.50720785460993,-329.69423580949194,0.0,0.3540850158972845,0.1,0.0029687881469726562,0.06271815299987793,0.04974033,0.30888334,-326.313473974335,-3.121003187631823,-3.1873959814683905,0.0,400,0.025833606719970703,0.0447063950528619,0.04273425363224021,37200,-293.5047089246546,0.0
93,1.607410192489624,-329.1005291932423,11.836450727495603,-312.34937018264037,-342.40207854753663,0.0,0.3236738968318862,0.1,0.003157377243041992,0.06396865844726562,0.049333133,0.8150702,-326.59217949622575,-3.236659749657678,-3.3024841083732355,0.0,400,0.027299880981445312,0.09223147323496406,0.07656474722016629,37600,-293.35351110392924,0.0
94,1.6419551372528076,-321.3519457965312,7.943280233334171,-312.7774336875822,-329.4863313284078,0.0,0.3607771148858949,0.1,0.003072500228881836,0.06491541862487793,0.050449867,0.34540132,-326.06815612625627,-3.15839365940855,-3.225290868478453,0.0,400,0.02810382843017578,0.043893792690663055,0.029237494923301292,38000,-297.95536035127253,0.0
95,1.6171257495880127,-327.49892941745566,6.599003130838113,-317.8378477244399,-335.7518795868216,0.0,0.37889330888489725,0.1,0.0031023025512695312,0.06360435485839844,0.04842491,0.2618382,-326.2112334553762,-3.2196503475531335,-3.2860053810180547,0.0,400,0.025489330291748047,0.044528114781744586,0.0439246886177597,38400,-295.36994514422906,0.0
96,1.5592455863952637,-314.0824153180517,4.594524212662539,-306.8332517181456,-319.58989519364513,0.0,0.3621254793229036,0.1,0.0033898353576660156,0.06552934646606445,0.049677916,0.36536178,-324.99835164164375,-3.0876616470294884,-3.1543248921906066,0.0,400,0.030302762985229492,0.035765800124049764,0.0246342068742102,38800,-292.785137718611,0.0
97,1.5466666221618652,-325.90061094087326,8.168279124419348,-311.9421063754319,-332.2779924275171,0.0,0.3748625868594352,0.1,0.0029838085174560547,0.06556224822998047,0.050135925,0.31686226,-325.0885775715667,-3.203314085653805,-3.270307477998363,0.0,400,0.025914430618286133,0.046611137568861614,0.043188025071110255,39200,-292.36035475153716,0.0
98,1.5731606483459473,-323.82306397170646,12.651322383438876,-304.9374008509578,-338.67675689966677,0.0,0.37306397366152017,0.1,0.0029845237731933594,0.06407761573791504,0.048134442,0.30623004,-324.9620262115807,-3.183718918186856,-3.2501152329556424,0.0,400,0.026414871215820312,0.03222164710931303,0.03064477778522198,39600,-289.35367475279605,0.0
99,1.5629127025604248,-329.1016930253178,8.934913653386037,-320.5634270210939,-342.4657190325583,0.0,0.36714075166651106,0.1,0.0031058788299560547,0.06568288803100586,0.04880227,0.30739015,-325.3759928929544,-3.2357503784112485,-3.302016246090458,0.0,400,0.028517484664916992,0.039245813874846186,0.037966066095973534,40000,-288.0735040971961,0.0
100,1.5832526683807373,-331.34369103480464,3.7809835601732966,-327.3590982984975,-336.7266103969256,0.0,0.34349163597694204,0.1,0.0029380321502685547,0.06945395469665527,0.048924066,0.3243705,-325.97276270713945,-3.258728837645741,-3.3248807391396875,0.0,400,0.026586294174194336,0.035226925049094554,0.03239656802462534,40400,-286.9250176629891,0.0
101,1.623213529586792,-326.1152924213914,8.642685229598492,-311.66584784772357,-334.5748842919016,0.0,0.3426073343755741,0.1,0.0031807422637939453,0.06606292724609375,0.05041652,0.34845838,-325.9870156785646,-3.205296374714117,-3.2723222240936214,0.0,400,0.026262521743774414,0.035173970876505145,0.0328974644529807,40800,-288.56886956476313,0.0
102,1.5817608833312988,-325.81261731839015,13.724119097400928,-309.19871221022674,-342.2461362692456,0.0,0.3494003329616977,0.1,0.0029664039611816406,0.06324505805969238,0.05025479,0.31225052,-325.96957584254716,-3.2030345316190836,-3.2694834963906927,0.0,400,0.02444624900817871,0.031665530895567305,0.03021381863482294,41200,-287.98973697060916,0.0
103,1.5877106189727783,-333.2640065184448,9.92235547608446,-321.71262087205355,-347.9552782923867,0.0,0.3575695083523515,0.1,0.0032393932342529297,0.06463289260864258,0.04950659,0.3239764,-326.69901891013694,-3.2773233785126803,-3.3436188562597136,0.0,400,0.026546239852905273,0.039101234446090274,0.038052539875312194,41600,-289.7083148687049,0.0
104,1.6144769191741943,-316.6122829457073,10.002011291682198,-305.93820509350337,-332.77615393378676,0.0,0.3453918587826968,0.1,0.0032455921173095703,0.06396698951721191,0.04928557,0.31276605,-325.69034531369397,-3.1118410916130714,-3.1793738208770197,0.0,400,0.02558445930480957,0.02459539883271375,0.023869272065777842,42000,-291.5227541091065,0.0
105,1.6112205982208252,-324.06108249934925,12.19895800947935,-306.1092169138961,-340.158294803909,0.0,0.3463594950282731,0.1,0.0030884742736816406,0.06575345993041992,0.049177006,0.3401797,-325.5274190322595,-3.185648129593716,-3.252265596392807,0.0,400,0.028347492218017578,0.045023768857171034,0.04211373469205094,42400,-300.5593305581463,0.0
106,1.5745923519134521,-332.2296503759959,13.445902464188526,-313.79346977036363,-351.0780460581109,0.0,0.3676008539557081,0.1,0.0035004615783691406,0.06760764122009277,0.048611928,0.3213591,-326.19764216663316,-3.265703188303264,-3.333553511287104,0.0,400,0.024338722229003906,0.03969308190921929,0.037651827637170864,42800,-297.5428254498541,0.0
107,1.6044142246246338,-333.6854609491434,13.69693193466536,-313.03314302689483,-346.9575287211596,0.0,0.3545224944638495,0.1,0.003008127212524414,0.06951498985290527,0.0503893,0.32574517,-326.94642404488417,-3.279965761858541,-3.3478487617065626,0.0,400,0.025764942169189453,0.036582681594179656,0.032683488812807485,43200,-292.5027287097064,0.0
108,1.610628366470337,-320.40959108637,12.217032112122277,-307.1870294918324,-338.48170294729925,0.0,0.3839086001429136,0.1,0.002853870391845703,0.07088947296142578,0.049963597,0.28432462,-326.29274074903276,-3.1484058288845853,-3.216063645378058,0.0,400,0.02506113052368164,0.04275251823682637,0.039402336388946906,43600,-298.88087681103843,0.0
109,1.6318132877349854,-318.8738992713146,11.75551178337805,-307.9981216359157,-338.5922602712713,0.0,0.36298816365164416,0.1,0.0033636093139648438,0.07249236106872559,0.05040111,0.3092585,-325.55085660126093,-3.1327192667278334,-3.2011601765335915,0.0,400,0.02543926239013672,0.030752959988242227,0.030102254577186332,44000,-298.01785509787265,0.0
110,1.6521010398864746,-316.45340945266577,3.939814363386695,-310.22908603876846,-320.5138646993049,0.0,0.36804967382786324,0.1,0.0030841827392578125,0.06517386436462402,0.050418355,0.32076246,-324.6411118864014,-3.1109337856514316,-3.1775671294985326,0.0,400,0.026095867156982422,0.036110646799685175,0.0358511213311308,44400,-308.4257981538404,0.0
111,1.6467938423156738,-322.90281715422225,9.091016059577866,-308.843507839402,-331.9746685810115,0.0,0.37331034550264014,0.1,0.0029888153076171875,0.06362366676330566,0.05087812,0.30354267,-324.4672824131835,-3.1733961188960382,-3.241240678622401,0.0,400,0.025667428970336914,0.03306222585314033,0.03161411620011891,44800,-296.3235292467161,0.0
112,1.5521697998046875,-330.43643895439715,10.59993254586465,-313.06225669799653,-339.0857455324645,0.0,0.3689578208226095,0.1,0.0031881332397460938,0.06439065933227539,0.049449634,0.3543371,-325.0641980673049,-3.248135034432088,-3.3151148729097755,0.0,400,0.026784420013427734,0.06016544031785683,0.045426422052812464,45200,-292.39123420856293,0.0
113,1.5800056457519531,-323.1218468195315,9.353068307254574,-312.18476941780636,-334.7568615052192,0.0,0.361872404350615,0.1,0.0029506683349609375,0.06430411338806152,0.04900542,0.3074906,-324.8699629425276,-3.1753880184028955,-3.2431914858835023,0.0,400,0.025850772857666016,0.04297285296658192,0.02034462786691466,45600,-293.8517850468831,0.0
114,1.5662569999694824,-317.5419684995599,12.281846022025007,-297.09583462886775,-329.5525464561497,0.0,0.3493815204539794,0.1,0.0030639171600341797,0.06566786766052246,0.050040446,0.31441322,-324.1371634982308,-3.1212152431028546,-3.1894923186007755,0.0,400,0.028352022171020508,0.04328374172752633,0.03252569311991529,46000,-292.34407152485346,0.0
115,1.5521838665008545,-328.12550123011914,8.305291667068877,-314.2064454848902,-335.37903798943387,0.0,0.37778910182525877,0.1,0.0030891895294189453,0.07267308235168457,0.04994282,0.31655923,-324.53599727141966,-3.225435026934461,-3.2927070485368537,0.0,400,0.0282289981842041,0.03841352133474432,0.03821259691626204,46400,-302.66408580091746,0.0
116,1.5979719161987305,-324.54570034354174,12.795376305898204,-312.3590889366508,-345.9327109911172,0.0,0.3791081044350552,0.1,0.0030395984649658203,0.06586122512817383,0.049074568,0.26061237,-324.53696757863185,-3.188978535168095,-3.256858153827893,0.0,400,0.02460193634033203,0.03340839788132999,0.03086635569179253,46800,-298.60873661839156,0.0
117,1.5636041164398193,-327.2166471345822,4.890257577443217,-321.8938413541671,-335.1385158321292,0.0,0.3621252670384283,0.1,0.003015279769897461,0.06900548934936523,0.049337406,0.30323902,-324.8049355342269,-3.2161990877637265,-3.2837546111266804,0.0,400,0.027579307556152344,0.04273677023488771,0.04212741482520232,47200,-299.5155100628884,0.0
118,1.5831186771392822,-319.8890135546967,6.50714118318036,-312.4132833168981,-327.19878307896175,0.0,0.36817877128511345,0.1,0.0029637813568115234,0.06761026382446289,0.050033856,0.28928125,-324.31334333627393,-3.142932978395276,-3.2104164525321464,0.0,400,0.02670431137084961,0.03437374918660707,0.026999795353950633,47600,-291.83022728568307,0.0
119,1.6106410026550293,-333.79780430264805,16.206606463183135,-306.6667200359512,-348.22675991616313,0.0,0.36325574454870596,0.1,0.0031991004943847656,0.07057523727416992,0.04955968,0.32875445,-325.26178943291137,-3.2822494004491736,-3.349267372741181,0.0,400,0.024191856384277344,0.03430816135175207,0.0263857308368012,48000,-292.42285957040036,0.0
120,1.573688268661499,-329.3504432205605,7.628417944400873,-316.3130861216959,-335.7193171875877,0.0,0.357611752854136,0.1,0.002946138381958008,0.06929874420166016,0.05016006,0.30693632,-325.6706548116763,-3.237167132898703,-3.304572290780429,0.0,400,0.025010347366333008,0.05162104978586917,0.05049387262138378,48400,-290.2040176641448,0.0
121,1.5843853950500488,-325.8726858559536,5.211813714518425,-317.215989461332,-330.96936781969015,0.0,0.37726483978380865,0.1,0.003061532974243164,0.06404924392700195,0.050053574,0.27450812,-325.69085791610405,-3.202562431425659,-3.2702791190623617,0.0,400,0.02768254280090332,0.036932215188046125,0.035375897549353406,48800,-288.16613092132155,0.0
122,1.5721876621246338,-325.97511411920544,15.45181920522156,-307.6448380409423,-342.921231057772,0.0,0.3457275577683536,0.1,0.003056764602661133,0.06198740005493164,0.04910767,0.33381575,-325.7192835364142,-3.2056327465532712,-3.2718957605100423,0.0,400,0.02629256248474121,0.02169166633047012,0.011902155470430355,49200,-288.1211581211688,0.0
123,1.597891092300415,-335.1488907451079,7.971050748233589,-323.47794377686955,-345.88306742806594,0.0,0.37873668131902427,0.1,0.0031418800354003906,0.06483006477355957,0.050800335,0.31365827,-326.6622442572836,-3.2949254123506058,-3.3614232964742046,0.0,400,0.026441097259521484,0.0845115687952342,0.048048438176530046,49600,-289.51437444766435,0.0
124,1.5950095653533936,-321.3167839552097,11.955773871301716,-300.81367811999695,-330.78186212725427,0.0,0.34805455535517116,0.1,0.003001689910888672,0.06207776069641113,0.049938325,0.34449783,-326.1276982270762,-3.159287307427422,-3.226142120016911,0.0,400,0.025984764099121094,0.03554828593512168,0.024487446582419803,50000,-292.2992135088549,0.0
125,1.6181740760803223,-325.51624147604105,10.638614355964203,-310.5028443742726,-340.5906609895084,0.0,0.3712757201407625,0.1,0.0029532909393310547,0.0629129409790039,0.050265495,0.30230764,-326.06655255197273,-3.1999816427629817,-3.2669655583356665,0.0,400,0.02546977996826172,0.04020107938062859,0.04201146823857375,50400,-290.98618291241405,0.0
126,1.622192621231079,-325.7706018109016,7.263637808017042,-314.12551838581936,-333.61509924100136,0.0,0.3832927493542017,0.1,0.0032236576080322266,0.06910490989685059,0.049429346,0.3021195,-326.0369574778656,-3.203353864602893,-3.270004073340559,0.0,400,0.027592897415161133,0.03615787904185689,0.032330822466332745,50800,-291.76101361611035,0.0
127,1.6272544860839844,-326.16736221865335,10.791570392240212,-308.4810768825531,-337.3246595033944,0.0,0.3433990102761117,0.1,0.0029718875885009766,0.06404685974121094,0.049657,0.30757272,-326.04999795194436,-3.206082580348962,-3.2731091611112233,0.0,400,0.026286602020263672,0.036265859356072065,0.03233064330185084,51200,-290.3650512175338,0.0
128,1.6275382041931152,-325.9615934447062,16.095428297390498,-299.0173716652775,-341.5254756141382,0.0,0.3287795520271779,0.1,0.0029633045196533203,0.06434941291809082,0.050036296,0.36780602,-326.04115750122054,-3.2048214706813973,-3.2717450400757677,0.0,400,0.03766155242919922,0.03324907855568681,0.030689004652555002,51600,-290.1952885909207,0.0
129,1.5730206966400146,-314.35624290916303,10.614460463899608,-299.830106619593,-325.9324334321575,0.0,0.37719772701288723,0.1,0.003004789352416992,0.06327557563781738,0.0491377,0.31287697,-324.87266604201477,-3.0909754920027463,-3.15743259689271,0.0,400,0.027647733688354492,0.046616193179794284,0.029404158674481613,52000,-290.5234106811072,0.0
130,1.5682332515716553,-328.137699170803,3.6920434097825883,-322.69483055246934,-333.0724520247054,0.0,0.38299004344148235,0.1,0.003015756607055664,0.06512451171875,0.050423756,0.2893925,-325.1991693548936,-3.226665478157451,-3.2923063657742246,0.0,400,0.028384685516357422,0.07048123391560954,0.0414657843659976,52400,-285.85469829733074,0.0
131,1.5671985149383545,-319.5283422515812,13.283137216006846,-298.6079008299184,-332.7564524407351,0.0,0.3668359850819266,0.1,0.002986431121826172,0.06337523460388184,0.050238863,0.32571006,-324.63208664456243,-3.1426316104568994,-3.2086734336493494,0.0,400,0.027693986892700195,0.037140504794698895,0.0337214625272069,52800,-286.1073163220303,0.0
132,1.5971639156341553,-313.10992043628414,15.6516103143088,-296.07473281685884,-330.8398793195006,0.0,0.36190388786814615,0.1,0.0031261444091796875,0.06723332405090332,0.049347553,0.31542578,-323.4798700237346,-3.0782508271221194,-3.145017222089254,0.0,400,0.028963804244995117,0.031664382839074884,0.031472923826412966,53200,-285.4418556443157,0.0
133,1.5925416946411133,-326.75737501904644,6.365663567940208,-316.5359129875958,-332.6397977933239,0.0,0.3545251503923145,0.1,0.0031430721282958984,0.06623625755310059,0.050630927,0.32266805,-323.80762052326577,-3.211632834343174,-3.2785735636481363,0.0,400,0.03010725975036621,0.050068260260889653,0.03259929780269279,53600,-289.0425640049326,0.0
134,1.6043574810028076,-318.3591983781441,8.550465083374329,-307.6767224363752,-327.7585523392534,0.0,0.374077311318576,0.1,0.003045797348022461,0.06899380683898926,0.050046273,0.30042034,-323.2627783087536,-3.1301660061482206,-3.196649119724284,0.0,400,0.028966188430786133,0.046847570505603085,0.0310827619758675,54000,-298.65046795269234,0.0
135,1.5823094844818115,-323.8814051080486,9.474053265296082,-314.0990257317085,-338.4189573233845,0.0,0.3387077287463327,0.1,0.0032515525817871094,0.06385040283203125,0.05033095,0.32200378,-323.3246409886831,-3.1830302988095105,-3.2500761109933896,0.0,400,0.031204700469970703,0.03553078733685283,0.030931966663009278,54400,-299.6070298772289,0.0
136,1.5975005626678467,-322.31200861856223,13.261229549919706,-305.0487294978675,-338.2267402061127,0.0,0.32564519238313805,0.1,0.0029587745666503906,0.06430459022521973,0.049666945,0.30072105,-323.223377751671,-3.1687214834494517,-3.2356193333764325,0.0,400,0.031358957290649414,0.023801546288394936,0.024111683062010024,54800,-302.4935318561349,0.0
137,1.5683610439300537,-327.69715495047456,13.95206287675258,-305.79732297808954,-343.60091802852094,0.0,0.39512709611951213,0.1,0.0031194686889648438,0.06297445297241211,0.050183777,0.26520774,-323.6707554715514,-3.2216918404097497,-3.2889090755212105,0.0,400,0.02996039390563965,0.03831060991899374,0.03691269738142424,55200,-302.30868930301995,0.0
138,1.571955680847168,-322.23288956533395,17.68846507260426,-305.1904275527228,-346.84222712789125,0.0,0.3573796339982165,0.1,0.002967357635498047,0.0613551139831543,0.049302973,0.31355855,-323.52696888092964,-3.168674402112593,-3.235126214904167,0.0,400,0.029954910278320312,0.03726487464966314,0.03317769178005437,55600,-301.1054396807789,0.0
139,1.5767064094543457,-326.090221210134,13.884545623034517,-302.21636344938696,-336.67337998171126,0.0,0.3477301569379386,0.1,0.002998828887939453,0.06391215324401855,0.050172806,0.3643359,-323.7832941138501,-3.2064765663097337,-3.2733341584138236,0.0,400,0.030152082443237305,0.03429116192151367,0.03151853313176029,56000,-299.7159470338498,0.0
140,1.6179583072662354,-317.4004965166023,14.02367730401826,-302.909428861285,-332.041070738485,0.0,0.36820709455537454,0.1,0.003024578094482422,0.0641164779663086,0.04992896,0.28209832,-323.14501435412535,-3.120202882264422,-3.1876262617721833,0.0,400,0.030595779418945312,0.03532112368719798,0.030662592921735017,56400,-302.35252467114407,0.0
141,1.636474847793579,-321.56110057145423,10.465952516695586,-307.8918272942644,-334.7321636355328,0.0,0.36980332899240215,0.1,0.0031135082244873047,0.06382465362548828,0.049837027,0.32608303,-322.98662297585827,-3.16144209682366,-3.227581449316118,0.0,400,0.03029942512512207,0.037089372244929655,0.03553957051546086,56800,-303.530248859737,0.0
142,1.6425812244415283,-326.2846857220432,11.801432056021598,-311.4354137032719,-343.6331441170211,0.0,0.3793524175877126,0.1,0.0030984878540039062,0.0655062198638916,0.048700415,0.36619514,-323.3164292504768,-3.2082800876699094,-3.2751042643798987,0.0,400,0.03150033950805664,0.0349921022041631,0.034344685951678416,57200,-302.6075189017825,0.0
143,1.5478627681732178,-332.0122269498618,1.4738480018590614,-330.2496976240003,-334.26725262567817,0.0,0.3855456460327879,0.1,0.0031740665435791016,0.06657981872558594,0.04983275,0.28453013,-324.1860090204153,-3.2638778945398497,-3.3309203194028547,0.0,400,0.03297758102416992,0.047755296787989766,0.0443104383640959,57600,-303.319929616317,0.0
144,1.5714137554168701,-308.79863123400986,11.95380813418106,-291.86746297877863,-325.5549182556491,0.0,0.3546268642325087,0.1,0.0031130313873291016,0.06855320930480957,0.04998743,0.3242159,-322.6472712417748,-3.0350625712060255,-3.1028005757686956,0.0,400,0.033679962158203125,0.024092988685153718,0.014935106887478962,58000,-302.53462620619285,0.0
145,1.5891976356506348,-305.72598098912147,9.14542145136694,-296.144224340068,-316.18362704862693,0.0,0.3743708493562666,0.1,0.0029952526092529297,0.06266188621520996,0.049805593,0.29209203,-320.95514221650944,-3.004420066352668,-3.0714360387762176,0.0,400,0.03784918785095215,0.024130147322093516,0.02273341602461581,58400,-302.28587121710325,0.0
146,1.565389633178711,-329.0635984645508,16.42681605915486,-301.3844055800594,-344.42668384916726,0.0,0.392233842064903,0.1,0.0030214786529541016,0.06454896926879883,0.05051304,0.30265814,-321.7659878413136,-3.2352895348164115,-3.30140296586177,0.0,400,0.034317970275878906,0.04519394018041688,0.03660510764791301,58800,-299.8958360952308,0.0
147,1.5922460556030273,-314.535765411513,15.576705711847005,-301.30776069257837,-340.97413111683727,0.0,0.35335387310831085,0.1,0.007787466049194336,0.06551170349121094,0.048264414,0.27375463,-321.0429655983335,-3.092525342478101,-3.160262249361647,0.0,400,0.03658890724182129,0.02777741245155501,0.019835671885015404,59200,-299.4206946824983,0.0
148,1.5822055339813232,-312.9372886583757,14.17359855877095,-294.7618211041192,-330.29328594790456,0.0,0.35763551174290004,0.1,0.0030493736267089844,0.06525325775146484,0.049945563,0.36893857,-320.23239790433774,-3.075917350127282,-3.142601885802346,0.0,400,0.03536844253540039,0.028657390792083244,0.029077304111993475,59600,-299.4320547449798,0.0
149,1.595531940460205,-313.9938741039397,9.16476096687712,-303.3473288614861,-327.252309513312,0.0,0.3752025509787467,0.1,0.003144979476928711,0.06502699851989746,0.04996428,0.32195702,-319.60854552429794,-3.0897293986463383,-3.1552628494358115,0.0,400,0.03710007667541504,0.026668160610746717,0.0253838238363354,60000,-300.0503293418687,0.0
150,1.5722222328186035,-320.1470627288623,12.17142088294492,-308.39572509384294,-336.43780811979434,0.0,0.37916894757627956,0.1,0.003070354461669922,0.06509160995483398,0.04930627,0.32655922,-319.6623972447544,-3.1495936696706317,-3.2157832995742983,0.0,400,0.034769535064697266,0.03145774413622436,0.02958650934417482,60400,-298.7525612741012,0.0
151,1.603527545928955,-295.5227697373378,3.828893985378537,-288.90077768423794,-297.9593542153679,0.0,0.3666792430658844,0.1,0.0030431747436523438,0.06455707550048828,0.050519295,0.30057928,-317.24843449401277,-2.905170105470039,-2.9729516669597498,0.0,400,0.034441232681274414,0.017340709077484702,0.01537831996895929,60800,-297.2463844198764,0.0
152,1.594892978668213,-316.96415700944436,17.031585860791782,-296.71379486960785,-341.29084680814054,0.0,0.4232641698578152,0.1,0.0032732486724853516,0.06528759002685547,0.05040988,0.26608527,-317.22000674555596,-3.116499982274179,-3.1837997469840738,0.0,400,0.03599190711975098,0.03759796969557995,0.03745610606261061,61200,-296.6851622433281,0.0
153,1.5843424797058105,-321.1184798267891,14.766428429564087,-300.4309575054575,-335.3425196697038,0.0,0.3499431596609458,0.1,0.0032813549041748047,0.06424856185913086,0.050356504,0.35991508,-317.60985405367927,-3.1573046601331747,-3.2242639894560563,0.0,400,0.036939382553100586,0.026522269317085657,0.02528371337950357,61600,-295.93802987146614,0.0
154,1.6318516731262207,-317.39729075535456,8.681471149615202,-305.78380102956817,-326.35071576342835,0.0,0.3348528100559907,0.1,0.003020048141479492,0.06358456611633301,0.050116703,0.3452429,-317.5885977238468,-3.119780800114482,-3.187377919418867,0.0,400,0.036254167556762695,0.034840271745260686,0.031582695272093786,62000,-296.7136538468669,0.0
155,1.6199305057525635,-323.6473828652375,8.497081026842313,-310.6268622498762,-333.43337545415613,0.0,0.37357027202954657,0.1,0.002935647964477539,0.06609344482421875,0.050229598,0.31208286,-318.1944762379859,-3.1811576073961847,-3.2483801540650736,0.0,400,0.03521561622619629,0.025516788984590432,0.02150055453291982,62400,-293.25032346072936,0.0
156,1.5838372707366943,-323.71083222212326,15.035572067291989,-298.59671577402116,-338.48303228855775,0.0,0.36615793426217774,0.1,0.0031931400299072266,0.06536102294921875,0.049519338,0.33475894,-318.7461118363997,-3.182006603360068,-3.249328467537456,0.0,400,0.03702902793884277,0.03694965354018703,0.03502261148211521,62800,-295.20896899703087,0.0
157,1.5883285999298096,-326.78655766076,5.070401073699179,-320.6118005838322,-334.72320048211174,0.0,0.37350610523829053,0.1,0.0030477046966552734,0.06593203544616699,0.049139164,0.27464357,-319.55015641883574,-3.211163874451964,-3.278978269794479,0.0,400,0.04256629943847656,0.029060497631180522,0.019490935276417563,63200,-294.9455405207347,0.0
158,1.5839314460754395,-324.09323708812013,18.134535270883216,-292.69651311891624,-335.21880965555374,0.0,0.3988519880484514,0.1,0.002980470657348633,0.06819701194763184,0.049860716,0.31454235,-320.0044644857642,-3.186430063714599,-3.253143427914672,0.0,400,0.036804914474487305,0.060335214146313744,0.03686927838884783,63600,-295.9549930793539,0.0
159,1.5975885391235352,-321.37632465139933,14.83979480142615,-298.93334280167613,-336.89707105156344,0.0,0.3427560818429971,0.1,0.0029556751251220703,0.06446480751037598,0.050586175,0.3168498,-320.1416505023277,-3.1576175166256735,-3.2254284014483696,0.0,400,0.03742861747741699,0.029092753536528605,0.02155418625665285,64000,-294.5296650578259,0.0
160,1.6192471981048584,-308.36325824376985,10.470049763722932,-295.65209982394913,-324.7909924755473,0.0,0.3762155301467395,0.1,0.002995014190673828,0.0645608901977539,0.04940166,0.26003936,-318.9638112764719,-3.0314971264941217,-3.0987816380061552,0.0,400,0.04127192497253418,0.023929863982242235,0.021972120459286863,64400,-294.7197532740783,0.0
161,1.5997419357299805,-313.27894531278844,17.28534307258909,-291.4186220846804,-334.1345144214488,0.0,0.33998204028344226,0.1,0.002969026565551758,0.06340956687927246,0.049499158,0.34678692,-318.39532468010356,-3.0795135162018,-3.1466358476591116,0.0,400,0.03760886192321777,0.029793405231353196,0.029116320867565014,64800,-298.2074165005479,0.0
162,1.602017879486084,-306.2620678610585,17.101050397597167,-286.40875215761145,-324.400032906353,0.0,0.3544352273085449,0.1,0.0029554367065429688,0.08415055274963379,0.050416075,0.29429427,-317.18199899819905,-3.0096102578123713,-3.077119716845197,0.0,400,0.04246997833251953,0.02295664097194078,0.022173122548720735,65200,-299.59618993507684,0.0
163,1.6007728576660156,-320.7946017888479,12.438777470689411,-300.2214892067535,-331.3046207997564,0.0,0.3489810276720313,0.1,0.003100156784057617,0.07153439521789551,0.05073142,0.34901267,-317.5432592772639,-3.152389824270691,-3.2195603790657557,0.0,400,0.041539907455444336,0.026172472522120516,0.020014537231592994,65600,-304.3574580268154,0.0
164,1.6350929737091064,-318.51778868735846,20.873835950327205,-292.7427306581069,-344.05474459136263,0.0,0.38405910614382577,0.1,0.0030639171600341797,0.0655832290649414,0.050381657,0.27592355,-317.6407122182734,-3.1316577634245184,-3.198173280977707,0.0,400,0.04916834831237793,0.0362066717194791,0.03527091633444637,66000,-307.16376432446646,0.0
165,1.5960721969604492,-335.6517053302627,2.472151147561031,-333.36221929633194,-339.26483157313766,0.0,0.4010540902584218,0.1,0.0031201839447021484,0.062299251556396484,0.049511947,0.2790036,-319.4418115294723,-3.300052220082105,-3.3672967595057317,0.0,400,0.048537492752075195,0.04436234582614066,0.04082869135995885,66400,-306.62128050058755,0.0
166,1.610461950302124,-323.32086779454664,15.517218191080739,-304.83136379674727,-340.45047044306006,0.0,0.34470962590064563,0.1,0.0030493736267089844,0.0783548355102539,0.049771294,0.30648577,-319.8297171559797,-3.178712638553391,-3.2459753737243497,0.0,400,0.04296708106994629,0.021375270103847058,0.020448477510487447,66800,-298.192065833639,0.0
167,1.6177208423614502,-324.5041677599221,15.095841785339571,-299.4689793144513,-336.8851563008077,0.0,0.33226886415929036,0.1,0.0030782222747802734,0.06953787803649902,0.050109114,0.39659202,-320.297162216374,-3.1893206788839654,-3.2572152308177555,0.0,400,0.0404512882232666,0.029049390052850836,0.028579176603716883,67200,-304.21954329334085,0.0
168,1.6183793544769287,-311.3550484618092,11.864129098637429,-296.76255572442454,-323.0716839945472,0.0,0.35262602557402384,0.1,0.0028715133666992188,0.06163358688354492,0.049658414,0.37341726,-319.4029508409175,-3.0595158370133153,-3.127292541243373,0.0,400,0.041825056076049805,0.028994345600408727,0.024475535405697815,67600,-303.44550257874477,0.0
169,1.6273136138916016,-322.32430136351826,10.929054007910588,-304.1646898758623,-332.72253423236776,0.0,0.37495416009470145,0.1,0.0052490234375,0.06144404411315918,0.050575886,0.31428498,-319.6950858931776,-3.168273471536723,-3.235747555725657,0.0,400,0.040851593017578125,0.028621022284815514,0.02784538964201586,68000,-301.1924278214892,0.0
170,1.6435105800628662,-306.9074868721388,9.397948004715868,-297.33365549656054,-322.2418887925903,0.0,0.3417482159367253,0.1,0.0027618408203125,0.060449838638305664,0.049286887,0.40303424,-318.41632599107373,-3.0173035859488104,-3.0838216054024707,0.0,400,0.04160642623901367,0.021685849107247798,0.021360658323756394,68400,-297.8534358420082,0.0
171,1.5385141372680664,-332.7577119882552,1.8979804713313257,-330.65859359586426,-335.80047069316925,0.0,0.36982260721814025,0.1,0.003166675567626953,0.06795072555541992,0.050547905,0.28964493,-319.8504645907919,-3.269824816416656,-3.337401188765955,0.0,400,0.04189896583557129,0.043145143154540044,0.03824299010166466,68800,-298.234283679899,0.0
172,1.5702807903289795,-315.28409458909493,19.30168579872082,-292.33273763722985,-337.4008845640663,0.0,0.35730813009741813,0.1,0.002841472625732422,0.06992459297180176,0.05077284,0.31592652,-319.3938275906222,-3.0986849034940342,-3.165791412697102,0.0,400,0.04703164100646973,0.02525600732288308,0.024161092497458098,69200,-297.3226330968333,0.0
173,1.5727636814117432,-332.1746031204565,5.363763446463399,-323.23727295431956,-337.01806356504204,0.0,0.3674084788023203,0.1,0.0030493736267089844,0.06276154518127441,0.049529657,0.35072067,-320.67190514360567,-3.264609491033602,-3.3322854560276225,0.0,400,0.04714012145996094,0.035636766217645756,0.03308449860897369,69600,-295.21219083831517,0.0
174,1.6046161651611328,-313.1868004138014,19.144740869340552,-289.3835267801023,-332.17775698792093,0.0,0.35101058886674075,0.1,0.002915620803833008,0.0640108585357666,0.050606016,0.3412999,-319.92339467062527,-3.078519000495081,-3.1457889044600953,0.0,400,0.045258283615112305,0.028371135707811745,0.027225557926810685,70000,-296.5233790071392,0.0
175,1.5780348777770996,-319.7786207424519,12.975484439881374,-299.9620283551712,-335.7896215166596,0.0,0.3327791523641056,0.1,0.0030193328857421875,0.0644984245300293,0.049889937,0.3370364,-319.908917277808,-3.143224323092068,-3.2102292193851456,0.0,400,0.04136466979980469,0.02571696578610523,0.01890012600080662,70400,-299.5373699333671,0.0
176,1.6083920001983643,-322.9123893345858,7.892187166701502,-317.39165465653883,-336.42510513398685,0.0,0.33346191530918184,0.1,0.0028772354125976562,0.06510162353515625,0.049902365,0.34742084,-320.2092644834858,-3.172432145662626,-3.241194329040217,0.0,400,0.042523860931396484,0.02647618000566534,0.021732829406406414,70800,-298.3158400594941,0.0
177,1.6249244213104248,-316.3213857054623,17.676339720041586,-291.8393595373428,-335.103369770412,0.0,0.3128454996717523,0.1,0.0030088424682617188,0.06414079666137695,0.050203174,0.3875745,-319.82047660568344,-3.110799526535502,-3.1769963490961475,0.0,400,0.0443265438079834,0.03040279820158149,0.029890143750461146,71200,-301.3738010535074,0.0
178,1.6405556201934814,-330.01422483280794,7.086743994667581,-319.8585975944629,-338.9180160253316,0.0,0.33204489825749334,0.1,0.0030825138092041016,0.06683707237243652,0.049766365,0.4044512,-320.8398514283959,-3.2441480449438247,-3.31132832530289,0.0,400,0.05674290657043457,0.03775516488229101,0.03336990804689406,71600,-296.70507302276644,0.0
179,1.652522325515747,-320.3154638936099,11.863913375163996,-301.0401617272693,-332.4567817272868,0.0,0.35240728297107776,0.1,0.0030291080474853516,0.06972026824951172,0.0489974,0.34595913,-320.7874126749173,-3.1482167042383513,-3.2165121627336433,0.0,400,0.04398512840270996,0.028242434989474454,0.026964609285981198,72000,-304.4367616521166,0.0
180,1.640878438949585,-307.971607109266,5.624483866698329,-299.92519838145523,-315.38221008274235,0.0,0.35711732784855316,0.1,0.0031762123107910156,0.06683850288391113,0.050181694,0.35037556,-319.5058321183522,-3.024957545090497,-3.0937387949744606,0.0,400,0.04225611686706543,0.0258273510526698,0.022654107273978215,72400,-297.913125390007,0.0
181,1.628042221069336,-312.8462171459456,10.481407998879174,-301.12884295349784,-325.4995525191477,0.0,0.3522399794474272,0.1,0.003051280975341797,0.06413602828979492,0.050407663,0.3700544,-318.8398706211115,-3.07420508431495,-3.1416960509515737,0.0,400,0.04645824432373047,0.024672589474950404,0.02371911064944412,72800,-296.2735816401654,0.0
182,1.6457083225250244,-318.4188833602983,18.042322257274208,-288.5345889829013,-334.1876572148006,0.0,0.3401473535830702,0.1,0.0030257701873779297,0.06500005722045898,0.049952127,0.3636814,-318.7977718950302,-3.1294666036073457,-3.1970311832553966,0.0,400,0.042578697204589844,0.035659380822657016,0.03472352292321162,73200,-295.29757728042307,0.0
183,1.5487589836120605,-324.9019442620486,6.130739247504347,-319.1784361916396,-335.2089190118594,0.0,0.3627860725963244,0.1,0.002989053726196289,0.07055020332336426,0.049701873,0.27723137,-319.4081891317321,-3.191135445911977,-3.260325955871503,0.0,400,0.05091547966003418,0.018985124627536792,0.018163258178435927,73600,-298.0652697964754,0.0
184,1.5510404109954834,-338.58201939800426,1.6036128892871402,-335.87642297746277,-340.07595691883625,0.0,0.38888031966559083,0.1,0.003103017807006836,0.0635840892791748,0.050068475,0.29915974,-321.32557215835936,-3.3282047799855654,-3.3962750345564277,0.0,400,0.04221963882446289,0.04315581529915406,0.038708102056111963,74000,-296.1210496159012,0.0
185,1.5465927124023438,-323.54022398910166,16.24786670873927,-298.5847080182468,-338.9313418831601,0.0,0.36445676373164143,0.1,0.0029401779174804688,0.06280899047851562,0.050397407,0.3356475,-321.5470373414336,-3.1790183077624774,-3.2476662583389557,0.0,400,0.04310917854309082,0.0348367622120979,0.03105205394072901,74400,-294.2116776808443,0.0
186,1.5599253177642822,-317.55507620287744,12.458623781715227,-301.7546197358134,-336.09032903556033,0.0,0.34628410621911815,0.1,0.002897500991821289,0.06359457969665527,0.05031935,0.34370312,-321.147841227578,-3.119098774643704,-3.187439462913733,0.0,400,0.042693138122558594,0.03052581225994132,0.027825782785600682,74800,-293.0765093532135,0.0
187,1.565274715423584,-315.4834082918963,14.515802440506286,-296.8176427687975,-330.06081295777625,0.0,0.3093407487808183,0.1,0.003101825714111328,0.06269049644470215,0.05071378,0.32703608,-320.58139793400983,-3.1004005501118943,-3.168222520198005,0.0,400,0.042841434478759766,0.028614000264753647,0.02583275917662165,75200,-292.4876953010014,0.0
188,1.6059503555297852,-319.76253891628863,15.563788794499612,-293.8967768678149,-335.4668606623634,0.0,0.3442127527314859,0.1,0.0034134387969970703,0.06326913833618164,0.04988631,0.31869286,-320.4995120322377,-3.144206221345183,-3.210520525786057,0.0,400,0.04383587837219238,0.03005374808353276,0.02666112085421099,75600,-292.9569353449904,0.0
189,1.619361400604248,-324.9359104046529,3.4427617211722237,-320.28509511134206,-329.3973359050764,0.0,0.4052287294156044,0.1,0.0029687881469726562,0.06373286247253418,0.049505897,0.26155004,-320.9431518694792,-3.191896972575881,-3.260857336081333,0.0,400,0.0434870719909668,0.018233600906706737,0.01768281457766073,76000,-291.4866544386717,0.0
190,1.6451895236968994,-316.1151952337827,12.230829003412616,-295.2379952997869,-326.45034273629244,0.0,0.3620810633922879,0.1,0.0030961036682128906,0.06828474998474121,0.04907503,0.31469285,-320.46035620590953,-3.104332480441719,-3.1734207841716473,0.0,400,0.04378247261047363,0.020159354639343548,0.018582831426157173,76400,-291.68805716008507,0.0
191,1.6124858856201172,-307.1793022185143,13.2018584548731,-289.6746742517036,-320.84222481628603,0.0,0.38436152992188716,0.1,0.0030298233032226562,0.06719541549682617,0.04815364,0.27395314,-319.13225080717,-3.017028643154318,-3.0855165733270145,0.0,400,0.04357337951660156,0.013921238297187688,0.012693316886247467,76800,-296.639900944511,0.0
192,1.6315348148345947,-322.15815586091367,9.33638055694912,-311.8134197927717,-337.1461567581669,0.0,0.37164319329885287,0.1,0.0031507015228271484,0.0658578872680664,0.049098156,0.30681145,-319.4348413125444,-3.166506456699236,-3.2330977617458214,0.0,400,0.0449979305267334,0.023156371639970138,0.02164575784900485,77200,-301.282478433594,0.0
193,1.6431589126586914,-317.67970273460895,12.338954796209995,-301.8057501260798,-336.433079300972,0.0,0.3540283769459044,0.1,0.002902507781982422,0.06621766090393066,0.049620207,0.29171,-319.25932745475086,-3.121305612996677,-3.1894453321106617,0.0,400,0.04440760612487793,0.023899725666900122,0.022532993516913975,77600,-295.52503883306747,0.0
194,1.6291675567626953,-327.0562316415111,8.00683105951033,-313.42229720599823,-333.44258001132926,0.0,0.38416894204954216,0.1,0.0030181407928466797,0.06483793258666992,0.050538134,0.29480064,-320.0390178734269,-3.2148680273471966,-3.28220001975867,0.0,400,0.04446291923522949,0.027489515689059236,0.025278330371478027,78000,-295.39837032496786,0.0
195,1.5625543594360352,-317.3725951946602,14.24264532931157,-295.29339758021695,-333.7255664292781,0.0,0.34134277965138166,0.1,0.003171682357788086,0.06921672821044922,0.049805913,0.3365889,-319.7723756055503,-3.119045167506862,-3.1865302359902965,0.0,400,0.04364299774169922,0.022871784441716038,0.021531099738233316,78400,-302.80565966294273,0.0
196,1.5574448108673096,-325.3797588102926,3.5994851313799576,-322.298807432934,-331.2953422629731,0.0,0.38538816624652156,0.1,0.0028607845306396484,0.05896401405334473,0.050120786,0.29612178,-320.3331139260245,-3.1979685413724663,-3.266093731348832,0.0,400,0.04885292053222656,0.02438141321405779,0.022997569509838955,78800,-310.10042335906957,0.0
197,1.5714805126190186,-320.6980990729036,15.610474853436907,-295.3976126743224,-333.64273330839404,0.0,0.3576209259774697,0.1,0.0035400390625,0.06355667114257812,0.050539277,0.3109053,-320.3696124407124,-3.1509789293479127,-3.21948857713755,0.0,400,0.04276776313781738,0.020612633169188446,0.01929394567267135,79200,-306.07507091198335,0.0
198,1.5874812602996826,-309.0188467123238,14.460179919678641,-298.29048674269734,-333.9244213979497,0.0,0.3442195593574581,0.1,0.002969980239868164,0.06315350532531738,0.049519777,0.31233618,-319.23453586787355,-3.0371109761848496,-3.104668529042699,0.0,400,0.04352927207946777,0.018129532007332,0.017195308984280285,79600,-302.924483935273,0.0
199,1.566560983657837,-302.4017541422493,17.017404043528924,-289.3842009302041,-331.4638547045079,0.0,0.3516795665742835,0.1,0.0029697418212890625,0.06281185150146484,0.048544444,0.30805302,-317.55125769531116,-2.9724392520882157,-3.0394817046597464,0.0,400,0.042557716369628906,0.019247186516469762,0.018130436077730117,80000,-310.41974690048625,0.0
200,1.5902481079101562,-313.5284592390935,16.581498306961205,-293.17258691466554,-336.9992171894422,0.0,0.3454567013715941,0.1,0.003001689910888672,0.06522250175476074,0.049557246,0.31111082,-317.1489778496894,-3.0813125550689717,-3.148718102777161,0.0,400,0.043031930923461914,0.020418338105413773,0.017367091245102807,80400,-309.7587332484182,0.0
201,1.5810351371765137,-305.8031967006797,11.332990357126095,-291.6512130285586,-319.0567507563867,0.0,0.34277395224319696,0.1,0.0030395984649658203,0.06261634826660156,0.049083646,0.30146083,-316.01439973478847,-3.003732876559947,-3.071514814403963,0.0,400,0.04335451126098633,0.0213466192383767,0.02007129426418768,80800,-301.10092616208414,0.0
202,1.601684331893921,-328.7972276850327,2.303953574089083,-325.12659101970104,-331.4532728662341,0.0,0.375961037272426,0.1,0.0029745101928710938,0.06554913520812988,0.049046036,0.29426947,-317.2926825298129,-3.230881997000242,-3.299268380956522,0.0,400,0.04128241539001465,0.026756228583541184,0.023936402154244807,81200,-303.12108631286475,0.0
203,1.613919973373413,-311.1053673098329,12.808499182587372,-297.94056038906484,-326.3562206314217,0.0,0.34222756108177893,0.1,0.003002643585205078,0.06409549713134766,0.04992076,0.36711854,-316.67395100781494,-3.056629669798514,-3.1243014821711195,0.0,400,0.042083024978637695,0.020582062135144713,0.016657705624672687,81600,-300.8532051640516,0.0
204,1.627821445465088,-312.2771170567181,15.390598309151846,-298.68720241764373,-338.25857728719905,0.0,0.33791439199816575,0.1,0.0031125545501708984,0.06580495834350586,0.050770372,0.36505014,-316.23426761270525,-3.0699011823562445,-3.136120335246974,0.0,400,0.04274153709411621,0.0220219341277912,0.019060436569889833,82000,-301.4787928022763,0.0
205,1.6480982303619385,-310.38565936798375,14.435319023582252,-296.2943313994476,-333.41660553232936,0.0,0.33156216420267576,0.1,0.0032415390014648438,0.0652925968170166,0.048925094,0.34888828,-315.6494067882331,-3.048462040924335,-3.116782053941866,0.0,400,0.051099300384521484,0.01705103393245108,0.016515963063937225,82400,-296.3609700739283,0.0
206,1.6482503414154053,-307.6323349677881,12.493143664809953,-294.02753421536494,-326.3875450553926,0.0,0.34186746744194124,0.1,0.0030107498168945312,0.06606364250183105,0.050441243,0.30982703,-314.8476996061886,-3.0225321146539805,-3.090631779063145,0.0,400,0.04241156578063965,0.014554126907183369,0.013044557545756697,82800,-296.22866391132203,0.0
207,1.6176939010620117,-305.74037699547495,12.265988898260341,-293.09844283978026,-323.9785564819802,0.0,0.3432909290747414,0.1,0.0030868053436279297,0.06520795822143555,0.050377835,0.3283739,-313.93696734511724,-3.0042216028976547,-3.071269989434302,0.0,400,0.04244351387023926,0.020019055699758967,0.017327724035210757,83200,-296.733072617197,0.0
208,1.6485023498535156,-296.9570804592869,4.259884853865637,-292.7809326059372,-304.0737342077826,0.0,0.3756261955990146,0.1,0.0031478404998779297,0.06784391403198242,0.049460467,0.28809974,-312.23897865653424,-2.9193133523305352,-2.984961306574227,0.0,400,0.05075788497924805,0.00914320131499388,0.007952817091413215,83600,-299.4245789636916,0.0
209,1.6247589588165283,-304.5299574325612,14.740249052317253,-290.37117058445534,-328.82081947278004,0.0,0.3552522318676275,0.1,0.003080129623413086,0.06375670433044434,0.049551096,0.35349843,-311.4680765341369,-2.9933684691914144,-3.060183569846398,0.0,400,0.04165244102478027,0.013984575252217201,0.013186466053805508,84000,-299.9526528142106,0.0
210,1.6344232559204102,-315.50188045314786,16.56699576653405,-290.9324973914751,-336.09199368457394,0.0,0.34616289417217544,0.1,0.003072023391723633,0.06310462951660156,0.04951871,0.32937512,-311.871456926038,-3.100002542702388,-3.1674634028365514,0.0,400,0.04203486442565918,0.021040469460194368,0.02013424774861246,84400,-298.56564007159847,0.0
211,1.6386728286743164,-318.4851258287953,16.90896843857037,-289.2196949384983,-329.1762585820897,0.0,0.32693759085794627,0.1,0.0029926300048828125,0.0702211856842041,0.049857195,0.4101218,-312.53282381631374,-3.1306365162859553,-3.197521518409683,0.0,400,0.04915928840637207,0.025107404574390847,0.022548744153750792,84800,-297.67964602580935,0.0
212,1.6183946132659912,-299.4235155194698,20.04964546969932,-284.0947718323411,-333.90836636327253,0.0,0.338755079552618,0.1,0.002867460250854492,0.06332540512084961,0.04914967,0.33852935,-311.2218929866293,-2.942878752430294,-3.009516078835251,0.0,400,0.04346418380737305,0.028984185022379275,0.0236354063518683,85200,-293.30350745077504,0.0
213,1.629032850265503,-313.4418904094317,15.646873059424351,-295.99670444144766,-329.3880766816164,0.0,0.34026049853314044,0.1,0.002991914749145508,0.06582093238830566,0.04962463,0.32368124,-311.44389272890953,-3.080383518889982,-3.1479231268765773,0.0,400,0.04138803482055664,0.025065724373828438,0.01884581191559134,85600,-294.9312631827882,0.0
214,1.5600616931915283,-313.78201425458803,15.332507886658298,-293.6483290228095,-331.3989119200968,0.0,0.36415512978638825,0.1,0.003003358840942383,0.06308698654174805,0.050135117,0.29303002,-311.67770488147744,-3.0840164258777847,-3.151260907618834,0.0,400,0.042569637298583984,0.015988247736833754,0.015447183961100648,86000,-297.2142029544088,0.0
215,1.548440933227539,-302.5204064900506,11.124156220957808,-293.2431516363195,-321.3737855808971,0.0,0.3771143459168085,0.1,0.0029447078704833984,0.06326508522033691,0.0496722,0.29641145,-310.76197504233477,-2.972911090502252,-3.0397423189666046,0.0,400,0.04178786277770996,0.01713733524481542,0.013927962674029121,86400,-298.1721570187372,0.0
216,1.5648064613342285,-318.33084513844767,10.872510291805828,-301.73603795129264,-330.97961304538984,0.0,0.36859893483718525,0.1,0.00286102294921875,0.061467647552490234,0.049732305,0.29045045,-311.5188620519461,-3.1301291815601466,-3.196095311052433,0.0,400,0.0431063175201416,0.020293028158080584,0.016592196011029677,86800,-297.0010969404832,0.0
217,1.5762629508972168,-313.8641258247527,20.473871473609645,-286.787816215297,-336.1330519920298,0.0,0.38578592414354446,0.1,0.003100872039794922,0.06810641288757324,0.049714748,0.28060612,-311.75338842922673,-3.0852260717063826,-3.1524772529572083,0.0,400,0.04121971130371094,0.023677944845213992,0.01947269138587258,87200,-299.00681419559334,0.0
218,1.5696122646331787,-314.91601975833794,19.564900976077695,-293.1289636016372,-337.5137948788058,0.0,0.3904260274615005,0.1,0.003110170364379883,0.06562399864196777,0.048269205,0.2758197,-312.0696515621379,-3.0955118494146294,-3.1633804772469043,0.0,400,0.04347038269042969,0.022213928447082577,0.01862997555742376,87600,-298.3563354438952,0.0
219,1.5834405422210693,-304.2260298504409,13.567709300795139,-295.2462364013391,-327.64907056585446,0.0,0.35641903035997363,0.1,0.00307464599609375,0.06432414054870605,0.049311284,0.30777273,-311.2852893909682,-2.990950406735325,-3.0583333367378693,0.0,400,0.04248666763305664,0.012694387339641889,0.011120650714514391,88000,-297.16046372485414,0.0
220,1.5980498790740967,-322.5838780074584,10.859463984334408,-304.9309515367222,-333.524544542246,0.0,0.3593258956387491,0.1,0.003123044967651367,0.06605100631713867,0.04940994,0.33044842,-312.4151482526172,-3.171281915295981,-3.238679562332921,0.0,400,0.04302644729614258,0.020729866674641415,0.01864621370997547,88400,-298.448465240373,0.0
221,1.6255686283111572,-308.38568534044555,16.35906491268086,-294.1839900388604,-336.0848242054118,0.0,0.3464987780740789,0.1,0.003149747848510742,0.06552433967590332,0.050740737,0.32418942,-312.0122019614,-3.0323943027023073,-3.0991362581526687,0.0,400,0.049395084381103516,0.015016569886664395,0.013578736433786381,88800,-299.18491918053775,0.0
222,1.6148619651794434,-321.48451069123746,19.71431730324027,-290.68169292285927,-345.59044862839573,0.0,0.3792403204757464,0.1,0.0030128955841064453,0.06419706344604492,0.049607884,0.2827963,-312.95943283438373,-3.159665186577476,-3.227263372839851,0.0,400,0.042943716049194336,0.030483494118054174,0.029451422543699063,89200,-300.7049963721169,0.0
223,1.591151475906372,-314.13910661912814,14.660000566861248,-299.47669898786364,-330.5462818839252,0.0,0.3556461867973388,0.1,0.0031745433807373047,0.06366920471191406,0.04927135,0.3146648,-313.0774002128582,-3.0881647836024353,-3.154914351573407,0.0,400,0.04338645935058594,0.01745822700614007,0.015181786885459295,89600,-299.22332191753577,0.0
224,1.636458396911621,-295.3763164323255,3.6524094356664074,-289.3550175042393,-299.194741178006,0.0,0.39940254819840315,0.1,0.0030524730682373047,0.06441307067871094,0.04987189,0.27647144,-311.3072918348049,-2.9028682442990474,-2.9702919992560273,0.0,400,0.04223155975341797,0.023811737985253007,0.012000877512364318,90000,-300.7156507603513,0.0
225,1.6027052402496338,-310.8621927225516,10.273814352458382,-297.3210615055552,-324.12513910401054,0.0,0.37558748820786697,0.1,0.003123760223388672,0.07324695587158203,0.049683318,0.31919673,-311.2627819235796,-3.0551890202844705,-3.1227354949025767,0.0,400,0.05011487007141113,0.019812125742172892,0.013169046596196405,90400,-300.33971417144966,0.0
226,1.589928388595581,-313.8752394176963,12.226886585861136,-302.554666235061,-333.79646730219616,0.0,0.3427408420042181,0.1,0.003480195999145508,0.06324958801269531,0.048692584,0.35499823,-311.5240276729913,-3.0860729687998627,-3.1534679784958577,0.0,400,0.04429364204406738,0.013693814385875082,0.01337649203951239,90800,-299.8603310811006,0.0
227,1.5946600437164307,-329.58603986239655,12.453567918991139,-309.56095928559404,-341.72386183693743,0.0,0.3857768895647815,0.1,0.0031735897064208984,0.06301212310791016,0.04856287,0.29462516,-313.3302288919318,-3.2382806134393274,-3.3066776808588276,0.0,400,0.04185938835144043,0.023164864694330434,0.018981852740452616,91200,-300.12619310644016,0.0
228,1.6176116466522217,-318.1833802943544,19.770713739728055,-292.75404001039834,-341.28555386251344,0.0,0.3706373771827513,0.1,0.0029091835021972656,0.06312179565429688,0.048562888,0.29605746,-313.8155440321741,-3.1279951576906733,-3.195802431259798,0.0,400,0.041287899017333984,0.02836444805992514,0.018264373879083872,91600,-299.8252385485858,0.0
229,1.614720106124878,-325.6638736255984,13.795877066250096,-301.8607451851503,-335.37297894728874,0.0,0.35474045242560337,0.1,0.002962827682495117,0.06300592422485352,0.0485701,0.32473007,-315.00037699151653,-3.20138326857443,-3.269353000810296,0.0,400,0.04384279251098633,0.021649524886125034,0.015697149676594205,92000,-301.49781165277494,0.0
230,1.5557281970977783,-316.4292060007496,18.63718883140424,-295.3006963411902,-336.18269142013446,0.0,0.3736606368978943,0.1,0.003123044967651367,0.06737089157104492,0.050310113,0.2962911,-315.14325989243986,-3.109896603965228,-3.177773152970522,0.0,400,0.044095754623413086,0.01825358593548469,0.015183259740576155,92400,-302.7085871942065,0.0
231,1.5708863735198975,-317.543007340617,20.289662209317033,-295.04788381807504,-339.0898636668709,0.0,0.37362917116834726,0.1,0.003040313720703125,0.06616806983947754,0.04971758,0.31345698,-315.3832346372576,-3.1219951060078825,-3.189087925634552,0.0,400,0.044382333755493164,0.015536451256104403,0.014674477670351306,92800,-304.5957594754192,0.0
232,1.6145825386047363,-318.2774576324483,14.763912753735566,-300.33741182430765,-334.5398900814124,0.0,0.3701071568459489,0.1,0.002959728240966797,0.06267166137695312,0.0503509,0.3123169,-315.67265693677666,-3.1267739406601263,-3.1946947487558695,0.0,400,0.043508052825927734,0.02238760027649476,0.018645530702496676,93200,-310.2492690882529,0.0
233,1.5866096019744873,-310.70093866502316,3.4828336141891754,-307.7667173129883,-316.34343001843354,0.0,0.3830220083050963,0.1,0.0029990673065185547,0.06848788261413574,0.051038977,0.29002678,-315.1754851096013,-3.053069070807538,-3.1211215827291134,0.0,400,0.04577517509460449,0.02451354932669362,0.016486062212654477,93600,-311.5459117871076,0.0
234,1.578287124633789,-320.407895288691,14.894824222416913,-294.7559114038108,-331.16825332653207,0.0,0.39012777663953196,0.1,0.0029621124267578125,0.06288623809814453,0.05017941,0.27603146,-315.69872612751027,-3.1502162798114766,-3.2170802015505444,0.0,400,0.040535688400268555,0.02405216541860386,0.01786983306902522,94000,-306.7455627307898,0.0
235,1.6220345497131348,-304.24361944181686,20.827965237462397,-289.1490915023158,-339.6717415201845,0.0,0.40514322416664705,0.1,0.002978801727294922,0.062425851821899414,0.04881052,0.2787516,-314.55321545894094,-2.989538163061025,-3.0578396717665894,0.0,400,0.048837900161743164,0.023775542872015228,0.016241251423702054,94400,-305.8702817822829,0.0
236,1.6175198554992676,-309.3251093040955,18.759408559579242,-288.47794901997264,-338.9650756366056,0.0,0.35265109175110215,0.1,0.0030603408813476562,0.07136821746826172,0.049101435,0.4125413,-314.0304048434564,-3.03977139372297,-3.108189678061966,0.0,400,0.04246068000793457,0.02204475515884762,0.014904893853098579,94800,-303.70076454832594,0.0
237,1.614623785018921,-311.8219406606074,12.56147135355774,-291.2706920313417,-324.2841119470575,0.0,0.3669827645181372,0.1,0.003045320510864258,0.06457281112670898,0.050157398,0.3223179,-313.8095584251715,-3.064438565130673,-3.132172951307045,0.0,400,0.04895782470703125,0.015630593660768285,0.011283579115656169,95200,-303.19023315137815,0.0
238,1.6542446613311768,-307.0538335669959,14.310487720802522,-291.77734689330356,-330.5413682848308,0.0,0.35880654874418577,0.1,0.0030901432037353516,0.06317591667175293,0.05046545,0.30291402,-313.1339859393539,-3.0178468928724906,-3.0856059742763695,0.0,400,0.04201841354370117,0.014202455680705776,0.010494335061782448,95600,-304.4838316477466,0.0
239,1.6680634021759033,-312.52987528631706,4.880753492344047,-305.7706924731656,-319.55116799507596,0.0,0.3672660895896762,0.1,0.0031256675720214844,0.06563425064086914,0.04961368,0.29339147,-313.0735748740502,-3.0715571756341853,-3.1386385857624743,0.0,400,0.04775404930114746,0.014295620759414073,0.013033657579562605,96000,-303.5979553380873,0.0
240,1.6398162841796875,-310.17731186566243,13.292696132360057,-292.21391381468135,-327.42548679195494,0.0,0.34349670889116535,0.1,0.0030739307403564453,0.06539154052734375,0.049273223,0.300007,-312.7839485732115,-3.048040031978653,-3.1160368951373574,0.0,400,0.047605276107788086,0.011987153753630197,0.011755609254446906,96400,-304.5099199280377,0.0
241,1.6504101753234863,-320.06387736905265,14.956677484044098,-304.7954870407505,-336.12406383572454,0.0,0.35290316123147275,0.1,0.003092050552368164,0.06363654136657715,0.049781293,0.32252607,-313.5119414527956,-3.145418681866967,-3.213912757672553,0.0,400,0.04488492012023926,0.013857666964599506,0.01174960659354019,96800,-304.38614619438584,0.0
242,1.647129774093628,-325.5992248312577,14.746592658783657,-300.9683446720253,-337.9552051804646,0.0,0.4174754159146524,0.1,0.0032324790954589844,0.06559038162231445,0.050180823,0.2851399,-314.7206697906418,-3.1995809538601274,-3.2682915109814763,0.0,400,0.04302835464477539,0.01744239511430902,0.014024263358930094,97200,-304.1899282312416,0.0
243,1.5736544132232666,-318.7328068731432,14.347010212610133,-297.46353495019446,-332.9220213803619,0.0,0.34515949213478664,0.1,0.0031766891479492188,0.06518959999084473,0.05011703,0.42417657,-315.121883498892,-3.131520029099177,-3.1993915150567247,0.0,400,0.04388022422790527,0.0163237011073871,0.013576253223480484,97600,-311.2355716454559,0.0
244,1.5947537422180176,-304.9400584550492,20.02678059740741,-284.4995007946691,-335.7387417813027,0.0,0.36349593175750716,0.1,0.0029866695404052734,0.06348848342895508,0.04935898,0.3122519,-314.10370099450773,-2.9967318655726864,-3.0651100627908097,0.0,400,0.04168415069580078,0.01178272043380197,0.011095530431318697,98000,-314.60024186994366,0.0
245,1.584446907043457,-322.9076226832947,14.179464063414567,-298.5014131579531,-332.56840933354636,0.0,0.3667313406848789,0.1,0.0029489994049072266,0.0625009536743164,0.05004338,0.2931742,-314.98409316338643,-3.174749364608548,-3.24204438759141,0.0,400,0.04363298416137695,0.020468879307276634,0.017350334484174203,98400,-316.05311623710315,0.0
246,1.5729787349700928,-330.6876032337663,4.00126284544884,-325.88631595678396,-336.99985057111627,0.0,0.4267307320191279,0.1,0.0031502246856689453,0.06256461143493652,0.0503028,0.24208505,-316.55444417042446,-3.2496533932858265,-3.3181529943698505,0.0,400,0.04203987121582031,0.021303394106245863,0.019259104467877843,98800,-315.4749693090237,0.0
247,1.5673000812530518,-324.82001756570367,12.293714495625197,-306.2535502907404,-340.6495600931598,0.0,0.3722809745508429,0.1,0.0030565261840820312,0.06308341026306152,0.05018015,0.32517016,-317.3810015099524,-3.192667846869054,-3.261757924534808,0.0,400,0.04388117790222168,0.016443767345885842,0.015364819887960736,99200,-315.5630775873725,0.0
248,1.6151561737060547,-319.75184800914315,10.088995690912226,-306.0433477945672,-333.9728692258361,0.0,0.3938954484885139,0.1,0.0030710697174072266,0.06318402290344238,0.04973815,0.27849317,-317.61808615987144,-3.1434866937910186,-3.2106813698164824,0.0,400,0.04338431358337402,0.018981825873401418,0.01693668997642049,99600,-317.9930014853062,0.0
249,1.6266143321990967,-311.340331221055,13.098427485478817,-297.6032927773016,-332.36571095247234,0.0,0.346518219935349,0.1,0.003117084503173828,0.0649862289428711,0.05010561,0.30472067,-316.9903106659898,-3.0598443508600712,-3.1283132727897427,0.0,400,0.04268217086791992,0.011451075348398017,0.010233548544532602,100000,-312.65757372628104,0.0
250,1.6152451038360596,-321.84702500513725,11.124787813024382,-303.55393122543694,-332.56542429851123,0.0,0.3899109890053424,0.1,0.003140687942504883,0.0657954216003418,0.050116487,0.28375947,-317.4759820999045,-3.162575890604118,-3.2316214839452324,0.0,400,0.042322397232055664,0.014289997436503542,0.011988944650921906,100400,-313.9622223803205,0.0
251,1.6412739753723145,-307.8531622734647,14.853007669468484,-293.40964174433464,-331.8289830834328,0.0,0.36765124239196184,0.1,0.0031554698944091797,0.06600046157836914,0.04979195,0.27226502,-316.51370011726056,-3.024962364298246,-3.0932582270533215,0.0,400,0.04224753379821777,0.0190054534950468,0.014023341262630397,100800,-309.0319017512069,0.0
252,1.6182937622070312,-319.74526483797865,18.272500947738667,-288.33909896590774,-333.60345700350445,0.0,0.3684187142295411,0.1,0.0030472278594970703,0.06493759155273438,0.049426112,0.31745723,-316.8368565893324,-3.1417413496411486,-3.2103260474718764,0.0,400,0.042218923568725586,0.019759611447094455,0.015827309565324202,101200,-307.81868479788193,0.0
253,1.6291532516479492,-302.278738582668,14.48896641827072,-290.60221353312005,-327.1014499498101,0.0,0.36758636167785275,0.1,0.002988100051879883,0.06561875343322754,0.04949505,0.33101037,-315.3810447886659,-2.9691753723049112,-3.037365254755013,0.0,400,0.04296708106994629,0.015188191281101859,0.011941098705911174,101600,-305.78718532191965,0.0
254,1.6167280673980713,-304.48465496464877,3.3859290900918917,-299.18465961720295,-308.5745151362084,0.0,0.3781597720432018,0.1,0.0029168128967285156,0.06888151168823242,0.05097389,0.27222773,-314.29140580626427,-2.9912375460538683,-3.059315233213254,0.0,400,0.04276728630065918,0.015590488617043465,0.010609671313577158,102000,-308.0191223310174,0.0
255,1.6252150535583496,-303.83245224169826,10.923920932581575,-291.8111779050664,-315.3832883571485,0.0,0.3602108910968928,0.1,0.0030117034912109375,0.06359195709228516,0.049324755,0.30854908,-313.2455104498076,-2.984684457373593,-3.0534050847995493,0.0,400,0.04257607460021973,0.016464456619057988,0.012636886198716982,102400,-306.8962643632412,0.0
256,1.6172535419464111,-321.141844859986,16.513328147427313,-292.7056777207932,-332.12556139990073,0.0,0.39799805176189673,0.1,0.003123044967651367,0.06819581985473633,0.049801968,0.2775679,-314.03514389082545,-3.1561836606630105,-3.224538317534633,0.0,400,0.10438823699951172,0.02286203997130076,0.020829094000033764,102800,-307.46018580138474,0.0
257,1.6007895469665527,-314.05614139557,14.912884841386013,-292.4444022331119,-330.6346461890051,0.0,0.3471828304525351,0.1,0.003029346466064453,0.061260223388671875,0.050185546,0.30751047,-314.03724364129994,-3.0858027131534485,-3.1534711431748454,0.0,400,0.041951656341552734,0.01571685372108825,0.015318349249365825,103200,-309.90337758272796,0.0
258,1.5997848510742188,-313.4023131216424,11.322214447298569,-294.8187687937483,-323.8411231480276,0.0,0.3731354527119701,0.1,0.0032892227172851562,0.06606888771057129,0.04978136,0.35836288,-313.9737505893342,-3.0789257631220526,-3.147268277470225,0.0,400,0.04254484176635742,0.013855409763278172,0.012258306163744988,103600,-312.06869390749495,0.0
259,1.596215009689331,-300.10434348292813,15.134798588144427,-285.9651787937499,-325.5321439844014,0.0,0.377774913386099,0.1,0.003115415573120117,0.06333422660827637,0.047986764,0.282298,-312.5868098786936,-2.947422042137089,-3.015662421568976,0.0,400,0.0454556941986084,0.015051367532279324,0.014224399600708792,104000,-309.12023578042596,0.0
260,1.586561679840088,-314.4123973962917,11.662233652057889,-298.79330787163303,-328.96077027298503,0.0,0.3996100033280976,0.1,0.0028874874114990234,0.06414031982421875,0.050001383,0.2560057,-312.7693686304534,-3.0909733136596564,-3.1582581554111147,0.0,400,0.04555201530456543,0.015087198753485319,0.014299762686202415,104400,-311.18592241640255,0.0
261,1.6038596630096436,-311.25871485499147,11.093348702995756,-294.6131082714297,-321.7525690446438,0.0,0.39191264787955293,0.1,0.0028820037841796875,0.061991214752197266,0.04902663,0.29409224,-312.61830325290725,-3.0578242628984933,-3.125565480777402,0.0,400,0.047423362731933594,0.016486118035138574,0.01529738739485082,104800,-308.8834007524559,0.0
262,1.5994150638580322,-317.8030983930154,10.729588924723487,-303.71851381907226,-333.54016978727776,0.0,0.3538800963672487,0.1,0.0030798912048339844,0.06377482414245605,0.05041342,0.32369003,-313.1367827669181,-3.1240075482081284,-3.191893758074243,0.0,400,0.04261350631713867,0.015019580603991656,0.013984400296365598,105200,-310.9549818999997,0.0
263,1.6240265369415283,-303.2332741376841,14.64095420850072,-287.5195380406744,-321.0275223537797,0.0,0.3388121052459115,0.1,0.006951332092285156,0.10854697227478027,0.04959728,0.36310065,-312.1464319039947,-2.9796564943368646,-3.0467977192164963,0.0,400,0.043489933013916016,0.014320453305080538,0.011529568122588228,105600,-307.5693351154678,0.0
264,1.6225438117980957,-311.4423578734194,15.387214375522793,-296.3294251402745,-333.8798155741885,0.0,0.3547550611205989,0.1,0.0029337406158447266,0.06321907043457031,0.049950853,0.30812204,-312.0760245009372,-3.0599244117681823,-3.1278950256563682,0.0,400,0.0433197021484375,0.016408648683203426,0.01288274505666885,106000,-307.00860689693764,0.0
265,1.635444164276123,-311.9937927782303,8.965916975613732,-299.8890764350232,-321.44848252268224,0.0,0.406277378905472,0.1,0.0028562545776367188,0.06272625923156738,0.050275423,0.27049562,-312.0678013286665,-3.0651262017684044,-3.1334500678078707,0.0,400,0.0449521541595459,0.014032039612591007,0.011884925500706082,106400,-313.38630006391753,0.0
266,1.59086275100708,-313.7914433822908,13.654214635894279,-296.65884523308216,-330.40271716086664,0.0,0.38837635927673486,0.1,0.003007173538208008,0.06467413902282715,0.0505275,0.2934207,-312.24016553402896,-3.083964732141812,-3.151659454117622,0.0,400,0.05320262908935547,0.012918280022157374,0.01152519819788136,106800,-311.26712985837486,0.0
267,1.6207821369171143,-314.3851173023972,14.77468286644481,-296.8123385882616,-329.6424758203024,0.0,0.3639955885550621,0.1,0.0030460357666015625,0.0706949234008789,0.050286338,0.30883285,-312.4546607108658,-3.0885055720033323,-3.1574396771390116,0.0,400,0.042317867279052734,0.01341645562036413,0.01149104510194333,107200,-307.329924548795,0.0
268,1.5806479454040527,-314.42156056539227,8.187840291354368,-300.24203542297136,-319.3081387675772,0.0,0.4134120152030888,0.1,0.00316619873046875,0.06561708450317383,0.048919633,0.25217435,-312.65135069631845,-3.088431538530674,-3.1577782067322993,0.0,400,0.042951345443725586,0.018469792092570953,0.014950903110468802,107600,-307.4793547388048,0.0
269,1.5921134948730469,-301.57328963653435,9.695605550945974,-291.81961840055,-316.7130816720681,0.0,0.3406745285475128,0.1,0.003014802932739258,0.06853508949279785,0.04986615,0.34654236,-311.54354459034005,-2.962345247961708,-3.0305111088788794,0.0,400,0.050310611724853516,0.028859380111446068,0.015970685526582692,108000,-306.9966529426151,0.0
270,1.5777440071105957,-301.9515856437192,16.573995785223364,-287.3271186525348,-329.0652316496523,0.0,0.34817028175079817,0.1,0.002872943878173828,0.06348609924316406,0.050771546,0.32851088,-310.584348695678,-2.966539810265928,-3.034319823975011,0.0,400,0.043703556060791016,0.04221298678823918,0.021997454990954915,108400,-306.3829106971534,0.0
271,1.6258854866027832,-306.41198632603937,12.91232773331593,-297.3202713893557,-328.5892169538375,0.0,0.358124155624649,0.1,0.0030984878540039062,0.06792688369750977,0.050313815,0.31647906,-310.16711245871414,-3.0108248121947003,-3.0793111659544046,0.0,400,0.0429530143737793,0.052406204138336084,0.022432964112252315,108800,-305.2306097637625,0.0
272,1.5901670455932617,-310.99106031342217,20.320164384663503,-288.13106325779034,-334.4175726357526,0.0,0.3730356596314153,0.1,0.002956390380859375,0.06528234481811523,0.048537005,0.29607874,-310.24950724418494,-3.0543207738714004,-3.123201118803725,0.0,400,0.04506182670593262,0.043769903480868164,0.020482668813600367,109200,-303.53608425881924,0.0
273,1.610220193862915,-309.620295357994,11.768258352024484,-298.42919979716044,-327.6339184010882,0.0,0.35719192248297804,0.1,0.0030241012573242188,0.0629732608795166,0.05101582,0.31269726,-310.18658605556584,-3.0413350322915136,-3.1099904311572297,0.0,400,0.042681217193603516,0.027520315640284742,0.016139500598783805,109600,-304.35508497718575,0.0
274,1.5936801433563232,-312.03823640572887,8.945838518510511,-297.57435481982765,-321.1296570024671,0.0,0.37694554670741887,0.1,0.002992868423461914,0.06252503395080566,0.04983262,0.29079473,-310.3717510905821,-3.0650551839256766,-3.1335641989640868,0.0,400,0.04515528678894043,0.010812080302011829,0.008676029089173191,110000,-306.5498739013209,0.0
275,1.625917911529541,-294.757863391052,2.0783902618349908,-292.79100407577573,-297.89073349052325,0.0,0.3865434531695546,0.1,0.0030732154846191406,0.06340718269348145,0.05012347,0.26949406,-308.8103623206291,-2.8948504535965056,-2.963247854577904,0.0,400,0.04336714744567871,0.007152841851354994,0.0059018998371283046,110400,-301.34029498598096,0.0
276,1.6191444396972656,-298.454063721142,7.236580908962348,-291.59480731815177,-310.54997489150355,0.0,0.35943113468987603,0.1,0.002934694290161133,0.06471920013427734,0.05208456,0.29970393,-307.7747324606804,-2.9306385051969253,-3.000624846770976,0.0,400,0.04604673385620117,0.00691190150462649,0.006158459997527115,110800,-300.78610837759703,0.0
277,1.6053953170776367,-308.4046021241394,20.362451406686585,-280.0943841445815,-331.719678360421,0.0,0.43231348869630903,0.1,0.0029306411743164062,0.06911611557006836,0.0503963,0.25612468,-307.8377194270263,-3.029357985189932,-3.098325313690312,0.0,400,0.043222665786743164,0.013892166008885726,0.011934096402435366,111200,-300.90417196582774,0.0
278,1.7334928512573242,-309.50669824936205,15.16760847169782,-292.64416382592685,-331.82290058504304,0.0,0.3452489018082954,0.1,0.002932310104370117,0.06285524368286133,0.0499782,0.31842598,-308.00461730925986,-3.040637038911407,-3.1094600980393072,0.0,400,0.045285940170288086,0.010557915809276614,0.009182403264383184,111600,-301.69402729956397,0.0
279,1.637826919555664,-305.1712636135135,14.369597964065576,-287.9756644519643,-323.1065502086492,0.0,0.3584515501598777,0.1,0.002925395965576172,0.06498265266418457,0.04923419,0.32669818,-307.72128193968524,-2.998261179052165,-3.067326438116636,0.0,400,0.04535722732543945,0.01004620337352277,0.00815752080769954,112000,-297.16052481331695,0.0
280,1.672358751296997,-297.1775720078769,12.7451338240149,-285.86435482160334,-317.9709380673919,0.0,0.3593057796130704,0.1,0.0028989315032958984,0.06402373313903809,0.050305355,0.32192025,-306.6669109465044,-2.918669029253583,-2.9872878388797472,0.0,400,0.041675567626953125,0.011275597392674103,0.009738632950545681,112400,-296.71476642205596,0.0
281,1.6387789249420166,-295.30518036527604,9.020020054717838,-287.7954210715461,-310.47293055795546,0.0,0.3473433149436527,0.1,0.0029342174530029297,0.0668797492980957,0.050402075,0.317967,-305.53073788838157,-2.900512122397828,-2.9689878100286444,0.0,400,0.043849945068359375,0.009243285843838036,0.008292324944988574,112800,-298.53743107159715,0.0
282,1.6345319747924805,-294.63023330172973,11.467831380443698,-279.9348590357494,-311.5430044857157,0.0,0.3695091339851732,0.1,0.002972126007080078,0.07225751876831055,0.050053358,0.2858065,-304.4406874297164,-2.891686874129959,-2.962064978211231,0.0,400,0.04770302772521973,0.0070971490351791,0.006345653730530048,113200,-299.21865027934854,0.0
283,1.636136531829834,-296.3991745140242,5.436710641111466,-287.0513108350012,-300.5525706012739,0.0,0.36515807904158554,0.1,0.002966642379760742,0.06823897361755371,0.04970125,0.28153878,-303.63653613814716,-2.910067144782007,-2.9793304043981945,0.0,400,0.04376554489135742,0.005331716108483716,0.004543886240282174,113600,-297.1581829850301,0.0
284,1.6250596046447754,-290.57340576830336,3.8672445863701737,-286.3657383889491,-295.5176063046194,0.0,0.35498539306024673,0.1,0.002954721450805664,0.0621638298034668,0.049688935,0.3304923,-302.33022310116274,-2.8514998309869677,-2.921363877243544,0.0,400,0.043096303939819336,0.00966082532706527,0.008963779229081079,114000,-298.0389654273434,0.0
285,1.624887228012085,-297.3712549223373,8.840256768064032,-288.5211262037217,-312.09840650833456,0.0,0.37819302517853837,0.1,0.0030508041381835938,0.06358480453491211,0.049933143,0.28227013,-301.83432628328023,-2.9210131923437412,-2.9901832362299063,0.0,400,0.042844533920288086,0.0067071833265021875,0.005780338914743816,114400,-297.3848646632761,0.0
286,1.6496553421020508,-294.244406724674,3.901895816893863,-287.6149452435434,-297.1336084429216,0.0,0.3789302097556869,0.1,0.003119945526123047,0.06816720962524414,0.049256507,0.30759302,-301.07533432741957,-2.8901153956693006,-2.9593872858131256,0.0,400,0.044226646423339844,0.00882517668463481,0.0074469864116457184,114800,-297.37694377320963,0.0
287,1.661609172821045,-295.13590825450115,6.867886132118911,-287.31271237574964,-304.1457521740117,0.0,0.3771243519257729,0.1,0.0030350685119628906,0.06508421897888184,0.049359936,0.28017128,-300.48139172012776,-2.8977943832460573,-2.9671978441047617,0.0,400,0.04398083686828613,0.005560660244383344,0.00488476785804465,115200,-296.97375161112683,0.0
288,1.6307668685913086,-300.42940864222135,9.015993743467813,-286.8336823375424,-311.44276404230123,0.0,0.38822890099280283,0.1,0.0029935836791992188,0.06418991088867188,0.049492475,0.29625466,-300.4761934123371,-2.9513220234532453,-3.0197795889193166,0.0,400,0.04234671592712402,0.009701979897932565,0.008443206042827976,115600,-299.68545987252185,0.0
289,1.6187098026275635,-291.47120936153976,2.8955795765981946,-287.0962090868465,-294.4367856695425,0.0,0.38763102202924005,0.1,0.0029528141021728516,0.06244707107543945,0.04960886,0.30583602,-299.57569500725737,-2.8614535410782165,-2.9310844134721354,0.0,400,0.04904627799987793,0.006686428390137179,0.00641715701214736,116000,-297.40798968868813,0.0
290,1.6167833805084229,-297.4320821196523,8.072300852304647,-287.834773484449,-310.1407730374521,0.0,0.3523768831653002,0.1,0.003414630889892578,0.06441926956176758,0.050036862,0.32337466,-299.36133371849684,-2.920612817900685,-2.989877459031803,0.0,400,0.044970035552978516,0.008336601185358707,0.007413679839842584,116400,-298.2930093793237,0.0
291,1.6488287448883057,-291.9355090901495,1.3991652878167375,-290.5933525640223,-293.8744108985214,0.0,0.4037952915407898,0.1,0.003237485885620117,0.06509733200073242,0.04927296,0.29185584,-298.6187512556621,-2.864273616025438,-2.935262426441817,0.0,400,0.04435157775878906,0.004589287563545523,0.0037464756982884496,116800,-301.0569937306236,0.0
292,1.6275792121887207,-296.81523086642767,6.831935446429096,-287.1250062802559,-304.98080543211836,0.0,0.3647568488117014,0.1,0.002974271774291992,0.06690120697021484,0.049200643,0.26589367,-298.4383992167387,-2.9153469469305078,-2.984948733548231,0.0,400,0.04392409324645996,0.006280076490086947,0.005486673415680094,117200,-304.9804574179254,0.0
293,1.6238596439361572,-295.07722314432147,11.944675884269728,-283.990077714394,-315.16991832630674,0.0,0.3660906384639505,0.1,0.0031349658966064453,0.06441831588745117,0.049840998,0.3288732,-298.10228160949697,-2.897064491533021,-2.9670845380256488,0.0,400,0.04301047325134277,0.006050498293053173,0.005603614192132485,117600,-304.05120246299555,0.0
294,1.6724483966827393,-297.47754331957617,10.305597416811512,-287.32916989023886,-314.70205103803505,0.0,0.36991352228951996,0.1,0.0029935836791992188,0.06470513343811035,0.050071303,0.27150425,-298.0398077805049,-2.9224594404336033,-2.9917889050320357,0.0,400,0.0447697639465332,0.005086718356087338,0.004465023687281019,118000,-301.9459467565841,0.0
295,1.6850078105926514,-299.1219227834638,9.54512447711363,-286.647344362874,-309.8022068873685,0.0,0.37831989639095814,0.1,0.003017425537109375,0.06615424156188965,0.05023962,0.3026364,-298.1480192808008,-2.937267024868789,-3.0071145636601617,0.0,400,0.044223785400390625,0.006520236696627259,0.006132477359465442,118400,-303.58388355874473,0.0
296,2.1250572204589844,-294.40753670328615,6.567858656524275,-287.92155073933236,-305.34077937252175,0.0,0.3410562429588086,0.1,0.0029511451721191406,0.06341361999511719,0.050050445,0.34956062,-297.77397102304934,-2.8907233714044014,-2.9608642920336026,0.0,400,0.04431486129760742,0.004457352691097972,0.00362754349675502,118800,-303.8316079792192,0.0
297,1.6243791580200195,-288.7497163175118,3.614629989881977,-282.5997277346237,-291.8561785072997,0.0,0.3803883704230635,0.1,0.0030591487884521484,0.06637072563171387,0.049418963,0.28706405,-296.8715455524956,-2.8337122495157447,-2.9039098098792295,0.0,400,0.043222904205322266,0.004636610429006187,0.0036608107356856105,119200,-305.02343440684706,0.0
298,1.593189001083374,-298.15630510802134,6.241214906668912,-293.8509437441761,-308.93263392966116,0.0,0.37445013899306745,0.1,0.002994537353515625,0.06937360763549805,0.04980641,0.2790721,-297.0000215080482,-2.928628728536184,-2.9980248162288055,0.0,400,0.044181108474731445,0.004300782485293281,0.003707632095858818,119600,-302.6096853282129,0.0
299,1.6183598041534424,-290.3384332227641,4.206103120374085,-285.8426644146318,-297.2411666728313,0.0,0.3855789555553442,0.1,0.002995014190673828,0.06596016883850098,0.051066864,0.29256454,-296.33386267951977,-2.849942581564462,-2.919537511889201,0.0,400,0.04712557792663574,0.004438918005544416,0.00429799390250147,120000,-304.39691364812523,0.0
300,1.607288122177124,-297.82329512164426,5.1472108151133265,-292.4539987858509,-306.19167222014937,0.0,0.38407139740752483,0.1,0.003093719482421875,0.06496453285217285,0.048487708,0.25879374,-296.48280592373226,-2.9242750258256507,-2.99406965803016,0.0,400,0.04377913475036621,0.010174931454683187,0.007713083406333588,120400,-301.93834867053533,0.0
301,1.6102311611175537,-290.51351353404874,7.3367919265321895,-282.568480136609,-298.0575127676372,0.0,0.33986698491986844,0.1,0.0031702518463134766,0.06494951248168945,0.04968877,0.40830132,-295.8858766847639,-2.8521796007397637,-2.9218169987528126,0.0,400,0.04304909706115723,0.006960373705911682,0.004954171918283709,120800,-302.16246715600283,0.0
302,1.5965826511383057,-308.5327234508925,11.773495732863237,-289.8889617564476,-318.79246967503,0.0,0.40924247824280774,0.1,0.0029573440551757812,0.0642998218536377,0.050897468,0.27453968,-297.15056136137673,-3.0304904383926896,-3.100000362017467,0.0,400,0.04295539855957031,0.014604715928152297,0.010764984667745142,121200,-301.88430396958756,0.0
303,1.578960657119751,-289.8838669245332,4.073288080175737,-285.51558083869094,-294.953674208871,0.0,0.3662582520637093,0.1,0.0030515193939208984,0.06394147872924805,0.04893534,0.3060489,-296.4238919176924,-2.8457742612220076,-2.9154755157573486,0.0,400,0.04424285888671875,0.010620930184564425,0.005727840899348918,121600,-300.02818854017846,0.0
304,1.5897786617279053,-290.06961841670375,10.16356523219853,-276.6221200234455,-305.26126757862943,0.0,0.3350210034761244,0.1,0.0029871463775634766,0.06584763526916504,0.050159965,0.41655838,-295.78846456759356,-2.847459835392291,-2.9166808522687164,0.0,400,0.04360556602478027,0.00999659925408705,0.007813222502175608,122000,-298.3601078096277,0.0
305,1.6116254329681396,-290.5240836842198,3.3659930121701462,-285.302324398298,-293.94739467027813,0.0,0.38520709671604314,0.1,0.0033919811248779297,0.07060694694519043,0.050377112,0.2858252,-295.26202647925624,-2.851933328082009,-2.92189789908692,0.0,400,0.04339933395385742,0.004502338016578066,0.004154593559102135,122400,-298.9194155876816,0.0
306,1.6673626899719238,-290.6401830584714,4.2393815892493345,-285.12345846950524,-296.9556580030803,0.0,0.3966160404354997,0.1,0.0030574798583984375,0.06277036666870117,0.050136756,0.2580316,-294.79984213717773,-2.8528243192824894,-2.9223431385139866,0.0,400,0.044005632400512695,0.0031234978509431057,0.0029426825480261282,122800,-298.3104378576759,0.0
307,1.605346441268921,-297.2102777011643,6.536258419159002,-292.0670880961437,-308.0983171923873,0.0,0.35004849562469503,0.1,0.003175497055053711,0.0631098747253418,0.05007546,0.31263217,-295.0408856935764,-2.918287974909518,-2.9881467921421083,0.0,400,0.043735504150390625,0.005148153045226824,0.0046155650361127416,123200,-297.46513820010244,0.0
308,1.623953104019165,-300.72996030033494,13.78647206638301,-289.9886483134104,-323.9454672268324,0.0,0.39534196977146446,0.1,0.003147125244140625,0.06452512741088867,0.04900241,0.27698773,-295.60979315425226,-2.9535005118131696,-3.0233427839508913,0.0,400,0.042931556701660156,0.004918362980949174,0.004174950831753075,123600,-299.06145189812634,0.0
309,1.6797056198120117,-287.0997673297626,1.1010458739758024,-285.41113600695707,-288.4842876552142,0.0,0.40248675953168206,0.1,0.0029609203338623047,0.06656575202941895,0.049393997,0.33170563,-294.7587905718033,-2.818873186119396,-2.8876984167300774,0.0,400,0.04383134841918945,0.008261976022897915,0.005366206080365228,124000,-299.12096602483575,0.0
310,1.686166763305664,-289.21530580562626,3.4376269952120246,-284.2746647410046,-293.4447542336759,0.0,0.3554176979944971,0.1,0.0031158924102783203,0.06544756889343262,0.050499048,0.34078762,-294.2044420951856,-2.838637646010298,-2.908162650744604,0.0,400,0.041838645935058594,0.004126787727513231,0.003253641649144584,124400,-298.15971011608906,0.0
311,1.643324613571167,-294.287839423331,3.4833414204689235,-291.85510190939726,-300.2941830386042,0.0,0.41122427447197996,0.1,0.003114938735961914,0.06620311737060547,0.051141568,0.23872879,-294.2127818280001,-2.890274043892788,-2.9588187612727266,0.0,400,0.04825639724731445,0.004384365745968645,0.004006806707783534,124800,-305.53252089036226,0.0
312,1.6235527992248535,-296.8823958564829,8.198309825218304,-290.65249392488505,-310.9298164392357,0.0,0.3821191304544755,0.1,0.00299835205078125,0.06382417678833008,0.04857137,0.24573387,-294.4797432308484,-2.9156799708789656,-2.9849699086351427,0.0,400,0.046976566314697266,0.004071088921187034,0.003588425281434091,125200,-321.6836057771738,0.0
313,1.615232229232788,-302.0015359304025,10.372876072271302,-287.8585692909145,-313.5696529572245,0.0,0.4017968367048635,0.1,0.0031845569610595703,0.06456542015075684,0.050336413,0.25760576,-295.23192250080376,-2.966785184868213,-3.035848061216526,0.0,400,0.04407477378845215,0.0063262696988156215,0.0056194712727058475,125600,-313.8771780792134,0.0
314,1.6087851524353027,-296.57209252026985,2.500191133176308,-292.67390048839906,-299.56425283487283,0.0,0.35382907387083196,0.1,0.0030825138092041016,0.06473422050476074,0.050718512,0.30149788,-295.3659395027504,-2.912480256462369,-2.980888604118782,0.0,400,0.04556441307067871,0.00374364101337353,0.003527834290599782,126000,-324.90125107881244,0.0
315,1.6048948764801025,-283.3147462299343,2.9787677266174892,-279.8109025896267,-286.37338226852324,0.0,0.3680483663035363,0.1,0.0030584335327148438,0.06330037117004395,0.050247,0.31214643,-294.1608201754688,-2.7800400181494043,-2.849343293574388,0.0,400,0.044158935546875,0.006733363783863442,0.0037084865399385574,126400,-325.5345154889109,0.0
316,1.6253807544708252,-295.5901245593774,14.991108589854324,-276.00050477362447,-316.9247202353262,0.0,0.36500804231024864,0.1,0.003137826919555664,0.06390786170959473,0.050200082,0.35678944,-294.3037506138597,-2.9029117772470094,-2.97131534983888,0.0,400,0.04311728477478027,0.01044848595577944,0.0071073625949874385,126800,-306.237282911646,0.0
317,1.6265785694122314,-294.8366696034374,6.976831735599695,-284.0891262157749,-301.5125899867904,0.0,0.4228732338065059,0.1,0.0029726028442382812,0.07189321517944336,0.049623337,0.26057056,-294.35704251281743,-2.895645948298596,-2.963945092279055,0.0,400,0.04457807540893555,0.009668056790148122,0.0055661643852009425,127200,-300.2850282375559,0.0
318,1.635362148284912,-301.1502114652352,2.2884100202627535,-297.9763030191085,-303.5645921073741,0.0,0.3952891480712603,0.1,0.003098011016845703,0.06428670883178711,0.049999643,0.26269376,-295.03635940805924,-2.9597233842631976,-3.027840605451586,0.0,400,0.04631829261779785,0.010661076050672114,0.005319505911103401,127600,-320.3363941796756,0.0
319,1.6525123119354248,-294.3212859632255,10.675437966782622,-281.7599635447742,-309.10182731134563,0.0,0.35524275882661915,0.1,0.002941131591796875,0.06412148475646973,0.048771456,0.36513656,-294.9648520635759,-2.8922150056103155,-2.9591873047620103,0.0,400,0.04396510124206543,0.007671901501357658,0.005690230074618283,128000,-319.81541641219974,0.0
320,1.6454627513885498,-295.3982200936186,7.744475590356159,-283.4304197371633,-303.0388779843608,0.0,0.35512172027896904,0.1,0.0031380653381347656,0.06328010559082031,0.049482834,0.34465843,-295.00818886658016,-2.9029853593087975,-2.970498434393107,0.0,400,0.04428410530090332,0.0046774935027548235,0.00371028409601381,128400,-299.75779913332394,0.0
321,1.664973258972168,-290.1085749645879,7.941426296840825,-278.0251036291987,-298.1513913408143,0.0,0.36859489024741887,0.1,0.007318258285522461,0.06645488739013672,0.049418136,0.28332394,-294.51822747638096,-2.848840791027001,-2.9170242950519096,0.0,400,0.042795419692993164,0.0060045152406821775,0.00569047478059134,128800,-302.2984491172345,0.0
322,1.656365156173706,-296.3841741595754,3.6944568324304545,-290.89650361985093,-300.8225240737446,0.0,0.37450280237896466,0.1,0.0029909610748291016,0.06672859191894531,0.05013958,0.39287436,-294.7048221447004,-2.9105490549711153,-2.979405316315965,0.0,400,0.04346799850463867,0.006691760123469474,0.005066867978606129,129200,-302.00693386720485,0.0
323,1.6761860847473145,-298.61232086944125,6.003204856984,-290.0476118469745,-305.7864793272567,0.0,0.3608009784069005,0.1,0.003005504608154297,0.06404852867126465,0.049948767,0.30732524,-295.0955720171745,-2.9330530919447972,-3.0021264157538066,0.0,400,0.044649362564086914,0.00705119781168878,0.004897363572281514,129600,-302.24867788685174,0.0
324,1.6110084056854248,-297.6238858803323,7.492163151095242,-285.70291377144497,-306.3801530586621,0.0,0.40146730871415165,0.1,0.002917766571044922,0.06453919410705566,0.049870774,0.2954948,-295.3484034034903,-2.922956138485166,-2.992005451791595,0.0,400,0.04473996162414551,0.0058125021165065715,0.003905391916318596,130000,-311.42049292281945,0.0
325,1.6153218746185303,-292.4267371434591,5.100676310371857,-285.855738738607,-299.6401627030851,0.0,0.38246813605941066,0.1,0.0031147003173828125,0.06780552864074707,0.04948058,0.2875703,-295.0562367774872,-2.8708628756968304,-2.9400108909841376,0.0,400,0.044377803802490234,0.007112491971954637,0.004504245771337674,130400,-300.7537264910956,0.0
326,1.6111297607421875,-294.7227992337646,10.655542061753334,-284.65234562938195,-309.9364401606168,0.0,0.326044251931355,0.1,0.0030565261840820312,0.06583285331726074,0.049445618,0.3087141,-295.02289302311493,-2.895046042652126,-2.963511750778255,0.0,400,0.04363727569580078,0.004006794009839871,0.0033045289403297894,130800,-296.2096194890261,0.0
327,1.6284828186035156,-297.8067045003762,10.46776514156537,-282.29767443203787,-307.66770778920784,0.0,0.35897084369137233,0.1,0.0029778480529785156,0.0651400089263916,0.049804896,0.269476,-295.30127417084105,-2.9244960311842254,-2.993817299074628,0.0,400,0.04437112808227539,0.005605442918014767,0.0053548825490485384,131200,-297.2460364063179,0.0
328,1.6295123100280762,-296.1786270151446,4.721960428755563,-288.5725798676892,-301.2462629324322,0.0,0.33585627065408574,0.1,0.003000020980834961,0.08429551124572754,0.050350763,0.34955394,-295.38900945527143,-2.90904380569728,-2.9775533349159837,0.0,400,0.04538989067077637,0.003557326675880854,0.003215438068906328,131600,-296.10234391136436,0.0
329,1.6393687725067139,-291.44264108518234,5.036377190093879,-286.14921966293946,-297.28919555369606,0.0,0.39395101136487476,0.1,0.0031163692474365234,0.06562304496765137,0.051035434,0.27464753,-294.99437261826256,-2.861205458741595,-2.9302794335982645,0.0,400,0.043093204498291016,0.004935825333708216,0.0038857385694858883,132000,-294.7389372328159,0.0
330,1.6244423389434814,-287.49463554915053,2.9154697900455444,-284.309414835724,-290.66632385019193,0.0,0.3340061090009108,0.1,0.003019571304321289,0.065399169921875,0.049313907,0.4048937,-294.24439891135137,-2.821915680338658,-2.8908258610784743,0.0,400,0.04320263862609863,0.003615468935306566,0.0027708093298622165,132400,-291.2797498313391,0.0
331,1.631300687789917,-289.95088746533855,1.6407989387381163,-288.018318036675,-291.60160661612105,0.0,0.36472607529461354,0.1,0.003129720687866211,0.0648350715637207,0.050566074,0.3290441,-293.81504776675007,-2.8476956647532963,-2.9158619214452095,0.0,400,0.04849815368652344,0.003858041989851534,0.003145815286097289,132800,-298.19974133149304,0.0
332,1.6359281539916992,-289.07525604439616,2.819812032155582,-285.92647264035907,-293.49497700958756,0.0,0.4192323899292208,0.1,0.003203868865966797,0.06372213363647461,0.048833527,0.2506266,-293.3410685945147,-2.8383088939188172,-2.9064468943983037,0.0,400,0.046102285385131836,0.0026573632604035484,0.0025340533705479162,133200,-293.65863270746905,0.0
333,1.6146166324615479,-288.9975606836203,2.973274271175532,-286.018659290724,-293.74121041372393,0.0,0.3669777566009401,0.1,0.0030050277709960938,0.06650471687316895,0.050055847,0.41568115,-292.90671780342524,-2.8372548133348117,-2.90542636365323,0.0,400,0.04483342170715332,0.006626307505202701,0.005584251020219883,133600,-289.0218401188716,0.0
334,1.6269810199737549,-291.08398377069864,4.049501820033367,-284.1342893149079,-294.08264920186735,0.0,0.3930107493083482,0.1,0.0029866695404052734,0.062026262283325195,0.04956172,0.27878025,-292.7244444001526,-2.8591452978223875,-2.9270649863556484,0.0,400,0.04215526580810547,0.0031639377970131125,0.0029734360468049482,134000,-292.3912841876455,0.0
335,1.6303815841674805,-288.41666083549245,5.153161441878216,-282.39911565893794,-295.84302956427206,0.0,0.3796747721837821,0.1,0.0029573440551757812,0.06632876396179199,0.051020127,0.2934046,-292.2936660436866,-2.8318610849386228,-2.900305692254164,0.0,400,0.04478001594543457,0.0026913999432139186,0.0026605813459183235,134400,-295.47829003168226,0.0
336,1.567408561706543,-290.1369460861853,6.196428879100739,-283.36060925243396,-300.24052125138104,0.0,0.37131184322567246,0.1,0.002992391586303711,0.06196856498718262,0.048282787,0.2576514,-292.0779940479365,-2.849222328171831,-2.9172895855984975,0.0,400,0.04396843910217285,0.004267802079889254,0.0035057599984185716,134800,-302.2495246870406,0.0
337,1.591487169265747,-290.4827496177183,7.511707340125209,-284.0628486790599,-302.77097129300176,0.0,0.37447829118632586,0.1,0.002938508987426758,0.0629725456237793,0.050066214,0.2576892,-291.91846960491466,-2.8528762120343205,-2.9204837081545025,0.0,400,0.04333829879760742,0.0033946127108068036,0.0026674296059481977,135200,-285.323963767905,0.0
338,1.6015703678131104,-284.1136855213406,4.999144609227171,-278.37349253366995,-290.9101378436313,0.0,0.37459428444949616,0.1,0.0031104087829589844,0.06282544136047363,0.050403897,0.37695777,-291.13799119655727,-2.788601080812467,-2.85753792357359,0.0,400,0.04300427436828613,0.0031421267161035795,0.0028409058706376665,135600,-287.1644262102691,0.0
339,1.6549115180969238,-288.05155009951056,1.2449233505117434,-286.09524549031505,-289.19785860941596,0.0,0.37329654718580857,0.1,0.003014802932739258,0.0751192569732666,0.04943899,0.26727295,-290.82934708685264,-2.827255266531763,-2.89589480113732,0.0,400,0.04664945602416992,0.002591096466599316,0.0023706760039948413,136000,-289.76142881783807,0.0
340,1.6153013706207275,-291.66176858310746,8.815502937897845,-279.2464131069545,-301.8553892763952,0.0,0.3630884371784177,0.1,0.003209352493286133,0.06501126289367676,0.04969572,0.25932017,-290.91258923647814,-2.8633344474533837,-2.9308604331629553,0.0,400,0.04353737831115723,0.0078057898792912705,0.006609021218708713,136400,-288.7118043264549,0.0
341,1.6571078300476074,-287.69837682182697,5.897804339176428,-278.61411144303247,-293.313921484373,0.0,0.37053998385327486,0.1,0.0030994415283203125,0.0648348331451416,0.04907617,0.29116464,-290.59116799501305,-2.8238542002391207,-2.8917253613144096,0.0,400,0.044608116149902344,0.002555135255977515,0.002261146761283476,136800,-284.4769739719075,0.0
342,1.677750825881958,-285.73582867127516,5.074661669222668,-277.115957133427,-289.96516425777617,0.0,0.3702748585671877,0.1,0.003021240234375,0.06525325775146484,0.050078627,0.34181258,-290.1056340626393,-2.8041531856048625,-2.8724517726444287,0.0,400,0.04293322563171387,0.002205077854929081,0.0021028174316663965,137200,-285.7705608727706,0.0
