iteration,time_sampling,stoc_pol_mean,stoc_pol_std,stoc_pol_max,stoc_pol_min,rollout_success,alpha,delta,time_vpg,time_npg,kl_dist,surr_improvement,running_score,rwd_sparse,rwd_dense,success_percentage,num_samples,time_VF,VF_error_before,VF_error_after,env_samples,eval_score,eval_success
0,1.0646393299102783,0.15144324998006092,0.08445760211206454,0.28078064949845094,0.052262324950728,0.0,0.14052890423491057,0.1,0.03533434867858887,0.0524897575378418,0.057135273,1.4160886,0.15144324998006092,0.0,0.0030566674903512855,0.0,200,0.015265941619873047,0.6399609476301164,0.376406961936206,200,0.10837795767820778,0.0
1,1.0108914375305176,0.09253636627310151,0.006720186633807609,0.10011828206145316,0.08520480352306284,0.0,0.15044008863747396,0.1,0.002876758575439453,0.05393075942993164,0.05027975,0.640207,0.145552561609365,0.0,0.0018300714718286412,0.0,200,0.015982389450073242,0.9477725777344244,0.15337414266976013,400,0.13095848260193563,0.0
2,1.0054972171783447,0.11022747491984229,0.024506693157494864,0.14933090741519825,0.08313543264546165,0.0,0.15299149882882698,0.1,0.0027959346771240234,0.052823781967163086,0.049651165,0.8393478,0.14202005294041273,0.0,0.002499357895056767,0.0,200,0.014004707336425781,0.1602475965586146,0.2566886012342472,600,0.11784703842217276,0.0
3,1.0195298194885254,0.12763765069573002,0.048436613241013185,0.20169798878362172,0.07333476394565984,0.0,0.14539370074125701,0.1,0.00262451171875,0.0578463077545166,0.050302554,1.2217133,0.14058181271594444,0.0,0.0025942545403715165,0.0,200,0.014211654663085938,0.47254703336594134,0.2527440889116661,800,0.10156124102726925,0.0
4,1.0241432189941406,0.14868806425452785,0.02340426602278189,0.17994077690080515,0.11524851984548956,0.0,0.14650278143291698,0.1,0.002749204635620117,0.05202841758728027,0.052314676,0.7578451,0.1413924378698028,0.0,0.0029684618966346605,0.0,200,0.01421809196472168,0.1728143778274945,0.16444160764332227,1000,0.12722966927723686,0.0
5,1.0316426753997803,0.1760728747857151,0.04656653330830679,0.23504193571018983,0.12179235710291454,0.0,0.1411242059263311,0.1,0.002737760543823242,0.05196428298950195,0.050421335,0.76579535,0.14486048156139403,0.0,0.003502916951338086,0.0,200,0.01444387435913086,0.23666483546442738,0.23772781311717583,1200,0.16437005216015382,0.0
6,1.1296536922454834,0.1185205677164187,0.045848135068033126,0.1912849141182306,0.06862895879842287,0.0,0.1470191439689579,0.1,0.002705812454223633,0.05254673957824707,0.053858537,1.0202147,0.14222649017689648,0.0,0.0023385051543219084,0.0,200,0.016018152236938477,0.6300444768965333,0.333822468053975,1400,0.3849627630484899,0.0
7,1.1489872932434082,0.12059616092582266,0.04764294668907448,0.18424608769217493,0.06355624335754781,0.0,0.1417423573000411,0.1,0.0026862621307373047,0.05191349983215332,0.05057941,1.3293195,0.14006345725178912,0.0,0.002420300426011602,0.0,200,0.013387918472290039,0.3518450065044483,0.2703576281490897,1600,0.41874149167706204,0.0
8,1.1344184875488281,0.19948158412936354,0.16650554623863262,0.4852648319988024,0.07961176380255673,0.0,0.14493511137608026,0.1,0.002642393112182617,0.0520627498626709,0.049732577,1.4816027,0.14600526993954654,0.0,0.0039672999714662404,0.0,200,0.013971090316772461,0.664985664290808,0.6157288528788488,1800,0.4164451746396212,0.0
9,1.2059946060180664,0.4761702256131132,0.4531511833990014,1.2542976118466802,0.13996433195207064,0.0,0.13146894500934087,0.1,0.0028412342071533203,0.053142547607421875,0.049150378,2.144509,0.1790217655069032,0.0,0.00950416268705453,0.0,200,0.015403032302856445,0.8378409895683141,0.7248260882029286,2000,0.4495427650283424,0.0
10,1.2225549221038818,0.09674941649346926,0.05122874046096247,0.16903339198901762,0.030331682380045553,0.0,0.14168618028171454,0.1,0.0026397705078125,0.052396535873413086,0.050357234,1.2848293,0.17079453060555982,0.0,0.001912399236966763,0.0,200,0.015673160552978516,1.7970066350882414,3.3249931765990683,2200,0.2248254040484137,0.0
11,1.2221384048461914,0.23694320550850836,0.20158222981811427,0.5844567584464583,0.08968102144409602,0.0,0.1314983238458512,0.1,0.002740144729614258,0.05440640449523926,0.049086753,2.0748222,0.17740939809585468,0.0,0.00472527091579427,0.0,200,0.015486717224121094,0.579178872202158,0.5767567847458202,2400,0.26266723087132365,0.0
12,1.167252540588379,0.1886438580602996,0.07142333939792889,0.30829049342140497,0.12926653470735167,0.0,0.13478511413444624,0.1,0.002918243408203125,0.053252458572387695,0.05085681,5.2731304,0.1785328440922992,0.0,0.003786066158502941,0.0,200,0.01591777801513672,0.4118093611350053,0.34822611021929456,2600,0.2765286632207989,0.0
13,1.1056873798370361,0.1998937071873168,0.1388141770222617,0.43323552048217656,0.08373201094006374,0.0,0.13731164902553572,0.1,0.002852201461791992,0.05287289619445801,0.04845096,1.527345,0.18066893040180096,0.0,0.004002729658264866,0.0,200,0.014111042022705078,0.4859711058470407,0.46081501739784775,2800,0.34129589198382404,0.0
14,1.130384922027588,0.26368363122122496,0.10054642377260659,0.4234837092198851,0.1578919924154744,0.0,0.13859856838833579,0.1,0.0029909610748291016,0.0529634952545166,0.04995494,1.5450336,0.18897040048374336,0.0,0.005473884180992766,0.0,200,0.013875961303710938,0.2920366340800104,0.28613322153051407,3000,0.4666338060844011,0.0
15,1.118788719177246,0.1848512502600551,0.051527170885531305,0.2664350204895121,0.12364877320757565,0.0,0.13959499672160844,0.1,0.0027627944946289062,0.05256366729736328,0.050364483,1.1061684,0.18855848546137455,0.0,0.004048709197420835,0.0,200,0.01383829116821289,0.26653793566945333,0.21181585500665942,3200,0.4545191945362583,0.0
16,1.1422443389892578,0.17071009047939872,0.02143925114710916,0.19983856515973913,0.14445447493587849,0.0,0.13669924716838705,0.1,0.0027854442596435547,0.05231595039367676,0.049913205,0.81723505,0.18677364596317697,0.0,0.0035370824623974268,0.0,200,0.013918161392211914,0.13715707832092816,0.09385249284207013,3400,0.3199436249070047,0.0
17,1.1480798721313477,0.15278770884396778,0.05713865641277916,0.21418898190928748,0.09456249346999035,0.0,0.13935583391328132,0.1,0.0027511119842529297,0.05199837684631348,0.050907154,1.0290821,0.18337505225125605,0.0,0.003098845942047981,0.0,200,0.01360011100769043,0.2261728404487089,0.20597148277598962,3600,0.26643233386870085,0.0
18,1.1495354175567627,0.45664910931670355,0.258114263874655,0.8410850159542458,0.20871697303591982,0.0,0.13891751430219468,0.1,0.002719879150390625,0.05406022071838379,0.049554776,1.2401677,0.21070245795780082,0.0,0.009033350512511962,0.0,200,0.013774871826171875,0.6573491829282415,0.5759539511807384,3800,0.2701482255763315,0.0
19,1.15657377243042,0.13828000531713913,0.04772788523723964,0.20373143264055738,0.06984285609517184,0.0,0.14054562745226715,0.1,0.0027642250061035156,0.051909446716308594,0.05050179,0.7712783,0.20346021269373465,0.0,0.00272335941118137,0.0,200,0.013896942138671875,0.3974972858003437,0.7711752872016374,4000,0.3570167108237657,0.0
20,1.1639378070831299,0.6111741877500868,0.6179202718596509,1.672733048790011,0.1532550532367023,0.0,0.13045348121629596,0.1,0.0026226043701171875,0.05242204666137695,0.049353484,2.3910913,0.24423161019936987,0.0,0.012230502847799198,0.0,200,0.013459920883178711,0.764893659612454,0.686067827470786,4200,0.24655398987983915,0.0
21,1.1628913879394531,0.15643977132968623,0.04588800348230096,0.2270201764705264,0.11043482457497544,0.0,0.13716417862282074,0.1,0.0026733875274658203,0.05203390121459961,0.049410332,1.7491531,0.23545242631240149,0.0,0.0031246524367813406,0.0,200,0.014110326766967773,1.7174913707527342,2.5353158630906885,4400,0.2626731801815147,0.0
22,1.2053444385528564,0.3868056799896178,0.17731973351038674,0.6557821771680871,0.16895491797423257,0.0,0.12921515239212977,0.1,0.0027954578399658203,0.05176043510437012,0.049194474,1.5100996,0.25058775168012315,0.0,0.007755517567817148,0.0,200,0.013855218887329102,0.31252063164805977,0.3022790885080597,4600,0.3152841129920523,0.0
23,1.2020492553710938,0.17922240919817706,0.04700130467754829,0.2466700217482761,0.1168278097020863,0.0,0.1503488966562257,0.1,0.0027282238006591797,0.0531461238861084,0.05054956,0.7932647,0.24345121743192855,0.0,0.003589779363218429,0.0,200,0.013515949249267578,1.5117924456203167,0.8342761797276034,4800,0.2809929774456648,0.0
24,1.1561975479125977,0.4376514008960939,0.15728012764333282,0.5776110458700766,0.17179864217213153,0.0,0.1326142920617891,0.1,0.0027773380279541016,0.05218386650085449,0.04884337,1.1181247,0.2628712357783451,0.0,0.008663937922723432,0.0,200,0.01337885856628418,0.27944542283266705,0.30356280891757637,5000,0.35843237072287376,0.0
25,1.1744110584259033,0.20868929245752013,0.09205823115791416,0.3125271379329362,0.11005572909013836,0.0,0.13962116695898633,0.1,0.0028145313262939453,0.05182147026062012,0.050633468,1.4549091,0.25745304144626263,0.0,0.00414257365043519,0.0,200,0.013275861740112305,0.4023486436591874,0.3601448891499946,5200,0.7678233626126127,0.0
26,1.1886639595031738,0.1526431993359636,0.055103571453966396,0.23627662867502977,0.08242350587639506,0.0,0.13492018693918353,0.1,0.0027303695678710938,0.05177617073059082,0.049045183,1.0110452,0.24697205723523274,0.0,0.003012250229703258,0.0,200,0.01333308219909668,0.9399427080886208,0.5806025128636204,5400,0.6063231323414523,0.0
27,1.2023186683654785,0.1598665903379459,0.07179328167292875,0.28367134668170363,0.10764674719652706,0.0,0.13261016082956073,0.1,0.0026183128356933594,0.051835060119628906,0.05044882,1.5059276,0.23826151054550407,0.0,0.003609767906982886,0.0,200,0.013189077377319336,0.4753590887123449,0.3150439872642078,5600,0.4641049051239939,0.0
28,1.1968419551849365,0.17401495893877642,0.08397408741757358,0.31383386698071647,0.09111090737439277,0.0,0.13066055088657122,0.1,0.0026068687438964844,0.05189990997314453,0.05099719,1.5004678,0.2318368553848313,0.0,0.0037207858314628165,0.0,200,0.013530492782592773,0.3179672516461527,0.32437074112501885,5800,0.4772487963151746,0.0
29,1.2348363399505615,0.32753404504798167,0.23936224043802787,0.7359417668627704,0.12671528096827436,0.0,0.13122500323764572,0.1,0.0026748180389404297,0.0515286922454834,0.04936514,1.9605297,0.24140657435114632,0.0,0.006509156044647174,0.0,200,0.015260457992553711,0.6636735435241985,0.6046929484311091,6000,0.5234309382917375,0.0
