iteration,time_sampling,stoc_pol_mean,stoc_pol_std,stoc_pol_max,stoc_pol_min,rollout_success,alpha,delta,time_vpg,time_npg,kl_dist,surr_improvement,running_score,rwd_sparse,rwd_dense,success_percentage,num_samples,time_VF,VF_error_before,VF_error_after,env_samples,eval_score,eval_success
0,1.3406908512115479,2.8110327366954464,0.004865694847520753,2.817773347907486,2.804360548724383,0.0,0.15947576162279753,0.1,0.050504446029663086,0.06255674362182617,0.051852964,0.73168147,2.8110327366954464,0.0,0.03742367838113051,0.0,300,0.03844094276428223,0.9051757970466605,0.7314211659637583,300,2.807091403630657,0.0
1,1.1989729404449463,2.8558252831406143,0.07966099342622962,2.9936819610671996,2.805305523297164,0.0,0.17348474983556295,0.1,0.0029969215393066406,0.057802438735961914,0.053147297,0.7447602,2.8155119913399633,0.0,0.03799475204242969,0.0,300,0.017670869827270508,0.7333857177495273,0.5149405997280178,600,2.8057608152507387,0.0
2,1.2407445907592773,2.818313748089999,0.014436645230311724,2.8392411165715763,2.7994464376884722,0.0,0.17602110526541706,0.1,0.002995729446411133,0.057218074798583984,0.050298873,0.65434414,2.815792167014967,0.0,0.03752170539141503,0.0,300,0.018617630004882812,0.512602001927835,0.26271396127939506,900,2.809341363859289,0.0
3,1.2132887840270996,2.8401339283778912,0.057423627655294136,2.9385479056005517,2.7979299365657457,0.0,0.1728513292571661,0.1,0.0030698776245117188,0.05935335159301758,0.04988852,0.6901972,2.8182263431512595,0.0,0.037882335778762224,0.0,300,0.01714324951171875,0.2693682312449091,0.13234671936789077,1200,2.8097421932408353,0.0
4,1.2961585521697998,2.82759141659951,0.010204090132972094,2.8439108501972803,2.8187086977886073,0.0,0.17901930337653807,0.1,0.002905130386352539,0.05994534492492676,0.055139855,1.1255993,2.8191628504960846,0.0,0.03763782420578185,0.0,300,0.020697355270385742,0.13873752140806966,0.15714270537500094,1500,2.81483008610093,0.0
5,1.3142426013946533,2.5054822179658176,0.5616291233092344,2.853440112483788,1.5331605022202228,0.0,0.16349795383428647,0.1,0.0029451847076416016,0.05835318565368652,0.050168592,3.648593,2.787794787243058,0.0,0.0335094558614713,0.0,300,0.01792430877685547,0.3739954139228341,0.22127321230435526,1800,2.811578095216506,0.0
6,1.2397315502166748,2.827422484489867,0.023249547764332447,2.86567176823966,2.8028810624327973,0.0,0.1818660176763949,0.1,0.0028688907623291016,0.058946847915649414,0.04852526,0.9936617,2.791757556967739,0.0,0.03761271582413516,0.0,300,0.016719818115234375,0.0973306716640286,0.10892484163802049,2100,2.822594240242252,0.0
7,1.3037371635437012,2.793548959452358,0.04704068181130399,2.8409105855533356,2.7153498397084244,0.0,0.15404183837067523,0.1,0.003101348876953125,0.05813884735107422,0.0477648,4.195063,2.791936697216201,0.0,0.03732282296228386,0.0,300,0.017642974853515625,0.10410281569669062,0.08608286068866285,2400,2.828733920743883,0.0
8,1.298771619796753,2.5426116975124886,0.48162809170677373,2.838276146277578,1.7087282433113369,0.0,0.18098091696457264,0.1,0.0029649734497070312,0.058676958084106445,0.05228886,0.79979825,2.7670041972458295,0.0,0.03395756516410501,0.0,300,0.017586708068847656,0.15942643265418655,0.15672682231121832,2700,2.8358396299464927,0.0
9,1.2999532222747803,2.826168654836678,0.006672657654439479,2.8362653737034966,2.817588717482623,0.0,0.16884644056090586,0.1,0.002914905548095703,0.059274911880493164,0.05063607,1.7503769,2.7729206430049143,0.0,0.03763203408974704,0.0,300,0.017015933990478516,0.08094222545374313,0.07616787440069282,3000,2.836736858996161,0.0
10,1.2650446891784668,2.627707746082072,0.36254152750219326,2.8729649733481595,2.0010539597027392,0.0,0.1660966786692777,0.1,0.0028519630432128906,0.05638575553894043,0.049838576,1.9108726,2.75839935331263,0.0,0.035125506742327846,0.0,300,0.01657700538635254,0.13205009000567663,0.12405710603112373,3300,2.8119980548519905,0.0
11,1.268287181854248,2.817781576648607,0.0020145305906730158,2.819733906765134,2.8147976570744455,0.0,0.17626461755591324,0.1,0.0027990341186523438,0.05794930458068848,0.051374752,1.5171556,2.764337575646228,0.0,0.037505389994273414,0.0,300,0.016958236694335938,0.07575307788544156,0.07290101891787241,3600,2.815278695127798,0.0
12,1.862151861190796,2.8582025296330835,0.062355379410588434,2.9655536969490437,2.813222168149506,0.0,0.17859092942430255,0.1,0.002849102020263672,0.05764651298522949,0.04989477,1.2609171,2.7737240710449136,0.0,0.03804461718536987,0.0,300,0.01663374900817871,0.07819211975458688,0.06648277667164332,3900,2.818284354611244,0.0
13,1.2966270446777344,2.8412730105110273,0.022945078487226954,2.8727900362198304,2.8106577112366917,0.0,0.16978956953274124,0.1,0.0028307437896728516,0.05638623237609863,0.050733365,1.6907802,2.7804789649915254,0.0,0.037812118115480665,0.0,300,0.016682147979736328,0.0676745258848392,0.06623167046203729,4200,2.852304931476113,0.0
14,1.3234007358551025,2.6048635064986003,0.41773196090413167,2.8665607840697893,1.8816845456475266,0.0,0.17009469272586528,0.1,0.0028395652770996094,0.05742216110229492,0.051308937,1.4856701,2.7629174191422328,0.0,0.0348020858224126,0.0,300,0.01651287078857422,0.1432381669407031,0.11632634669219852,4500,2.9110974957177134,0.0
15,1.3286545276641846,2.7796752979390997,0.21398702211929896,3.0413649515498813,2.445062233187972,0.0,0.1695965786843887,0.1,0.0028815269470214844,0.05830550193786621,0.04933474,2.002517,2.7645932070219197,0.0,0.03715848569939089,0.0,300,0.016847848892211914,0.08579931167297833,0.08654772645761416,4800,2.9402526551853048,0.0
16,1.2904486656188965,2.861345911817994,0.05277006595908333,2.9494767582334647,2.818832233124829,0.0,0.16891661246222803,0.1,0.0029077529907226562,0.0580747127532959,0.051206164,2.5768344,2.7742684775015274,0.0,0.03808975532023445,0.0,300,0.01768326759338379,0.07298352579945928,0.05534341984579048,5100,2.879382001675902,0.0
17,1.3483026027679443,2.825186319352399,0.013801218661172692,2.840372111966651,2.80651606553062,0.0,0.16431424064273129,0.1,0.0028502941131591797,0.05883502960205078,0.05109422,1.5219874,2.7793602616866147,0.0,0.03760020910705426,0.0,300,0.01703190803527832,0.05830001293764601,0.059280355841227185,5400,2.865173852527261,0.0
18,1.3177714347839355,2.8406067299845112,0.009466974801151131,2.8499235360991237,2.8247932368988695,0.0,0.16402270495453156,0.1,0.0028405189514160156,0.06153130531311035,0.050802592,2.089024,2.785484908516404,0.0,0.03778830590945655,0.0,300,0.017536163330078125,0.05410995725302935,0.046683854872161534,5700,2.847229136971213,0.0
19,1.3508729934692383,2.755031922210776,0.1709495011587112,2.901601052728979,2.4637724141474453,0.0,0.17270940789772143,0.1,0.0028455257415771484,0.057456016540527344,0.04917516,1.5426009,2.7824396098858415,0.0,0.03682562319855819,0.0,300,0.016716480255126953,0.06996831733334893,0.0639684528908168,6000,2.857520064678436,0.0
20,1.3659536838531494,2.4654690401848263,0.37027320641489136,2.8273155663196605,1.9837276003517186,0.0,0.18175631843809847,0.1,0.0030434131622314453,0.06145787239074707,0.05006072,1.7636572,2.75074255291574,0.0,0.03298566695911613,0.0,300,0.017122983932495117,0.10924648626685912,0.09208223902290585,6300,2.8343325653969242,0.0
21,1.3726394176483154,2.7032102885359146,0.30682455764731104,2.94327224563114,2.179441082880814,0.0,0.1661150521682369,0.1,0.002878427505493164,0.0612635612487793,0.049562864,1.2144868,2.7459893264777575,0.0,0.036017539773743806,0.0,300,0.01777052879333496,0.1055575563294797,0.09273672244223052,6600,2.828767568738788,0.0
22,1.3755817413330078,2.734162891580654,0.30216278697912935,3.059144135445806,2.2391653006447187,0.0,0.16828588352925425,0.1,0.002971172332763672,0.05714893341064453,0.049169075,2.4714441,2.7448066829880475,0.0,0.03640874909449979,0.0,300,0.01783132553100586,0.08611870658018499,0.07793705335734381,6900,2.8159071388073005,0.0
23,1.4024455547332764,2.78333942739136,0.06739683329681054,2.8356651093700544,2.6681858355216495,0.0,0.17695665226773638,0.1,0.0028934478759765625,0.055739641189575195,0.051345825,1.154988,2.7486599574283788,0.0,0.03719411651737076,0.0,300,0.017697811126708984,0.049466290604698954,0.049797310688374376,7200,2.8076171471996,0.0
24,1.3764584064483643,2.8066612829235305,0.45696411048574553,3.399224948421064,2.1157283646885197,0.0,0.18432340420822624,0.1,0.0029516220092773438,0.05593538284301758,0.050082847,0.9039091,2.7544600899778944,0.0,0.03742532403313907,0.0,300,0.017187118530273438,0.10733242649348312,0.10329633512028519,7500,2.8079739181063696,0.0
25,1.4472248554229736,2.8370767263594296,0.025355266821609886,2.8695056527755276,2.8113075166170884,0.0,0.1834767576442295,0.1,0.002881288528442383,0.06289505958557129,0.04930212,2.1312556,2.762721753616048,0.0,0.037779346808599915,0.0,300,0.020233631134033203,0.04423009962559738,0.04122006653159624,7800,2.8217413731873706,0.0
26,1.4635663032531738,2.802405560422021,0.014974892359477297,2.8167883144415558,2.77726151893088,0.0,0.1777329987486505,0.1,0.0029981136322021484,0.056029319763183594,0.049332302,1.4455203,2.7666901342966455,0.0,0.03744401862419718,0.0,300,0.01743912696838379,0.04248007172405576,0.03987015814355629,8100,2.8105415852665767,0.0
27,1.3758773803710938,2.8268112355890556,0.01687548281556107,2.8524401902029237,2.8098688220015795,0.0,0.18794028920804698,0.1,0.003052949905395508,0.05758213996887207,0.05111624,1.0457604,2.7727022444258864,0.0,0.037634534520184074,0.0,300,0.01901388168334961,0.039858069497184595,0.03603232151422819,8400,2.812519132876966,0.0
28,1.3714306354522705,2.772497250974901,0.06927906983382282,2.8654285494189855,2.6832197158590234,0.0,0.19305805207063442,0.1,0.0030410289764404297,0.05660557746887207,0.048080474,1.2871684,2.7726817450807877,0.0,0.03700897447775041,0.0,300,0.019526243209838867,0.04351368416647724,0.04121084826085752,8700,2.8252168605813996,0.0
29,1.38511061668396,2.7991070266790192,0.046270485268420265,2.8662427555849135,2.7355850693945105,0.0,0.177022176337008,0.1,0.0028536319732666016,0.05817890167236328,0.049953923,1.1197127,2.775324273240611,0.0,0.037488220841581786,0.0,300,0.01729750633239746,0.03988082050571253,0.03672996692308121,9000,2.809744355172143,0.0
30,1.3739757537841797,2.833310270810168,0.023082989312060966,2.8642676194807057,2.808389860791452,0.0,0.18116163205569757,0.1,0.0028488636016845703,0.05777621269226074,0.050476126,1.4326521,2.781122872997567,0.0,0.03787660109106744,0.0,300,0.01761007308959961,0.036551265888438,0.034631938771254096,9300,2.8125952219863883,0.0
31,1.3850061893463135,2.816530343178469,0.0066624716298692025,2.827254199953831,2.810472691720794,0.0,0.18547167919645255,0.1,0.002878904342651367,0.058476924896240234,0.050202172,0.6432728,2.784663620015657,0.0,0.037505041433997424,0.0,300,0.0176393985748291,0.0338070091785625,0.0298744678815874,9600,2.808786079077415,0.0
32,1.401778221130371,2.492562191245029,0.4629365877224136,2.825316068477659,1.702499675261023,0.0,0.19953770251218214,0.1,0.0029311180114746094,0.056845664978027344,0.049922753,0.5011091,2.7554534771385946,0.0,0.0334882760466616,0.0,300,0.017254352569580078,0.1503809089339261,0.10712710049962049,9900,2.8083043894676494,0.0
33,1.4019956588745117,2.8476888632225585,0.026326000000743584,2.892892756825813,2.8270410235072316,0.0,0.18261408605619772,0.1,0.002962827682495117,0.05733990669250488,0.050193716,0.5255629,2.764677015746991,0.0,0.037921357463473734,0.0,300,0.02207326889038086,0.07946871289308775,0.029876662345599162,10200,2.803661838660464,0.0
34,1.3778843879699707,2.81763001380729,0.022004726390704978,2.8555363295715277,2.8012648888336074,0.0,0.19402599224148998,0.1,0.002987384796142578,0.05728030204772949,0.050074697,0.7019493,2.769972315553021,0.0,0.03752043738547993,0.0,300,0.01743006706237793,0.03304064744507916,0.04767113856001755,10500,2.8029781257097635,0.0
35,1.376997947692871,2.847097321613136,0.047507376250474624,2.9238100606197213,2.800359941106828,0.0,0.1914090665693449,0.1,0.0028717517852783203,0.055728912353515625,0.04998592,0.74421185,2.7776848161590326,0.0,0.03788081543119964,0.0,300,0.01681804656982422,0.052474968784507754,0.04400476412088674,10800,2.7995265441139163,0.0
36,1.3863153457641602,2.6146964091646594,0.4433210413030918,2.9661367728674053,1.8539004247972062,0.0,0.18235391444476462,0.1,0.0028624534606933594,0.05655312538146973,0.05019579,1.1037899,2.7613859754595955,0.0,0.034939519173342676,0.0,300,0.01677870750427246,0.10726675027912365,0.09424647552016441,11100,2.7990305321485174,0.0
37,1.4274415969848633,2.8234328529359054,0.1604797837360887,2.9886733805859156,2.562382120833568,0.0,0.17278431867015506,0.1,0.0029573440551757812,0.05648088455200195,0.049882185,0.592228,2.7675906632072267,0.0,0.03757798899764635,0.0,300,0.017087459564208984,0.05252301444468062,0.029536286807539027,11400,2.801755824087596,0.0
38,1.3973734378814697,2.7486338961327967,0.27219039723203786,2.9996839306099323,2.28970407982439,0.0,0.19843264891640552,0.1,0.0029594898223876953,0.06082010269165039,0.04977823,0.57792604,2.765694986499784,0.0,0.03670913624358654,0.0,300,0.016843795776367188,0.06155617966532454,0.06465591333751468,11700,2.8022666522408346,0.0
39,1.422729253768921,2.790830571584267,0.11018994754019346,2.880064516185298,2.6039046892237017,0.0,0.17850297192360096,0.1,0.0028467178344726562,0.05658316612243652,0.04957454,0.69363695,2.7682085450082323,0.0,0.03722898528953765,0.0,300,0.017125368118286133,0.03593717395122783,0.03283622052746163,12000,2.7997532597900077,0.0
40,1.4352750778198242,2.8496826356577305,0.05226503105988627,2.9353230852282257,2.796923655230164,0.0,0.1936144686724937,0.1,0.0029706954956054688,0.05892014503479004,0.050984457,0.48633757,2.776355954073182,0.0,0.037920218316661064,0.0,300,0.017377614974975586,0.037491867169692224,0.03204891355103184,12300,2.810016461852985,0.0
41,1.4375133514404297,2.8319123576112313,0.0075191626217645385,2.8441306955696186,2.823591085279446,0.0,0.19292645808963813,0.1,0.0027496814727783203,0.056623220443725586,0.0501777,0.5903664,2.7819115944269868,0.0,0.037710130090459454,0.0,300,0.018937110900878906,0.03058870668050617,0.028512030958710025,12600,2.8025889719259935,0.0
42,1.545445203781128,2.8176373195324023,0.005162393861881526,2.822993687109741,2.8095943569808206,0.0,0.2045750400003529,0.1,0.0028574466705322266,0.057915687561035156,0.050147608,0.57600504,2.785484166937528,0.0,0.03752015242797405,0.0,300,0.017019033432006836,0.038958111457884956,0.030922471374852493,12900,2.8010985504599186,0.0
43,1.3543510437011719,2.6057353328003408,0.38309900343785647,2.848840648576323,1.9426137574698574,0.0,0.19198927496121113,0.1,0.003092527389526367,0.06047534942626953,0.049522724,0.52480066,2.7675092835238093,0.0,0.03479034333944289,0.0,300,0.017268657684326172,0.09517045886003936,0.08278522426309691,13200,2.804302041454466,0.0
44,1.3716588020324707,2.827190321578903,0.2517733548500661,3.046623311422605,2.400362077907181,0.0,0.19107587131005296,0.1,0.0028815269470214844,0.05616426467895508,0.049507275,0.47519252,2.7734773873293186,0.0,0.037709129218171815,0.0,300,0.016487836837768555,0.07688103230161092,0.05088417554483506,13500,2.802359085374445,0.0
45,1.4011626243591309,2.92079309656259,0.12233630583556411,3.1322076885151633,2.8371756330989104,0.0,0.18252954138161245,0.1,0.002894878387451172,0.05673861503601074,0.04942626,0.77357084,2.7882089582526457,0.0,0.03886978848437738,0.0,300,0.020667552947998047,0.05365175183443234,0.04747194413269883,13800,2.800559586238581,0.0
46,1.4355461597442627,2.845423986156358,0.035351120364146366,2.9024542951169576,2.8067841032230834,0.0,0.2000781421624062,0.1,0.0029327869415283203,0.056884765625,0.04941029,0.7192697,2.7939304610430167,0.0,0.037902854166199776,0.0,300,0.017894268035888672,0.05596212390265997,0.028016565310390297,14100,2.8015289249978044,0.0
47,1.3925697803497314,2.6104430210161897,0.5009913572600273,2.9526672708555175,1.7462668996689332,0.0,0.185038252358272,0.1,0.002830028533935547,0.05896711349487305,0.05004997,0.57469445,2.775581717040334,0.0,0.034939161196721094,0.0,300,0.01674342155456543,0.1223088975434319,0.10227467275006961,14400,2.7999436974652627,0.0
48,1.372037410736084,2.7456992896388206,0.12403444969860881,2.8428299464243088,2.534798430709741,0.0,0.18957311068182867,0.1,0.0027840137481689453,0.05831623077392578,0.050427556,0.47772348,2.7725934743001828,0.0,0.036729310542114306,0.0,300,0.01683187484741211,0.06001882968129223,0.032489742911376594,14700,2.799208402489469,0.0
49,1.4277429580688477,2.873124421381184,0.39854115452537964,3.3895132320180963,2.280255504898153,0.0,0.1741647915862508,0.1,0.0028717517852783203,0.06308770179748535,0.04991788,0.83749825,2.7826465690082833,0.0,0.03843219258190466,0.0,300,0.01769709587097168,0.1069421595262203,0.09156628127518837,15000,2.7992379653201405,0.0
50,1.426161527633667,2.9000863787511793,0.07868052389186567,3.0158954952536448,2.8267901137461378,0.0,0.1780110706606529,0.1,0.0028488636016845703,0.057686805725097656,0.05091835,0.52340555,2.7943905499825727,0.0,0.03864088384916226,0.0,300,0.017757892608642578,0.050224921982369726,0.028141445643798804,15300,2.79938777019573,0.0
51,1.473433017730713,2.7770477042617028,0.19974033597572477,2.9574999851280097,2.4392435655040625,0.0,0.18355561436431195,0.1,0.0028676986694335938,0.05624651908874512,0.049765363,0.4776114,2.792656265410486,0.0,0.03701856868064006,0.0,300,0.017104387283325195,0.03444360170821122,0.04117882489404999,15600,2.799099690325349,0.0
52,1.5148406028747559,2.8603139287433517,0.026715003023797198,2.9034682437696584,2.832862511199814,0.0,0.19034866285378257,0.1,0.0030319690704345703,0.057123661041259766,0.049710624,0.4747061,2.799422031743773,0.0,0.038057934879268104,0.0,300,0.0179290771484375,0.04139869345796515,0.021085106624275506,15900,2.800588866091051,0.0
53,1.5084760189056396,3.001890575262497,0.14133286684230764,3.1540724720545605,2.857100062067532,0.0,0.1963528460086613,0.1,0.0028371810913085938,0.05726313591003418,0.05027061,0.46449172,2.8196688860956454,0.0,0.03980405268303119,0.0,300,0.018413543701171875,0.029439211682703213,0.03202192292246079,16200,2.7996663573419593,0.0
54,1.4262561798095703,2.835218595919121,0.00990368228017391,2.84748032747733,2.822005362767045,0.0,0.20010386923599593,0.1,0.0028731822967529297,0.055986881256103516,0.050283145,0.60394233,2.8212238570779933,0.0,0.03774002218461587,0.0,300,0.01682448387145996,0.04580769976605107,0.024421924474554338,16500,2.7984772742256685,0.0
55,1.5024521350860596,2.8314044947703634,0.03252096852298008,2.8869902065280155,2.8051382536315375,0.0,0.20020788133951445,0.1,0.002773761749267578,0.056847572326660156,0.050413445,0.47894815,2.8222419208472305,0.0,0.03770467968147358,0.0,300,0.017527103424072266,0.03162493372830211,0.03321418479102292,16800,2.7977392789353814,0.0
56,1.508568525314331,2.7157987752652892,0.21224759888931952,2.875513636990823,2.3518151156117137,0.0,0.19438928252374107,0.1,0.00286102294921875,0.057250261306762695,0.04970418,0.5647342,2.811597606289036,0.0,0.036404252682509165,0.0,300,0.017279624938964844,0.03465366553521047,0.033822157301361185,17100,2.7981008720234493,0.0
57,1.5073435306549072,2.8180752053108504,0.01577300868991492,2.8438891001559825,2.8012556534008723,0.0,0.18538728242081604,0.1,0.0028874874114990234,0.05986428260803223,0.049282737,0.5475483,2.8122453661912177,0.0,0.037520729685208774,0.0,300,0.016976594924926758,0.023842390740767255,0.02270198295218134,17400,2.7977100655545546,0.0
58,2.1746835708618164,2.7749812378997407,0.08042508692373518,2.829409300485953,2.636681225757289,0.0,0.1701857089036349,0.1,0.002966642379760742,0.059572458267211914,0.04948126,1.1665845,2.8085189533620705,0.0,0.037019954556366974,0.0,300,0.01683831214904785,0.0292712472011183,0.022979838952839077,17700,2.7976310455171647,0.0
59,1.3841421604156494,2.8140895272710766,0.007533793717532672,2.8248527143820774,2.8035931056967835,0.0,0.18963899474950247,0.1,0.0029392242431640625,0.05670428276062012,0.0503916,0.4559776,2.809076010752971,0.0,0.037460886669036055,0.0,300,0.018247127532958984,0.01849711901285075,0.017001164383949177,18000,2.7976167257089415,0.0
60,1.3719971179962158,2.806525088265787,0.016470890965341045,2.822507232152861,2.7802133793931643,0.0,0.18627529487387345,0.1,0.0028519630432128906,0.05647134780883789,0.049474012,0.45797908,2.8088209185042525,0.0,0.03744808229262527,0.0,300,0.0169675350189209,0.020254720305112564,0.01646029186197678,18300,2.798193075062159,0.0
61,1.4210200309753418,2.8165264999339574,0.008814006307694045,2.828157166375686,2.807015244047506,0.0,0.2039621514792228,0.1,0.0030722618103027344,0.0594329833984375,0.05028444,0.45291188,2.809591476647223,0.0,0.03749714035116637,0.0,300,0.017332077026367188,0.0241465761425913,0.020509773290663325,18600,2.7979614789812133,0.0
62,1.412268877029419,2.817676947337378,0.007726600871177132,2.8250254737830844,2.8046976721929324,0.0,0.19734760463902037,0.1,0.004221439361572266,0.05585360527038574,0.05060982,0.44891766,2.8104000237162388,0.0,0.03749328980243823,0.0,300,0.01738262176513672,0.015565838043792116,0.015424271077795584,18900,2.797705975058062,0.0
63,1.408966064453125,2.8178359056845887,0.03369508219121857,2.870890901837837,2.7779786874078787,0.0,0.19413610424470565,0.1,0.0029866695404052734,0.058135271072387695,0.050718404,0.6117005,2.811143611913074,0.0,0.037547216381074854,0.0,300,0.01733875274658203,0.02330095951096406,0.021778586791910675,19200,2.797351967161482,0.0
64,1.4209649562835693,2.545780417905103,0.47322544794193555,2.8488446975333197,1.7267915819279012,0.0,0.1889048522103647,0.1,0.0028514862060546875,0.05762028694152832,0.05037163,0.48098144,2.784607292512277,0.0,0.034049957104789405,0.0,300,0.016809463500976562,0.11284956113588414,0.0922855731649582,19500,2.797016541814503,0.0
65,1.398589849472046,2.834954596292731,0.029198385616895233,2.864889011604577,2.805202341682816,0.0,0.1913614082455582,0.1,0.002858400344848633,0.0575098991394043,0.05034243,0.4848814,2.7896420228903223,0.0,0.0377134924478423,0.0,300,0.017186641693115234,0.025576540171453176,0.014843302588199813,19800,2.7964398116599263,0.0
66,1.440931797027588,2.862448842779304,0.05963214324416945,2.9232584241359865,2.799741077583088,0.0,0.18953883068862823,0.1,0.0035758018493652344,0.05751514434814453,0.049604844,0.42990646,2.7969227048792207,0.0,0.03810806885520029,0.0,300,0.016931533813476562,0.024482331649196755,0.02395459685074521,20100,2.7964497869912788,0.0
67,1.4694690704345703,2.8523683261781736,0.051731218288655886,2.93845794866992,2.8089279854934492,0.0,0.20215451063193934,0.1,0.002947568893432617,0.060376882553100586,0.049784195,0.48958313,2.8024672670091157,0.0,0.03791162420147287,0.0,300,0.017932653427124023,0.02583337900709666,0.021434868644230328,20400,2.7968060993937685,0.0
68,1.4408550262451172,2.819729491385981,0.006627391463691142,2.8306764916158187,2.8129330102337615,0.0,0.18366984677438364,0.1,0.0027685165405273438,0.05598950386047363,0.049523532,0.535382,2.8041934894468024,0.0,0.037542445905055136,0.0,300,0.017112255096435547,0.018053280657932685,0.01733811971450275,20700,2.79721605164266,0.0
69,1.4462497234344482,2.8085753459486473,0.11433339044223303,2.963015581321324,2.642102107622066,0.0,0.1866681979671571,0.1,0.002826213836669922,0.05757427215576172,0.049908604,0.5284436,2.804631675096987,0.0,0.03755214925131499,0.0,300,0.017201900482177734,0.015009099549597399,0.01424003032332571,21000,2.797140359042174,0.0
70,1.4639613628387451,2.850011109234981,0.07568019497794377,2.9806576778469207,2.797701849280018,0.0,0.21127541970130853,0.1,0.0035479068756103516,0.05855917930603027,0.049642973,0.46607107,2.8091696185107864,0.0,0.03794233949792977,0.0,300,0.016912221908569336,0.021638443002455373,0.021205415929371616,21300,2.7971425999282338,0.0
71,1.3856792449951172,2.820980014560216,0.011391640303240661,2.8307984250712903,2.8020179063029738,0.0,0.19788124952413352,0.1,0.0029649734497070312,0.05836200714111328,0.050732125,0.46234763,2.810350658115729,0.0,0.03758091201981459,0.0,300,0.016728878021240234,0.01837957544882473,0.017559962665845853,21600,2.7974161378676867,0.0
72,1.4477035999298096,2.47158455551968,0.40570036424042527,2.9244053374544983,2.0190913512121735,0.0,0.18683064496353619,0.1,0.002993345260620117,0.05631089210510254,0.05087366,0.54774255,2.7764740478561243,0.0,0.03319757943088435,0.0,300,0.017318248748779297,0.24260466074021417,0.125220710429763,21900,2.798141200517789,0.0
73,1.4728267192840576,2.407684177356133,0.41325788650247536,2.8423092723110757,1.9584740032067456,0.0,0.18205903132868062,0.1,0.0028791427612304688,0.05912017822265625,0.050148122,0.5468774,2.739595060806125,0.0,0.03235944727418179,0.0,300,0.01678609848022461,0.08256109021492679,0.1033734482462726,22200,2.7978671610456742,0.0
74,1.4565696716308594,2.8374148493138556,0.03948333726865611,2.8937732170526496,2.79643045564506,0.0,0.19570859716219388,0.1,0.00293731689453125,0.05752849578857422,0.050376263,0.5229688,2.749377039656898,0.0,0.0377780394795833,0.0,300,0.016789674758911133,0.14281930846756696,0.018376079865959308,22500,2.797246690821835,0.0
75,1.4939706325531006,2.849702601399449,0.031129823972365685,2.8831798505520245,2.81123287368158,0.0,0.19647321669097303,0.1,0.0029294490814208984,0.05740547180175781,0.050220817,0.52788216,2.7594095958311535,0.0,0.037908514926656534,0.0,300,0.016861438751220703,0.022762570656585455,0.04628397949271016,22800,2.7970474925381903,0.0
76,1.4294285774230957,2.8288982198452373,0.012652159480005726,2.845244725905827,2.8162740658397443,0.0,0.18963510057714716,0.1,0.003110170364379883,0.05956864356994629,0.049908735,0.5412211,2.7663584582325615,0.0,0.03766116692202146,0.0,300,0.01772141456604004,0.052102584409270285,0.02427687310353362,23100,2.7972260963396,0.0
77,1.4673128128051758,2.8734985691211996,0.07554208885986038,2.9965702146523436,2.8014088041922793,0.0,0.20107850284382967,0.1,0.0030012130737304688,0.05855989456176758,0.050126906,0.5177214,2.7770724693214253,0.0,0.03825031816419267,0.0,300,0.019768714904785156,0.031109424732567947,0.027158824251395836,23400,2.7979113118379684,0.0
78,1.4217884540557861,2.8741545891255758,0.05547924839862814,2.965617993748868,2.8213235093784204,0.0,0.1975448441117237,0.1,0.0032155513763427734,0.05820465087890625,0.049169756,0.50734204,2.78678068130184,0.0,0.03824961004135578,0.0,300,0.01807546615600586,0.03150042532125868,0.02577096591485861,23700,2.797366490752711,0.0
79,1.4519438743591309,2.830484738016302,0.022565138026825426,2.8687801481564215,2.8114461528828194,0.0,0.1902120427418216,0.1,0.002930879592895508,0.055992841720581055,0.050471157,0.49147573,2.7911510869732865,0.0,0.03769050129865223,0.0,300,0.017468929290771484,0.03367072042301893,0.019198684572849716,24000,2.797616950979148,0.0
80,1.5100841522216797,2.8231348939461793,0.02211408032920784,2.8601993460000648,2.801676162662501,0.0,0.1909134792053921,0.1,0.0030655860900878906,0.05790305137634277,0.049998242,0.55394137,2.794349467670576,0.0,0.03759449029564455,0.0,300,0.017559051513671875,0.026305808045575335,0.028750409788552072,24300,2.7971649478152716,0.0
81,1.5010199546813965,2.5487552346337847,0.5700126001776495,2.9086829340055784,1.562028748720265,0.0,0.180721686811584,0.1,0.002972126007080078,0.05790352821350098,0.049597684,1.7673723,2.7697900443668972,0.0,0.0340759981712766,0.0,300,0.017154693603515625,0.14440367428210868,0.13687690803847577,24600,2.7975409358251433,0.0
82,1.5136997699737549,2.6926711296776635,0.23579722854831744,2.8595209445868273,2.2856311892296386,0.0,0.19241170167942315,0.1,0.002988576889038086,0.057756662368774414,0.050315488,0.5045388,2.762078152897974,0.0,0.036114362915749765,0.0,300,0.017694711685180664,0.04189570930964651,0.041944369388340265,24900,2.7973000823279386,0.0
83,1.4819955825805664,2.6678966261664723,0.2474867403984068,2.8300078450004427,2.2404191828974485,0.0,0.20639455137543758,0.1,0.002838611602783203,0.05956554412841797,0.050715927,0.46623078,2.752660000224824,0.0,0.035657229751637605,0.0,300,0.016705751419067383,0.0863471408693351,0.08295131312914904,25200,2.7971680772305567,0.0
84,1.48673415184021,2.7962434217496703,0.1129546099132389,2.9421911317656813,2.6247846515580493,0.0,0.19636937189916326,0.1,0.0030677318572998047,0.060709476470947266,0.050072104,0.5269621,2.7570183423773087,0.0,0.037246956554835384,0.0,300,0.016584157943725586,0.028391979211545935,0.027219654870555915,25500,2.8004872824355687,0.0
85,1.4577765464782715,2.7701699699181828,0.20355360558616925,2.927832355297287,2.427372848173269,0.0,0.19849051592482528,0.1,0.002794027328491211,0.059953927993774414,0.049942814,0.507677,2.758333505131396,0.0,0.03701349059706562,0.0,300,0.019211530685424805,0.03429951001472869,0.03053616575416545,25800,2.798664566698651,0.0
86,1.5030567646026611,2.832497559084436,0.009081831941441855,2.843040753236972,2.8232525167869444,0.0,0.19319595851096696,0.1,0.0028514862060546875,0.05747675895690918,0.050127864,0.4629637,2.7657499105267003,0.0,0.03771608515090224,0.0,300,0.01726245880126953,0.018473443378285406,0.017877078423490934,26100,2.798635591821459,0.0
87,1.4885473251342773,2.5460029280056213,0.5147684421290588,2.904606358151187,1.6569074603967497,0.0,0.18310366820210863,0.1,0.0029859542846679688,0.06061387062072754,0.049601752,0.6623119,2.7437752122745924,0.0,0.03403735217561754,0.0,300,0.01710200309753418,0.12218587700867667,0.10533232328493468,26400,2.7986641988218612,0.0
88,1.5216505527496338,2.7698637625764784,0.15360040142834006,2.8699004327864954,2.5047153127118165,0.0,0.18540620542704894,0.1,0.002905607223510742,0.059905290603637695,0.04962132,0.50543404,2.746384067304781,0.0,0.036998185910875475,0.0,300,0.017892122268676758,0.0333352529853599,0.019667194003890127,26700,2.799208661238414,0.0
89,1.5208592414855957,2.6828373234314515,0.15743829845909674,2.833538738971788,2.45845913902818,0.0,0.1796020587509604,0.1,0.002882719039916992,0.0593569278717041,0.04966762,0.5711767,2.7400293929174477,0.0,0.03588707320451177,0.0,300,0.017248868942260742,0.03494051030002256,0.04083004718145708,27000,2.816684173642766,0.0
90,1.5532927513122559,2.552748562565159,0.45589125876625947,2.828047175723102,1.7632336124097694,0.0,0.18299217566655926,0.1,0.0028259754180908203,0.05714297294616699,0.049181703,0.56624585,2.721301309882219,0.0,0.0341466811673751,0.0,300,0.017241954803466797,0.14822899780947577,0.12484548549665832,27300,2.8210687508406487,0.0
91,1.5760107040405273,2.8121278663517466,0.012326529443709067,2.8268393661428544,2.792674485296794,0.0,0.18436882539417362,0.1,0.0029802322387695312,0.06462264060974121,0.049763512,0.6084365,2.730383965529172,0.0,0.03745222754133023,0.0,300,0.016408920288085938,0.028612286884652033,0.020364837160447347,27600,2.828566380673085,0.0
92,1.5301544666290283,2.6931712654695543,0.29452434519204995,2.939267732680997,2.1898594391248567,0.0,0.19178368922450953,0.1,0.0027816295623779297,0.056998252868652344,0.049526002,0.5403019,2.7266626955232103,0.0,0.03594974379521417,0.0,300,0.018594980239868164,0.043513302783955106,0.04503013279560767,27900,2.8112133793970884,0.0
93,1.4988529682159424,2.90362331160201,0.05518030810539579,2.984710373966487,2.8293554105865346,0.0,0.19340834095607976,0.1,0.003102540969848633,0.058817148208618164,0.049741153,0.51035994,2.7443587571310903,0.0,0.038599042646684144,0.0,300,0.017354965209960938,0.01589649661470975,0.013338294410633143,28200,2.816946243285383,0.0
94,1.4717838764190674,2.836137728990264,0.020812488340112494,2.871313843765764,2.8181205395232793,0.0,0.1830845342426738,0.1,0.002953767776489258,0.05840921401977539,0.049937025,0.47997692,2.7535366543170077,0.0,0.037763552939252286,0.0,300,0.019545555114746094,0.024909314610788387,0.02053039591500029,28500,2.8235384316339833,0.0
95,1.489424228668213,2.5668784809431338,0.5527380448437642,2.9322235196169597,1.6117307400582526,0.0,0.18803852549390968,0.1,0.003095865249633789,0.0606989860534668,0.04986192,0.47335184,2.73487083697962,0.0,0.0343214812524263,0.0,300,0.017791032791137695,0.13776279765252758,0.12543286596129674,28800,2.808817000404478,0.0
96,1.4900109767913818,2.91444072815489,0.08354861314373634,3.0309456844521376,2.816585136181012,0.0,0.1797719660730782,0.1,0.003333568572998047,0.058228254318237305,0.04900935,0.5173596,2.752827826097147,0.0,0.0389465906291529,0.0,300,0.017446517944335938,0.056703493183931246,0.021613567173095784,29100,2.807616095891205,0.0
97,1.4979593753814697,2.73228696768668,0.1819084164745994,2.84502328230314,2.4174824181412293,0.0,0.1878073329152582,0.1,0.002986431121826172,0.05814695358276367,0.049028914,0.69118196,2.7507737402561006,0.0,0.036518811177128865,0.0,300,0.01717400550842285,0.0349529768114531,0.036577136334108286,29400,2.803938011055139,0.0
98,1.4712095260620117,2.5510118094459044,0.4918999352255243,3.0680716504413366,1.7695498309017632,0.0,0.18407864758969128,0.1,0.0029718875885009766,0.057877540588378906,0.05053853,0.51133436,2.730797547175081,0.0,0.034156398659095005,0.0,300,0.017722129821777344,0.13261996758255348,0.08980353947489163,29700,2.803185222391028,0.0
99,1.480259656906128,2.8527205254137615,0.02737923082135398,2.884398260541955,2.810648156371437,0.0,0.1970186585294035,0.1,0.0029964447021484375,0.058287858963012695,0.04951194,0.53525114,2.742989844998949,0.0,0.0379863600944188,0.0,300,0.017362594604492188,0.06792610527445139,0.026454842587105353,30000,2.803095255286149,0.0
100,1.5262665748596191,2.8173322884119254,0.0696326294451541,2.8969866458154208,2.7060879762256573,0.0,0.18855555066386126,0.1,0.002911806106567383,0.057694196701049805,0.04994199,0.5805711,2.750424089340247,0.0,0.03759416257080681,0.0,300,0.01697564125061035,0.02535110859725114,0.0358307122424075,30300,2.800167664772936,0.0
101,1.5770254135131836,2.800607933687655,0.06342649618349253,2.8765439225896796,2.7004929650277862,0.0,0.18404170341449455,0.1,0.003231048583984375,0.059825897216796875,0.04931678,0.5118877,2.755442473774988,0.0,0.037423361284805765,0.0,300,0.01743149757385254,0.05725769213008719,0.025707848026428906,30600,2.7982622189499797,0.0
102,1.5956470966339111,2.8543178117645915,0.03676636685681136,2.9068057441254425,2.8127193270830033,0.0,0.17257891886797058,0.1,0.0029180049896240234,0.05775856971740723,0.05087733,0.5019876,2.765330007573948,0.0,0.03800990622177994,0.0,300,0.01729273796081543,0.02717936118761951,0.027172901203212058,30900,2.799158645115345,0.0
103,1.608142614364624,2.9036689171731807,0.14330014149458098,3.140643584366784,2.7554127099829384,0.0,0.1869315577427525,0.1,0.0029785633087158203,0.05926775932312012,0.049487866,0.499729,2.7791638985338714,0.0,0.03868504227435323,0.0,300,0.017477989196777344,0.030181157469496792,0.020317342668740006,31200,2.800071430701397,0.0
104,1.6086738109588623,2.812747280378839,0.01130592190736852,2.8272380478848276,2.799286378147869,0.0,0.17951542007296462,0.1,0.006543397903442383,0.057848215103149414,0.05086531,0.6487262,2.782522236718368,0.0,0.03745504484921271,0.0,300,0.017674684524536133,0.033566806590974364,0.016804522852231482,31500,2.8006224622164875,0.0
