iteration,time_sampling,stoc_pol_mean,stoc_pol_std,stoc_pol_max,stoc_pol_min,rollout_success,alpha,delta,time_vpg,time_npg,kl_dist,surr_improvement,running_score,rwd_sparse,rwd_dense,success_percentage,num_samples,time_VF,VF_error_before,VF_error_after,env_samples,eval_score,eval_success
0,1.396024227142334,3.453896751337706,2.6098622562027365,7.974295695531394,1.9380926129334677,0.0,0.18854922970870397,0.1,0.29271459579467773,0.07021236419677734,0.051314473,2.180398,3.453896751337706,0.0,0.043672429514629824,0.0,300,0.8016932010650635,0.9687767245987601,0.9140712021968884,300,1.9377332771815399,0.0
1,1.5161323547363281,5.711857617930956,6.522493072649482,17.009146849240295,1.9449479967316587,0.0,0.2173781797775442,0.1,0.32228922843933105,0.7427103519439697,0.04813032,0.8480456,3.679692837997031,0.0,0.07712566841024317,0.0,300,0.6886892318725586,0.9643113539309505,0.934304138713343,600,1.9421955910297983,0.0
2,1.3907413482666016,1.9432219649239857,0.01446598405616158,1.9593087329108834,1.9198706121981557,0.0,0.16709263730496424,0.1,0.46738362312316895,1.397632122039795,0.05126879,1.6390196,3.5060457506897267,0.0,0.026874153385387622,0.0,300,0.552039384841919,0.8580776881589015,1.1131990995174637,900,1.9409686858149298,0.0
3,1.4835319519042969,9.971104138050007,8.779351727514156,22.99788075590713,1.914963240022266,0.0,0.18521631160384375,0.1,0.0025060176849365234,0.41205310821533203,0.04961741,0.8700587,4.152551589425755,0.0,0.13058434474577257,0.0,300,0.5460402965545654,0.9175048237342405,0.8729019753423973,1200,1.9449454957798116,0.0
4,1.4944078922271729,5.539007022992349,3.84264452802514,11.089046331427504,1.9429937454115724,0.0,0.17928689354078775,0.1,0.002725839614868164,0.04903721809387207,0.049290705,0.9103534,4.291197132782415,0.0,0.0714314526253717,0.0,300,0.2327098846435547,0.7739765594853337,0.6998180416805672,1500,1.944591279576567,0.0
5,1.4679250717163086,11.722815828712124,6.682768082345599,20.02641010627576,1.930862786562875,0.0,0.17501217546334308,0.1,0.005334138870239258,0.6216695308685303,0.048823997,0.8201998,5.0343590023753855,0.0,0.15727270348443761,0.0,300,1.239931583404541,0.7780893479761262,0.6794296642746138,1800,1.9470522569316355,0.0
6,1.562157392501831,10.7152155702537,6.531939349647438,17.939974294926103,1.9252481952739722,0.0,0.1752621645647023,0.1,0.003016948699951172,0.054551124572753906,0.050541393,0.90089375,5.6024446591632175,0.0,0.14049376434707506,0.0,300,0.4076569080352783,0.6922350479482906,0.5822383852495737,2100,1.9480617757187995,0.0
7,1.4477887153625488,7.932402294449609,6.629188421125041,17.9220450923932,1.9244686275874918,0.0,0.1847995328343026,0.1,0.0029723644256591797,0.05390191078186035,0.050431374,0.94474316,5.835440422691857,0.0,0.10339602973476006,0.0,300,0.3016784191131592,0.6176909124652161,0.6325423950659508,2400,1.952170484312578,0.0
8,1.5647673606872559,4.508994691754468,4.447943875586324,12.212985110130086,1.9202003232226053,0.0,0.16916932509199842,0.1,0.5399045944213867,2.8770222663879395,0.049876895,1.3889781,5.702795849598118,0.0,0.06105941669608152,0.0,300,0.6905868053436279,1.5271661340216747,1.2400874107367656,2700,1.9582155948043518,0.0
9,1.4981701374053955,3.4765281470149088,2.6156769483805515,8.006951499372132,1.9522327633819203,0.0,0.17907426168312937,0.1,0.002907276153564453,0.049753427505493164,0.052712582,0.9773273,5.480169079339798,0.0,0.04397414905049829,0.0,300,1.4252724647521973,1.7502461390600021,1.0281451170747755,3000,1.9814481730871842,0.0
10,1.4707014560699463,8.985889882028413,11.067375365187669,28.099937633130242,1.9164945042330817,0.0,0.16189910490759374,0.1,0.003038644790649414,0.1934828758239746,0.04927678,1.50082,5.830741159608659,0.0,0.11744419516113716,0.0,300,0.5301828384399414,0.746333877831469,0.7615854661092464,3300,1.9760075280348903,0.0
11,1.4657697677612305,10.519554474805554,4.864382105503011,16.08925090234723,2.9870704799763557,0.0,0.17786311090099985,0.1,0.0030374526977539062,0.04549527168273926,0.05081388,0.7694301,6.299622491128349,0.0,0.1378504916146494,0.0,300,1.493567943572998,0.5421077741644404,0.49307605465068777,3600,1.9769101965692348,0.0
12,1.5219039916992188,7.488621745977279,6.189566189341583,16.99254775000986,1.9598039405686825,0.0,0.19936604884580789,0.1,0.0028879642486572266,0.0536494255065918,0.047960814,0.7074416,6.418522416613242,0.0,0.09745680762761769,0.0,300,0.7754790782928467,0.623497691595731,0.5956936477994177,3900,1.9810977046053793,0.0
13,1.507171630859375,11.001828051595023,3.5005733800934853,14.946500204495667,6.948555187726402,0.0,0.1823553963298459,0.1,0.043462276458740234,0.21655631065368652,0.051715456,0.6822307,6.876852980111421,0.0,0.14764090838619004,0.0,300,0.40869832038879395,0.4066315603372035,0.328933788343167,4200,15.035728413600483,0.0
14,1.572899341583252,13.633239986281161,2.6161930414650993,17.357597069642427,10.058832716044918,0.0,0.17658525699865701,0.1,0.031409502029418945,0.05316329002380371,0.0505077,0.72728527,7.552491680728395,0.0,0.18273405398759818,0.0,300,0.5367021560668945,0.360834442024981,0.27755848014923556,4500,15.023018313782536,0.0
15,1.6122264862060547,9.982511750042397,5.628946738204918,16.984750240068877,1.9634947226139798,0.0,0.1722836289998093,0.1,0.0029337406158447266,0.05393719673156738,0.051318917,0.8025154,7.795493687659796,0.0,0.1274035458035016,0.0,300,0.6347131729125977,0.44828672623249227,0.47131161318038495,4800,15.017360327158606,0.0
16,1.5057756900787354,19.789771326218535,12.968023323818038,34.19657352932989,2.032295779539181,0.0,0.15741578092163688,0.1,0.5114033222198486,0.262387752532959,0.04905737,1.0162609,8.994921451515669,0.0,0.2614694531700161,0.0,300,0.1813359260559082,0.5516199411414425,0.4890079505654836,5100,15.031277728341474,0.0
17,1.6149375438690186,8.772375566506737,6.062925687090348,17.939035403423993,1.9695849237188072,0.0,0.16301210210006933,0.1,0.5400309562683105,0.050440073013305664,0.049852066,1.0730555,8.972666863014776,0.0,0.11458556040931515,0.0,300,1.5799660682678223,1.089975767130125,0.9749880509974258,5400,14.03557805998282,0.0
18,1.5337193012237549,15.163915423272375,7.775171581333045,26.178815644624255,4.940888933049704,0.0,0.16599791708492154,0.1,0.0030617713928222656,0.05444002151489258,0.05106819,0.87498677,9.591791719040536,0.0,0.19980707064037415,0.0,300,1.5098638534545898,0.38943465858160575,0.3810137937324477,5700,14.007384184871567,0.0
19,1.5199878215789795,16.55297427514773,11.40697505413186,33.97933943729584,1.96750460593342,0.0,0.1619469566202438,0.1,0.13026094436645508,0.05468940734863281,0.05104254,1.2933048,10.287909974651257,0.0,0.2183412633608035,0.0,300,1.3491020202636719,0.5249419609275098,0.5133961399030108,6000,11.046317624671685,0.0
20,1.614976167678833,8.487452741981373,6.820028408102471,17.995299143698276,1.9942115828280342,0.0,0.17446086285870988,0.1,0.003047466278076172,0.057470083236694336,0.050939333,1.08618,10.10786425138427,0.0,0.11412412036379213,0.0,300,0.9499003887176514,0.809119661433532,0.744739886543606,6300,40.04835188307356,0.0
21,1.5149402618408203,7.575857658656469,4.78618191630781,15.131794969516063,1.9206913244426016,0.0,0.16163478123571418,0.1,0.2697024345397949,0.04780006408691406,0.050210655,1.0615811,9.85466359211149,0.0,0.10189124665327795,0.0,300,0.6131508350372314,1.002294090692673,0.6740663527729094,6600,32.04514198564739,0.0
22,1.5527715682983398,10.953814528113929,8.996853662720612,20.59027036107135,1.933414576933666,0.0,0.1677763270761664,0.1,0.515692949295044,4.0787129402160645,0.05026573,1.1903377,9.964578685711734,0.0,0.1470050771374089,0.0,300,0.2411048412322998,0.5783585806196555,0.5589673927663021,6900,20.17764268349084,0.0
23,1.698530912399292,17.59507953684225,2.673118681807008,22.109107964794596,15.280592634523876,0.0,0.1800174299376736,0.1,0.3874073028564453,0.6300086975097656,0.05029584,0.61129236,10.727628770824786,0.0,0.23220764527796364,0.0,300,0.49191713333129883,0.39276791306923636,0.35933439409206547,7200,14.223696786505917,0.0
24,1.637632131576538,15.45891242782983,3.3414342747720736,20.14970218703397,12.12612044581406,0.0,0.17391169908504936,0.1,0.49884462356567383,1.4427733421325684,0.050024055,0.6716227,11.20075713652529,0.0,0.20708398020095983,0.0,300,0.6812832355499268,0.3112509649877421,0.22517931938625474,7500,13.074399733261757,0.0
25,1.618852138519287,10.25722971290796,10.673602627162559,28.068120254560274,1.972148199087808,0.0,0.1701284823565055,0.1,0.0026886463165283203,0.27378249168395996,0.04980615,1.3234606,11.106404394163556,0.0,0.13772821239019925,0.0,300,1.3385639190673828,0.6696316075884496,0.6862340729615155,7800,11.079867958688274,0.0
26,1.688007116317749,10.748027589091867,7.335937687309383,20.982233364798567,1.9335532389043562,0.0,0.15114615062744258,0.1,0.0025429725646972656,0.052668094635009766,0.047829457,1.2161214,11.070566713656387,0.0,0.14427446155500706,0.0,300,0.5696606636047363,0.5633169577543002,0.5337330314683704,8100,24.029096728992922,0.0
27,1.5850152969360352,15.020994925007706,12.806532207063535,35.93117693651892,1.9788669967051915,0.0,0.16845244695014422,0.1,0.025327444076538086,0.050037384033203125,0.049424782,1.0908543,11.465609534791518,0.0,0.1978915497641769,0.0,300,0.921942949295044,0.5596715426029616,0.5504277595281339,8400,2.0436941026128537,0.0
28,1.537325143814087,14.793025696630362,13.923102366527399,35.28360019363111,1.9400868321387414,0.0,0.15929336135861874,0.1,0.002691984176635742,0.05021953582763672,0.049333975,1.1241258,11.798351150975403,0.0,0.19819265572727746,0.0,300,1.4357414245605469,0.5719564530917213,0.5632340799624123,8700,2.055824401787508,0.0
29,1.6091620922088623,9.983159433201873,10.256990933255462,27.03832821988847,1.9300948792096877,0.0,0.1662319098820812,0.1,0.004590034484863281,0.20188641548156738,0.05041279,1.4750637,11.616831979198052,0.0,0.13407026351822127,0.0,300,0.4033174514770508,0.6767938110597812,0.6707162903497443,9000,2.0021254683206715,0.0
30,1.6516051292419434,11.184929044433733,10.184350639165377,26.511891482420644,1.9331037742841803,0.0,0.17456564916534253,0.1,0.0035164356231689453,0.05193018913269043,0.049426224,0.7845204,11.57364168572162,0.0,0.15004072165459462,0.0,300,0.4533090591430664,0.595632584949979,0.5656655701334168,9300,1.9969357954506952,0.0
31,1.6437852382659912,7.081298008308087,4.087290851907055,13.12063351086106,2.058513328496696,0.0,0.17435830597826218,0.1,0.0031316280364990234,0.1760268211364746,0.05041019,0.8317515,11.124407317980268,0.0,0.09203572630346438,0.0,300,1.50187087059021,0.9368523344829254,0.6278048527330121,9600,2.0234008155822147,0.0
32,1.609907865524292,12.565632578273794,12.763303283865886,34.35101303742219,1.9590537009970026,0.0,0.15780625908175394,0.1,0.08251953125,0.05357050895690918,0.04894148,1.1661034,11.26852984400962,0.0,0.1684969223043726,0.0,300,0.4701714515686035,0.6168095906142731,0.6243606481872492,9900,2.0553733741920217,0.0
33,1.6230862140655518,26.370387810298432,12.839423340538254,41.22923904378995,12.339747094748175,0.0,0.15808216086591534,0.1,0.14530706405639648,0.6322298049926758,0.05082903,0.89364034,12.778715640638502,0.0,0.34586888899051293,0.0,300,0.8045167922973633,0.6292725562152856,0.5172455587515532,10200,18.098974856676275,0.0
34,1.640716791152954,5.234858877185458,5.638777975971406,15.001309139721645,1.9347163816591615,0.0,0.16073520749813763,0.1,0.5443441867828369,1.54774808883667,0.051126562,1.3688443,12.024329964293198,0.0,0.07076452411178806,0.0,300,1.507587194442749,2.124058617800099,2.715229886025741,10500,20.120737569777617,0.0
35,1.6253023147583008,13.861489867392407,4.017377734821382,19.0810353473892,8.014449091696077,0.0,0.17671650742231057,0.1,0.003388643264770508,0.07895398139953613,0.049722172,0.65742534,12.208045954603119,0.0,0.18577526110077008,0.0,300,0.5715739727020264,0.21525635496341772,0.2079836630588658,10800,28.219623592768468,0.0
36,1.9354491233825684,17.275229069631788,18.2119425168205,47.10026084205019,2.021988963416788,0.0,0.15425448264204272,0.1,0.6117322444915771,0.4311485290527344,0.049950894,1.3962064,12.714764266105986,0.0,0.22461831024891382,0.0,300,0.6370418071746826,0.6283747310161029,0.6198718629389834,11100,42.212753471856566,0.0
37,1.8589301109313965,9.794259475769657,5.15575573224303,16.162260365308235,2.0295713103780564,0.0,0.16538915317456163,0.1,0.002627849578857422,0.14730525016784668,0.050768025,0.88853645,12.422713787072352,0.0,0.12488046128625531,0.0,300,1.523681879043579,0.5534544907366207,0.5355450413827783,11400,15.262369295822685,0.0
38,1.6898441314697266,13.796672851691689,8.330546244521871,22.017231371391293,1.9301923216732852,0.0,0.15592025980552554,0.1,0.5956249237060547,0.25054001808166504,0.050352138,1.563741,12.560109693534287,0.0,0.1849258309072579,0.0,300,0.4944498538970947,0.4139242606795313,0.40477497708902604,11700,14.582776622150481,0.0
39,1.5929458141326904,16.211922333667353,9.112197029007026,27.296221643896896,1.9412213945181807,0.0,0.16923738111194098,0.1,0.38571596145629883,0.04365944862365723,0.04941669,0.89680046,12.925290957547595,0.0,0.21375402195063217,0.0,300,0.4291036128997803,0.3910697510159581,0.3789902844558973,12000,20.465023315566494,0.0
40,1.5977964401245117,16.599772631608705,10.995281082133818,28.292180912791817,1.9429316139551447,0.0,0.16859225661374797,0.1,0.06895184516906738,0.04511404037475586,0.049430672,0.86065793,13.292739124953707,0.0,0.21895471618954698,0.0,300,1.0786478519439697,0.4479830041510817,0.42192832691652443,12300,38.31926925412615,0.0
41,1.591313123703003,10.590032923753533,5.309503632079352,15.183539113906296,2.095823490131001,0.0,0.15737591748988136,0.1,0.5197162628173828,0.11660432815551758,0.049808223,0.94996065,13.02246850483369,0.0,0.1421642459910709,0.0,300,1.3922443389892578,0.6516965253875832,0.62898672403751,12600,2.355298837145878,0.0
42,1.5728747844696045,26.79339497387119,2.7443546941018693,28.998909870846358,22.088569795623425,0.0,0.17702567467424393,0.1,0.0029311180114746094,0.055651187896728516,0.049545653,0.7055951,14.399561151737439,0.0,0.3548781078436544,0.0,300,0.2350783348083496,0.34637947563374355,0.2779119674797166,12900,2.2693090777854565,0.0
43,1.6355006694793701,17.390065268271197,4.796701838646249,22.35896693035587,10.186861580498219,0.0,0.16144045678426436,0.1,0.0025196075439453125,0.05340170860290527,0.04964923,0.93350554,14.698611563390816,0.0,0.23283919857789465,0.0,300,1.5592525005340576,0.19961461812185508,0.24172248126252535,13200,2.237832544586301,0.0
44,1.5244107246398926,18.55156952529655,8.918975834487545,30.08620531289057,8.053924095017518,0.0,0.1685915825478227,0.1,0.48493409156799316,1.5170247554779053,0.04953856,0.6983028,15.083907359581389,0.0,0.2449885050111905,0.0,300,0.47795891761779785,0.25984550288951064,0.25709548727238124,13500,2.191313007731346,0.0
45,1.547762155532837,21.146901321161387,11.465128557231552,32.043123864546615,2.072988805833023,0.0,0.15650637581594096,0.1,0.5402154922485352,0.49962735176086426,0.049220286,0.86869913,15.69020675573939,0.0,0.2828978239446187,0.0,300,0.6330044269561768,0.39879979349409694,0.3924631291593931,13800,2.150823848757326,0.0
46,1.5769073963165283,12.85662325209109,10.920064234732308,24.297485128011505,1.9326281213448337,0.0,0.16170639740461346,0.1,0.0029044151306152344,0.046896934509277344,0.049710475,1.0259706,15.40684840537456,0.0,0.17239114563593766,0.0,300,0.3437814712524414,0.7044542423295878,0.6164322158694544,14100,2.1006621960325202,0.0
47,1.5464730262756348,11.787489335806674,9.897719385934725,23.972419420477802,1.9826699787715145,0.0,0.1692183390975774,0.1,0.47161006927490234,0.07871270179748535,0.0496943,0.83840036,15.044912498417773,0.0,0.15813030987058108,0.0,300,0.7344415187835693,0.6564920199112942,0.5433356348900561,14400,2.201619188064988,0.0
48,1.5156948566436768,18.598628025182496,15.664342049470678,44.29693809193786,1.9252257011654719,0.0,0.1648301082638621,0.1,0.39641356468200684,0.055701255798339844,0.049930062,1.0134045,15.400284051094246,0.0,0.24561843344965245,0.0,300,0.8526043891906738,0.5417768461049387,0.5544266308785246,14700,2.245838569422294,0.0
49,1.5321552753448486,22.015173531496266,10.359770052320398,33.22846363931145,8.084393055824682,0.0,0.1606844153937759,0.1,0.31672215461730957,0.6472296714782715,0.0501744,0.8490268,16.061772999134448,0.0,0.2911676841129629,0.0,300,0.726966142654419,0.4160053701288876,0.37548739856373314,15000,2.2715853110759197,0.0
50,1.6549460887908936,16.29306158679935,11.191475431641981,33.16754447522272,1.9943239429259398,0.0,0.15851458237110316,0.1,0.5275092124938965,5.8060455322265625,0.050518606,1.1189327,16.084901857900938,0.0,0.2148474307385209,0.0,300,1.5764329433441162,0.43650357576281046,0.41126448539573596,15300,2.241604661359688,0.0
51,1.5561163425445557,13.929719326944943,6.317151117481733,21.219242614965005,6.484479606943397,0.0,0.15825522036218367,0.1,0.11789321899414062,0.3256239891052246,0.050038625,0.9587504,15.86938360480534,0.0,0.18669789007212137,0.0,300,0.4069485664367676,0.36046677341047917,0.3600267075590419,15600,2.3925564592549775,0.0
52,1.5435700416564941,19.527826994658177,14.472986755749895,42.079973334829276,1.949544458519711,0.0,0.16536017336812636,0.1,0.002321004867553711,0.8163418769836426,0.04945173,0.9437958,16.235227943790623,0.0,0.2613411512551133,0.0,300,0.1812148094177246,0.4456397217478413,0.44524596936243865,15900,2.351776519173934,0.0
53,1.5155096054077148,22.12567872957354,16.93638302281301,46.04447081858321,1.9734043449259302,0.0,0.16231203688693718,0.1,0.009985685348510742,0.6735563278198242,0.049799953,0.92319447,16.824273022368914,0.0,0.2926011685153958,0.0,300,0.6689035892486572,0.4858810136651957,0.4607876107225804,16200,30.580286176622693,0.0
54,1.611100196838379,22.780403855303177,9.064851079135078,36.865151431870956,13.071718532112339,0.0,0.17122049158969535,0.1,0.002618074417114258,0.04792428016662598,0.049844824,1.0371139,17.419886105662343,0.0,0.30134718879383715,0.0,300,0.34098291397094727,0.2858045917231759,0.26141896244272306,16500,20.674423177583776,0.0
55,1.7128000259399414,14.820506589849932,9.907623304367863,27.31498668424895,1.9917352079490236,0.0,0.15752249571827615,0.1,0.003063678741455078,0.18338418006896973,0.049364634,0.92457205,17.159948154081103,0.0,0.19857417649785075,0.0,300,0.36107349395751953,0.6828942780602105,0.5679265222654523,16800,14.666653819381542,0.0
56,1.6361141204833984,12.17882805406266,2.043857593242106,14.427457582299049,10.007704190035627,0.0,0.15763052039347603,0.1,0.003063201904296875,0.054079294204711914,0.050379615,0.84455776,16.66183614407926,0.0,0.16330277726285658,0.0,300,0.1569375991821289,0.669677224909684,0.25649613718293496,17100,23.647117717255394,0.0
57,1.8093960285186768,10.084709139178676,7.179522416490631,20.35118904594381,1.9299709871625859,0.0,0.15440953730951684,0.1,0.0031011104583740234,0.0557100772857666,0.049930118,1.2881247,16.0041234435892,0.0,0.13543015865640476,0.0,300,0.26073312759399414,0.757259091800611,0.48365211122883556,17400,19.54642280567584,0.0
58,1.9025766849517822,18.483076402408727,8.561114274466416,30.491905998985008,7.07032338761734,0.0,0.1587378996548563,0.1,0.0033826828002929688,0.05273556709289551,0.049215063,0.89166075,16.252018739471154,0.0,0.24734767683067882,0.0,300,0.49255824089050293,0.3858782988603717,0.41758936967976495,17700,17.44740490353797,0.0
59,1.7591392993927002,10.602066081446095,5.364370209819006,18.12420291414696,3.2705194001998183,0.0,0.16056149171907835,0.1,0.0032753944396972656,0.04884481430053711,0.05005586,0.91271484,15.68702347366865,0.0,0.1423122721220663,0.0,300,0.17842340469360352,0.3739524924437659,0.36163171115332504,18000,19.48317594085172,0.0
60,1.7051398754119873,10.327019588904587,8.323125527964043,19.234400543004185,1.959397243836374,0.0,0.16281486772849488,0.1,0.002596616744995117,0.04450368881225586,0.049298108,0.9035719,15.151023085192243,0.0,0.1386505531432108,0.0,300,0.5126540660858154,0.4926898017959756,0.48779723889742754,18300,14.377630621457635,0.0
61,1.8471364974975586,14.112381115256131,4.605463590053105,20.028319241087313,9.253752829393944,0.0,0.1771428796217714,0.1,0.0029811859130859375,0.04868125915527344,0.049604036,0.8725602,15.047158888198632,0.0,0.18912991617083466,0.0,300,0.19298553466796875,0.2638739100116521,0.25669712342217604,18600,12.428905266721467,0.0
62,1.6265497207641602,14.970081315496927,2.6543792826038275,19.251971099770298,11.964539657678577,0.0,0.16739795170633578,0.1,0.0029315948486328125,0.05068254470825195,0.049532883,0.83988,15.039451130928462,0.0,0.2005639403410739,0.0,300,0.9741926193237305,0.18480628429718823,0.160896740082912,18900,14.412576896292784,0.0
63,1.5924780368804932,13.93748427971857,5.547364366534642,22.167173655994,7.119507530596476,0.0,0.17883833751765343,0.1,0.5336246490478516,1.1099517345428467,0.049633376,0.6980897,14.929254445807475,0.0,0.1867799157919337,0.0,300,0.7432806491851807,0.32261504773650623,0.30638019306909575,19200,18.46551949318015,0.0
64,1.6637001037597656,14.065421871619963,8.184263419437764,24.18057555200351,1.9759775306241427,0.0,0.16130951617682548,0.1,0.0034089088439941406,0.04847455024719238,0.050628327,1.0464003,14.842871188388724,0.0,0.18850181508168928,0.0,300,0.29715824127197266,0.36032770885172,0.3457015329180505,19500,25.58146085973598,0.0
65,1.7453813552856445,17.123218559858113,7.998350008761374,30.962452067292933,12.104165063718256,0.0,0.1620037200490541,0.1,0.0038619041442871094,0.05881619453430176,0.049126536,0.97317505,15.070905925535664,0.0,0.22927061784656333,0.0,300,0.5423099994659424,0.36521907634505085,0.3432185608872136,19800,23.598574599030275,0.0
66,1.6976325511932373,23.957154896654675,16.143935325167394,51.067385306943464,10.445358999506858,0.0,0.16792491200201415,0.1,0.004257678985595703,0.05222940444946289,0.050106805,0.9126728,15.959530822647565,0.0,0.32038723852314577,0.0,300,0.551563024520874,0.5088759748070916,0.45540420499376066,20100,17.511300902796076,0.0
67,1.8527426719665527,12.503374457825794,8.448047596030413,25.461699015137405,1.9492845395745646,0.0,0.15745090032858378,0.1,0.0070645809173583984,0.049160003662109375,0.050107203,1.0035299,15.613915186165388,0.0,0.16763935772558655,0.0,300,0.6006565093994141,0.5522043824829734,0.579243483567184,20400,13.50804762573969,0.0
68,1.7295892238616943,11.939679571151103,7.512536830486208,23.169689972995233,2.082045890322745,0.0,0.15542557123847336,0.1,0.029640913009643555,0.09221076965332031,0.04946775,1.1078593,15.246491624663959,0.0,0.1600891155695074,0.0,300,0.5863726139068604,0.6579861742461511,0.500382678159111,20700,18.581043094225656,0.0
69,1.7517013549804688,11.273331084860143,8.105451273580316,23.33705930945462,1.9247396297147712,0.0,0.16607989489331454,0.1,0.0032606124877929688,0.2366323471069336,0.050013162,0.8088208,14.849175570683578,0.0,0.15128062445490653,0.0,300,1.3699605464935303,0.5799953627902894,0.470902025772505,21000,21.56100309904011,0.0
70,1.6967082023620605,14.376554276499053,9.587163192662793,25.995728291870197,2.3689949539581963,0.0,0.16308766489469773,0.1,0.002563953399658203,0.05276155471801758,0.04949111,0.7244528,14.801913441265127,0.0,0.19263545525566766,0.0,300,0.7139174938201904,0.40202872690819075,0.42178369566122315,21300,10.455558743564682,0.0
71,1.854926586151123,11.78706666053833,2.2785076000885507,14.019902940046538,8.024392006753564,0.0,0.1641765944690212,0.1,0.0027475357055664062,0.05409860610961914,0.050819486,0.98386717,14.500428763192447,0.0,0.15479431344778638,0.0,300,0.0872807502746582,0.2590024360224129,0.25575328366104616,21600,18.50273959896017,0.0
72,1.7973945140838623,16.916646712452756,4.255614738505861,22.295428910411875,11.062372319588286,0.0,0.1550101719541977,0.1,0.01557612419128418,1.296398639678955,0.050337207,1.0714597,14.742050558118478,0.0,0.22313300146271386,0.0,300,0.2631864547729492,0.3377353939861417,0.3006987269218012,21900,16.437066288506944,0.0
73,1.8369436264038086,17.37298673030042,13.064833546863351,38.184912745356726,2.0704235662625967,0.0,0.16861882010471055,0.1,0.3547055721282959,0.051793813705444336,0.049766496,0.87811124,15.005144175336673,0.0,0.22926925097144235,0.0,300,1.2895073890686035,0.5407688153775101,0.477742839388548,22200,25.520237883674202,0.0
74,1.6986870765686035,17.636054195995303,10.923832185941384,31.24224247770716,1.9482384599183922,0.0,0.16996382636442922,0.1,0.002505779266357422,0.04861927032470703,0.048842654,0.7286181,15.268235177402536,0.0,0.23275277168450592,0.0,300,1.1466820240020752,0.37010164224138453,0.33332683343988473,22500,2.5914777705505228,0.0
75,1.9117910861968994,17.105543125193883,4.187907460048455,21.230231010268366,11.839045261546937,0.0,0.1697681065263501,0.1,0.0030858516693115234,0.05455422401428223,0.050052755,0.74741787,15.451965972181672,0.0,0.2220631610590554,0.0,300,0.27307581901550293,0.22505441239428384,0.22581587367246708,22800,19.658626614128206,0.0
76,1.782590627670288,17.659896600325784,10.276293341055093,27.630526005974964,3.024476014354209,0.0,0.16919421073087595,0.1,0.003679513931274414,0.05541729927062988,0.05051302,0.7000375,15.672759034996083,0.0,0.23641026374417357,0.0,300,0.08937644958496094,0.33261420435247696,0.3322589077516408,23100,33.7826899692209,0.0
77,1.8787510395050049,19.925948773523256,13.490310589477385,37.43290614632261,1.939340104895991,0.0,0.17183586455951555,0.1,0.0026535987854003906,0.05077075958251953,0.050035164,0.70268524,16.098078008848802,0.0,0.26664035911831885,0.0,300,0.825559139251709,0.4058767383922598,0.40183260075949234,23400,2.724060165774801,0.0
78,1.863584041595459,11.433658617535086,5.848776441395828,17.165093700836692,2.0441879551491713,0.0,0.15758895404155548,0.1,0.028963327407836914,0.0544428825378418,0.050168496,1.0015353,15.63163606971743,0.0,0.15340605560031384,0.0,300,0.17939329147338867,1.275487938299049,0.8594709209387108,23700,11.64779217196788,0.0
79,1.8302254676818848,14.959532803195632,7.886215301527157,24.024880755374205,2.3219770004248077,0.0,0.16643236022981678,0.1,0.0040090084075927734,0.11351299285888672,0.049794823,0.7606963,15.56442574306525,0.0,0.20035514182962935,0.0,300,0.43570685386657715,0.32091783057127504,0.31808457292063896,24000,23.75025660310209,0.0
80,2.028865098953247,21.113835375852993,14.142824933837648,45.18758334955373,10.009046037659717,0.0,0.15657921592007557,0.1,0.0026280879974365234,0.05178260803222656,0.049774915,1.6597648,16.119366706344024,0.0,0.2791459110624268,0.0,300,0.31685733795166016,0.4836958538781153,0.4737481761146861,24300,15.58059185200773,0.0
81,1.8467154502868652,17.994976926320952,3.4210495912779715,20.720993961313432,12.126426368327795,0.0,0.15173193804541524,0.1,0.0650489330291748,0.05648684501647949,0.049998473,0.85848176,16.30692772834172,0.0,0.24080703876935597,0.0,300,0.1689741611480713,0.1576504443443671,0.15133764518361797,24600,20.52511336064296,0.0
82,1.8378703594207764,21.237515465055434,12.396374808248941,36.954005214402066,8.080253161373417,0.0,0.1602124830710271,0.1,0.003031015396118164,0.05179882049560547,0.050101973,0.979017,16.79998650201309,0.0,0.28072834892702825,0.0,300,0.2519090175628662,0.38356263254286865,0.34721925247680974,24900,20.485737266017498,0.0
83,2.0989105701446533,18.00672831665753,3.463517010319695,23.37537221579116,14.161950742784661,0.0,0.15790027147520105,0.1,0.003245115280151367,0.05457162857055664,0.050690927,0.75141054,16.920660683477536,0.0,0.24103845266460777,0.0,300,0.22200965881347656,0.14684558881150633,0.16494019182673636,25200,20.609833762734183,0.0
84,2.05702805519104,22.14929870183942,8.618092884155757,34.97399128640581,11.048173670508023,0.0,0.15697664525423338,0.1,0.0033550262451171875,0.058150529861450195,0.049012765,0.9147742,17.443524485313723,0.0,0.2929602174160528,0.0,300,0.08783507347106934,0.2820387894748587,0.2688482790276009,25500,25.39482871755621,0.0
85,1.770533800125122,19.133670837223605,9.970959612058396,34.14957294990905,6.085169740192875,0.0,0.15225506755496446,0.1,0.0029363632202148438,0.05245566368103027,0.049951024,0.97431064,17.612539120504714,0.0,0.2527141697900524,0.0,300,0.48603272438049316,0.36652666336794903,0.34322853649961715,25800,29.013802032176596,0.0
86,1.944495439529419,16.430987736796542,6.224898964101473,21.428053119265833,6.0630009517583074,0.0,0.15530715878945614,0.1,0.0030846595764160156,0.05983686447143555,0.04975227,1.2592728,17.494383982133897,0.0,0.2167014436628629,0.0,300,0.08132076263427734,0.3131532087244417,0.24386375550742587,26100,8.044311526168189,0.0
87,1.7793314456939697,14.136464153354432,3.41378319795501,19.07339173443042,9.423817247728028,0.0,0.1575632260839278,0.1,0.5573520660400391,2.3759994506835938,0.049841225,0.70646244,17.15859199925595,0.0,0.18943136766510654,0.0,300,0.1464827060699463,0.16529608331656195,0.11158628611732707,26400,11.110402959901593,0.0
88,1.809220314025879,13.35642739603101,7.140539784686787,25.662891025252147,8.420374797184023,0.0,0.15293851565086536,0.1,0.0028831958770751953,0.04998517036437988,0.050373625,1.4532107,16.778375538933457,0.0,0.1787992528013007,0.0,300,0.19173550605773926,0.3443526170797252,0.2989250531296136,26700,14.079528942286144,0.0
89,1.7431354522705078,22.05256997675338,5.664522828556236,30.86648135303386,16.161546746289538,0.0,0.1534654352794405,0.1,0.0025475025177001953,0.05628037452697754,0.049820907,0.79848814,17.305794982715447,0.0,0.291650457139001,0.0,300,0.08227252960205078,0.2884568600362215,0.2703520222180679,27000,17.238462309845513,0.0
90,1.7856471538543701,16.841350359570765,12.749822236126105,37.054790443413665,2.08112630649873,0.0,0.1579872310963822,0.1,0.0035753250122070312,0.0515751838684082,0.0497279,1.1934175,17.25935052040098,0.0,0.22218875858416137,0.0,300,0.47881078720092773,0.4613501969870445,0.43235442303221183,27300,14.131325563904412,0.0
91,2.0591211318969727,16.67409841101781,11.121902267561412,34.044449014569814,3.035748729379226,0.0,0.14903768247273003,0.1,0.003034353256225586,0.05817985534667969,0.050316524,1.331757,17.20082530946266,0.0,0.21320631087975128,0.0,300,0.25609803199768066,0.4219222198604702,0.3984734527802654,27600,14.066937704101642,0.0
92,1.9941158294677734,15.16202948600872,3.6524960742204216,21.01966596726626,10.958897265022062,0.0,0.15827268614633833,0.1,0.002972126007080078,0.05685830116271973,0.04950557,0.69463676,16.996945727117268,0.0,0.1997935157774577,0.0,300,0.273235559463501,0.31941509754381475,0.32247116621041183,27900,18.158308623030724,0.0
93,1.9855828285217285,10.684531467396258,5.645605252225874,17.40937836409884,1.987058021962191,0.0,0.16421539192517817,0.1,0.0029973983764648438,0.05475473403930664,0.050139308,0.67938596,16.36570430114517,0.0,0.14336637398887564,0.0,300,0.09975314140319824,0.7726462314450268,0.5092172339051101,28200,17.197368021163353,0.0
94,2.0522680282592773,24.84436728672725,3.9740792274347303,29.504938622131597,18.55890941318126,0.0,0.16093622499308782,0.1,0.0030164718627929688,0.06226754188537598,0.049802877,0.8729364,17.213570599703377,0.0,0.33221623814698026,0.0,300,0.09318065643310547,0.2351426664016399,0.22600486815426055,28500,24.063776009086116,0.0
95,1.9000518321990967,19.427423299125063,16.018170156563734,44.96737201784219,5.077243310836631,0.0,0.1674208888609691,0.1,0.003187894821166992,0.059136390686035156,0.049163703,0.7076555,17.434955869645545,0.0,0.2533086763335187,0.0,300,0.2915055751800537,0.5124768296763486,0.4829931288200042,28800,20.050224193716478,0.0
96,1.9764549732208252,24.886832996331275,4.703868830481737,32.13070548530037,19.17079577907875,0.0,0.16749263038659967,0.1,0.0029060840606689453,0.05709099769592285,0.049145367,0.8247041,18.18014358231412,0.0,0.3327045229430043,0.0,300,0.06720399856567383,0.21614437194785144,0.1467621126377784,29100,28.137783024870938,0.0
97,1.8944354057312012,22.210720702813425,11.942724625236027,33.20851724247397,2.1078783527633322,0.0,0.15306167593051997,0.1,0.0028874874114990234,0.057676076889038086,0.049879238,0.5918435,18.58320129436405,0.0,0.2971112125881945,0.0,300,0.04011845588684082,0.27715547452343486,0.288986665081828,29400,19.091301237902425,0.0
98,1.8205697536468506,13.461661048804714,2.3245498752190943,17.217397525793803,11.079488025962961,0.0,0.16600025637720375,0.1,0.0030646324157714844,0.05769801139831543,0.049934443,0.73490477,18.071047269808115,0.0,0.18045545580260397,0.0,300,0.08223438262939453,1.1526849128162302,0.5400362921927836,29700,16.112897121515925,0.0
99,1.997213363647461,17.678794761937972,7.462816864196423,30.51932846101541,12.00190629639942,0.0,0.15155652625474708,0.1,0.0032362937927246094,0.13769268989562988,0.05031105,1.1329088,18.031822019021103,0.0,0.23668427171285145,0.0,300,0.6888549327850342,0.30066496615686195,0.21853656965330387,30000,12.088827659115674,0.0
100,2.145948648452759,12.594123004787964,8.101033611387859,24.13887138113018,2.093457929531118,0.0,0.15500733926146856,0.1,0.003328084945678711,0.06573128700256348,0.04953166,1.6345499,17.48805211759779,0.0,0.1688498234733466,0.0,300,0.3840301036834717,0.44009852289313783,0.3835740139474888,30300,15.100386643615485,0.0
101,2.1211628913879395,9.421151312588101,7.645235569116505,20.116863574777238,1.9268661108599558,0.0,0.1543236175679848,0.1,0.003313779830932617,0.05924725532531738,0.05016804,0.8996509,16.68136203709682,0.0,0.1265648004165968,0.0,300,0.3394176959991455,0.6261946358106525,0.5115295613598323,30600,14.123572396044233,0.0
102,1.910294532775879,14.810680808372307,6.33059726748484,20.05522126007961,4.041179307611049,0.0,0.15581561172786085,0.1,0.0029425621032714844,0.05333852767944336,0.050340965,0.778015,16.49429391422437,0.0,0.19176414696325983,0.0,300,0.17130017280578613,0.2532205219952648,0.27814767094682963,30900,10.142516924032636,0.0
103,1.850395917892456,18.92644952014125,4.833073116039801,25.807627288363577,12.543003922936203,0.0,0.17945168405926518,0.1,0.003033876419067383,0.05272626876831055,0.049576815,0.7558503,16.737509474816058,0.0,0.25330919138803365,0.0,300,0.5109291076660156,0.3885999449494071,0.3561490267349478,31200,15.137267263604476,0.0
104,1.9231431484222412,30.16136724290063,5.566049255759687,37.03090814636018,22.093274909950676,0.0,0.16991252451717273,0.1,0.0036466121673583984,0.06181478500366211,0.050151255,0.6975131,18.079895251624514,0.0,0.3997725359127197,0.0,300,0.020859479904174805,0.4955834259939186,0.3525377017015728,31500,13.202103732165737,0.0
105,2.155438184738159,18.83644915808951,4.876882057814314,26.967311489136264,13.972162119217277,0.0,0.16719733950306961,0.1,0.0033431053161621094,0.06536149978637695,0.051060025,0.9856364,18.155550642271013,0.0,0.25211843734590644,0.0,300,0.07997322082519531,0.20680190274587404,0.14972923165807708,31800,16.17343331002385,0.0
106,2.1263391971588135,12.924125537930841,5.003627592611111,21.30212863779901,9.02082408801687,0.0,0.16993124615008132,0.1,0.6400749683380127,1.3656306266784668,0.05052286,0.81011254,17.632408131836996,0.0,0.16993701895013874,0.0,300,1.13905668258667,0.6682377680263251,0.7465395200089899,32100,14.177382986117314,0.0
107,1.8764245510101318,14.005761514239165,5.199240941637564,21.505894982957226,8.13595726693573,0.0,0.15552825987017463,0.1,0.002792835235595703,0.05897188186645508,0.050325695,0.8514269,17.269743470077213,0.0,0.18767572842522945,0.0,300,0.1527388095855713,0.6542698189372639,0.37785839260769744,32400,20.550159448330593,0.0
108,1.9597737789154053,18.72998393314915,13.696709584251234,39.39152743446359,2.1984605439437486,0.0,0.15446928414966024,0.1,0.002905130386352539,0.04761171340942383,0.05085157,1.3181645,17.415767516384406,0.0,0.24734974599522452,0.0,300,0.12379646301269531,0.46334563108259835,0.47091386297092097,32700,18.509300402526517,0.0
109,1.9784233570098877,14.060686778645085,9.452253435082932,27.991055119059368,2.0526144611148376,0.0,0.15851969154906434,0.1,0.003038644790649414,0.05442619323730469,0.04959448,0.8589563,17.080259442610473,0.0,0.18843260440520526,0.0,300,0.13892912864685059,0.38509464528569337,0.37273303070681496,33000,17.392820008293004,0.0
110,1.907156229019165,28.802762987553677,10.691756588728566,46.144918849412825,16.99947649412441,0.0,0.16256410585282488,0.1,0.0027480125427246094,0.05159783363342285,0.049889967,0.80134267,18.252509797104793,0.0,0.3850086912280507,0.0,300,0.053339481353759766,0.4123381988124235,0.3673022040187243,33300,15.43824028624483,0.0
111,2.0009613037109375,15.984900396249303,4.958891972361218,22.177031541662227,10.9919401954143,0.0,0.1523086490396297,0.1,0.0032951831817626953,0.1548163890838623,0.04952427,1.160204,18.025748857019245,0.0,0.21406636297557338,0.0,300,0.20837807655334473,0.13278236114612507,0.1550896446147076,33600,22.488067196338182,0.0
112,2.06056547164917,20.412798849847633,14.271053223818452,42.08845663180073,2.10814893010103,0.0,0.17093035802262702,0.1,0.0026209354400634766,0.05045461654663086,0.049375594,0.97073984,18.264453856302087,0.0,0.26979651009902617,0.0,300,0.045034170150756836,0.444404350162445,0.4378858036593972,33900,11.163900275461458,0.0
113,2.0099680423736572,22.6282063563814,14.638818713141044,43.33912232829748,1.9476781792026852,0.0,0.16538595521279456,0.1,0.003215312957763672,0.05529427528381348,0.050358728,0.8125562,18.700829106310017,0.0,0.2993384028173576,0.0,300,0.12184834480285645,0.39286962075942206,0.3741689273378119,34200,27.140937132797273,0.0
114,2.0959622859954834,16.119530980061555,4.1814225021071865,21.31566455042555,9.979220860536456,0.0,0.15662374379126295,0.1,0.0027418136596679688,0.04566526412963867,0.049944174,0.92079365,18.44269929368517,0.0,0.21589381484318676,0.0,300,0.28391051292419434,0.2548167633687525,0.2358852826819008,34500,9.31987733993343,0.0
115,2.0001416206359863,17.484826744018257,3.1893089425824996,22.298586500162394,14.039318334893778,0.0,0.15979004289911225,0.1,0.00290679931640625,0.051822662353515625,0.05041824,0.98772156,18.34691203871848,0.0,0.23076251343854154,0.0,300,0.47752857208251953,0.16025496311202903,0.1354849818796398,34800,16.295354116274805,0.0
116,1.892305612564087,16.53724845264324,4.712121726956274,23.48426894014308,10.324843524143592,0.0,0.15362497472986267,0.1,0.0052373409271240234,0.05831336975097656,0.04989749,0.7746175,18.165945680110955,0.0,0.22142373044161195,0.0,300,0.4363431930541992,0.16730377018827353,0.138600209396816,35100,18.295618698628626,0.0
117,2.1988365650177,15.906286516154983,5.3655907918409556,23.951479200069894,10.158585773069086,0.0,0.16622104134226626,0.1,0.22496771812438965,0.056349992752075195,0.049552478,0.7972628,17.93997976371536,0.0,0.21304223472146977,0.0,300,0.11144495010375977,0.19914456617193968,0.1939843269235074,35400,19.368913122998084,0.0
118,1.8786263465881348,25.018012993617994,8.792156709284642,33.9755854654139,11.19590970194204,0.0,0.1657246836611484,0.1,0.007439136505126953,0.05726504325866699,0.050248563,0.8290012,18.647783086705623,0.0,0.33116589379104455,0.0,300,0.9231874942779541,0.3439074589302198,0.30711933129149577,35700,18.40532310458647,0.0
119,2.0904085636138916,17.87140584313595,5.4292130441306625,26.616272467787738,12.654826029546815,0.0,0.15722200095433006,0.1,0.0030291080474853516,0.05518651008605957,0.049711764,0.92849314,18.570145362348654,0.0,0.23922089786182532,0.0,300,0.0998067855834961,0.23961509838280842,0.2393288027712964,36000,17.6683618674685,0.0
120,1.9032096862792969,13.362599751806751,1.28697146205368,15.160674844558777,11.990444838965994,0.0,0.15392575818978638,0.1,0.0030748844146728516,0.05625033378601074,0.049914073,0.70537007,18.049390801294464,0.0,0.17909771398127716,0.0,300,0.11677742004394531,0.2912989329910126,0.24708036729643687,36300,15.551474244084993,0.0
121,1.9296550750732422,19.068366305852656,7.358651970859797,29.02660280985126,9.074043410562716,0.0,0.1637004871046632,0.1,0.0029785633087158203,0.05392599105834961,0.05008914,0.80047596,18.15128835175028,0.0,0.25519969998182856,0.0,300,0.04547548294067383,0.236833706974063,0.23973771215633202,36600,14.337707317125881,0.0
122,1.977264404296875,19.323500660142884,10.836659535859521,36.957153710724896,9.021027503190368,0.0,0.1630003866947333,0.1,0.6479852199554443,0.508368968963623,0.049110465,1.3058773,18.26850958258954,0.0,0.2586101604656527,0.0,300,0.3896303176879883,0.37154898342057757,0.36604599201445276,36900,42.248718766020886,0.0
123,1.9101696014404297,24.329840833013733,18.552086871046843,45.16705209556996,2.001907344354773,0.0,0.16213391594684406,0.1,0.0027327537536621094,0.051819562911987305,0.049188394,0.72109836,18.87464270763196,0.0,0.3186934947121843,0.0,300,0.10190701484680176,0.4893218494000989,0.456005240671453,37200,27.28225615643713,0.0
124,2.027437210083008,17.985582233633636,11.969932152460272,36.51634587783116,5.9469103465671305,0.0,0.168180298115493,0.1,0.3697631359100342,0.05464506149291992,0.05004472,0.7086022,18.78573666023213,0.0,0.2374335727128447,0.0,300,0.11067748069763184,0.4614090513300176,0.477769273979076,37500,26.351514957581397,0.0
125,1.998551368713379,15.689043072005294,7.976442593940617,21.55523370201507,1.9542921068251822,0.0,0.17214155569917208,0.1,0.0032477378845214844,0.06157279014587402,0.049864475,0.54404,18.476067301409447,0.0,0.21012583665369183,0.0,300,0.22526884078979492,0.37728944871516745,0.31877668358590255,37800,24.259122383809427,0.0
126,1.9790687561035156,14.173381907368018,3.3897927935486107,19.37865145327929,9.989010900067573,0.0,0.1636025481243819,0.1,0.0025894641876220703,0.05091404914855957,0.049640432,0.7689085,18.045798762005305,0.0,0.18989017764465888,0.0,300,0.15324854850769043,0.28133576691362777,0.1408480385685813,38100,24.271745794180884,0.0
