iteration,time_sampling,stoc_pol_mean,stoc_pol_std,stoc_pol_max,stoc_pol_min,rollout_success,alpha,delta,time_vpg,time_npg,kl_dist,surr_improvement,running_score,rwd_sparse,rwd_dense,success_percentage,num_samples,time_VF,VF_error_before,VF_error_after,env_samples,eval_score,eval_success
0,1.1597645282745361,-1.9899731469366717,0.0033924704374119073,-1.9856326579050274,-1.994051184737998,0.0,0.0900032563355489,0.1,0.029979705810546875,0.047698974609375,0.053293485,2.0686252,-1.9899731469366717,0.0,-0.026129659641101758,0.0,71,0.0038299560546875,1.0930469114969685,1.0930469114969685,71,-1.9922985820659338,0.0
1,1.1929912567138672,-1.4751425891990646,0.8766730343286483,0.04323018256297323,-1.9949504847401267,0.0,0.12239082386972924,0.1,0.0028047561645507812,0.051302194595336914,0.049316615,0.6958418,-1.938490091162911,0.0,-0.025931702949587365,0.0,139,0.009829044342041016,1.0943956504424317,1.0428277603741378,210,-1.9924098337250744,0.0
2,1.1155436038970947,-1.986204156832045,0.00932582713822245,-1.9706384872032867,-1.994563524755427,0.0,0.1150530605592938,0.1,0.0025484561920166016,0.049948930740356445,0.053863354,1.8010267,-1.9432614977298246,0.0,-0.026079607967256675,0.0,109,0.0053174495697021484,1.0424512020396575,1.0424512020396575,319,-1.9923413685216105,0.0
3,1.0655086040496826,-1.9853587694487658,0.015739074934635406,-1.9581011620644844,-1.9947766696066953,0.0,0.09315693147800558,0.1,0.0025599002838134766,0.05007767677307129,0.05188997,2.1394987,-1.9474712249017188,0.0,-0.026067915995079145,0.0,85,0.002605438232421875,1.0434113369526188,1.0434113369526188,404,-1.9923310499709388,0.0
4,1.050600528717041,-1.9887145693484638,0.007306653099704889,-1.9772289169528858,-1.9961477113990416,0.0,0.08683719943383537,0.1,0.002493619918823242,0.04835200309753418,0.048730884,2.2725449,-1.9515955593463934,0.0,-0.026112466574174056,0.0,75,0.0024781227111816406,1.0440124441721799,1.0440124441721799,479,-1.9919816935437078,0.0
5,1.0104849338531494,-1.9907625689028574,0.0037575836559803426,-1.9850832208933138,-1.9951939996503136,0.0,0.08918429155472575,0.1,0.0044291019439697266,0.04789090156555176,0.04913097,2.3471038,-1.9555122603020398,0.0,-0.026140083499360943,0.0,62,0.002511739730834961,1.0416545139073827,1.0416545139073827,541,-1.9792503098377159,0.0
6,1.0457005500793457,-1.9863046549023546,0.007867631201993446,-1.9740079423309795,-1.9943906841120604,0.0,0.092390875071505,0.1,0.002327442169189453,0.04785919189453125,0.05055525,8.695477,-1.9585914997620715,0.0,-0.02608056969518554,0.0,82,0.0032753944396972656,1.0429662207846222,1.0429662207846222,623,-1.9795488155635936,0.0
7,1.2176318168640137,-1.985729162804752,0.01337643603770588,-1.962638394498643,-1.9950978990592714,0.0,0.09843520856247337,0.1,0.002393007278442383,0.05687880516052246,0.049206626,1.5320991,-1.9613052660663397,0.0,-0.0260729310435205,0.0,88,0.009356975555419922,1.0413796387919747,1.0413796387919747,711,-1.9788067439503336,0.0
8,0.9792823791503906,-1.9922987260467098,0.0011852784143948955,-1.9902504379950359,-1.993111769483018,0.0,0.08551606080610334,0.1,0.0022406578063964844,0.08431196212768555,0.048134338,2.0839355,-1.9644046120643768,0.0,-0.026160519621892593,0.0,51,0.0023279190063476562,1.0432593444979015,1.0432593444979015,762,-1.9768378698265676,0.0
9,1.1102933883666992,-1.9841369427060174,0.00970432743712059,-1.9684061490847768,-1.9940462317113408,0.0,0.09848708777447293,0.1,0.0025186538696289062,0.05036735534667969,0.047800556,2.823332,-1.966377845128541,0.0,-0.02605185858625314,0.0,114,0.004848003387451172,1.0428532858692254,1.0428532858692254,876,-1.9731038096195794,0.0
10,1.0892410278320312,-1.9900856439161354,0.006341769065005722,-1.9795055614527506,-1.9951598816633496,0.0,0.10796996729479402,0.1,0.002660989761352539,0.04843473434448242,0.048028037,1.4608047,-1.9687486250073005,0.0,-0.02613142015512302,0.0,87,0.0025453567504882812,1.0428738412223404,1.0428738412223404,963,-1.9690688927496438,0.0
11,1.1921954154968262,-1.9788760064018507,0.01234775691800143,-1.9634055860253563,-1.9923431806254779,0.0,0.1131844750208671,0.1,0.002774953842163086,0.0682065486907959,0.05084248,1.1206353,-1.9697613631467557,0.0,-0.025981765516926172,0.0,129,0.009868383407592773,1.0440002946738378,0.9971207290648103,1092,-1.973750308736556,0.0
12,1.1988646984100342,-1.9495743735784499,0.04290088764931369,-1.8820443216629974,-1.9911701523121874,0.0,0.12646734873176554,0.1,0.002793550491333008,0.05207943916320801,0.052272633,1.011038,-1.9677426641899252,0.0,-0.02559110728432662,0.0,147,0.011690139770507812,0.9962938334080134,0.9481178330258574,1239,-1.971972410826386,0.0
13,1.1563687324523926,-1.9836456540056155,0.013877973633537188,-1.9596721946172564,-1.992608548791022,0.0,0.10391511808577192,0.1,0.002662181854248047,0.06407523155212402,0.050156426,1.7673112,-1.9693329631714942,0.0,-0.026044991925565995,0.0,113,0.004790306091308594,0.9494652756482512,0.9494652756482512,1352,-1.964568032797865,0.0
14,1.1304574012756348,-1.9881011861641,0.005494297617237761,-1.9795220127330861,-1.994095982961177,0.0,0.0863667494962601,0.1,0.007713794708251953,0.053725242614746094,0.049929075,2.4171023,-1.9712097854707549,0.0,-0.026104431069725192,0.0,63,0.0042002201080322266,0.948437070966485,0.948437070966485,1415,-1.9656735846932414,0.0
15,1.2513093948364258,-1.973022348650445,0.012985496076282854,-1.955712018932452,-1.991190636051346,0.0,0.13909439455637454,0.1,0.0028946399688720703,0.05234026908874512,0.050013307,0.9514401,-1.9713910417887237,0.0,-0.02590365891909215,0.0,171,0.010893821716308594,0.9477317010436535,0.8950557820830048,1586,-1.9661672615998083,0.0
16,1.1753804683685303,-1.9664268531893574,0.036420422602146715,-1.9047966466813884,-1.9960140245764446,0.0,0.10149607678698701,0.1,0.0024793148040771484,0.049551963806152344,0.048749506,1.770421,-1.9708946229287871,0.0,-0.025815597183651166,0.0,98,0.002766132354736328,0.895642450084152,0.895642450084152,1684,-1.956490738686422,0.0
17,1.1841959953308105,-1.9583253644961138,0.04041247195340514,-1.8948369763524744,-1.9960077860955596,0.0,0.11410306186256285,0.1,0.0024967193603515625,0.04975581169128418,0.049092345,1.3460675,-1.9696376970855198,0.0,-0.025707733792137852,0.0,127,0.0029108524322509766,0.8962796259311772,0.8962796259311772,1811,-1.933414126777801,0.0
18,1.3240869045257568,-1.929613007365663,0.06804421941297302,-1.8186491398745634,-1.9949045977495163,0.0,0.13897143984513258,0.1,0.0027320384979248047,0.05092978477478027,0.048783675,0.9054719,-1.965635228113534,0.0,-0.025324501364976156,0.0,158,0.011066436767578125,0.895456233835599,0.836053684502097,1969,-1.9240163438384588,0.0
19,1.2297067642211914,-1.9832770963597541,0.008629097577636578,-1.9689403026705863,-1.9919393873794158,0.0,0.1043988506934356,0.1,0.0025370121002197266,0.06249213218688965,0.049686003,1.2074871,-1.9673994149381562,0.0,-0.0260401993292707,0.0,106,0.0035037994384765625,0.8358285343086714,0.8358285343086714,2075,-1.9323497521407917,0.0
20,1.2388463020324707,-1.9872573880096236,0.009818564921240747,-1.970611402968162,-1.9959857867965856,0.0,0.09675693541565376,0.1,0.002701282501220703,0.0494227409362793,0.04920538,7.5806513,-1.969385212245303,0.0,-0.026093693090687497,0.0,102,0.0045359134674072266,0.8355476668476378,0.8355476668476378,2177,-1.9410587602396385,0.0
21,1.3773741722106934,-1.9701692931571047,0.021926955710011787,-1.9386923545586487,-1.9914461699011685,0.0,0.11400979153929758,0.1,0.0027778148651123047,0.05091977119445801,0.049549647,1.4037777,-1.9694636203364833,0.0,-0.02586596042739125,0.0,140,0.01076364517211914,0.8371529320188047,0.7724193958318939,2317,-1.934024660329883,0.0
22,1.3245861530303955,-1.9105156162881238,0.07028458762233747,-1.827745743615781,-1.9951507130957888,0.0,0.13853282129998007,0.1,0.0027229785919189453,0.05209779739379883,0.04969862,0.73541445,-1.9635688199316474,0.0,-0.025070115364805967,0.0,179,0.009646177291870117,0.7670247872296436,0.6921976424032905,2496,-1.8879563423622832,0.0
23,1.3225667476654053,-1.9715942678936202,0.012281652945280696,-1.963602842461638,-1.9927917416256475,0.0,0.12461769665843882,0.1,0.0026884078979492188,0.050897836685180664,0.050695725,1.0261014,-1.9643713647278447,0.0,-0.025884296065337653,0.0,159,0.010941505432128906,0.6962509067348046,0.6134020991067709,2655,-1.931470113203425,0.0
24,1.3766260147094727,-1.9477832702229225,0.04473143498655149,-1.8754925085095526,-1.9897403225739398,0.0,0.13317735745619247,0.1,0.0028951168060302734,0.053705453872680664,0.050951514,1.1250851,-1.9627125552773526,0.0,-0.025567256319828466,0.0,200,0.013557672500610352,0.6078749915289372,0.41056754020982805,2855,-1.9026454425026766,0.0
25,1.3246448040008545,-1.9600343212604896,0.013946154805223076,-1.9358985439767904,-1.9688433738963118,0.0,0.14027399892550424,0.1,0.002748250961303711,0.05331683158874512,0.04979329,0.9224521,-1.9624447318756664,0.0,-0.025730141451939373,0.0,194,0.013766288757324219,0.4177820546700387,0.20485998717231466,3049,-1.920657105442742,0.0
26,1.201634407043457,-1.9757397109997705,0.009808479143916386,-1.967018963147468,-1.9919968877669667,0.0,0.1113539445300971,0.1,0.002542734146118164,0.05091261863708496,0.048632227,1.5565059,-1.963774229788077,0.0,-0.025939260452050212,0.0,121,0.0047109127044677734,0.23118880550520168,0.23118880550520168,3170,-1.8976524682427331,0.0
27,1.364814043045044,-1.9633595813802254,0.017988039305977883,-1.9493131620690183,-1.9942494704327554,0.0,0.12918639296461124,0.1,0.0028314590454101562,0.05569958686828613,0.048909348,1.3141031,-1.963732764947292,0.0,-0.025775219680533836,0.0,154,0.011565208435058594,0.21811542883434698,0.1239134126862573,3324,-1.9273879922688633,0.0
28,1.377009391784668,-1.4465662664543202,0.8813142007636949,0.07903491159919154,-1.9855705847730991,0.0,0.1424432232501763,0.1,0.0029420852661132812,0.05484771728515625,0.049567975,0.9118478,-1.9120161150979949,0.0,-0.02555116217923752,0.0,200,0.014504194259643555,0.40873945316995824,0.514164050241975,3524,-1.9277567632360286,0.0
29,1.3030807971954346,-1.9589268628169074,0.04139683178459314,-1.8890151651257376,-1.9910134890248832,0.0,0.1335682429103923,0.1,0.0027360916137695312,0.05322146415710449,0.050291575,1.2188294,-1.9167071898698862,0.0,-0.02571562183253509,0.0,163,0.00985860824584961,0.04009182477104078,0.027684772193344184,3687,-1.9169358170073212,0.0
30,1.420630931854248,-1.4655833268632057,0.8823235744093512,0.06251416606290101,-1.9934895936021744,0.0,0.153612640920306,0.1,0.0028727054595947266,0.06949687004089355,0.04987173,1.0237515,-1.8715948035692183,0.0,-0.025804379348877634,0.0,214,0.013904571533203125,0.5188640454950051,0.5160320637594431,3901,-1.9054620836733924,0.0
31,1.3746740818023682,-1.9010501516964746,0.04419826265565491,-1.859340510672385,-1.970801545752691,0.0,0.1451682789941625,0.1,0.0029723644256591797,0.07050657272338867,0.050470814,1.1227969,-1.874540338381944,0.0,-0.024944653601471,0.0,230,0.013805866241455078,0.03332445532531356,0.03551709432652162,4131,-1.8950942810236162,0.0
32,1.3271300792694092,-1.9659365988631157,0.010166789911031914,-1.9585255811363427,-1.9832481722175905,0.0,0.13212843280056172,0.1,0.0027332305908203125,0.05213427543640137,0.049756035,1.6282247,-1.8836799644300612,0.0,-0.02580973975050348,0.0,174,0.009533166885375977,0.02978130144603176,0.028091829479420415,4305,-1.880689894999949,0.0
33,1.3879947662353516,-1.4302147460310684,0.8738495131242682,0.08205630921208165,-1.9918905425662792,0.0,0.15283284189277446,0.1,0.0029752254486083984,0.06237220764160156,0.050777305,1.1508683,-1.838333442590162,0.0,-0.02533315005308124,0.0,230,0.022429704666137695,0.4807565632780468,0.4355555357977727,4535,-1.8981295311174768,0.0
34,1.3376643657684326,-1.9299255284998136,0.024437570131031698,-1.8957309409730403,-1.9578569005693696,0.0,0.14963001796840064,0.1,0.0030393600463867188,0.05437612533569336,0.049479023,1.3149405,-1.8474926511811274,0.0,-0.02532901447662344,0.0,217,0.013185977935791016,0.031276169590464475,0.03898188412935558,4752,-1.8921299015680895,0.0
35,1.3760838508605957,-1.4144691642495362,0.8597884474572429,0.07093749594845655,-1.9599454730724442,0.0,0.14917780250595697,0.1,0.0027620792388916016,0.0728294849395752,0.048907887,0.99662703,-1.8041903024879684,0.0,-0.02512308136070504,0.0,204,0.013770341873168945,0.44848432250776865,0.4190260962558543,4956,-1.8960889358955368,0.0
36,1.2933528423309326,-1.9422889843104023,0.029179427002335768,-1.9002361485675479,-1.9826749728655713,0.0,0.12447299050494563,0.1,0.0030624866485595703,0.07043933868408203,0.050012972,1.2142578,-1.8180001706702118,0.0,-0.02549357054424227,0.0,172,0.010815620422363281,0.06531970997549948,0.07028518394753576,5128,-1.8805247527442182,0.0
37,1.4267613887786865,-1.9400931051550112,0.027376607996304883,-1.9029314564013367,-1.9740650236394723,0.0,0.13381212112081656,0.1,0.002736330032348633,0.05288505554199219,0.04993464,0.9415981,-1.830209464118692,0.0,-0.025464768816612346,0.0,181,0.010230541229248047,0.07716850892063423,0.07287439101510745,5309,-1.873417981780336,0.0
38,1.4355216026306152,-1.421755010819579,0.870283832770782,0.08495389301618701,-1.9616816321786634,0.0,0.17154192889342854,0.1,0.0029418468475341797,0.055283308029174805,0.049119774,0.83188605,-1.7893640187887807,0.0,-0.025220205270911365,0.0,275,0.017286062240600586,0.2954506865270924,0.2894672701394107,5584,-1.8686113911197744,0.0
39,1.4661312103271484,-1.8953043995346825,0.07225684503387807,-1.7714738748985863,-1.9466814086382267,0.0,0.15055729836172832,0.1,0.0027642250061035156,0.05323195457458496,0.049592406,0.80280846,-1.799958056863371,0.0,-0.024867092635437033,0.0,215,0.025220870971679688,0.05926547998292955,0.04703809936073262,5799,-1.8786493873969985,0.0
40,1.385803461074829,-1.926693803478255,0.038298306128091986,-1.8766946339842758,-1.974589824020936,0.0,0.13963674374309976,0.1,0.0027458667755126953,0.05326271057128906,0.048901338,18.811487,-1.8126316315248594,0.0,-0.025286084693569844,0.0,216,0.01317739486694336,0.04683657652457397,0.02038361437306723,6015,-1.8969103710771875,0.0
41,1.4271245002746582,-1.9344614249037557,0.06533895717875945,-1.8283842135710502,-1.9938779871164736,0.0,0.14020428899776416,0.1,0.00283050537109375,0.08707213401794434,0.05008071,0.6281441,-1.824814610862749,0.0,-0.025389425062093997,0.0,202,0.015604972839355469,0.021592093682716983,0.015962693513444964,6217,-1.8867875261463114,0.0
42,1.4577267169952393,-1.8894687851090155,0.10704834102707808,-1.705865953267504,-1.9721579778759117,0.0,0.15939261678630604,0.1,0.0028734207153320312,0.07212400436401367,0.050651155,0.78184223,-1.8312800282873758,0.0,-0.024789591617046053,0.0,242,0.013580799102783203,0.023614682845250746,0.028431906281125137,6459,-1.867131461920543,0.0
43,1.4388399124145508,-1.3505973410913714,0.9501084379711991,0.294670858395767,-1.9318236590373616,0.0,0.17178886239523866,0.1,0.006870746612548828,0.05521059036254883,0.049581792,0.93662953,-1.7832117595677752,0.0,-0.024282744266345906,0.0,264,0.017290592193603516,0.5752824823191315,0.41435777803840523,6723,-1.8657051816783676,0.0
44,1.5320427417755127,-1.4229466617199087,0.8719639324092202,0.08707041867975837,-1.95251803276525,0.0,0.1639454258864493,0.1,0.0027680397033691406,0.06997323036193848,0.05093684,1.1667182,-1.7471852497829885,0.0,-0.02523673253598465,0.0,262,0.017821788787841797,0.3540489061082025,0.31901330677604833,6985,-1.8446882266077118,0.0
45,1.4705700874328613,-1.4284140812342236,0.9210655925124733,0.16639769797165266,-1.9891961258064357,0.0,0.15083961850207717,0.1,0.0026788711547851562,0.05548214912414551,0.05023108,0.889278,-1.7153081329281121,0.0,-0.025310758540671014,0.0,196,0.013170957565307617,0.43521395350818703,0.43365363448446814,7181,-1.841478366660426,0.0
46,1.4755032062530518,-1.9551511380865263,0.042165156822704566,-1.8834991792336222,-1.9904267093640053,0.0,0.13258127523572694,0.1,0.00410771369934082,0.06844115257263184,0.050243445,0.8909633,-1.7392924334439535,0.0,-0.025665145277845837,0.0,186,0.018867015838623047,0.1993291233590484,0.20465409743808807,7367,-1.823511565258088,0.0
47,1.4900879859924316,-1.9247187644743864,0.034531795942801424,-1.8930286495744446,-1.9826031688323777,0.0,0.14618628921044446,0.1,0.002972841262817383,0.08891510963439941,0.0497295,0.76606953,-1.7578350665469968,0.0,-0.02526014340608015,0.0,225,0.013646364212036133,0.1918152551448007,0.1435074665977456,7592,-1.8222541926400229,0.0
48,1.4802985191345215,-1.4097104926889967,0.875161899375876,0.1054789868023046,-1.9404872195223,0.0,0.17314952194962147,0.1,0.0029566287994384766,0.06999468803405762,0.05012393,0.65504587,-1.7230226091611969,0.0,-0.025064219973142392,0.0,272,0.017333030700683594,0.31130714434614826,0.30367037852157763,7864,-1.811072513995733,0.0
49,1.3831324577331543,-1.8912398718113757,0.04142581074396114,-1.8355339023497195,-1.941325587629349,0.0,0.15342394252088618,0.1,0.0030028820037841797,0.054596662521362305,0.049787454,0.8691589,-1.739844335426215,0.0,-0.024813071955938674,0.0,229,0.014773845672607422,0.07739413634870933,0.03720491671666563,8093,-1.815913278459704,0.0
50,1.4602742195129395,-1.4234047337997153,0.8829309284816379,0.10517546666190325,-1.9726661378786052,0.0,0.15521765531375795,0.1,0.0029959678649902344,0.05723834037780762,0.05043915,0.88576066,-1.708200375263565,0.0,-0.025242386764900364,0.0,239,0.013586044311523438,0.35497297559106195,0.3767419630633757,8332,0.1878828764389263,0.0
51,1.4807415008544922,-1.365034343706636,0.8847748247020814,0.16600330165845878,-1.9352643366944284,0.0,0.15982477070504233,0.1,0.002996683120727539,0.09027743339538574,0.04970717,1.0657936,-1.6738837721078723,0.0,-0.024468772228501516,0.0,240,0.013665199279785156,0.41101756070624745,0.38344755793823815,8572,0.21244231038513076,0.0
52,1.436263084411621,-1.40552656956325,0.863213628855833,0.08815767071936377,-1.9626489965886782,0.0,0.15732342914053746,0.1,0.0027992725372314453,0.06951212882995605,0.04900477,1.0257144,-1.64704805185341,0.0,-0.025003548601852284,0.0,220,0.02755284309387207,0.4302168717838423,0.38101713635704326,8792,-1.8367314305936093,0.0
53,1.683394432067871,-1.4129519466486111,0.8622844333265328,0.07981110810252773,-1.935233801126855,0.0,0.16984834712588162,0.1,0.002937793731689453,0.05897665023803711,0.05101058,1.0038353,-1.6236384413329301,0.0,-0.025107489193529137,0.0,285,0.017159223556518555,0.2824244284213414,0.2846302002385695,9077,0.19069623047564435,0.0
54,1.4266033172607422,-0.9082222987480837,1.042362930798903,0.1446028577455647,-1.962329163470839,0.0,0.1716722733940452,0.1,0.002870321273803711,0.059357404708862305,0.049483366,0.7033295,-1.5520968270744455,0.0,-0.025041658547776225,0.0,274,0.02038431167602539,0.6884954816771002,0.5985666701589697,9351,-1.8028498523232546,0.0
55,1.4377799034118652,-1.2864507219525558,0.9512830024652928,0.36004014850346533,-1.8699536325952089,0.0,0.17971077932519164,0.1,0.011556625366210938,0.07305550575256348,0.04947576,0.651121,-1.5255322165622567,0.0,-0.02341734868348791,0.0,274,0.018772125244140625,0.37063894252116947,0.3865343346975587,9625,0.20413583186019468,0.0
56,1.467322826385498,-0.450982653163827,0.8697459544074528,0.06586608381142449,-1.9573448424546438,0.0,0.16346911307672632,0.1,0.0029144287109375,0.06952810287475586,0.049906604,0.522329,-1.4180772602224139,0.0,-0.025613062042032186,0.0,260,0.025725364685058594,1.7579233807633685,1.4484449383322358,9885,-1.8392010437389288,0.0
57,1.4574790000915527,-1.3886968574631604,0.8653536111643448,0.10737279775172698,-1.93053123369513,0.0,0.1751187591500578,0.1,0.0029687881469726562,0.05565214157104492,0.049465634,0.7626587,-1.4151392199464885,0.0,-0.024779420249044108,0.0,245,0.013785362243652344,0.41231115283156244,0.43237459075254203,10130,0.22247454187470694,0.0
58,1.5948872566223145,-1.4254321400406162,0.8901749427704823,0.11618259191216353,-1.963454358544485,0.0,0.16896775331604907,0.1,0.002936840057373047,0.0560908317565918,0.051029816,0.6867629,-1.4161685119559013,0.0,-0.025270276165238355,0.0,256,0.01836109161376953,0.4440427778823754,0.405094797480264,10386,0.21511250599729856,0.0
59,1.4972553253173828,-1.418706465537333,0.9327871166471691,0.19673554227698975,-1.9780561316554228,0.0,0.15875366558273743,0.1,0.0027704238891601562,0.05405759811401367,0.049103893,0.8288827,-1.4164223073140445,0.0,-0.025179421075409613,0.0,228,0.021725893020629883,0.422370418663693,0.3808361356689022,10614,0.21879941934250033,0.0
60,1.4930906295776367,-1.421228122896947,0.8737146237586804,0.09147564657636757,-1.9512741749356808,0.0,0.1468910359135926,0.1,0.003000020980834961,0.05349564552307129,0.05063097,1.1082025,-1.4169028888723347,0.0,-0.02521368816150039,0.0,220,0.01431894302368164,0.3962785318809587,0.37045837059754155,10834,0.18711452545808274,0.0
61,1.4936199188232422,-1.3495971177268042,0.8963215232194709,0.20033364395007314,-1.9481901086704756,0.0,0.17821330704564486,0.1,0.0029439926147460938,0.05741095542907715,0.05018399,0.57986724,-1.4101723117577818,0.0,-0.024260215728695318,0.0,277,0.024396657943725586,0.33170593163827194,0.31781648288227504,11111,0.35846569917118104,0.0
62,1.5773389339447021,-0.8491096329982737,0.9840270507804479,0.1421049052350699,-1.8865102266396578,0.0,0.1572399054196597,0.1,0.0028171539306640625,0.05891919136047363,0.049905326,0.7794004,-1.3540660438818308,0.0,-0.024287148374018797,0.0,291,0.0168454647064209,0.6278826982026656,0.6032824834314148,11402,0.3016218653126544,0.0
63,1.5273966789245605,-0.4162613400271554,0.8852106149208938,0.12223587175391158,-1.9489770549260863,0.0,0.1586133871973176,0.1,0.0028409957885742188,0.054975032806396484,0.050395064,0.48724815,-1.2602855734963634,0.0,-0.025151832585247943,0.0,271,0.01719498634338379,2.3686923784274856,1.4278766568152752,11673,0.3717009520013574,0.0
64,1.460587501525879,-0.37652712738270927,0.8742604391072082,0.18408769929720548,-1.8895016156922693,0.0,0.18556439449658588,0.1,0.003062009811401367,0.07220864295959473,0.049927976,0.4406622,-1.171909728884998,0.0,-0.024629487646991355,0.0,284,0.017984867095947266,1.3068555293472337,0.9182989704150288,11957,0.24995840338019978,0.0
65,1.5944325923919678,-0.34689856115033535,0.836700570922555,0.18909254297331374,-1.7949797568480355,0.0,0.17140776832225213,0.1,0.002982616424560547,0.05706501007080078,0.049930334,0.42552257,-1.0894086121115318,0.0,-0.024224724078469772,0.0,272,0.01935577392578125,1.0163336214779204,0.8949194204683615,12229,0.25402420738491494,0.0
66,1.4898560047149658,-0.37085530667308075,0.8517146368784851,0.16409477360281186,-1.845148437141141,0.0,0.18064643195607086,0.1,0.0029964447021484375,0.05770540237426758,0.05112014,0.33404252,-1.0175532815676867,0.0,-0.024543216585974373,0.0,292,0.0266873836517334,0.8351083757646371,0.8334505387446131,12521,0.2525736217354625,0.0
67,1.4886224269866943,-0.3159813061233664,0.9181948221368909,0.24262784322152797,-1.905954801242341,0.0,0.17283794675346004,0.1,0.003027677536010742,0.0567624568939209,0.050247494,0.35539353,-0.9473960840232546,0.0,-0.023815870863150037,0.0,289,0.03672313690185547,0.8507619226906442,0.8564099350053264,12810,0.24178907043654027,0.0
68,1.5223503112792969,-0.8538738945885171,1.0439965771433928,0.20389313362194858,-1.900347361698305,0.0,0.1818251151619212,0.1,0.0030503273010253906,0.0750422477722168,0.05012437,0.47918865,-0.9380438650797809,0.0,-0.02431596248737558,0.0,287,0.01720738410949707,0.770450177618886,0.7576129616627121,13097,0.2192477231723864,0.0
69,1.5288701057434082,-0.9048950797701589,1.029059028098415,0.1701666595235915,-1.960844977971837,0.0,0.16351508737563308,0.1,0.0029087066650390625,0.05591940879821777,0.050498832,0.47207198,-0.9347289865488188,0.0,-0.025000755819161228,0.0,281,0.017361164093017578,0.7588770145694972,0.7214027053304207,13378,0.2591440957549405,0.0
70,1.479581594467163,-0.8588819028219565,1.073972393517519,0.29581508914670973,-1.9756282487350214,0.0,0.15323466817774492,0.1,0.002933025360107422,0.05706357955932617,0.049843863,0.51399136,-0.9271442781761325,0.0,-0.024382354391991688,0.0,239,0.013739824295043945,0.7616043325173267,0.7389065679303572,13617,0.22305711617095123,0.0
71,1.5348718166351318,-0.34117061500739243,0.8200173312510625,0.17435320398444865,-1.760724843179344,0.0,0.18523898592298807,0.1,0.0029828548431396484,0.0702977180480957,0.050502986,0.31747237,-0.8685469118592586,0.0,-0.0241478446823343,0.0,299,0.017456769943237305,0.8271554126595082,0.8345930381650214,13916,0.2516108791669734,0.0
72,1.527885913848877,-0.2756617944941772,0.9540332222955642,0.3741550895888327,-1.9241505261711354,0.0,0.17101163273031977,0.1,0.0029096603393554688,0.06725621223449707,0.04960799,0.35645732,-0.8092584001227505,0.0,-0.023278089499410674,0.0,283,0.017413616180419922,0.9524503782307061,0.9545422333506346,14199,0.270196075362371,0.0
73,1.547349452972412,-0.8343677260176967,0.9619910356989169,0.16073372469755884,-1.855373297814345,0.0,0.17157188617222058,0.1,0.002816438674926758,0.05558943748474121,0.05036162,0.48735058,-0.8117693327122453,0.0,-0.02405538520067034,0.0,284,0.017086029052734375,0.6409998123811564,0.6261642319906658,14483,0.2765383041108359,0.0
74,1.5734593868255615,0.20210165362975008,0.0826390977173381,0.28615839845374197,0.09959215334312338,0.0,0.17008578214460365,0.1,0.00295257568359375,0.0782015323638916,0.049848374,0.6211409,-0.7103822340780457,0.0,-0.0236253809959587,0.0,300,0.015779733657836914,18.285479275641492,16.856043969724528,14783,0.24164796157897253,0.0
75,1.598127841949463,-0.3640742332586749,0.8528159143247362,0.14837554415176957,-1.8410403888249531,0.0,0.17929106376658285,0.1,0.0029320716857910156,0.056595563888549805,0.04940033,0.37950978,-0.6757514339961086,0.0,-0.024475828586749997,0.0,299,0.016454219818115234,0.8126652750282408,0.8082088610267885,15082,0.23802859097054407,0.0
76,1.6097793579101562,0.1581600412170741,0.07842265018210634,0.2750949113957756,0.07570092901183414,0.0,0.15859104847016167,0.1,0.0028705596923828125,0.07164311408996582,0.049917493,0.6192299,-0.5923602864747904,0.0,-0.024162490994764047,0.0,300,0.01746678352355957,21.99173321004467,17.045475283773616,15382,0.3257377265343498,0.0
77,1.6096434593200684,-0.3234031253165313,0.9710416317870084,0.4341023145532999,-1.9916010391657024,0.0,0.13836074330814796,0.1,0.0030090808868408203,0.05523324012756348,0.051275562,0.31379128,-0.5654645703589646,0.0,-0.023911425090368005,0.0,245,0.013240814208984375,1.155377147203651,1.1040167175849527,15627,0.3043489765860535,0.0
78,1.7646527290344238,0.2974433459724646,0.14172964468077048,0.45081772029999084,0.1372428206406733,0.0,0.16821174520605778,0.1,0.002962350845336914,0.06108570098876953,0.049039178,0.593928,-0.4791737787258217,0.0,-0.022350670885727147,0.0,300,0.03350639343261719,5.300737480601706,4.113421611499401,15927,0.26849347779161553,0.0
79,1.5167906284332275,-0.322125597316904,0.9235200107016314,0.2591702460574911,-1.9206297240080052,0.0,0.1870744843444561,0.1,0.0030143260955810547,0.07105755805969238,0.05066029,0.38084236,-0.4634689605849299,0.0,-0.023897104454039045,0.0,284,0.0175321102142334,0.871816558041061,0.880652231780457,16211,0.3300270081539493,0.0
80,1.5940852165222168,-1.3788275913642245,0.8513135881839144,0.09509993536280588,-1.891614018664701,0.0,0.1664948155855956,0.1,0.0029795169830322266,0.05782961845397949,0.05068046,0.5028182,-0.5550048236628594,0.0,-0.024648687722833226,0.0,280,0.02759718894958496,0.7857429691050474,0.7556076986651215,16491,0.2854227329470566,0.0
81,1.5580499172210693,-0.33694735681112464,0.8829171659872537,0.19831824390285194,-1.8654249232177464,0.0,0.17071290174440307,0.1,0.00299072265625,0.05845046043395996,0.050000105,0.35476863,-0.533199076977686,0.0,-0.02409430069687837,0.0,296,0.022803306579589844,0.8446481888995395,0.8255189327849759,16787,0.2919651684003936,0.0
82,1.5876514911651611,-0.3595943232036021,0.8932408145068296,0.15839518886103926,-1.9067304250528065,0.0,0.17743120326945894,0.1,0.002985239028930664,0.07242965698242188,0.049696393,0.35199937,-0.5158386016002776,0.0,-0.024412398735094855,0.0,295,0.020949602127075195,0.837692242417635,0.832701422166427,17082,0.3413631643911344,0.0
83,1.553114414215088,0.2329999669692037,0.12667778713373978,0.4515395275893771,0.14291217718213844,0.0,0.16330870777780332,0.1,0.0032448768615722656,0.05825972557067871,0.049431928,0.8065626,-0.4409547447433295,0.0,-0.023183116404631575,0.0,300,0.03372025489807129,8.509382661897694,7.873350999907053,17382,0.327596666924907,0.0
84,1.6776137351989746,0.44580723572563685,0.3430045904489071,0.9911150224423982,0.11451446340035114,0.0,0.16040389236766045,0.1,0.0029659271240234375,0.05690598487854004,0.049491268,1.0732,-0.3522785466964329,0.0,-0.020347313447243973,0.0,300,0.01712179183959961,2.7366133034257163,2.313095916894092,17682,0.3456885050822079,0.0
85,1.6462571620941162,0.2646895966195094,0.12444134060470285,0.4405111736376047,0.12611754531161487,0.0,0.15927718844276806,0.1,0.0030508041381835938,0.05754804611206055,0.0505511,0.5661755,-0.29058173236483864,0.0,-0.022771827832962232,0.0,300,0.017651081085205078,4.800169247116171,3.6328246878397317,17982,0.3162613217493661,0.0
86,1.6246085166931152,-0.3264319230100172,0.7868084129150725,0.17132197505215455,-1.688182383892983,0.0,0.17702618390130367,0.1,0.0030417442321777344,0.05717897415161133,0.050872084,0.33326644,-0.2941667514293565,0.0,-0.02397235229030341,0.0,286,0.0200197696685791,0.8473334050205292,0.8608038567816318,18268,0.2582607910852936,0.0
87,1.7069873809814453,0.23112281168082338,0.08552441543177594,0.30997102841637253,0.08737681393577557,0.0,0.15611562827230277,0.1,0.0028939247131347656,0.05724620819091797,0.05029934,0.7580198,-0.2416377951183385,0.0,-0.02333948889407042,0.0,300,0.017194747924804688,3.917358264176252,3.4337932420758284,18568,0.30931633096343697,0.0
88,1.611419916152954,-0.2822620731636143,0.9483493965883556,0.3565161344992285,-1.9173871214485718,0.0,0.1497048105350946,0.1,0.002938508987426758,0.07421541213989258,0.049729362,0.36421072,-0.24570022292286609,0.0,-0.023454715241490155,0.0,286,0.027692317962646484,0.9207710389103219,0.9239708390514683,18854,0.3403789624383065,0.0
89,1.6362950801849365,0.29615641538244863,0.1440936236615004,0.48272170485857907,0.13993390282126808,0.0,0.15052712860473794,0.1,0.002965211868286133,0.056452035903930664,0.049709246,1.949213,-0.1915145590923346,0.0,-0.022382404282105146,0.0,300,0.028546810150146484,2.275743476179202,2.131742866738018,19154,0.32602843994728753,0.0
90,1.6476962566375732,0.276540443907807,0.16290177533685213,0.5549230510255397,0.15077175041531976,0.0,0.1625365600167155,0.1,0.002783536911010742,0.0725705623626709,0.04876398,1.6983291,-0.14470905879232046,0.0,-0.022620424064658688,0.0,300,0.01780557632446289,2.1557134559351474,1.8987356976404346,19454,0.33050095388631545,0.0
91,1.7144365310668945,0.14659651316216515,0.03386568282326733,0.19371322946584354,0.11411408414284378,0.0,0.15689594673193905,0.1,0.011929988861083984,0.06665420532226562,0.049550585,1.007577,-0.11557850159687189,0.0,-0.024341276319500938,0.0,300,0.016979694366455078,4.299437639617933,3.192865825341192,19754,0.32091121220498303,0.0
92,1.6015355587005615,-0.36081836601282086,0.935400530718757,0.19267263146079452,-1.9808801689059239,0.0,0.1633362377477838,0.1,0.003111600875854492,0.05644679069519043,0.050526813,0.31526288,-0.14010248803846678,0.0,-0.024419103945814976,0.0,252,0.024065256118774414,0.9756574229896396,0.9783781569377349,20006,0.28739103944506816,0.0
93,1.5601990222930908,0.24740640846378972,0.07320018436336302,0.3411799573146026,0.16288236425027472,0.0,0.16880223832206284,0.1,0.003221273422241211,0.058968305587768555,0.049328744,0.8316349,-0.10135159838824112,0.0,-0.023026788431065225,0.0,300,0.023169517517089844,1.729493357269149,1.428606976305687,20306,0.406149970961269,0.0
94,1.5643808841705322,0.20840826893765246,0.0888655874591604,0.3146959990232003,0.11783532743845583,0.0,0.16623084209733993,0.1,0.0031845569610595703,0.05746650695800781,0.050526764,1.0342286,-0.07037561165565176,0.0,-0.023522858909515904,0.0,300,0.01668095588684082,1.5415614786701604,1.1065024659036713,20606,0.2877380506607459,0.0
95,1.5772936344146729,-0.3528339675691507,0.8662097942756177,0.21894864596457747,-1.8506472698665724,0.0,0.17473024491010067,0.1,0.0029802322387695312,0.05732250213623047,0.049718697,0.34948096,-0.09862144724700167,0.0,-0.02434794685805844,0.0,299,0.016507387161254883,1.0013733107279197,0.9962691610056413,20905,0.47192540417577794,0.0
96,1.5959053039550781,0.1942310040762709,0.02338017735482063,0.21149928588183328,0.15394061327663813,0.0,0.15359180897525057,0.1,0.004220485687255859,0.07627320289611816,0.049603738,0.771945,-0.06933620211467442,0.0,-0.023716125243380536,0.0,300,0.022485017776489258,1.2250316228912244,1.3556419342356765,21205,0.2543014264024545,0.0
97,1.6463277339935303,0.15143879120330453,0.034571995366696064,0.20635697064395636,0.12000580851713043,0.0,0.16969164331114442,0.1,0.0030205249786376953,0.0706324577331543,0.05039204,0.76502335,-0.04725870278287653,0.0,-0.02426647925141342,0.0,300,0.017574548721313477,1.427388999611223,1.292373889327371,21505,0.3641309859504844,0.0
98,1.6053752899169922,0.44057116719100126,0.3498073121979358,1.0430007120373435,0.17898397213825715,0.0,0.16726497801789084,0.1,0.0030498504638671875,0.059159278869628906,0.050001856,0.95168203,0.0015242842145112498,0.0,-0.020561664772868075,0.0,300,0.017780542373657227,1.061786901596021,0.9742434165819195,21805,0.45020084197277854,0.0
99,1.6293635368347168,0.19000940898620672,0.06544561940095617,0.28023997580267596,0.09562531983704797,0.0,0.158994092605391,0.1,0.0031783580780029297,0.058916568756103516,0.04997725,1.4173259,0.020372796691680798,0.0,-0.023745165482260168,0.0,300,0.034061431884765625,0.8976926883597821,0.587397795939145,22105,0.46514385459752655,0.0
100,1.6144015789031982,0.4903332078485233,0.42761702430162174,1.2239986803398943,0.17952946386538798,0.0,0.1695814845550511,0.1,0.0029671192169189453,0.05918574333190918,0.04962358,1.2353616,0.06736883780736505,0.0,-0.02008210325601029,0.0,300,0.017152786254882812,0.910607191191172,0.8277902726440218,22405,0.32714607611929797,0.0
101,1.6213159561157227,0.3735570254486435,0.11725598186677652,0.5374920150449047,0.20912856798049032,0.0,0.15310540813573723,0.1,0.0030236244201660156,0.05735278129577637,0.050209373,1.5507752,0.0979876565714929,0.0,-0.02140490942741076,0.0,300,0.017110347747802734,0.6055661318455129,0.412864551187693,22705,0.47693848876383055,0.0
102,1.6634316444396973,0.21780481940188123,0.06532172984649982,0.3268483247611557,0.1559488264642312,0.0,0.1542742547603972,0.1,0.0029947757720947266,0.06100130081176758,0.050370965,1.0711676,0.10996937285453173,0.0,-0.023392622985781687,0.0,300,0.02451181411743164,0.4295094333990374,0.6258155463140103,23005,0.4665138010858605,0.0
103,1.6238763332366943,0.37854372534745695,0.12660523633845278,0.47734398611497586,0.16123636376515876,0.0,0.16763639055095103,0.1,0.0030221939086914062,0.05813789367675781,0.051136963,0.61523265,0.13682680810382425,0.0,-0.021342349943310697,0.0,300,0.01730656623840332,0.3123049684640781,0.26203612626681927,23305,0.3989450334696781,0.0
104,1.6268365383148193,0.30247709884124413,0.1234839137268129,0.4614920258974406,0.13674449723617876,0.0,0.1674438634294286,0.1,0.00296783447265625,0.06325221061706543,0.050555106,0.6038111,0.15339183717756624,0.0,-0.022409346026894233,0.0,300,0.01784539222717285,0.2722831462688837,0.27168586252127735,23605,0.4668733264081555,0.0
105,1.7489335536956787,0.3258886671594915,0.1127539411262998,0.507979775995877,0.2026080315867372,0.0,0.15152191163880713,0.1,0.002896547317504883,0.06094026565551758,0.050004277,0.7837616,0.1706415201757588,0.0,-0.022039563655599677,0.0,300,0.017072677612304688,0.33835204763787563,0.33684667436828486,23905,0.5765914281756909,0.0
106,1.6061298847198486,-0.35548318992026257,0.8540800581320444,0.15868053863457612,-1.8342863764658195,0.0,0.17446202759154844,0.1,0.003018617630004883,0.07198095321655273,0.050359644,0.35304323,0.11802904916615664,0.0,-0.024350733574981555,0.0,292,0.01696634292602539,1.2889435223352539,1.1681049240370207,24197,0.4773460057961518,0.0
107,1.6960067749023438,0.16035199734775113,0.08179349563989921,0.2881754627833472,0.062428956127142006,0.0,0.16338797523317994,0.1,0.0028295516967773438,0.07103753089904785,0.04964827,0.6754191,0.1222613439843161,0.0,-0.024185202217494425,0.0,300,0.017946243286132812,0.5046114834542643,0.39723079104847325,24497,0.5352407821838359,0.0
108,1.6328697204589844,0.35629263694617563,0.18002830236981812,0.6491339215412634,0.1982031612257672,0.0,0.16569235476616256,0.1,0.002911806106567383,0.07558274269104004,0.04985944,0.90568554,0.14566447328050205,0.0,-0.02160581443911922,0.0,300,0.01808929443359375,0.6402419238261333,0.7011740019797985,24797,0.5438884635315244,0.0
109,1.7433197498321533,0.2259694765533224,0.07197585925324963,0.33468390479374804,0.147649991502511,0.0,0.17155905143613787,0.1,0.004735231399536133,0.07021355628967285,0.050421085,0.59390026,0.15369497360778409,0.0,-0.023378572631713467,0.0,300,0.016994237899780273,0.448749052270749,0.4538990733095551,25097,0.5236604424638464,0.0
110,1.6889142990112305,0.27776080219600124,0.13272149753840773,0.4997627919295413,0.14863479870984747,0.0,0.1599789201822199,0.1,0.002877950668334961,0.05791473388671875,0.049935583,1.5572155,0.1661015564666058,0.0,-0.022586788157829163,0.0,300,0.01752495765686035,0.5917483973341889,0.5702682303237933,25397,0.5504450984717424,0.0
111,1.741776466369629,0.2544109556813015,0.03253360750619313,0.296018909181861,0.21126700638879153,0.0,0.15464100587245208,0.1,0.0035021305084228516,0.06631994247436523,0.049904287,0.7591368,0.17493249638807537,0.0,-0.022984474280917176,0.0,300,0.01729607582092285,0.39629191741418285,0.3480666597365891,25697,0.5300497326613245,0.0
112,1.6335742473602295,0.269175486612054,0.04574125891860031,0.3060342996758219,0.19287617548911143,0.0,0.1552314678311233,0.1,0.0031280517578125,0.0637807846069336,0.05020747,0.68182456,0.18435679541047326,0.0,-0.02270596888334652,0.0,300,0.017716646194458008,0.42759614173152444,0.38981955020688897,25997,0.47453840438691614,0.0
113,1.6582443714141846,0.2717855108634038,0.05523203612198101,0.314182459947753,0.1768390193699091,0.0,0.1588895634410769,0.1,0.0030829906463623047,0.08932828903198242,0.05106127,0.5879612,0.1930996669557663,0.0,-0.022675777952663432,0.0,300,0.017911434173583984,0.351285517967424,0.31365720432446653,26297,0.47054991956152065,0.0
114,1.701115608215332,0.2727940413520094,0.18700971754080484,0.5866607752515464,0.10246271479787313,0.0,0.1531428407720849,0.1,0.0030248165130615234,0.08486151695251465,0.049459632,1.1872703,0.2010691043953906,0.0,-0.022858507586860418,0.0,300,0.017701387405395508,0.5725871765248423,0.5467399379745712,26597,0.532005667391651,0.0
115,1.7047650814056396,0.23473231580023468,0.05512594881912579,0.31284582981981085,0.1626418694663556,0.0,0.15192504613602972,0.1,0.003089427947998047,0.06442070007324219,0.050119445,1.14358,0.20443542553587501,0.0,-0.02320267155307245,0.0,300,0.017987728118896484,0.2409193820149165,0.22395281232127848,26897,0.6440238641447564,0.0
116,1.791651725769043,0.2538749598672261,0.07556574037100772,0.3595577741137049,0.14620890504181563,0.0,0.15126576240065195,0.1,0.003022432327270508,0.0582888126373291,0.05015133,0.69716424,0.20937937896901013,0.0,-0.022920769101673646,0.0,300,0.01739978790283203,0.31906749161549197,0.30836929765270865,27197,0.5160629765481588,0.0
117,1.7595393657684326,0.3889370360349045,0.1684579867679493,0.6479875751677309,0.2012482183828246,0.0,0.1549540177235149,0.1,0.00293731689453125,0.05716204643249512,0.050177738,1.2592642,0.22733514467559957,0.0,-0.02114183458907813,0.0,300,0.01838541030883789,0.46667006037606684,0.4461509502158812,27497,0.40654347672501495,0.0
118,1.7178723812103271,0.44024426745336054,0.18927009033807515,0.764081291021694,0.2946114534503112,0.0,0.17046098870208706,0.1,0.007242918014526367,0.07636547088623047,0.050057974,0.7603297,0.24862605695337567,0.0,-0.02049948461676211,0.0,300,0.017579317092895508,0.4829959607312078,0.4424034482142373,27797,0.3987236966959163,0.0
119,1.6015911102294922,0.4273057134644456,0.27739836534152307,0.8924014117635821,0.19305770394458702,0.0,0.1647194511365824,0.1,0.003010272979736328,0.058832406997680664,0.049714018,1.0901675,0.2664940226044826,0.0,-0.020675941203436625,0.0,300,0.017688751220703125,0.5864300410046094,0.5436347690958566,28097,0.3797513673980308,0.0
120,1.819868803024292,0.5419288434820128,0.30513480085205963,0.9379130682602898,0.22666665183222903,0.0,0.15209643175562554,0.1,0.0045697689056396484,0.07036066055297852,0.04937332,1.0595312,0.29403750469223566,0.0,-0.01938170790757433,0.0,300,0.0175015926361084,0.5131190313400672,0.44532368614651086,28397,0.2386856059094763,0.0
121,1.6993541717529297,0.25644336333812207,0.08213200613779537,0.39257212463262187,0.18769314632117357,0.0,0.15686519114428038,0.1,0.0030100345611572266,0.057440757751464844,0.04972773,0.6640196,0.2902780905568243,0.0,-0.02290971524827348,0.0,300,0.018631935119628906,0.3884794328787704,0.4697829473556795,28697,0.27573539661078955,0.0
122,1.7360060214996338,0.3224599684940347,0.11073349276193083,0.4432319976949277,0.14172776310207116,0.0,0.1583488167448232,0.1,0.0028803348541259766,0.08036351203918457,0.050457258,0.60048693,0.29349627835054537,0.0,-0.022059890746311733,0.0,300,0.01889204978942871,0.2890742895547243,0.27996059198706724,28997,0.5515919537158059,0.0
123,1.7970733642578125,0.4407110387231711,0.14529264266961914,0.6619144377705325,0.2563569951570608,0.0,0.16454461702728385,0.1,0.0028994083404541016,0.05651235580444336,0.04930025,0.8590852,0.30821775438780796,0.0,-0.020572763447671515,0.0,300,0.017477750778198242,0.3152682542590639,0.30917810144186,29297,0.5510904141424888,0.0
124,1.7546563148498535,0.42196824228222185,0.14028870572542892,0.6374566447685571,0.2551997792532817,0.0,0.15433648280055937,0.1,0.0029718875885009766,0.08271479606628418,0.04977017,0.7248943,0.31959280317724936,0.0,-0.020684383909099498,0.0,300,0.033698081970214844,0.31209910751246145,0.3054982679523571,29597,0.3598784820808349,0.0
125,1.899580478668213,0.6033189911255928,0.16531294082149012,0.7854677413352552,0.33992047367848427,0.0,0.1589391984135179,0.1,0.00298309326171875,0.05954790115356445,0.049456652,0.8143218,0.3479654219720837,0.0,-0.018303502720036276,0.0,300,0.01767444610595703,0.31482798530905237,0.2760770722449565,29897,0.45367604134670686,0.0
126,1.8673841953277588,0.4187332318069206,0.11149851269400779,0.6010315564487141,0.3069421122887188,0.0,0.16531330417099088,0.1,0.0029065608978271484,0.05644035339355469,0.049532823,0.77419055,0.35504220295556743,0.0,-0.020792452751756122,0.0,300,0.01844644546508789,0.14331792921271794,0.14681336062550127,30197,0.45101037870930316,0.0
127,1.7092390060424805,0.5030792162889683,0.4106275681232231,1.2113416339039078,0.20703909084559913,0.0,0.1520404258654082,0.1,0.003117084503173828,0.07777547836303711,0.04958001,2.1248958,0.36984590428890757,0.0,-0.0195897804849398,0.0,300,0.019396066665649414,0.5538628420070824,0.5377003398003148,30497,0.490118635276467,0.0
128,1.6794800758361816,0.35838443987511037,0.10524418123494231,0.48854816573798354,0.21559215591695327,0.0,0.15140361135610536,0.1,0.0030057430267333984,0.05990338325500488,0.050146867,0.9322456,0.36869975784752784,0.0,-0.02152676821720611,0.0,300,0.016790151596069336,0.7152676172261819,0.5654620256735642,30797,0.4507845752832242,0.0
129,1.7079954147338867,-0.6564309830517172,0.9549974091830048,0.35931217281899136,-1.6565435800554718,0.0,0.14969477253011224,0.1,0.0031592845916748047,0.05930519104003906,0.049794838,0.47761142,0.26618668375760335,0.0,-0.021730876154297606,0.0,294,0.017311573028564453,1.3246097746487944,1.1588910792262455,31091,0.6474771899589078,0.0
130,1.7390403747558594,0.5497492822310215,0.21751999825403673,0.8243810780903204,0.22885031434429395,0.0,0.15991429742356986,0.1,0.0031595230102539062,0.07172846794128418,0.05005193,0.72096854,0.29454294360494515,0.0,-0.019091110280937316,0.0,300,0.019422054290771484,0.4645885139196781,0.660452616560671,31391,0.7774725677374873,0.0
131,1.7068040370941162,-0.16959784601840416,0.8341955545656504,0.352326007319764,-1.6126763613058337,0.0,0.16654057719460527,0.1,0.003147602081298828,0.07160210609436035,0.04979453,0.34602436,0.24812886464261022,0.0,-0.021910178022679756,0.0,289,0.017196178436279297,1.0697037814420278,1.0379235097797537,31680,0.4300502261467452,0.0
132,1.7364354133605957,0.32513288990331773,0.06260153405647326,0.4007556669860401,0.22901173243352074,0.0,0.14612886649735743,0.1,0.003043651580810547,0.05847287178039551,0.050292376,0.7784982,0.255829267168681,0.0,-0.022010124678435633,0.0,300,0.017381906509399414,0.6004364051242956,0.7177687447010336,31980,1.0468228242999393,0.0
133,1.693457841873169,0.5140116894100286,0.12304454945498172,0.6333299561928629,0.31061606675423237,0.0,0.1631676205747665,0.1,0.0029764175415039062,0.07268905639648438,0.049650107,0.6807903,0.28164750939281574,0.0,-0.019551371246629087,0.0,300,0.017261266708374023,0.8362942450344744,0.8217541563053603,32280,0.27914359294944846,0.0
134,1.859651803970337,0.6266317128760048,0.3814053540818094,1.0803781389324543,0.2226149618066075,0.0,0.15588024817686216,0.1,0.0030035972595214844,0.0755012035369873,0.04940624,2.9317663,0.31614592974113465,0.0,-0.01800747782902204,0.0,300,0.018397808074951172,0.8973561533733774,0.8588802289515592,32580,1.2949943422749541,0.0
135,1.7223429679870605,0.3628087760525799,0.03764239958596834,0.4105679019984907,0.3182431316482634,0.0,0.14493661395752078,0.1,0.0031347274780273438,0.07456779479980469,0.050123263,0.6018873,0.3208122143722792,0.0,-0.02153214956683547,0.0,300,0.017493247985839844,0.6123542847718364,0.49781220067102105,32880,0.4728682487595072,0.0
136,1.7847049236297607,0.32557506082990995,0.06248967875132483,0.3919505314492938,0.23033014849381073,0.0,0.16119063005589418,0.1,0.0029845237731933594,0.05857396125793457,0.049580086,0.6600264,0.3212884990180423,0.0,-0.02201062785950908,0.0,300,0.017279863357543945,0.48090810512971266,0.335872829535,33180,0.33954288063310906,0.0
137,1.7013483047485352,0.3586529894741815,0.09809590476731145,0.44590305513909734,0.19434838542900137,0.0,0.14647179187336,0.1,0.0029783248901367188,0.07488417625427246,0.049793623,0.7377349,0.3250249480636562,0.0,-0.02152774420643351,0.0,300,0.0166323184967041,0.4295639701898928,0.3064698993280033,33480,0.5912974864998947,0.0
138,1.801988124847412,0.2685476703097106,0.07257897879292029,0.3735193942159371,0.1728742504114199,0.0,0.14986163324198196,0.1,0.0029096603393554688,0.05628657341003418,0.049582183,0.7132079,0.31937722028826165,0.0,-0.02275038113080277,0.0,300,0.03308582305908203,0.3276968992617158,0.3520144560110508,33780,0.44000928326321825,0.0
139,1.8134419918060303,0.7082252689521162,0.4735141756705472,1.477639498110612,0.3086651990864216,0.0,0.15119163921309875,0.1,0.0030243396759033203,0.07663917541503906,0.050034106,2.299548,0.3582620251546471,0.0,-0.016952975968826497,0.0,300,0.028787851333618164,0.674742751898185,0.5991579512483542,34080,0.7806770652353064,0.0
140,1.8114287853240967,0.5889170547741694,0.30749773146281945,0.9301032117628373,0.23088875115160018,0.0,0.16736466178881187,0.1,0.0030851364135742188,0.05733895301818848,0.0503401,0.7190409,0.38132752811659937,0.0,-0.018499700490488304,0.0,300,0.017750978469848633,0.42384547965181707,0.366174693672627,34380,0.6287413845824864,0.0
141,1.8132262229919434,0.4023374366361584,0.19921279229419958,0.679551800878442,0.12707983321455155,0.0,0.1550201542158742,0.1,0.003121614456176758,0.0747520923614502,0.049609363,0.759516,0.38342851896855523,0.0,-0.020953498102611146,0.0,300,0.022500038146972656,0.4978134576693916,0.5452514597224714,34680,0.5244786687491293,0.0
142,1.7985413074493408,0.5575720721522383,0.1922770559223948,0.8644287666008462,0.3840955368146752,0.0,0.16056753669947943,0.1,0.0033195018768310547,0.07193756103515625,0.050150525,0.5728094,0.40084287428692356,0.0,-0.018962063585088947,0.0,300,0.017199039459228516,0.26180317328574754,0.2529710753219582,34980,0.5081685532928795,0.0
143,1.7436935901641846,0.4146546997372331,0.12769869116823004,0.6063618103525082,0.28677833061539537,0.0,0.15194256425068875,0.1,0.0034182071685791016,0.059610843658447266,0.050009307,0.7119076,0.4022240568319545,0.0,-0.02084704069771104,0.0,300,0.01764369010925293,0.2428125751937952,0.2024133430680496,35280,0.650828295650922,0.0
144,1.7843976020812988,0.6609121321701459,0.2751131664526197,1.0137153894908957,0.37487359793074954,0.0,0.15082760801683204,0.1,0.003126382827758789,0.05767989158630371,0.049818393,1.0477368,0.42809286436577365,0.0,-0.01746588361946706,0.0,300,0.017372608184814453,0.3750567862229536,0.3702210471675006,35580,0.6390572012733174,0.0
145,1.7781672477722168,0.8180235562770892,0.4553335160224656,1.3608842977869546,0.3438434479664942,0.0,0.1592317552850142,0.1,0.0031833648681640625,0.07738184928894043,0.05045196,0.76565117,0.46708593355690525,0.0,-0.015540324322569599,0.0,300,0.01717662811279297,0.4325337284528962,0.39487509063634174,35880,0.6075607571368433,0.0
146,1.7475330829620361,0.4132787909834514,0.20704742977387278,0.7167014355686664,0.1858110158373246,0.0,0.14624802296856954,0.1,0.0030014514923095703,0.057264089584350586,0.050036203,1.0850145,0.4617052192995599,0.0,-0.020773699650236364,0.0,300,0.02378058433532715,0.4293719711778892,0.4431137044800408,36180,0.6788031019574593,0.0
147,1.8654327392578125,0.6395209172403207,0.2645327222740078,0.9175301405026057,0.2375194337735485,0.0,0.15855165411372166,0.1,0.0030891895294189453,0.06096315383911133,0.05032999,0.8046066,0.47948678909363596,0.0,-0.017820879942994656,0.0,300,0.0301816463470459,0.2897098895031516,0.2827351648310589,36480,0.7044135594501532,0.0
148,1.826136827468872,0.3592068871423238,0.14411478026916066,0.5444205902348801,0.14298586253486864,0.0,0.16544112312565643,0.1,0.003010988235473633,0.05990409851074219,0.050206434,0.5995896,0.4674587988985047,0.0,-0.02151052112789675,0.0,300,0.016999244689941406,0.5834350788001414,0.4402946591210727,36780,0.6744574004340252,0.0
149,1.8025834560394287,0.7863870686152288,0.4305832627711641,1.379179211570225,0.17088275189163155,0.0,0.1544597242116973,0.1,0.0029959678649902344,0.057050466537475586,0.050362576,0.9054891,0.4993516258701771,0.0,-0.015815701206531654,0.0,300,0.017206430435180664,0.43023703178038264,0.4222977397947624,37080,0.7469918757529079,0.0
150,1.795454502105713,0.5307935274091031,0.0973021510674379,0.6943998224123915,0.4383890014684635,0.0,0.15030335471348544,0.1,0.0029969215393066406,0.05714082717895508,0.04998808,0.86692524,0.5024958160240698,0.0,-0.019269422004561693,0.0,300,0.016852378845214844,0.2100303785238828,0.21092782913419242,37380,1.2636245496043341,0.0
151,1.818028450012207,0.6494615719810395,0.3681484790891242,1.2543605283371497,0.2604048091298383,0.0,0.1705034817528699,0.1,0.0030748844146728516,0.086456298828125,0.04993583,0.7486307,0.5171923916197668,0.0,-0.017736001442640942,0.0,300,0.017571449279785156,0.35198245655499905,0.33461736529971453,37680,0.7020718165157183,0.0
152,1.787501335144043,0.6243651621304009,0.14737619240193475,0.8634036074219272,0.4734907190115022,0.0,0.1530942085055702,0.1,0.0031299591064453125,0.057947635650634766,0.049585484,0.7865185,0.5279096686708302,0.0,-0.0180927462042737,0.0,300,0.025069713592529297,0.13666453751901772,0.1189209013242584,37980,0.6481122110846211,0.0
153,1.871131420135498,0.07442871599317824,1.110822198473697,1.062698529492697,-1.8113528137483428,0.0,0.15919784540172743,0.1,0.0030956268310546875,0.05826568603515625,0.04977639,0.36603126,0.48256157340306505,0.0,-0.01865305206189544,0.0,285,0.017977237701416016,1.219809187070388,1.1366947231559816,38265,0.6421596469254393,0.0
154,1.8348631858825684,0.4357422178263272,0.28917901644730454,0.9229744186894179,0.17548359335136904,0.0,0.15998015505987612,0.1,0.011430978775024414,0.06816601753234863,0.049774114,1.004899,0.4778796378453913,0.0,-0.02051570471317197,0.0,300,0.019474029541015625,0.4518961863088109,0.4171386898602068,38565,0.6239308467111594,0.0
155,1.7967720031738281,1.0663227575957548,0.43698112025744984,1.6793767195633984,0.5805511803303559,0.0,0.1571183550573788,0.1,0.0029065608978271484,0.0863637924194336,0.0500202,1.1207092,0.5367239498204276,0.0,-0.012134288746065917,0.0,300,0.017108678817749023,0.5797169553781671,0.5622118817996915,38865,1.258503775961097,0.0
156,1.8038318157196045,0.5191923140792866,0.21297462885963217,0.8203055714777404,0.2243806315384293,0.0,0.15809324778392458,0.1,0.0037565231323242188,0.07950139045715332,0.050114173,0.72638035,0.5349707862463136,0.0,-0.019412802927043317,0.0,300,0.020592689514160156,0.25828456965257046,0.23691044167881056,39165,0.6015216030638185,0.0
157,1.7882177829742432,0.5727185392554711,0.2619426005692744,1.0218887589109982,0.3814646837288208,0.0,0.15899875474213096,0.1,0.0029654502868652344,0.056452274322509766,0.050159175,0.97303903,0.5387455615472293,0.0,-0.018734850169788375,0.0,300,0.017396926879882812,0.2873434020470456,0.26153894039907355,39465,0.7484429373267499,0.0
158,1.9002106189727783,0.7495743104558186,0.18810093190152255,0.9382880199323912,0.47372545299493907,0.0,0.1576900942176068,0.1,0.002958536148071289,0.05652117729187012,0.050707854,0.69449735,0.5598284364380882,0.0,-0.01640617822498043,0.0,300,0.017746686935424805,0.22288233179305775,0.1823897125724208,39765,0.6910750204976986,0.0
159,1.8318157196044922,0.5689540802294294,0.09738353125584487,0.7322487738627488,0.4823234120687344,0.0,0.14976848489062297,0.1,0.0030562877655029297,0.060158491134643555,0.049618386,0.6771424,0.5607410008172223,0.0,-0.018804176717692155,0.0,300,0.016949892044067383,0.1262506262568446,0.1351389420737014,40065,0.6866945736082101,0.0
160,1.7913146018981934,0.8150474032949326,0.20195187456813035,1.0732693524162518,0.5681966075436495,0.0,0.15503322110392162,0.1,0.003320932388305664,0.05884408950805664,0.050117943,0.8232708,0.5861716410649934,0.0,-0.015450053895333923,0.0,300,0.017279386520385742,0.1943600116110189,0.1782376643918997,40365,0.7644015181572771,0.0
161,1.819631576538086,0.8697962719273985,0.2800143302138405,1.174475859537416,0.4126320826822469,0.0,0.14620752163015913,0.1,0.011278867721557617,0.062294960021972656,0.05031613,1.6924835,0.614534104151234,0.0,-0.014714759390381206,0.0,300,0.01714777946472168,0.3011872098794938,0.28080577034173154,40665,0.694130853932064,0.0
162,1.7755584716796875,0.4881183814643263,0.14203334535226844,0.683025362849511,0.3394401912232484,0.0,0.1485189451305831,0.1,0.0031778812408447266,0.05767202377319336,0.05003095,0.75678563,0.6018925318825432,0.0,-0.019838456048585137,0.0,300,0.017613649368286133,0.46185974772500404,0.38954980197990635,40965,0.6761969512296372,0.0
163,1.8227019309997559,0.4831597033691391,0.0969034787516763,0.5688918700056769,0.3221655736205422,0.0,0.1513786860400486,0.1,0.0031957626342773438,0.06037330627441406,0.0506101,0.6486141,0.5900192490312028,0.0,-0.019915295376903123,0.0,300,0.017786264419555664,0.373468863654158,0.20504048374967132,41265,1.312475339174752,0.0
164,1.7915265560150146,0.8953073519968806,0.3615195305726136,1.27625838857216,0.4085796933266449,0.0,0.15698670788956626,0.1,0.0029680728912353516,0.07708477973937988,0.04938945,1.4137098,0.6205480593277706,0.0,-0.014474063897906363,0.0,300,0.033306121826171875,0.3508925934458614,0.3568600580398977,41565,1.3184467697465798,0.0
165,1.836371660232544,0.6241175740775298,0.23647866598381626,0.9986121318606593,0.34437837600189225,0.0,0.15073917228131217,0.1,0.0029554367065429688,0.06282639503479004,0.05099883,0.8314508,0.6209050108027465,0.0,-0.01810131035966135,0.0,300,0.017496347427368164,0.1664189342058465,0.1611281512714989,41865,0.654141538050424,0.0
166,1.8820815086364746,0.6920819248517196,0.24417313052993064,1.0137465177033844,0.32607723269699324,0.0,0.15773393941586258,0.1,0.003022432327270508,0.05813097953796387,0.04969906,0.73420125,0.6280227022076439,0.0,-0.017185734580691326,0.0,300,0.01753544807434082,0.16968118113000952,0.16011175775515937,42165,0.7838829939726507,0.0
167,1.8197646141052246,0.7289656994111394,0.06777279521141716,0.8007484437689122,0.6550892810368857,0.0,0.16011811895343536,0.1,0.0029594898223876953,0.0584714412689209,0.05030675,0.8801497,0.6381170019279935,0.0,-0.016662051302311857,0.0,300,0.017468690872192383,0.1529362377941433,0.13360067308853024,42465,0.7800257702269627,0.0
168,1.9124174118041992,0.4814265810447126,0.031626345400976474,0.5335546105933562,0.4516272881034002,0.0,0.15552834059570028,0.1,0.0031592845916748047,0.05825662612915039,0.0494967,0.6251791,0.6224479598396654,0.0,-0.019966602019461464,0.0,300,0.017006635665893555,0.30108706736407914,0.25547097851614636,42765,0.7209740129519971,0.0
169,1.761951208114624,0.05422963774293893,1.1854876724033914,0.9948002130511561,-1.9381645444519615,0.0,0.15374564304585103,0.1,0.0029392242431640625,0.05624580383300781,0.049564514,0.44001597,0.5656261276299928,0.0,-0.01889775029842916,0.0,276,0.017371654510498047,1.218217602164997,1.107472012410723,43041,0.7756747109526315,0.0
170,1.7857131958007812,0.4710525974694002,0.1834422382423321,0.7474267373537501,0.2845941068634344,0.0,0.1482490134933561,0.1,0.0032002925872802734,0.07516360282897949,0.04971494,1.0448135,0.5561687746139335,0.0,-0.020046779992403993,0.0,300,0.018076419830322266,0.21552421822488627,0.2424500368856171,43341,0.8111162025910924,0.0
171,1.9379773139953613,0.5949804570832825,0.19158692600491684,0.9133835354292645,0.4107494040621974,0.0,0.1559653854918091,0.1,0.0074558258056640625,0.07786059379577637,0.049463153,0.6976356,0.5600499428608685,0.0,-0.018488120927272818,0.0,300,0.019666433334350586,0.248256450854115,0.2814473996845659,43641,0.7814395661669641,0.0
172,1.8301777839660645,0.7066615955460549,0.24039283424515934,1.0279571876865088,0.3874390339579488,0.0,0.1518127398258284,0.1,0.0031142234802246094,0.07114863395690918,0.050251797,0.8693227,0.5747111081293872,0.0,-0.01694412366558785,0.0,300,0.03495597839355469,0.3391837965617575,0.3152688602765318,43941,0.7072613516427818,0.0
173,1.7828547954559326,0.6135620245589002,0.4136118883383056,1.247517593447254,0.14142162606438546,0.0,0.15843453823234496,0.1,0.0030236244201660156,0.06153678894042969,0.050005663,1.1717536,0.5785961997723386,0.0,-0.01820906355890435,0.0,300,0.02019953727722168,0.5273746154546024,0.48852369391028827,44241,0.8022522697480295,0.0
174,1.8301119804382324,0.4547951296247249,0.18886343099593292,0.6560065505354761,0.19191462631529502,0.0,0.16292624945728582,0.1,0.003022432327270508,0.07048392295837402,0.050543413,0.69554585,0.5662160927575772,0.0,-0.02025349796629563,0.0,300,0.02566051483154297,0.22187802757070352,0.2298171002807753,44541,0.8005078475769866,0.0
175,1.9042272567749023,0.8682709735918233,0.2643861349564103,1.222211264406245,0.6010495627647547,0.0,0.15394768319111427,0.1,0.0029380321502685547,0.05779695510864258,0.050337967,0.69039756,0.5964215808410019,0.0,-0.014751610783970307,0.0,300,0.017404794692993164,0.3660562982780199,0.3079804666988961,44841,0.7767508021421022,0.0
176,1.7990996837615967,0.7361618415291327,0.29116233972911676,1.2325048595735766,0.5117281714442485,0.0,0.1632862879697222,0.1,0.0030617713928222656,0.05833101272583008,0.049783126,0.7237625,0.610395606909815,0.0,-0.01656963062382864,0.0,300,0.017856121063232422,0.24659227764181865,0.21007878234903093,45141,0.7299253019964599,0.0
177,1.753288984298706,0.764388094648306,0.2029182141951012,0.9817360294486586,0.4437909742515339,0.0,0.1490977431247299,0.1,0.0029990673065185547,0.058670759201049805,0.04958633,0.7587316,0.6257948556836641,0.0,-0.01618494725658185,0.0,300,0.026280879974365234,0.15745924931123925,0.1253903228395224,45441,0.7840860328689425,0.0
178,1.889890193939209,0.7848187393379952,0.5299555416390126,1.6552969989503847,0.2590228708624907,0.0,0.15275913729233187,0.1,0.0029294490814208984,0.0581662654876709,0.049186192,1.1887444,0.6416972440490973,0.0,-0.015921671302600623,0.0,300,0.01714611053466797,0.39006733224157025,0.3817631740759995,45741,0.7756928513165858,0.0
179,1.7343425750732422,0.0981028484083917,1.2021975770861892,1.3812348483092094,-1.8754039455399398,0.0,0.13836508828683114,0.1,0.002917766571044922,0.07216691970825195,0.05051144,0.42832625,0.5873378044850267,0.0,-0.018309304745306603,0.0,259,0.03014540672302246,1.21309157306214,1.0985220911057572,46000,0.8006802630762575,0.0
180,1.8881309032440186,0.6700666085386104,0.30834071267169866,1.0828642878338377,0.27271416538961796,0.0,0.15205950954513195,0.1,0.003075838088989258,0.058478355407714844,0.049582805,0.96734506,0.5956106848903852,0.0,-0.01745693412285277,0.0,300,0.026221036911010742,0.19731978306640094,0.23745174422767323,46300,0.7456550374643746,0.0
181,1.8578593730926514,0.8330662339475852,0.20382121276461335,1.0799811413068312,0.5437190993443862,0.0,0.14694906712833652,0.1,0.0030803680419921875,0.057352542877197266,0.049734775,0.9632501,0.6193562397961052,0.0,-0.015204325830379624,0.0,300,0.016976356506347656,0.27350347308345724,0.2848155715796031,46600,0.8237288552491003,0.0
182,1.8341093063354492,0.9035001072119684,0.4268893062707586,1.6418316781322297,0.6366085400493962,0.0,0.17182616954857818,0.1,0.0036983489990234375,0.07344651222229004,0.04988178,1.0450735,0.6477706265376916,0.0,-0.014377981818505609,0.0,300,0.017232418060302734,0.4468812964446893,0.39832370114327653,46900,0.7560198768990741,0.0
183,1.8580107688903809,1.1963369954644438,0.17940659705183634,1.4555284377065971,0.9647828223190786,0.0,0.15510881803230295,0.1,0.004645347595214844,0.05746316909790039,0.049914546,1.2914156,0.7026272634303669,0.0,-0.010499391204708431,0.0,300,0.01699233055114746,0.3119645342235,0.19934244393197437,47200,0.7666278542916333,0.0
184,1.880049228668213,0.794451035538743,0.4174282611421354,1.4993956617427862,0.4214716064014518,0.0,0.16274154841818464,0.1,0.002908468246459961,0.07058119773864746,0.049826924,0.9771144,0.7118096406412044,0.0,-0.01581613349926043,0.0,300,0.017061471939086914,0.23471726327173126,0.2580162373237682,47500,0.8833238140951477,0.0
185,1.7951312065124512,0.7345750084939908,0.3668959518410199,1.3356259465881315,0.3660714883946002,0.0,0.15749315848398454,0.1,0.002958536148071289,0.10032105445861816,0.049693726,1.1987797,0.7140861774264831,0.0,-0.016569721066435394,0.0,300,0.016994476318359375,0.3674999630102903,0.355830513216111,47800,0.7667910913556021,0.0
186,1.9108121395111084,1.147322304587276,0.382962046050894,1.6972355355109323,0.6857414678811962,0.0,0.16326933000852423,0.1,0.003119945526123047,0.08388400077819824,0.050339725,0.77412665,0.7574097901425624,0.0,-0.011110733854772983,0.0,300,0.01845836639404297,0.20855598011904497,0.19801365327682605,48100,0.7740157426642699,0.0
187,1.8739345073699951,0.9111683197443473,0.1645246953562471,1.1443847827667522,0.7046118996956214,0.0,0.1638115857409238,0.1,0.0029282569885253906,0.07074284553527832,0.050290953,0.6411679,0.7727856431027409,0.0,-0.01428481320497952,0.0,300,0.01769113540649414,0.1242261223641198,0.12170720627629188,48400,0.9045480798383435,0.0
188,1.8729259967803955,0.8560996078676373,0.315867976072365,1.3969052153948278,0.5998011089290322,0.0,0.15974386344141928,0.1,0.0030341148376464844,0.07134604454040527,0.04932246,0.9439214,0.7811170395792306,0.0,-0.014983218331497785,0.0,300,0.017566680908203125,0.17069267531659893,0.14524021221911596,48700,0.874881487661107,0.0
189,1.990250587463379,0.5417152583116387,0.43476801409329346,1.111107646738486,0.10999073099244185,0.0,0.15432275006932253,0.1,0.0030045509338378906,0.05845308303833008,0.04920016,0.66048056,0.7571768614524715,0.0,-0.019180545541647782,0.0,300,0.01730632781982422,0.4285882207265605,0.3767344344485158,49000,0.8857118457379051,0.0
190,1.9440979957580566,1.1268563575342359,0.39119381205988263,1.4810022276895487,0.4658580192010639,0.0,0.14878458462878086,0.1,0.00292205810546875,0.05696821212768555,0.050080568,1.5530871,0.794144811060648,0.0,-0.011382867031289014,0.0,300,0.017049551010131836,0.23655547076306024,0.2191866895635764,49300,0.9364298072559615,0.0
191,1.9332163333892822,0.6377135262790327,0.4641871920368957,1.374617316663907,0.19713982259938534,0.0,0.14848827450763244,0.1,0.003393888473510742,0.06848263740539551,0.050120223,0.83261764,0.7785016825824865,0.0,-0.01798234711047264,0.0,300,0.01676487922668457,0.3354450956472753,0.3283704396674805,49600,0.8582224191805138,0.0
192,2.080544948577881,0.7681935186766451,0.3934813661106675,1.401083349384015,0.34645790296316903,0.0,0.14406998406155774,0.1,0.0028848648071289062,0.05752396583557129,0.049375508,1.726075,0.7774708661919024,0.0,-0.016153501077121317,0.0,300,0.018765926361083984,0.27887371436951397,0.25154778787320947,49900,1.0260368893113117,0.0
193,1.8865587711334229,0.8424551416471082,0.3580746769538594,1.2047192478611617,0.2832190322360183,0.0,0.1597345439278044,0.1,0.003103971481323242,0.058394432067871094,0.049807787,0.8843761,0.783969293737423,0.0,-0.015187124910169655,0.0,300,0.01778578758239746,0.17129739805476904,0.17064961293526046,50200,0.8450275128813723,0.0
194,1.928706169128418,0.9103801424317178,0.5334853736793422,1.5724881835860278,0.32758287116832874,0.0,0.1542195521060858,0.1,0.003152132034301758,0.06628632545471191,0.049988963,0.75474435,0.7966103786068525,0.0,-0.014379308290545255,0.0,300,0.017611265182495117,0.32051552019395757,0.2941718457744516,50500,1.0055063745771449,0.0
195,1.8503565788269043,0.7536513924757688,0.17240395575756345,0.9484405833328164,0.48720632484043475,0.0,0.15051820072917288,0.1,0.0031080245971679688,0.07612800598144531,0.050025653,0.73242664,0.7923144799937442,0.0,-0.016386089983653984,0.0,300,0.018614530563354492,0.0699634751665979,0.06757104084070119,50800,0.9857254268242798,0.0
196,1.9627435207366943,1.1387128293884143,0.5743851129154639,2.0652107970040663,0.5407375661120807,0.0,0.15720659429562983,0.1,0.003466367721557617,0.05864405632019043,0.049930822,1.1491127,0.8269543149332111,0.0,-0.011345444192092678,0.0,300,0.017517566680908203,0.28414721224985817,0.248004110932941,51100,0.9841840692434585,0.0
197,1.9709889888763428,0.38035325143462084,1.2967709529739118,1.405242328254046,-1.827364513718126,0.0,0.16526972503501877,0.1,0.0030591487884521484,0.0573117733001709,0.049978435,0.46046627,0.7822942085833521,0.0,-0.014664012519990886,0.0,290,0.02611398696899414,1.0553501431071879,0.9452894117384221,51390,0.9771165114564337,0.0
198,1.9680202007293701,1.3187799195905905,0.5571284163696462,1.9104334031677794,0.5658512778971461,0.0,0.15585197224453842,0.1,0.003075838088989258,0.07547354698181152,0.049870133,0.84273875,0.8359427796840759,0.0,-0.008850816033231025,0.0,300,0.017011642456054688,0.3004869314228056,0.30687231593972986,51690,0.9630225176479555,0.0
199,1.9323627948760986,1.5016126835217891,0.625268009463098,2.2815377842968965,0.5419972740697199,0.0,0.15015662760128623,0.1,0.003052949905395508,0.0588531494140625,0.049880434,0.7430201,0.9025097700678473,0.0,-0.006559808804777602,0.0,300,0.017290353775024414,0.3555448799735478,0.18522298999400508,51990,0.8561258957970956,0.0
200,1.9944274425506592,0.9832266677279025,0.47668256542842186,1.743468239087172,0.4274668583776393,0.0,0.1591806966379529,0.1,0.003071308135986328,0.05692601203918457,0.04999125,0.9900773,0.9105814598338527,0.0,-0.013385667377150969,0.0,300,0.017101287841796875,0.23975757582223806,0.2929971658820115,52290,0.9546021896168724,0.0
201,1.9369096755981445,0.9274201965881633,0.3984499796700311,1.5945958017890034,0.5513431159417299,0.0,0.16195427349719546,0.1,0.0029227733612060547,0.057773590087890625,0.05024396,1.0999413,0.9122653335092838,0.0,-0.014101131300449135,0.0,300,0.01816868782043457,0.4335160688134171,0.20546828423492228,52590,0.9897007259869858,0.0
202,2.0345189571380615,1.3734786764551523,0.5304091088683335,2.0040370389413473,0.5356033969336654,0.0,0.1527400014113272,0.1,0.0029282569885253906,0.05653691291809082,0.049718037,1.0102085,0.9583866678038707,0.0,-0.008104868828556287,0.0,300,0.01734471321105957,0.20495666708250443,0.2252449886124217,52890,0.9318242529096942,0.0
203,1.9988625049591064,1.0631058612022422,0.5736427557547568,2.045324010870857,0.6458977314762135,0.0,0.15266758474102787,0.1,0.0028662681579589844,0.07564425468444824,0.04945546,1.0345846,0.9688585871437079,0.0,-0.012289554011804536,0.0,300,0.020365476608276367,0.18860115267417277,0.16590465449500236,53190,0.966801799198315,0.0
204,1.9654452800750732,1.2696475044207156,0.491440538806189,1.7950246943570078,0.6510795326649025,0.0,0.15040025487283537,0.1,0.002910137176513672,0.05662202835083008,0.05073496,1.2866477,0.9989374788714087,0.0,-0.009486763664146561,0.0,300,0.01718735694885254,0.1723531458829165,0.14898011742360767,53490,0.8534130189828639,0.0
205,1.987497091293335,1.265619745771497,0.4548881574746572,1.741685025442809,0.7199088902586983,0.0,0.1501761087896614,0.1,0.002978086471557617,0.05790877342224121,0.04981621,1.0219852,1.0256057055614176,0.0,-0.009662115719427718,0.0,300,0.017520666122436523,0.13190341214942308,0.11663276537911109,53790,0.8219734379123379,0.0
206,2.009960889816284,0.910529896018049,0.271803782841443,1.240569793966069,0.4948673595806926,0.0,0.15045480811438328,0.1,0.003116130828857422,0.07315897941589355,0.048995882,0.52801776,1.0140981246070808,0.0,-0.014276366718512271,0.0,300,0.016768455505371094,0.289465877686973,0.1525454500928151,54090,0.9969014962567911,0.0
207,2.3475148677825928,1.0538289847536664,0.4744933633897075,1.8659512014871276,0.7065521320728485,0.0,0.13784619564863076,0.1,0.0029664039611816406,0.058413028717041016,0.049446832,0.7119722,1.0180712106217396,0.0,-0.012404841535510334,0.0,300,0.029330015182495117,0.16034367892566467,0.16811309635266625,54390,0.9343923019068705,0.0
208,1.9319145679473877,0.829099488822518,0.32450571907092546,1.3191949562516512,0.5229210488205633,0.0,0.1492024085140716,0.1,0.00312042236328125,0.05987071990966797,0.049927387,0.6405454,0.9991740384418174,0.0,-0.015365897781476987,0.0,300,0.017410755157470703,0.20656719430874823,0.19279383923220011,54690,0.9010387896897494,0.0
209,1.8979427814483643,0.9501313422088481,0.5920937224789709,1.9709244670156396,0.547672404204666,0.0,0.1591148605416193,0.1,0.0030465126037597656,0.06093311309814453,0.0500549,0.80958766,0.9942697688185205,0.0,-0.01370256659630997,0.0,300,0.01763772964477539,0.2371148831339342,0.2260620532556916,54990,1.141281192561729,0.0
210,2.0115749835968018,1.132404263328164,0.38983655128412115,1.5658166576932337,0.6758838806700063,0.0,0.1623870229399435,0.1,0.005110740661621094,0.0582575798034668,0.050005846,0.72510034,1.0080832182694848,0.0,-0.011378354626670615,0.0,300,0.017368316650390625,0.17248185942466204,0.16907731724269323,55290,0.9951892773956588,0.0
211,1.9428420066833496,0.8331756336709101,0.15063848638309185,1.0255920285317845,0.6029258986490019,0.0,0.16890587516241046,0.1,0.003083467483520508,0.058617591857910156,0.04970397,0.6680629,0.9905924598096274,0.0,-0.01528373455648273,0.0,300,0.02069854736328125,0.12851696231777865,0.10836154024091957,55590,0.9537403116891897,0.0
212,1.9491689205169678,1.6232920098489059,0.7608189926808916,2.575681046091135,0.8518679245568295,0.0,0.15734184191611378,0.1,0.003084897994995117,0.05842447280883789,0.050142683,0.9705694,1.0538624148135554,0.0,-0.004837884669207864,0.0,300,0.017824649810791016,0.2612198607711396,0.1798947167801551,55890,0.970440124097815,0.0
213,1.9354395866394043,1.2404657164865678,0.7028683301315345,2.3190164000125018,0.5516587156148746,0.0,0.173851239904376,0.1,0.0030813217163085938,0.08965325355529785,0.049896814,0.9017104,1.0725227449808565,0.0,-0.00986390487125783,0.0,300,0.018981456756591797,0.2367339370681439,0.24997074446967626,56190,0.9756821128876961,0.0
214,1.9895026683807373,1.0915976881924236,0.3663575440113203,1.4847621198632739,0.5648555743332581,0.0,0.15473745552685533,0.1,0.0030279159545898438,0.07434582710266113,0.04991121,0.53305024,1.0744302393020133,0.0,-0.011996834644665468,0.0,300,0.01729416847229004,0.13054251272877468,0.10034694826801648,56490,1.0472862155910683,0.0
215,1.9960408210754395,1.5034499718000824,0.6204612440067965,2.17507060859236,0.8331982468869781,0.0,0.1607583805326382,0.1,0.003035306930541992,0.059578657150268555,0.049637184,1.026686,1.1173322125518204,0.0,-0.006440826839065541,0.0,300,0.01685023307800293,0.2079815584159509,0.19866068480416788,56790,1.002657119628367,0.0
216,1.97727632522583,1.5438972764749583,0.5141010974146447,2.3986020464129307,1.0251859965217651,0.0,0.16177841169772703,0.1,0.003016233444213867,0.056696414947509766,0.049850237,1.0952295,1.1599887189441342,0.0,-0.005891262860877403,0.0,300,0.01731395721435547,0.136411881520963,0.10825190038077884,57090,1.441582800886996,0.0
217,2.0070793628692627,1.6800128829066,0.36348584876065876,2.140650578576446,1.1218514864752651,0.0,0.1646951778947718,0.1,0.0029964447021484375,0.056415557861328125,0.05026234,0.73116213,1.211991135340381,0.0,-0.004205412695653095,0.0,300,0.020718097686767578,0.09277705529292365,0.08155827210431736,57390,1.0570687953649134,0.0
218,1.954606056213379,1.1723251432805362,0.5395673486462097,2.0927566982108687,0.7432430356071018,0.0,0.16187082377502024,0.1,0.002902984619140625,0.05647921562194824,0.049531925,1.156923,1.2080245361343966,0.0,-0.010826815705687453,0.0,300,0.017015457153320312,0.4563369305591846,0.18175707925055273,57690,1.3289099793870307,0.0
219,1.9524776935577393,1.4863034832860404,0.6230836683532551,2.511623796126417,0.8855885174004646,0.0,0.1514050677127188,0.1,0.0029697418212890625,0.0561373233795166,0.049398422,0.8953076,1.235852430849561,0.0,-0.006719630789583684,0.0,300,0.01720905303955078,0.1301638334856149,0.17691121060034673,57990,1.5486960678249557,0.0
220,2.0413997173309326,1.2493265068248505,0.5856859686643462,2.0983669329443204,0.46951537553964184,0.0,0.16632959238181672,0.1,0.0029799938201904297,0.05609607696533203,0.050325915,0.8202439,1.2371998384470901,0.0,-0.00978793362871844,0.0,300,0.01668858528137207,0.20459714438606713,0.197151363998108,58290,1.02255460368415,0.0
221,1.8639395236968994,0.9322147907451194,0.4958712442854591,1.7614709080387458,0.4453274097778927,0.0,0.1598769195096227,0.1,0.0033674240112304688,0.08062887191772461,0.049797293,0.78602654,1.206701333676893,0.0,-0.013981693010091738,0.0,300,0.028705835342407227,0.2467973488074053,0.23380046767060564,58590,1.0213215429381797,0.0
222,1.9467153549194336,1.3696074074213644,0.5639306317830143,2.1881693650813916,0.8294642024578733,0.0,0.15371059805786785,0.1,0.003004312515258789,0.058002471923828125,0.049771283,1.5385392,1.2229919410513403,0.0,-0.008199710901315861,0.0,300,0.017094850540161133,0.20621265425366453,0.176601125845086,58890,1.0539428907156176,0.0
223,2.0486338138580322,1.4020964090664134,0.37757776109987906,1.8544701855748384,0.9377280435785431,0.0,0.154026581066886,0.1,0.0031342506408691406,0.057682037353515625,0.049784224,0.85209674,1.2409023878528478,0.0,-0.0077791528147565445,0.0,300,0.017345905303955078,0.08873098437085651,0.0623236810280541,59190,1.1297504835371852,0.0
224,2.0011563301086426,1.3108605397451858,0.7852057756368619,2.4573866030428637,0.5487698349198721,0.0,0.15275413169818097,0.1,0.002972841262817383,0.05776071548461914,0.050609555,0.91872334,1.2478982030420818,0.0,-0.008922410501717971,0.0,300,0.016994476318359375,0.1735691650743729,0.16615723945030028,59490,1.6000942536185747,0.0
225,1.9598424434661865,1.3071316072829524,0.49562527352374763,1.8500330600347583,0.7332957092269251,0.0,0.15292419771497864,0.1,0.0030617713928222656,0.05765366554260254,0.04968463,0.73065513,1.2538215434661688,0.0,-0.009063482875655289,0.0,300,0.018440723419189453,0.11839329514945492,0.08876749129659478,59790,1.7657640816819598,0.0
226,1.9568617343902588,1.289687128224957,0.4413096768273497,1.960210097154533,0.7205118784188373,0.0,0.154905190909696,0.1,0.0030775070190429688,0.07367062568664551,0.049982604,1.2883236,1.2574081019420476,0.0,-0.009308247300920072,0.0,300,0.017351150512695312,0.08831970098763871,0.09446351609851061,60090,1.6130843119106715,0.0
227,1.941481590270996,1.7817457971207231,0.5169559796802323,2.197220642128995,0.8968816300615492,0.0,0.159015097020372,0.1,0.005288839340209961,0.0569150447845459,0.049825184,0.8825161,1.3098418714599152,0.0,-0.002770806049439161,0.0,300,0.016939401626586914,0.1343552264491361,0.10934683876801887,60390,1.5094708790543583,0.0
228,1.9889376163482666,0.5381737020544989,1.1540818459280808,1.5338375915726983,-1.4278766968845311,0.0,0.14222423186701158,0.1,0.0030651092529296875,0.05689287185668945,0.049059927,0.45753273,1.2326750545193734,0.0,-0.012583303901785603,0.0,296,0.01747274398803711,1.1131640655356787,0.898609588930895,60686,1.5803950428630562,0.0
229,1.9417240619659424,1.2314848826107954,0.36640411457440086,1.786602292480162,0.7859136238292286,0.0,0.15072610810614048,0.1,0.003100872039794922,0.06231117248535156,0.049625523,0.62195575,1.2325560373285158,0.0,-0.010101085393532126,0.0,300,0.017035722732543945,0.09659203859095229,0.15327438150666345,60986,1.6045723843995143,0.0
230,1.934455394744873,1.1046852109979428,0.49551904387925616,1.9458559650762124,0.668626204157399,0.0,0.14727984958228954,0.1,0.003005504608154297,0.07638335227966309,0.049278818,0.7448143,1.2197689546954584,0.0,-0.011721159811741736,0.0,300,0.018143177032470703,0.1685267349302909,0.10357762538845632,61286,1.508980418908923,0.0
231,1.973024606704712,1.4159195353819216,0.3026660564122773,1.7493340083468951,0.9991165012080906,0.0,0.14679450500904836,0.1,0.002908468246459961,0.06365728378295898,0.04969403,1.1350521,1.239384012764105,0.0,-0.007584176753196441,0.0,300,0.020704030990600586,0.129904607037469,0.08969875586565763,61586,1.650763589380946,0.0
232,2.0236873626708984,1.0466218583242626,0.17138907602275022,1.2613749389308264,0.8685694806554044,0.0,0.15491666864075587,0.1,0.0030078887939453125,0.057927608489990234,0.048589863,0.5728651,1.2201077973201206,0.0,-0.012497283614528124,0.0,300,0.03888416290283203,0.1793763629967782,0.14002121304397358,61886,1.5814677237173178,0.0
233,2.0301201343536377,1.2997902122502147,0.3228015434182238,1.8518058290479298,1.0320858823803878,0.0,0.14490687589269619,0.1,0.0031175613403320312,0.057842254638671875,0.049400263,0.92246056,1.2280760388131302,0.0,-0.00914739350708869,0.0,300,0.0185697078704834,0.13949616902107456,0.13077700392231117,62186,1.801526959893194,0.0
234,2.031773805618286,2.0035720103470456,0.5944004511299198,2.68085073075105,1.3555487330079088,0.0,0.15596117053551603,0.1,0.002958059310913086,0.0840756893157959,0.049787078,0.9383078,1.3056256359665217,0.0,0.00018416153744683483,0.0,300,0.021733760833740234,0.16909455471538287,0.11541672651873291,62486,1.673041655470741,0.0
235,2.0079896450042725,1.6094300349427375,0.4676414803097618,2.3773821978685166,1.148789184101439,0.0,0.15619523713201505,0.1,0.0030798912048339844,0.05644869804382324,0.05024781,0.8337324,1.3360060758641434,0.0,-0.005087189653855535,0.0,300,0.028354167938232422,0.05128464527568731,0.06828163365786445,62786,1.3801568516296954,0.0
236,2.1242196559906006,1.5489618076447915,0.4568551766448238,2.283664862093461,1.0555802432497285,0.0,0.1616233552319254,0.1,0.0030431747436523438,0.0566103458404541,0.049850415,0.7494131,1.3573016490422083,0.0,-0.005882042708547534,0.0,300,0.017148256301879883,0.14419672156218524,0.05805104254495898,63086,1.37589566170169,0.0
237,2.0557594299316406,1.4984440191635504,0.9492792405817881,3.103313380235241,0.6307755712861769,0.0,0.15625474406765544,0.1,0.0030825138092041016,0.05838894844055176,0.050438337,1.3708991,1.3714158860543424,0.0,-0.0065279089109179875,0.0,300,0.016739606857299805,0.21504028910897982,0.20183430733477276,63386,1.685015630474072,0.0
238,1.9362664222717285,1.7783975025156211,0.4308928575789407,2.1945960251617045,1.1264565210137207,0.0,0.15555273443081577,0.1,0.0033130645751953125,0.059569597244262695,0.049273457,0.7265873,1.4121140477004703,0.0,-0.0028203533426794237,0.0,300,0.017969846725463867,0.0995902864458352,0.08626509296197266,63686,1.625790956922174,0.0
239,1.8999431133270264,1.4579652954260152,0.5121873379814826,2.0927041361309953,0.9335537219690649,0.0,0.14935098375378825,0.1,0.003428936004638672,0.08294892311096191,0.051834486,0.60495603,1.416699172473025,0.0,-0.007017889998865128,0.0,300,0.01984119415283203,0.1881687593666032,0.13608568647377361,63986,1.7403834732432033,0.0
240,1.9373929500579834,1.2497041199029528,0.4484499297144975,1.852025659874759,0.6088776337235121,0.0,0.15082800886549333,0.1,0.0032172203063964844,0.0774528980255127,0.050265353,2.2899358,1.3999996672160178,0.0,-0.009801442442762608,0.0,300,0.021306276321411133,0.31112612870798784,0.1173342590045177,64286,1.6965857939509117,0.0
241,2.0354361534118652,1.2935660538730014,0.17659578721918812,1.5599942257820631,1.063292614164123,0.0,0.1517231688079473,0.1,0.0031304359436035156,0.07055544853210449,0.049750086,0.4534819,1.3893563058817162,0.0,-0.00928550804560071,0.0,300,0.037278175354003906,0.053283161466064086,0.09456693509002391,64586,2.4069548522927993,0.0
242,2.018251419067383,2.142621716098378,0.5525862436140951,2.8005983279907767,1.4777040092918714,0.0,0.15428886773081935,0.1,0.003016233444213867,0.07162666320800781,0.0498512,1.3169879,1.4646828469033826,0.0,0.0021106350123385217,0.0,300,0.023019075393676758,0.2282958040953034,0.09918296284577999,64886,2.7651572394935404,0.0
243,1.9927606582641602,1.4916679308839562,0.504542197936743,2.318507075101048,1.0060537460160681,0.0,0.15518078352543263,0.1,0.0030565261840820312,0.05768227577209473,0.04975258,1.3866191,1.4673813553014399,0.0,-0.006618991542382202,0.0,300,0.017250537872314453,0.0791709840654724,0.14643289977317248,65186,2.7576653421310424,0.0
244,2.0857858657836914,1.5954763279343038,0.5189635698601714,2.442707273652416,1.0445447777739783,0.0,0.150101631961093,0.1,0.0029447078704833984,0.057741641998291016,0.049438033,1.9038918,1.4801908525647263,0.0,-0.0054670850848399614,0.0,300,0.017163991928100586,0.2230914878931037,0.10125473601918523,65486,2.600680009167482,0.0
245,2.011866331100464,1.1936927482000335,0.49836262552153215,1.8613455498040563,0.45662000311278605,0.0,0.13829529609474772,0.1,0.0031578540802001953,0.07595944404602051,0.05031486,2.1152966,1.4515410421282569,0.0,-0.010515300121929421,0.0,300,0.021599531173706055,0.1586662138644324,0.15524923315695394,65786,2.646513597370318,0.0
246,2.086974859237671,1.9891588051747306,0.3811773892175415,2.414326830501246,1.5051347830206123,0.0,0.15596269005118266,0.1,0.003061532974243164,0.07950711250305176,0.049582437,0.8059233,1.5053028184329043,0.0,-3.387180594735073e-05,0.0,300,0.017618179321289062,0.17267021184013825,0.12256430024815261,66086,2.704667651773812,0.0
247,1.996960163116455,1.7182002635518208,0.48653806050047516,2.359962070334236,1.0745384311810118,0.0,0.15949599500454312,0.1,0.0039522647857666016,0.07526707649230957,0.050132636,0.75542307,1.526592562944796,0.0,-0.003564876310996101,0.0,300,0.021216392517089844,0.08013069449427516,0.06484888359465348,66386,2.7472617251892513,0.0
248,2.0406742095947266,1.453344625611201,0.7135064632640739,2.608951826244932,0.8395200393443646,0.0,0.15826087626145846,0.1,0.003045320510864258,0.08393740653991699,0.050532933,0.6730949,1.5192677692114367,0.0,-0.007134556351923093,0.0,300,0.017841577529907227,0.11570279744574234,0.11383271665233899,66686,2.727499611140287,0.0
249,2.019665241241455,2.3401098677790637,0.5301145811514748,3.1097772545716373,1.6419741958987073,0.0,0.15835148160192072,0.1,0.003022432327270508,0.05838799476623535,0.049676582,1.0965515,1.6013519790681994,0.0,0.004511085852165113,0.0,300,0.01972222328186035,0.0784048952435084,0.06942955991051694,66986,2.7463010812500817,0.0
250,2.0918617248535156,1.833905658930897,0.7843292619301004,2.6926271733172156,1.0360762720735393,0.0,0.14275875478140182,0.1,0.0032520294189453125,0.05796194076538086,0.049639523,1.1063807,1.624607347054469,0.0,-0.0021631114007458724,0.0,300,0.017877578735351562,0.10082168241046967,0.09125985020261915,67286,2.8667882112668686,0.0
251,2.0850565433502197,1.5489350740378092,0.680413285693712,2.350403694963394,0.7779010843586226,0.0,0.15695280149170038,0.1,0.0031778812408447266,0.0830998420715332,0.050332736,1.0060776,1.617040119752803,0.0,-0.005858715568265939,0.0,300,0.018960952758789062,0.20985621302536805,0.09311622173262128,67586,2.8514801861678376,0.0
252,2.083173990249634,1.6893462506566825,0.6519741426053267,2.5249944855915873,0.7363497702533776,0.0,0.16404145637505324,0.1,0.00993037223815918,0.06573867797851562,0.04934846,0.79712224,1.6242707328431911,0.0,-0.004080791986877713,0.0,300,0.01792120933532715,0.13511893083553367,0.158945185572007,67886,2.661438332122987,0.0
253,2.1764540672302246,1.8622576926272858,0.7954887252989599,2.752377066985018,0.9216422748210142,0.0,0.1581096328106513,0.1,0.003012418746948242,0.05669116973876953,0.049579054,0.7537645,1.6480694288216005,0.0,-0.0017293604687917098,0.0,300,0.01818537712097168,0.1637165336324589,0.0945382330094772,68186,2.8812147621609228,0.0
254,2.0979952812194824,2.58651187598839,0.3494184923239797,3.05091649819309,2.066161679679414,0.0,0.15456232256226535,0.1,0.007076740264892578,0.06318140029907227,0.04967763,1.0320703,1.7419136735382796,0.0,0.007787883999614319,0.0,300,0.018079757690429688,0.06313382611073554,0.058629354514178264,68486,2.790855303188749,0.0
255,2.0328357219696045,2.3150701924999932,0.3306604076588866,2.7989196397178016,1.865082838343897,0.0,0.15854029471527795,0.1,0.009187459945678711,0.08094453811645508,0.04969955,0.9354579,1.799229325434451,0.0,0.004224475100518511,0.0,300,0.01907634735107422,0.05061295972247128,0.040526269840214985,68786,2.8483131774069506,0.0
256,2.020195722579956,1.7885094706980325,0.9485758329854831,3.0091809549425252,0.808523186571118,0.0,0.15302441382728535,0.1,0.0031757354736328125,0.07054734230041504,0.049365558,0.7369109,1.798157339960809,0.0,-0.0027941859923598217,0.0,300,0.01900196075439453,0.1439943224588839,0.09921160080123137,69086,3.0850483134905713,0.0
257,2.067199945449829,1.279173211251117,0.6309681794965261,2.360057057387603,0.7670054104125287,0.0,0.15989281775752479,0.1,0.0030825138092041016,0.057314395904541016,0.04927818,0.6775885,1.7462589270898399,0.0,-0.009439994367565326,0.0,300,0.0276033878326416,0.15138239503518655,0.08921962405149673,69386,2.9231965130880577,0.0
258,2.149696111679077,2.2428693516875464,0.795953598028092,2.9829010131653027,0.9080873449400936,0.0,0.15431759795448916,0.1,0.0030777454376220703,0.05897402763366699,0.050319415,0.7825586,1.7959199695496106,0.0,0.003270097532630731,0.0,300,0.018535375595092773,0.17534961923019396,0.1131137360388726,69686,2.88627880472765,0.0
259,2.1116158962249756,2.2003077893064624,0.6309049500848333,2.657795500953301,1.119371680548996,0.0,0.15859099616571873,0.1,0.003088712692260742,0.058570146560668945,0.050737508,0.6272118,1.836358751525296,0.0,0.0026428977903158466,0.0,300,0.027425765991210938,0.09568507794849479,0.05983030266557706,69986,2.8354087989378463,0.0
260,2.0102670192718506,2.2516678883726557,0.47588081823926376,2.889848794378556,1.5630122887068452,0.0,0.146874746611139,0.1,0.003147125244140625,0.07018136978149414,0.049693663,0.8771045,1.877889665210032,0.0,0.0033592300645711726,0.0,300,0.019417524337768555,0.047713745814717025,0.05583303533130073,70286,2.9864101284925373,0.0
261,2.1275711059570312,1.4047445009609127,0.6487124792219537,2.0626274293293614,0.5949503027430794,0.0,0.14939708028567403,0.1,0.0036880970001220703,0.07786083221435547,0.049819306,0.7558783,1.8305751487851203,0.0,-0.007839955221313786,0.0,300,0.019510507583618164,0.5270250518964863,0.1265471598626711,70586,2.862651612177229,0.0
262,2.0586884021759033,2.1274385320052236,0.28976020871942065,2.3379039309869074,1.6319253249033032,0.0,0.15915623822342914,0.1,0.0031173229217529297,0.058797359466552734,0.049174674,0.71969414,1.8602614871071306,0.0,0.0017117916581088643,0.0,300,0.021134614944458008,0.04691377698300639,0.09621410760628056,70886,2.807902342843563,0.0
263,2.047173023223877,1.6763669886157646,0.3417265641539296,2.0007324643374154,1.1804156770857286,0.0,0.14987338231564198,0.1,0.003107309341430664,0.0959630012512207,0.049933616,0.616086,1.841872037257994,0.0,-0.004260860927347877,0.0,300,0.019939422607421875,0.06410371619302489,0.051202034959470365,71186,2.9903935458843436,0.0
264,2.099327802658081,1.7781625944683304,0.9313587971873565,2.8559676232117157,0.8376330011657149,0.0,0.15640222229779732,0.1,0.011046409606933594,0.08374667167663574,0.048894227,1.0780144,1.8355010929790276,0.0,-0.0028638963067587303,0.0,300,0.020406007766723633,0.1223946144250916,0.09468921997244745,71486,3.0029728166323975,0.0
265,2.080389976501465,1.803077087562928,0.4226413959013345,2.4475876753322137,1.4197339681486167,0.0,0.14629270814001155,0.1,0.002993345260620117,0.05733370780944824,0.049665533,0.9554839,1.8322586924374176,0.0,-0.002515221452820028,0.0,300,0.019406795501708984,0.09943334366908783,0.07969837039041752,71786,3.0796414533830503,0.0
266,2.0230519771575928,1.1632611249782416,0.3546054039834738,1.6632392932743483,0.7105663255639658,0.0,0.14780407074820895,0.1,0.0036287307739257812,0.0569920539855957,0.049716406,0.6519466,1.7653589356915,0.0,-0.01100671809998065,0.0,300,0.019235610961914062,0.5047945457476165,0.2678602940023046,72086,2.847387738780672,0.0
267,2.167449474334717,1.8162660573238802,0.9428689658454734,2.8080121611369195,0.745717658802331,0.0,0.15650576345363007,0.1,0.002954721450805664,0.05675077438354492,0.049458783,0.94622093,1.7704496478547382,0.0,-0.0024749650334504347,0.0,300,0.01981043815612793,0.15143061225617346,0.1559133059125741,72386,2.9038308262400467,0.0
268,2.0753517150878906,2.1075174839522965,0.602955698374233,2.826056621179904,1.1825433056067503,0.0,0.15192574841639037,0.1,0.003081083297729492,0.05880022048950195,0.04904571,1.2322148,1.8041564314644942,0.0,0.0014414333408895867,0.0,300,0.019463300704956055,0.12700582530585222,0.10921994998749501,72686,2.933650412145656,0.0
269,2.0886218547821045,1.3414212863809358,0.3988736352251818,2.010444016901062,0.9832283360530499,0.0,0.158835169117674,0.1,0.0029764175415039062,0.05678606033325195,0.049667995,0.7867965,1.7578829169561383,0.0,-0.0086068506648337,0.0,300,0.01995706558227539,0.06231224893525728,0.07147601530184851,72986,2.9312518189946544,0.0
270,2.070176362991333,2.193854944382104,0.4216096678709311,2.6483039948619296,1.5060681441273451,0.0,0.15183217183097447,0.1,0.0030317306518554688,0.06960344314575195,0.04970366,0.9493365,1.8014801196987351,0.0,0.002547183039421013,0.0,300,0.03683757781982422,0.06381503899897999,0.04891005988920051,73286,2.995165615293254,0.0
271,1.9994864463806152,2.397458949658909,0.32365562916197665,2.788595589210007,1.9764236013344363,0.0,0.16203042278402213,0.1,0.003103971481323242,0.0740506649017334,0.04995395,0.726872,1.8610780026947524,0.0,0.005016635966707525,0.0,300,0.020111083984375,0.08792078969413078,0.06591656697736498,73586,3.0491004260332617,0.0
272,2.056306838989258,1.3876679625834982,0.6314619510548419,2.452138557635856,0.8169220773883752,0.0,0.145323982412115,0.1,0.003103971481323242,0.05872654914855957,0.04906558,0.6070929,1.8137369986836271,0.0,-0.008002357264636432,0.0,300,0.031964778900146484,0.16693147151615956,0.14025998799548903,73886,3.0797062627359004,0.0
273,2.0163068771362305,2.1602582255895584,0.25446179575136546,2.4929484362786187,1.8331247604066823,0.0,0.15951007199863282,0.1,0.0031468868255615234,0.05890512466430664,0.050547335,0.6427429,1.8483891213742205,0.0,0.002157182257107126,0.0,300,0.020467281341552734,0.06934648370741822,0.050919601229283774,74186,3.0110648566196203,0.0
274,2.073896884918213,2.3358177698043314,0.2355594915860057,2.581858132432838,2.0036179772112095,0.0,0.1624921270826647,0.1,0.003115415573120117,0.058676719665527344,0.049520537,0.58725315,1.8971319862172316,0.0,0.004466383022723384,0.0,300,0.02028799057006836,0.0898356236134018,0.05369879842202299,74486,3.042600829913385,0.0
275,2.031972646713257,1.4319634895953426,0.7734479238250673,2.7262433510151736,0.7281739594003597,0.0,0.15020768392776312,0.1,0.0032050609588623047,0.07404279708862305,0.051120702,0.6904068,1.8506151365550427,0.0,-0.007450491803975303,0.0,300,0.02343916893005371,0.11728206454446304,0.13227049466945615,74786,2.9602312609843757,0.0
276,2.0636579990386963,1.3495853142912808,0.5370930232838403,2.2696297405196617,0.9234534465971888,0.0,0.15225953612948023,0.1,0.0030426979064941406,0.07639050483703613,0.049264375,0.48530605,1.8005121543286666,0.0,-0.008465049324530918,0.0,300,0.02622389793395996,0.14337545146520975,0.05602617248639595,75086,2.8820889218788506,0.0
277,2.002978801727295,1.7466413903343623,0.0556659614241457,1.8324492438932152,1.6964645517584165,0.0,0.1533098024052467,0.1,0.0029315948486328125,0.07381629943847656,0.04957127,0.5319334,1.7951250779292363,0.0,-0.0031886077175339944,0.0,300,0.02342987060546875,0.10231569164743846,0.10995777657001357,75386,2.9533755566695645,0.0
278,2.086230754852295,2.5672351838918988,0.4441511964619664,3.08347526872312,1.9230164184355618,0.0,0.15976374695866472,0.1,0.0031325817108154297,0.07483029365539551,0.05025246,0.7819597,1.8723360885255025,0.0,0.0075768861134077,0.0,300,0.03940868377685547,0.1610788218990105,0.0646631613748346,75686,2.733461022756302,0.0
279,2.005232810974121,2.0669430338343413,0.5407300367365644,2.847891620565707,1.4920154826524057,0.0,0.1594536220525061,0.1,0.0029211044311523438,0.057712554931640625,0.050440986,0.76330715,1.8917967830563864,0.0,0.0008993297745743688,0.0,300,0.020441532135009766,0.047551733804709846,0.06948588826386502,75986,2.7840541135476173,0.0
280,2.015505313873291,2.3376070651133762,0.34295282216028783,2.6459996999722906,1.802642584825234,0.0,0.15826723219348637,0.1,0.0029752254486083984,0.06481432914733887,0.05028177,1.0224762,1.9363778112620855,0.0,0.004457699084202289,0.0,300,0.025717735290527344,0.05143107529875103,0.03376819593282639,76286,2.9336376421894657,0.0
281,2.121649742126465,2.250157897403413,0.7985221844772512,2.810017461566772,0.8711756324493589,0.0,0.17421363293091532,0.1,0.002953767776489258,0.0617823600769043,0.05001378,0.8694982,1.9677558198762184,0.0,0.003328434241245313,0.0,300,0.030955791473388672,0.09756591365417033,0.07820055329989138,76586,2.964178279378165,0.0
282,2.154405355453491,2.3302991992240893,0.4552937894139557,2.812152613516788,1.7140641065751474,0.0,0.16749213746487004,0.1,0.0030748844146728516,0.05734682083129883,0.049995214,0.6917395,2.0040101578110057,0.0,0.004373523056904711,0.0,300,0.02162313461303711,0.0501752615948778,0.04693317678528943,76886,2.8793493380958632,0.0
283,2.1210405826568604,2.2058489457572352,0.7154382731308156,2.7555449600964805,0.9755749976893712,0.0,0.15837192453585014,0.1,0.003001689910888672,0.05738949775695801,0.049923416,0.58563507,2.024194036605629,0.0,0.002757150640600426,0.0,300,0.022600412368774414,0.10995477783048509,0.10255789017268734,77186,2.95225806088693,0.0
284,2.098820447921753,1.9411015652298735,0.6588416244425191,2.720294365210603,1.1181088036833207,0.0,0.13085863409632076,0.1,0.002941608428955078,0.058223724365234375,0.049146276,0.8869554,2.0158847894680534,0.0,-0.000739450774743894,0.0,300,0.021147727966308594,0.03978974831554453,0.04057753505016951,77486,2.85268922311629,0.0
285,2.0701520442962646,2.5793262796283662,0.12248062948066303,2.729934217030876,2.3897700640230344,0.0,0.16333667410159136,0.1,0.0032699108123779297,0.05895376205444336,0.049347326,0.73136383,2.0722289384840846,0.0,0.00776070788295921,0.0,300,0.033193349838256836,0.0438818035456383,0.023101403474151124,77786,2.8948974491451476,0.0
286,2.0489580631256104,1.2841653382490164,0.42786975976781905,1.951603336383264,0.8847967047807952,0.0,0.14614625588828314,0.1,0.0030128955841064453,0.058153390884399414,0.049976684,0.6798207,1.993422578460578,0.0,-0.009450626536367546,0.0,300,0.021013498306274414,0.3948097020156709,0.18189344175779032,78086,3.07230443040496,0.0
287,2.0096020698547363,3.1530637750975985,0.8216296358292844,4.509257184531872,2.336537447830594,0.0,0.14280145499830038,0.1,0.0031561851501464844,0.0821835994720459,0.049581908,2.1304603,2.10938669812428,0.0,0.015288258948725202,0.0,300,0.021931886672973633,0.12834117227453254,0.08629125723735052,78386,2.9318503491057952,0.0
288,2.065293312072754,3.1227053065963872,1.1578541796714084,5.027154844379593,1.9465017870379255,0.0,0.15304991320787456,0.1,0.003149747848510742,0.06683874130249023,0.050528467,1.5104741,2.2107185589714904,0.0,0.015005485605368466,0.0,300,0.024604082107543945,0.13674605381883,0.08069901339495862,78686,2.9599765681362906,0.0
289,2.0120460987091064,2.546448755978723,0.17041819777698589,2.765575069989715,2.3595789483936924,0.0,0.14776500926714295,0.1,0.003095865249633789,0.0580754280090332,0.049456846,2.153889,2.2442915786722137,0.0,0.007429397817795233,0.0,300,0.021785497665405273,0.1445801816040706,0.0611401642776968,78986,3.140332811456257,0.0
290,2.055758476257324,2.976081700137852,0.7797467689608376,4.284554568986548,2.294812229766169,0.0,0.16067021310872448,0.1,0.003092527389526367,0.058175086975097656,0.04885229,0.9204988,2.3174705908187776,0.0,0.012933561340568877,0.0,300,0.021752119064331055,0.04843642726325539,0.06329241789089869,79286,3.0655366574154272,0.0
291,2.058821678161621,2.713468066605832,0.1835502365588006,2.9915372218243235,2.5429305327601406,0.0,0.15858429686990655,0.1,0.003010988235473633,0.07653498649597168,0.049631454,0.71859795,2.357070338397483,0.0,0.009352590533424814,0.0,300,0.022161483764648438,0.037244800855364614,0.02824727701712934,79586,3.0666988780475712,0.0
292,2.048572063446045,2.365060003335367,0.4041757465981465,2.8348280583685597,1.9146459720730529,0.0,0.15756782410140585,0.1,0.009303808212280273,0.08211469650268555,0.04989711,0.7634078,2.3578693048912713,0.0,0.0048897185229547675,0.0,300,0.022589683532714844,0.055577046212761175,0.048822780053739745,79886,3.1400747466110244,0.0
293,2.064115524291992,2.4124303820277593,0.4647449893375916,2.868824423644508,1.6800998764701542,0.0,0.15897035704637724,0.1,0.003122568130493164,0.07428526878356934,0.04992993,0.8262893,2.36332541260492,0.0,0.005552625533645832,0.0,300,0.023920774459838867,0.04901322544820168,0.04721140622171996,80186,3.242915357652715,0.0
294,2.096893548965454,2.38642501191077,0.9155958932849226,3.323484099469625,0.8927662141273566,0.0,0.15345924842350747,0.1,0.003062009811401367,0.08185243606567383,0.049879648,0.7182302,2.3656353725355053,0.0,0.005146652322385933,0.0,300,0.02117323875427246,0.08210704732802288,0.07059965282097627,80486,2.984572451392449,0.0
295,2.1169800758361816,3.144078992510107,0.3932703816592084,3.7545830805974147,2.75499648253503,0.0,0.17350377457845362,0.1,0.002959728240966797,0.07825303077697754,0.049379975,1.0014216,2.4434797345329655,0.0,0.015068947021423602,0.0,300,0.022351741790771484,0.03230276402295966,0.0314036342215262,80786,3.0457432773163515,0.0
296,2.1077938079833984,2.203976782127819,0.711308938322895,2.923899927370962,1.2431700394224388,0.0,0.1491008330185943,0.1,0.010986804962158203,0.08522391319274902,0.049845353,1.2404351,2.419529439292451,0.0,0.002811542675266497,0.0,300,0.02366948127746582,0.12936674805782594,0.0696340151737921,81086,3.0519885981836468,0.0
297,2.0859687328338623,2.113410350429636,0.40586027941774144,2.7976046541068107,1.7856193513826883,0.0,0.16917307080130853,0.1,0.0030264854431152344,0.0711812973022461,0.04989057,0.6388873,2.38891753040617,0.0,0.001468661066302872,0.0,300,0.027422189712524414,0.016737322484802586,0.023842735697676136,81386,3.054436487154931,0.0
298,2.1378111839294434,2.5784585887562645,0.434484519456729,3.0353896745500473,1.947533170381344,0.0,0.17431211459289955,0.1,0.0029120445251464844,0.08170413970947266,0.05018944,0.7271943,2.4078716362411794,0.0,0.007665959526944147,0.0,300,0.024362802505493164,0.03879997580945786,0.02952975460561256,81686,3.1035830756284497,0.0
299,2.176325798034668,2.7180751904184453,0.37177200800678545,3.1232726208298502,2.2645793321501735,0.0,0.16528470332575887,0.1,0.003160238265991211,0.05772590637207031,0.050202686,0.69202626,2.438891991658906,0.0,0.009448494783567867,0.0,300,0.023141145706176758,0.05075850639764272,0.032800065713549195,81986,3.0255174787026715,0.0
300,2.104158878326416,2.4219335045835555,0.2864075578550149,2.6831062629797144,1.9393605750379233,0.0,0.13966880938171589,0.1,0.003061532974243164,0.05754852294921875,0.049318742,0.483295,2.437196142951371,0.0,0.005658419743117151,0.0,300,0.023464679718017578,0.029403957207675628,0.023813922575775828,82286,2.9967799996202644,0.0
301,2.1600558757781982,2.6937533434294214,0.3274985607068871,3.151768782910162,2.336142009896009,0.0,0.15946732042821735,0.1,0.003010988235473633,0.05764603614807129,0.04987393,0.71286875,2.462851862999176,0.0,0.009285423722417457,0.0,300,0.023558855056762695,0.04736184802143026,0.04311286488199314,82586,3.047967775261617,0.0
302,2.122523307800293,2.5363801037028217,0.25702223155371,2.8089327605130814,2.244192692911224,0.0,0.13883645005997344,0.1,0.002943754196166992,0.058861732482910156,0.048681162,1.0029829,2.47020468706954,0.0,0.00720233751106716,0.0,300,0.024433374404907227,0.03251710412719963,0.028502495839570523,82886,3.0515076901288594,0.0
303,2.0708539485931396,3.0556868297062674,0.540106513604595,3.9760618500023455,2.5934982639472994,0.0,0.13930965185285266,0.1,0.0029604434967041016,0.07552909851074219,0.049138755,3.0324998,2.528752901333213,0.0,0.014054001739585395,0.0,300,0.03841733932495117,0.03792101191790623,0.03573301492013929,83186,2.8608791625602774,0.0
304,2.0944440364837646,2.4273840581692214,0.32590600410244813,2.737216465450829,1.956934676185191,0.0,0.16373006793277006,0.1,0.0029282569885253906,0.0890195369720459,0.04961686,0.7245035,2.5186160170168135,0.0,0.0057271211789107065,0.0,300,0.024647235870361328,0.04388970698238498,0.03176465029832951,83486,2.996064400581171,0.0
305,2.108816146850586,2.4386077957366727,0.42568331284603256,2.8252652981819173,1.7180174290296109,0.0,0.1480960710767016,0.1,0.0029153823852539062,0.0566563606262207,0.049397394,1.5141132,2.5106151948887994,0.0,0.005902325047725003,0.0,300,0.02572917938232422,0.030096717801600135,0.027079414968278655,83786,2.9888124649316268,0.0
306,2.0479896068573,3.4862028777548657,0.8807800139916239,4.465702530195644,2.2437585700256966,0.0,0.1535761668282189,0.1,0.003376483917236328,0.05772233009338379,0.049990572,1.0065099,2.608173963175406,0.0,0.01988464372438621,0.0,300,0.025683164596557617,0.11342723918698039,0.04179324570107524,84086,3.0062322428465396,0.0
307,2.0886740684509277,2.8346663081681784,0.39736323623965497,3.2911959808351474,2.1981239529415637,0.0,0.1659938494601841,0.1,0.005826473236083984,0.06663346290588379,0.050170194,0.6767566,2.630823197674683,0.0,0.010950028589627037,0.0,300,0.025089263916015625,0.08134749036478243,0.05650401309467181,84386,2.9469899493603813,0.0
308,2.0832366943359375,2.91614633109885,0.348115430267438,3.4930052931782583,2.591387560811843,0.0,0.161488525369262,0.1,0.0031099319458007812,0.057955265045166016,0.050424285,0.5544584,2.6593555110171,0.0,0.012097823170098488,0.0,300,0.025176048278808594,0.02155842298375003,0.030791486334600916,84686,3.044355154802806,0.0
309,2.0094382762908936,2.783282543826577,0.17446448236645376,3.0240931621873797,2.544457976311284,0.0,0.16052250443253732,0.1,0.004445791244506836,0.057973623275756836,0.049827896,0.6824365,2.6717482142980478,0.0,0.01035687277443953,0.0,300,0.025269269943237305,0.022196564548757108,0.018809125205055895,84986,3.053346288593431,0.0
310,2.137538194656372,3.079932618813209,0.31978596306493046,3.5105174400084365,2.73340657562661,0.0,0.15926911587240547,0.1,0.0030913352966308594,0.05778861045837402,0.049900673,0.8633131,2.7125666547495637,0.0,0.014285540756530192,0.0,300,0.039763450622558594,0.03062977048895436,0.020957373101505826,85286,3.0212430079554458,0.0
311,2.035430669784546,3.1135136739079963,0.8985507864465604,4.592035091280903,2.2720030136724647,0.0,0.16060826558253888,0.1,0.0031363964080810547,0.0578615665435791,0.049274974,1.2120407,2.7526613566654072,0.0,0.014876476819474347,0.0,300,0.025514841079711914,0.04542963221818366,0.04452480626145576,85586,2.907278942193907,0.0
312,2.118194103240967,2.67742870903015,0.8576324831748708,3.4603495899268957,1.2347998205705364,0.0,0.16597908093485142,0.1,0.003040790557861328,0.06037020683288574,0.048605993,0.7280891,2.745138091901882,0.0,0.008880441798911431,0.0,300,0.026377201080322266,0.07929955654097588,0.03592366012257077,85886,3.0808904665151644,0.0
313,2.096315860748291,3.0163031865354273,0.5447947688779528,3.710822988967168,2.312773965043111,0.0,0.14858645147709068,0.1,0.0031862258911132812,0.057817697525024414,0.049306456,0.61118066,2.772254601365237,0.0,0.01341117036197805,0.0,300,0.026026487350463867,0.02672681580967375,0.034083583442282794,86186,2.9283730370348366,0.0
314,2.050191640853882,2.973060025534192,0.28604752787339555,3.4160613947358587,2.6447830771271987,0.0,0.1615740347933294,0.1,0.003091573715209961,0.06003236770629883,0.050086033,1.2280135,2.7923351437821324,0.0,0.012905545905556546,0.0,300,0.026251792907714844,0.025473995793546537,0.016846684301399715,86486,2.8824863225973902,0.0
315,2.112253427505493,2.6839713198961093,0.17944284277107636,2.870228605348328,2.3896648157022984,0.0,0.15889283432948123,0.1,0.0031871795654296875,0.05858135223388672,0.050466526,0.59532976,2.7814987613935305,0.0,0.008999209283697282,0.0,300,0.027231216430664062,0.035691008694708856,0.030194912725850658,86786,2.8634871087717912,0.0
316,2.125481605529785,2.7940182558962245,0.17346244628508928,2.97893547019907,2.539638195995555,0.0,0.16470562200998157,0.1,0.0031349658966064453,0.05811357498168945,0.04975128,0.6058535,2.7827507108438,0.0,0.010445322395051908,0.0,300,0.04080486297607422,0.01974323926096837,0.020847562928524434,87086,2.6893953356709326,0.0
317,2.1219449043273926,3.4987367655585984,0.8174030858433043,4.473614297738277,2.6603698284810826,0.0,0.16123624711297235,0.1,0.003112316131591797,0.07567000389099121,0.049848385,0.9671756,2.8543493163152798,0.0,0.01989639252835116,0.0,300,0.042333364486694336,0.04475360165147228,0.028802987430043704,87386,2.7783740672019195,0.0
318,2.1146199703216553,3.1151669435847427,1.0799978772650036,4.612975099907036,1.713212181926457,0.0,0.1589946340246835,0.1,0.00437164306640625,0.058229684829711914,0.050109845,1.2524257,2.8804310790422263,0.0,0.014601381401493379,0.0,300,0.02713799476623535,0.07940728605735677,0.07984982606447921,87686,2.835125679271299,0.0
319,2.0688750743865967,2.723947368538947,1.1361999718534135,4.273294376659755,1.068644829574278,0.0,0.14732135559587647,0.1,0.003679990768432617,0.05684661865234375,0.04989975,1.0085311,2.8647827079918984,0.0,0.009696100067175382,0.0,300,0.026567697525024414,0.08995397425121592,0.07373004427760091,87986,2.929140279316177,0.0
320,2.1301262378692627,3.3681740643800353,0.6334653763791507,4.386550681435365,2.6632117068673553,0.0,0.14189293724683394,0.1,0.0030145645141601562,0.0571291446685791,0.04934343,1.0380841,2.915121843630712,0.0,0.018183540909345784,0.0,300,0.0266873836517334,0.04944140737550897,0.039163429176919735,88286,2.9038985071947434,0.0
321,2.087301254272461,2.9635021674834876,0.2714971365763424,3.381363199976062,2.6741471363322304,0.0,0.15712116635034465,0.1,0.002988576889038086,0.056700944900512695,0.049507216,0.78898394,2.91995987601599,0.0,0.01280726070342017,0.0,300,0.02673482894897461,0.03517898980208189,0.025859754367493767,88586,2.909718672404359,0.0
322,2.1409740447998047,3.996574050054512,1.0187284330086688,5.079530960906968,2.371467231741152,0.0,0.14911270442308847,0.1,0.0030012130737304688,0.05658912658691406,0.049549483,0.89722484,3.0276212934198425,0.0,0.026618243861363813,0.0,300,0.02708888053894043,0.06319745713997019,0.05502745384646288,88886,2.8113926148883484,0.0
323,2.1163392066955566,2.8501526483042214,0.10605341469012819,3.0194237991110655,2.7592979739464245,0.0,0.16128095771815068,0.1,0.0029854774475097656,0.058428049087524414,0.050354093,0.69128823,3.0098744289082804,0.0,0.01118148460139177,0.0,300,0.04531097412109375,0.02003187471853434,0.022337012277522477,89186,2.756999271579772,0.0
324,2.187682628631592,2.7136219177743013,0.35696755607300407,3.2653391515897114,2.2825507751173917,0.0,0.1432654060040909,0.1,0.0029447078704833984,0.07350373268127441,0.050300874,0.5827021,2.9802491777948825,0.0,0.00949397357362002,0.0,300,0.030133485794067383,0.09237393419761694,0.03362563450791795,89486,2.8684679183793915,0.0
325,2.1725454330444336,3.098405385534758,0.4000833367023484,3.5515743729312916,2.5844044290547603,0.0,0.14143817751645898,0.1,0.0029802322387695312,0.05765724182128906,0.049597226,1.3156173,2.99206479856887,0.0,0.014494694649180535,0.0,300,0.027277231216430664,0.03152458628212878,0.039101488366371756,89786,2.8079787409334416,0.0
326,2.1125080585479736,2.8730015765465127,0.20449935498372696,3.1993080839325363,2.6355807549694745,0.0,0.14878933568404773,0.1,0.0029764175415039062,0.056290388107299805,0.049032364,0.82344973,2.9801584763666344,0.0,0.011757908142171094,0.0,300,0.02664923667907715,0.039122990282057006,0.033805539180419245,90086,2.878864124806494,0.0
327,2.1275110244750977,2.369193619593978,0.7665912916761036,3.0471061897344245,1.0685141527206727,0.0,0.14158316722220166,0.1,0.019237279891967773,0.08359146118164062,0.049653403,0.65364736,2.919061990689369,0.0,0.005070940604697209,0.0,300,0.027240753173828125,0.10795745096913564,0.09204142597207222,90386,3.0479143892128193,0.0
328,2.285839080810547,3.3244132380286535,0.7544180785137619,4.575592511470106,2.6244569497020764,0.0,0.15457912220991268,0.1,0.0029320716857910156,0.059766530990600586,0.049813274,1.5660903,2.959597115423297,0.0,0.017429696087784656,0.0,300,0.041402339935302734,0.06216466149354563,0.027427574991998056,90686,2.962065907349029,0.0
329,2.12290096282959,2.641551420265476,0.6063504823313841,3.018492480967429,1.5918095439042466,0.0,0.1539313755243501,0.1,0.006524324417114258,0.0693514347076416,0.049310442,0.5183375,2.927792545907515,0.0,0.008471060442567038,0.0,300,0.027997970581054688,0.031123851877394474,0.04153231579267928,90986,3.1496567088846916,0.0
330,2.0544421672821045,2.098996025376671,1.0095115377162154,2.8660894766378338,0.37800289701113554,0.0,0.14786199659216434,0.1,0.0031845569610595703,0.07806968688964844,0.05019535,0.46754307,2.8449128938544304,0.0,0.008073275353986763,0.0,299,0.02777552604675293,0.7710413439616735,0.4271332625534725,91285,3.1277707681450884,0.0
331,2.102470874786377,3.391867205246649,0.8672892708668525,4.850256775277583,2.689545700402606,0.0,0.16218915208502147,0.1,0.0030906200408935547,0.05804562568664551,0.049897403,1.4853525,2.8996083249936526,0.0,0.018354477399423662,0.0,300,0.02657008171081543,0.09441682891938623,0.11403191074639496,91585,3.3101437688349926,0.0
332,2.1021013259887695,4.271830808596651,1.6526789710716616,6.139158948994746,2.017894864159563,0.0,0.15699316522841963,0.1,0.002958059310913086,0.08361029624938965,0.049241003,1.1294894,3.0368305733539525,0.0,0.030026798933244978,0.0,300,0.026863813400268555,0.27305653126317914,0.10824396319614327,91885,3.155124621417755,0.0
333,2.1254258155822754,2.7187140271553996,0.2941533413791652,3.116186320566269,2.32282953088041,0.0,0.15237363053531017,0.1,0.0030591487884521484,0.08263993263244629,0.048064116,0.96351296,3.0050189187340974,0.0,0.009555401448049441,0.0,300,0.031844139099121094,0.0867835187457971,0.16642207923344948,92185,3.2985968256955824,0.0
334,2.07965350151062,2.79300151388503,0.13765006299328486,2.9789006739505295,2.590875879775026,0.0,0.15507277056570476,0.1,0.0031850337982177734,0.07214713096618652,0.049072444,0.9311085,2.983817178249191,0.0,0.010591245288855045,0.0,300,0.03617715835571289,0.4163990459241941,0.04463398105819066,92485,3.562918519658681,0.0
335,2.090317964553833,3.196637763046373,0.1860907889626958,3.4739178468152017,2.949329339105512,0.0,0.1482341941562114,0.1,0.007259368896484375,0.07599496841430664,0.049002156,4.3731437,3.0050992367289093,0.0,0.0158092340098032,0.0,300,0.02854776382446289,0.02004227483504815,0.08914205208379221,92785,3.429987990658392,0.0
336,2.110227584838867,3.2587201947025366,0.5956776554118038,4.2440044990108365,2.761176186411131,0.0,0.1595678654145514,0.1,0.0038394927978515625,0.07229161262512207,0.050000228,1.1059992,3.030461332526272,0.0,0.016741057358766662,0.0,300,0.028035879135131836,0.18579803092275934,0.12105684104541288,93085,3.5911223906650513,0.0
337,2.120089530944824,3.444376928137286,1.1331480092037798,5.3464917807659225,2.4308338092672686,0.0,0.15199142957256825,0.1,0.007084846496582031,0.07502460479736328,0.049502764,1.1450986,3.0718528920873736,0.0,0.019213325111605326,0.0,300,0.02660846710205078,0.16960650639848268,0.08744146421801131,93385,3.9225877551201425,0.0
338,2.1048543453216553,3.922804338836935,0.7141323621621464,4.821744183965856,2.846563110669676,0.0,0.13751518882990243,0.1,0.0030748844146728516,0.05764317512512207,0.050403554,2.4776802,3.1569480367623295,0.0,0.025693402812515878,0.0,300,0.026845932006835938,0.03576020795533514,0.0489668615798336,93685,3.5260722501641335,0.0
339,2.165983200073242,3.1394358500740402,0.7051103717607791,4.321531487935265,2.4608045355903543,0.0,0.15085489756333864,0.1,0.0030646324157714844,0.09238505363464355,0.04932756,3.4002264,3.1551968180935006,0.0,0.014998649570508326,0.0,300,0.026734590530395508,0.167645314716282,0.0506111520331921,93985,3.7784289205930572,0.0
340,2.1855714321136475,3.400143531515716,0.6089513754215193,4.197306881111219,2.7863407547372683,0.0,0.1489388216227222,0.1,0.003013134002685547,0.05800223350524902,0.05009525,1.5386808,3.179691489435722,0.0,0.018560810079885783,0.0,300,0.029614925384521484,0.03265116053775553,0.04613082165762419,94285,3.373687592984215,0.0
341,2.1525840759277344,3.399836649215478,0.7723991280928327,4.704146839022973,2.770454072648968,0.0,0.16417632015621478,0.1,0.0031430721282958984,0.08055830001831055,0.050062694,1.1589291,3.2017060054136977,0.0,0.018632102437578596,0.0,300,0.028016090393066406,0.04355730319029218,0.04340603312204194,94585,3.2946001619484324,0.0
342,2.2260310649871826,4.110239656546958,1.0728879191051321,5.243678351821295,2.6069627917797047,0.0,0.15938945975021443,0.1,0.002931356430053711,0.07194924354553223,0.04953879,1.0136193,3.292559370527024,0.0,0.027711758742059233,0.0,300,0.02690601348876953,0.09796259219474814,0.059377131435850085,94885,3.7299394547378406,0.0
343,2.1901628971099854,4.309677647013744,0.9383747263720387,5.29817748444932,2.912016605176894,0.0,0.16260094084297536,0.1,0.0029587745666503906,0.07399368286132812,0.049935862,1.1695734,3.394271198175696,0.0,0.030637354441369953,0.0,300,0.04239940643310547,0.04032259528990755,0.03662228958006536,95185,3.5225203605214914,0.0
344,2.192768096923828,3.944750624349174,0.8998303584897668,5.008550347875408,2.8738276539879415,0.0,0.15534471958264404,0.1,0.0029692649841308594,0.057768821716308594,0.050259553,0.9872172,3.4493191407930444,0.0,0.025730885819154684,0.0,300,0.04320883750915527,0.047078708742990076,0.03879941993660959,95485,4.139170670003538,0.0
345,2.5510146617889404,3.5681067255822407,1.2822682789091269,5.692991934555841,2.40490689601275,0.0,0.14599549405899,0.1,0.002970457077026367,0.057352304458618164,0.05052273,0.7439867,3.461197899271964,0.0,0.020647832931846667,0.0,300,0.026499509811401367,0.07163445421778751,0.05436702071655554,95785,4.0445518060345735,0.0
346,2.055807590484619,4.211009332916349,1.1486505844760393,5.56590600461375,2.609215180396485,0.0,0.16469710040012125,0.1,0.003005504608154297,0.07130622863769531,0.049718563,0.9957913,3.5361790426364026,0.0,0.0289587175904383,0.0,300,0.04479718208312988,0.05496058481824985,0.05472443289625268,96085,4.130872937900792,0.0
347,2.0770387649536133,4.8199407254829225,0.6242536940576217,5.267674878276003,3.743527371483117,0.0,0.15409288874413912,0.1,0.0037717819213867188,0.06135296821594238,0.049322635,1.3755702,3.664555210921055,0.0,0.03713208002136224,0.0,300,0.027635574340820312,0.04995348865794754,0.02923857062738007,96385,4.080423818091725,0.0
348,2.0461764335632324,4.415419160702993,1.352440457762055,5.482033965931104,2.1168897834644933,0.0,0.13622165753528662,0.1,0.0030260086059570312,0.05778694152832031,0.049664423,1.0278176,3.7396416058992488,0.0,0.03185326640626657,0.0,300,0.028233766555786133,0.06976084126523766,0.06951424878086064,96685,4.1198188607590795,0.0
349,2.120595932006836,4.5532065415366025,1.7754881267646827,7.249890128463806,2.531917666491058,0.0,0.158781722999661,0.1,0.003190755844116211,0.07138419151306152,0.049820498,0.9789381,3.820998099462984,0.0,0.033614670728563084,0.0,300,0.029428482055664062,0.1109304374251969,0.09939843342995104,96985,3.8849120866416844,0.0
350,2.0513670444488525,4.510049971389037,1.2048318107541924,5.807979357265784,2.5417239445985844,0.0,0.15895858662010448,0.1,0.0033397674560546875,0.07566237449645996,0.050251547,0.8561085,3.8899032866555894,0.0,0.03306412493869123,0.0,300,0.04130697250366211,0.04266363483109344,0.035805803753466134,97285,4.158751242266075,0.0
351,2.06564998626709,4.533473700120845,0.8299890431603936,5.3636514662390455,3.604727616813547,0.0,0.15489414987899403,0.1,0.003125429153442383,0.05742025375366211,0.049600694,1.5870954,3.954260328002115,0.0,0.033535120377123605,0.0,300,0.027163267135620117,0.03304016069725314,0.03319765002551047,97585,4.499869650819925,0.0
352,2.15629506111145,4.757455963753934,0.9721018997533235,5.95322101450256,3.4033833955976385,0.0,0.1478904915017748,0.1,0.0031549930572509766,0.059865713119506836,0.050058413,1.3676791,4.034579891577296,0.0,0.03635331169357542,0.0,300,0.02815532684326172,0.060075336314784435,0.05113043323561171,97885,4.647355835406153,0.0
353,2.064962863922119,3.9068198149472875,0.5304733104133088,4.691994830575836,3.208570337431913,0.0,0.16286549321013785,0.1,0.0030236244201660156,0.057738304138183594,0.05026144,0.95986164,4.021803883914296,0.0,0.02508407297371823,0.0,300,0.02777862548828125,0.14208073075333702,0.0875514603108768,98185,4.589113114399714,0.0
354,2.0766210556030273,4.859594154790926,0.279984231455259,5.152816559882116,4.566313010876038,0.0,0.16599471094287727,0.1,0.004227876663208008,0.07230925559997559,0.049883723,0.99333274,4.105582911001958,0.0,0.03756090782549727,0.0,300,0.0286867618560791,0.031216753763631127,0.026653067398288467,98485,4.514791826282562,0.0
355,2.144744634628296,4.3996559968265725,1.0737501950284951,5.256837970001856,2.558442913352793,0.0,0.13900890874158717,0.1,0.0030939579010009766,0.07766342163085938,0.048882082,0.6816408,4.13499021958442,0.0,0.03158675163803586,0.0,300,0.0277559757232666,0.03205927811886236,0.03182984109565263,98785,4.456194362223743,0.0
356,2.152772903442383,4.317461373456568,0.6226708816093838,5.177991415043245,3.5030218592039684,0.0,0.16313343704978642,0.1,0.0030803680419921875,0.058374643325805664,0.049948044,0.9328896,4.153237334971635,0.0,0.030340342334182355,0.0,300,0.02746272087097168,0.03681627518746921,0.024859216338888927,99085,4.036678797226522,0.0
357,2.100177049636841,5.34233956316346,0.43143777028486535,5.773794059081325,4.648616062927097,0.0,0.1621888367545554,0.1,0.0037584304809570312,0.0585179328918457,0.049946457,0.93909854,4.2721475577908175,0.0,0.04401157878420939,0.0,300,0.02755451202392578,0.04007444179929541,0.01711898150949326,99385,4.383366728930192,0.0
358,2.1820437908172607,4.7950803743013966,1.057261818332907,5.838763736512527,3.0379211159482193,0.0,0.16459021338340443,0.1,0.0030744075775146484,0.0920562744140625,0.050249636,0.844338,4.324440839441875,0.0,0.03679954250005475,0.0,300,0.02731800079345703,0.029049159341045495,0.0328522382433299,99685,4.739752236765853,0.0
359,2.1301803588867188,4.57255882533819,0.5308630960153166,5.058113057953172,3.7057345126599373,0.0,0.16016313000251053,0.1,0.004842281341552734,0.08553552627563477,0.04985892,1.344104,4.349252638031507,0.0,0.033773933595058606,0.0,300,0.02740931510925293,0.05444632820600032,0.0174940224868968,99985,4.474230176304956,0.0
