iteration,time_sampling,stoc_pol_mean,stoc_pol_std,stoc_pol_max,stoc_pol_min,rollout_success,alpha,delta,time_vpg,time_npg,kl_dist,surr_improvement,running_score,rwd_sparse,rwd_dense,success_percentage,num_samples,time_VF,VF_error_before,VF_error_after,env_samples,eval_score,eval_success
0,1.0959994792938232,-0.9999995902824224,6.569050021739537e-07,-0.9999984529891066,-0.9999999853348152,0.0,0.04713285524495093,0.1,0.053206682205200195,0.039856910705566406,0.049582846,12.024541,-0.9999995902824224,0.0,-0.03999999859251245,0.0,4,0.0026645660400390625,0.9366627379650979,0.9366627379650979,4,-0.9999999716317566,0.0
1,0.929072380065918,-0.9999999733662291,1.6187365191073697e-08,-0.9999999457851363,-0.9999999852937611,0.0,0.0823199400554268,0.1,0.0019505023956298828,0.0345156192779541,0.049807943,2.1905067,-0.999999628590803,0.0,-0.03999999995603199,0.0,4,0.0015072822570800781,0.9366490817495638,0.9366490817495638,8,-0.9999999692800747,0.0
2,0.9420566558837891,-0.9999999509143978,5.8653839916464677e-08,-0.9999998493251152,-0.9999999851836268,0.0,0.058240187267300715,0.1,0.0018453598022460938,0.03509783744812012,0.04987421,1.1716475,-0.9999996608231625,0.0,-0.03999999992172272,0.0,4,0.0013730525970458984,0.9366939565002991,0.9366939565002991,12,-0.9999998435624154,0.0
3,0.9711041450500488,-0.9999999112795803,1.2760105508363378e-07,-0.9999996902681823,-0.9999999850799026,0.0,0.06243699549942536,0.1,0.0016796588897705078,0.03380560874938965,0.052130416,10.540751,-0.9999996858688043,0.0,-0.03999999764106047,0.0,4,0.001796722412109375,0.9366629024767468,0.9366629024767468,16,-0.9999999708921185,0.0
4,1.0407068729400635,-0.9999984057513661,2.6126912452147316e-06,-0.9999938830139832,-0.999999985413007,0.0,0.06651597583788951,0.1,0.0019419193267822266,0.03533577919006348,0.0503793,2.680855,-0.9999995578570604,0.0,-0.03999999496938588,0.0,4,0.0013129711151123047,0.9366796339400435,0.9366796339400435,20,-0.9999999771912984,0.0
5,0.955927848815918,-0.999999982396828,4.445589144978043e-09,-0.9999999747066224,-0.9999999853083734,0.0,0.06016524343015131,0.1,0.0016810894012451172,0.03258061408996582,0.05224108,1.8773028,-0.9999996003110372,0.0,-0.03999999986721592,0.0,4,0.0015575885772705078,0.936676321072158,0.936676321072158,24,-0.9999999387685049,0.0
6,1.0481328964233398,-0.9999999786742861,4.656941103835077e-09,-0.9999999731248874,-0.9999999847910828,0.0,0.05135010004865992,0.1,0.0017054080963134766,0.036763906478881836,0.046590388,0.8011684,-0.9999996381473621,0.0,-0.03999999994564411,0.0,4,0.0014886856079101562,0.93668240074591,0.93668240074591,28,-0.9999991943754077,0.0
7,0.9788944721221924,-0.9999999664362952,2.4729980953461602e-08,-0.9999999249235141,-0.9999999853573338,0.0,0.053831675896552224,0.1,0.0016782283782958984,0.03250288963317871,0.04493671,4.5832586,-0.9999996709762555,0.0,-0.039999999564502044,0.0,4,0.0013990402221679688,0.9366806722112158,0.9366806722112158,32,-0.9999999690659691,0.0
8,1.040855884552002,-0.9999996369662103,5.99036460041385e-07,-0.9999985994128209,-0.999999984764685,0.0,0.05953906190608523,0.1,0.0017809867858886719,0.03474998474121094,0.05039233,8.276505,-0.999999667575251,0.0,-0.039999999932182964,0.0,4,0.0015904903411865234,0.9366776466873081,0.9366776466873081,36,-0.9999998788067558,0.0
9,1.0456018447875977,-0.9999999743174198,1.8451574122850494e-08,-0.9999999423591062,-0.999999985136272,0.0,0.08072181596533366,0.1,0.0016751289367675781,0.03316068649291992,0.050451778,1.1133354,-0.9999996982494679,0.0,-0.03999999775230757,0.0,4,0.0013759136199951172,0.936689255280042,0.936689255280042,40,-0.9999997350761816,0.0
10,1.0341832637786865,-0.9999999101360713,8.523681648722089e-08,-0.9999997767192188,-0.9999999853080632,0.0,0.06937728927559905,0.1,0.0016677379608154297,0.0327303409576416,0.053068206,1.8648387,-0.9999997194381283,0.0,-0.03999999978863025,0.0,4,0.0015828609466552734,0.9366558653522373,0.9366558653522373,44,-0.9999997224962588,0.0
11,1.0009756088256836,-0.9999999595733087,4.171693118209594e-08,-0.9999998873726215,-0.9999999853980042,0.0,0.05217588823262552,0.1,0.001683950424194336,0.03399372100830078,0.05455807,18.222492,-0.9999997434516463,0.0,-0.03999999669581512,0.0,4,0.0015387535095214844,0.9366956292037825,0.9366956292037825,48,-0.9999999058180483,0.0
12,0.9741508960723877,-0.9999999366198264,8.420308445768297e-08,-0.9999997907759735,-0.9999999854401354,0.0,0.06208002777693864,0.1,0.0016980171203613281,0.03447246551513672,0.05100473,1.1710888,-0.9999997627684644,0.0,-0.03999998529878567,0.0,4,0.0015568733215332031,0.9366446038486651,0.9366446038486651,52,-0.9999993636140331,0.0
13,0.9871630668640137,-0.9999998479823318,1.5406015414656274e-07,-0.9999995968575004,-0.9999999852029615,0.0,0.060279606529696515,0.1,0.0018374919891357422,0.032762765884399414,0.051255085,3.14655,-0.9999997712898512,0.0,-0.0399999995073185,0.0,4,0.001279592514038086,0.9366491186981678,0.9366491186981678,56,-0.9999996941595929,0.0
14,1.1211771965026855,-0.9999999422860053,6.737786968913032e-08,-0.999999825881468,-0.9999999851047396,0.0,0.05622788128744841,0.1,0.0017139911651611328,0.03441572189331055,0.047067657,2.0268965,-0.9999997883894666,0.0,-0.039999998301080406,0.0,4,0.0014739036560058594,0.9366812607094802,0.9366812607094802,60,-0.9999998764882351,0.0
15,1.0024302005767822,-0.9999999644632023,3.5111875980802326e-08,-0.9999999036497114,-0.9999999852001744,0.0,0.057901068531777344,0.1,0.0018177032470703125,0.03469228744506836,0.052240834,1.2674398,-0.9999998059968402,0.0,-0.039999999957863984,0.0,4,0.0014719963073730469,0.9366666017401193,0.9366666017401193,64,-0.9999999379564707,0.0
16,1.053767442703247,-0.9999999848506584,1.723099043741122e-10,-0.9999999846614771,-0.9999999851304173,0.0,0.08057819825398375,0.1,0.001798868179321289,0.03240704536437988,0.051782385,1.0781084,-0.9999998238822221,0.0,-0.03999999591594569,0.0,4,0.0013022422790527344,0.9366642213292989,0.9366642213292989,68,-0.9999998981100787,0.0
17,0.9849140644073486,-0.9999999740494963,1.1208991292073775e-08,-0.9999999593537849,-0.9999999851787904,0.0,0.061874566595388605,0.1,0.0016582012176513672,0.03218722343444824,0.048138566,3.3152828,-0.9999998388989495,0.0,-0.039999994045711154,0.0,4,0.0014805793762207031,0.9366415677878841,0.9366415677878841,72,-0.9999994558606198,0.0
18,1.03938889503479,-0.9999998448404657,1.522134491328169e-07,-0.9999996201906947,-0.9999999848170256,0.0,0.06249974342221068,0.1,0.0019252300262451172,0.03677701950073242,0.056291662,2.5557237,-0.9999998394931011,0.0,-0.039999999957192375,0.0,4,0.001421213150024414,0.9366978194833483,0.9366978194833483,76,-0.9999994972254574,0.0
19,1.124999761581421,-0.9999999731539817,1.3308103467686744e-08,-0.9999999524994718,-0.9999999850519392,0.0,0.07175489321496097,0.1,0.0017125606536865234,0.034926414489746094,0.050471388,1.3006696,-0.9999998528591892,0.0,-0.03999999975665276,0.0,4,0.0017893314361572266,0.9366985536046037,0.9366985536046037,80,-0.9999996619280435,0.0
20,1.0676512718200684,-0.9999994168903765,8.12024043146165e-07,-0.9999980229068051,-0.9999999826504553,0.0,0.07516981389415149,0.1,0.0017881393432617188,0.033670663833618164,0.04802216,1.6915447,-0.999999809262308,0.0,-0.03999999245436491,0.0,4,0.0016567707061767578,0.9366720136495472,0.9366720136495472,84,-0.9999999764894657,0.0
21,1.0014588832855225,-0.9999999827548214,3.855658001772322e-09,-0.9999999760866003,-0.9999999853208175,0.0,0.06678947106662947,0.1,0.0016782283782958984,0.03580594062805176,0.046700835,1.0733186,-0.9999998266115594,0.0,-0.039999999024247224,0.0,4,0.0012993812561035156,0.9366566515394313,0.9366566515394313,88,-0.9999997535047144,0.0
22,0.9971475601196289,-0.9999999815180627,6.011508176412473e-09,-0.9999999711080889,-0.9999999851283019,0.0,0.06284015837467742,0.1,0.0018122196197509766,0.03278946876525879,0.049841054,2.119323,-0.9999998421022097,0.0,-0.039999999957658475,0.0,4,0.0013630390167236328,0.9366759038396457,0.9366759038396457,92,-0.9999999834765357,0.0
23,1.032522201538086,-0.9999999783690907,1.0444709738102381e-08,-0.9999999602919141,-0.9999999849744927,0.0,0.06620103792562809,0.1,0.001596212387084961,0.03221392631530762,0.055197664,0.97619736,-0.9999998557288978,0.0,-0.039999993938992735,0.0,4,0.0017025470733642578,0.9366692877240922,0.9366692877240922,96,-0.999999977288469,0.0
24,1.0536651611328125,-0.9999998843959054,1.746862169175158e-07,-0.9999995818305267,-0.9999999853429336,0.0,0.06863063599737998,0.1,0.0016107559204101562,0.03265118598937988,0.04917951,1.9064243,-0.9999998585955986,0.0,-0.03999999941481022,0.0,4,0.0015692710876464844,0.9366774384631309,0.9366774384631309,100,-0.9999997740619698,0.0
25,0.9556984901428223,-0.9999999547518038,3.461399385266011e-08,-0.9999999002701407,-0.9999999849420018,0.0,0.06734177117966582,0.1,0.0022017955780029297,0.039792537689208984,0.048254065,4.942978,-0.9999998682112191,0.0,-0.03999999995414094,0.0,4,0.0013570785522460938,0.9366621276162742,0.9366621276162742,104,-0.9999998994466862,0.0
26,0.9997329711914062,-0.9999999843199303,7.654344562015624e-10,-0.9999999829997896,-0.9999999848231105,0.0,0.07339700740036693,0.1,0.0016558170318603516,0.03350424766540527,0.048892885,1.4380388,-0.9999998798220903,0.0,-0.03999999995804162,0.0,4,0.0013818740844726562,0.9366741157003069,0.9366741157003069,108,-0.9999998585993243,0.0
27,1.0654315948486328,-0.999999977473683,1.3063848501358475e-08,-0.9999999548498604,-0.9999999852048829,0.0,0.0771489264800974,0.1,0.0017747879028320312,0.03399991989135742,0.05075998,3.5485942,-0.9999998895872496,0.0,-0.03999999970349522,0.0,4,0.0016052722930908203,0.9366506910749688,0.9366506910749688,112,-0.9999998805314125,0.0
28,1.033963680267334,-0.9999999850550805,1.6678772232577605e-10,-0.9999999848529277,-0.9999999852549217,0.0,0.08190648457938116,0.1,0.0016508102416992188,0.03397774696350098,0.050403655,1.5178962,-0.9999998991340326,0.0,-0.03999999995155228,0.0,4,0.0015757083892822266,0.9366701817937616,0.9366701817937616,116,-0.9999998980121299,0.0
29,1.0378658771514893,-0.9999999589246567,4.5392886079323396e-08,-0.999999880302932,-0.9999999853929946,0.0,0.05729581140376305,0.1,0.0018727779388427734,0.03390169143676758,0.051613152,9.404781,-0.9999999051130951,0.0,-0.03999999995763667,0.0,4,0.0015332698822021484,0.9366654692518039,0.9366654692518039,120,-0.999999870319244,0.0
30,0.9845588207244873,-0.9999993648706424,8.940628113459519e-07,-0.9999978333723014,-0.9999999848559478,0.0,0.06373306189756865,0.1,0.0018649101257324219,0.03512239456176758,0.04990068,1.7226311,-0.9999998510888499,0.0,-0.039999973551064924,0.0,4,0.0015034675598144531,0.9366333264121178,0.9366333264121178,124,-0.9999998803142609,0.0
31,0.972081184387207,-0.9999966645070933,5.732444457835257e-06,-0.9999867356481831,-0.9999999848698562,0.0,0.07524740763799079,0.1,0.0017924308776855469,0.03572344779968262,0.05344513,2.7080617,-0.9999995324306743,0.0,-0.03999999916059792,0.0,4,0.0013594627380371094,0.9366587916909667,0.9366587916909667,128,-0.9999998525929298,0.0
32,1.0315043926239014,-0.9999999798525199,8.617755219912229e-09,-0.9999999649326003,-0.9999999852067458,0.0,0.058791376224930636,0.1,0.0018129348754882812,0.03385043144226074,0.04485321,13.68354,-0.9999995771728589,0.0,-0.03999999994566175,0.0,4,0.0013475418090820312,0.9366753673978441,0.9366753673978441,132,-0.9999998171222968,0.0
33,0.9825439453125,-0.9999999708489762,1.989268576909928e-08,-0.9999999368183603,-0.9999999855180861,0.0,0.054445174399038995,0.1,0.001825571060180664,0.03483700752258301,0.04936322,5.9040003,-0.9999996165404706,0.0,-0.03999999872050335,0.0,4,0.0015299320220947266,0.9366514659353489,0.9366514659353489,136,-0.9999999504753161,0.0
34,1.039900541305542,-0.999999982389331,3.759940867970778e-09,-0.9999999760322329,-0.9999999853340606,0.0,0.07025449289363939,0.1,0.0017750263214111328,0.03259992599487305,0.049809255,4.318247,-0.9999996531253568,0.0,-0.03999999966482761,0.0,4,0.0012412071228027344,0.9366669631429517,0.9366669631429517,140,-0.9999993504337604,0.0
35,1.034508466720581,-0.9999999850066035,2.1408842149716566e-10,-0.9999999848271159,-0.9999999853600563,0.0,0.0510032443232803,0.1,0.0016751289367675781,0.03626418113708496,0.053329505,14.707657,-0.9999996863134815,0.0,-0.039999999143852105,0.0,4,0.0014116764068603516,0.9366734004445714,0.9366734004445714,144,-0.9999998832070937,0.0
36,1.0659441947937012,-0.9999999848990202,1.5752927001089834e-10,-0.9999999847017733,-0.9999999850835992,0.0,0.05361708651385142,0.1,0.0016641616821289062,0.033159494400024414,0.05166057,13.145116,-0.9999997161720354,0.0,-0.039999999958018694,0.0,4,0.0016019344329833984,0.9366853213734967,0.9366853213734967,148,-0.9999999464277307,0.0
37,1.0465407371520996,-0.9999986688803904,2.0221331827552887e-06,-0.9999951801019105,-0.9999999845662568,0.0,0.05953379101704111,0.1,0.0017251968383789062,0.034307003021240234,0.04899214,3.2212076,-0.999999611442871,0.0,-0.03999999986817711,0.0,4,0.001367330551147461,0.9366963610262866,0.9366963610262866,152,-0.9999999831047838,0.0
38,1.1311540603637695,-0.9999999809253237,7.28056024976661e-09,-0.9999999683174035,-0.9999999853533439,0.0,0.059152188305780055,0.1,0.0015981197357177734,0.033971548080444336,0.049808808,1.7291739,-0.9999996483911162,0.0,-0.03999999989510284,0.0,4,0.0014073848724365234,0.9366764998860919,0.9366764998860919,156,-0.9999998598226391,0.0
39,0.9798426628112793,-0.9999999806915373,6.480881816063674e-09,-0.9999999694829307,-0.9999999849554748,0.0,0.05056079347690357,0.1,0.0020170211791992188,0.0360414981842041,0.051457375,2.2998474,-0.9999996816211584,0.0,-0.03999999457683302,0.0,4,0.0013928413391113281,0.9366722083516789,0.9366722083516789,160,-0.9999999603928659,0.0
40,0.9827404022216797,-0.999999888134349,1.6771485681785848e-07,-0.9999995976439855,-0.9999999853493491,0.0,0.059990667689836914,0.1,0.001725912094116211,0.03531479835510254,0.04776426,4.136225,-0.9999997022724774,0.0,-0.039999999946216655,0.0,4,0.0013196468353271484,0.9366751734860951,0.9366751734860951,164,-0.9999999738032382,0.0
41,1.065037727355957,-0.9999996497196608,5.540498638567656e-07,-0.9999986906363318,-0.9999999852720638,0.0,0.04690346749911588,0.1,0.0017306804656982422,0.03547787666320801,0.05094044,37.691837,-0.9999996970171957,0.0,-0.03999999966712417,0.0,4,0.0015125274658203125,0.9366747856623197,0.9366747856623197,168,-0.9999999672897716,0.0
42,0.9992105960845947,-0.9999998723062082,1.937581407235542e-07,-0.9999995367105183,-0.9999999849921208,0.0,0.05614009776458618,0.1,0.0016603469848632812,0.032155513763427734,0.049176604,4.4520245,-0.999999714546097,0.0,-0.039999997397520776,0.0,4,0.0014188289642333984,0.9366706435320235,0.9366706435320235,172,-0.9999999653673788,0.0
43,0.9965472221374512,-0.9999999784292075,1.0945190132631235e-08,-0.9999999594747493,-0.9999999849583128,0.0,0.053513369918843014,0.1,0.0019397735595703125,0.035910606384277344,0.04872951,0.97815406,-0.9999997409344081,0.0,-0.03999999992744467,0.0,4,0.0015075206756591797,0.9366476512380928,0.9366476512380928,176,-0.9999997017902853,0.0
44,0.9715280532836914,-0.9999999590041414,1.9011004284713878e-08,-0.99999993293777,-0.9999999849045851,0.0,0.05985131940272497,0.1,0.0016467571258544922,0.03203773498535156,0.048861142,2.826955,-0.9999997627413815,0.0,-0.039999999953041196,0.0,4,0.0014548301696777344,0.9366569420115736,0.9366569420115736,180,-0.9999999797106689,0.0
45,1.0580055713653564,-0.9999998903093391,1.279401543693301e-07,-0.9999996733846723,-0.9999999846432706,0.0,0.06438419197318276,0.1,0.0017795562744140625,0.03244781494140625,0.04989019,2.2154005,-0.9999997754981772,0.0,-0.03999999991399933,0.0,4,0.0013175010681152344,0.936671723965203,0.936671723965203,184,-0.9999998564691479,0.0
46,1.019280195236206,-0.9999999498387921,6.038611204089988e-08,-0.9999998452491907,-0.9999999852540808,0.0,0.060275021984163825,0.1,0.0018258094787597656,0.03302597999572754,0.04882867,7.1593304,-0.9999997929322387,0.0,-0.039999999745598175,0.0,4,0.0013294219970703125,0.9366331597555326,0.9366331597555326,188,-0.9999999338740135,0.0
47,1.247422695159912,-0.9999999684710479,2.882758974354969e-08,-0.9999999185419775,-0.9999999853689905,0.0,0.048731537127380736,0.1,0.0016565322875976562,0.034314632415771484,0.05187028,1.1148745,-0.9999998104861196,0.0,-0.03999999984109512,0.0,4,0.0014679431915283203,0.9366567707487207,0.9366567707487207,192,-0.999999400177004,0.0
48,1.1162383556365967,-0.9999999469093244,6.245059935834876e-08,-0.999999838797826,-0.9999999854903954,0.0,0.06217667933613523,0.1,0.001947164535522461,0.03721213340759277,0.052382186,3.6426804,-0.9999998241284401,0.0,-0.03999999295128852,0.0,4,0.0014986991882324219,0.9366822143839079,0.9366822143839079,196,-0.9999999338345485,0.0
49,1.0410149097442627,-0.9999999847435079,6.281387617437421e-10,-0.999999983666285,-0.9999999852085326,0.0,0.05501046347874521,0.1,0.0017957687377929688,0.03220677375793457,0.052479215,2.5561929,-0.9999998401899469,0.0,-0.03999999965107939,0.0,4,0.0012929439544677734,0.936637101215994,0.936637101215994,200,-0.9999999616845651,0.0
50,1.0506856441497803,-0.9999999801077246,8.669636101688768e-09,-0.999999965092093,-0.9999999852398043,0.0,0.06768894160977919,0.1,0.0019085407257080078,0.035021305084228516,0.051128276,2.1957269,-0.9999998541817248,0.0,-0.03999999931609741,0.0,4,0.001306295394897461,0.9366862750478107,0.9366862750478107,204,-0.9999998129711885,0.0
51,1.0548324584960938,-0.999999320201865,1.1514451014889474e-06,-0.9999973258404473,-0.9999999850069641,0.0,0.06360637640520721,0.1,0.001880645751953125,0.03463125228881836,0.052031666,1.9353944,-0.9999998007837388,0.0,-0.039999999894337904,0.0,4,0.0013167858123779297,0.9366901855407028,0.9366901855407028,208,-0.9999999593407662,0.0
52,1.040902853012085,-0.9999991353747362,1.4441690537436426e-06,-0.9999966342288931,-0.9999999852335832,0.0,0.06224646143154191,0.1,0.0019371509552001953,0.03486061096191406,0.050075557,2.0567188,-0.9999997342428386,0.0,-0.039999997574197685,0.0,4,0.001331329345703125,0.9366790168121639,0.9366790168121639,212,-0.9999999702392368,0.0
53,1.0436129570007324,-0.9999999838284458,1.8189959178358325e-09,-0.9999999807109017,-0.9999999852733068,0.0,0.06384814468455695,0.1,0.0017528533935546875,0.035594940185546875,0.046704907,0.77324116,-0.9999997592013994,0.0,-0.03999999988575387,0.0,4,0.0013065338134765625,0.9366466975637788,0.9366466975637788,216,-0.9999999317605743,0.0
54,1.1117780208587646,-0.9999999846295679,4.0562975956764054e-10,-0.9999999841998592,-0.9999999852150876,0.0,0.05124798545489843,0.1,0.0017795562744140625,0.03243064880371094,0.050832517,18.364872,-0.9999997817442163,0.0,-0.03999998243990403,0.0,4,0.0012941360473632812,0.9366666651197286,0.9366666651197286,220,-0.9999996980981338,0.0
55,1.1850810050964355,-0.999999626497929,3.177865943393292e-07,-0.9999992309580676,-0.9999999763308904,0.0,0.055388249221460566,0.1,0.0017590522766113281,0.03335285186767578,0.049713142,10.714232,-0.9999997662195876,0.0,-0.03999999913179001,0.0,4,0.0013675689697265625,0.936682947730481,0.936682947730481,224,-0.9999998941530626,0.0
56,1.098188877105713,-0.9999999519577198,3.426166386218858e-08,-0.9999999049662487,-0.9999999847405479,0.0,0.06553058968234175,0.1,0.0018346309661865234,0.03267168998718262,0.049562003,1.9740579,-0.9999997847934009,0.0,-0.03999999743186776,0.0,4,0.0013170242309570312,0.9366689821512234,0.9366689821512234,228,-0.9999997981293282,0.0
57,1.0149328708648682,-0.9999999851118836,2.498343608592287e-10,-0.9999999847828405,-0.9999999854338097,0.0,0.05330026804339605,0.1,0.001661539077758789,0.03582596778869629,0.05000747,12.652139,-0.9999998048252492,0.0,-0.039999999295953166,0.0,4,0.001775503158569336,0.9367046928830003,0.9367046928830003,232,-0.9999999695850166,0.0
58,1.2776169776916504,-0.9999999851983958,4.684894594815895e-10,-0.999999984446224,-0.9999999856250819,0.0,0.05150511093473401,0.1,0.0019965171813964844,0.03444337844848633,0.054511636,15.88589,-0.999999822862564,0.0,-0.03999999986075767,0.0,4,0.0013346672058105469,0.9366685724683567,0.9366685724683567,236,-0.9999999536054646,0.0
59,0.9709620475769043,-0.9999999799172319,7.331464749828818e-09,-0.9999999674159519,-0.9999999852279748,0.0,0.061987043937433255,0.1,0.0018367767333984375,0.03826785087585449,0.048695423,6.6284575,-0.9999998385680308,0.0,-0.03999999945251616,0.0,4,0.00174713134765625,0.9366500354238778,0.9366500354238778,240,-0.9999998633066317,0.0
60,0.9829156398773193,-0.9999990028507604,1.7007496503991003e-06,-0.9999960570660169,-0.9999999850894545,0.0,0.053548699137840224,0.1,0.0016009807586669922,0.03418922424316406,0.050487127,3.5848243,-0.9999997549963038,0.0,-0.039999999957158666,0.0,4,0.0015416145324707031,0.9366666001505352,0.9366666001505352,244,-0.9999999818600503,0.0
61,1.0413391590118408,-0.9999999848932394,1.828326707705617e-10,-0.9999999847331285,-0.9999999851841712,0.0,0.05770113589918198,0.1,0.0016186237335205078,0.03657245635986328,0.050135672,5.316795,-0.9999997779859974,0.0,-0.039999999936481824,0.0,4,0.0013778209686279297,0.9366751885839102,0.9366751885839102,248,-0.9999996822574224,0.0
62,1.065162181854248,-0.9999999704559591,2.1698669164643126e-08,-0.9999999330825258,-0.9999999849076084,0.0,0.068619626662123,0.1,0.0016193389892578125,0.032390594482421875,0.049236283,3.0094135,-0.9999997972329936,0.0,-0.03999999991938074,0.0,4,0.0012793540954589844,0.9366452670523078,0.9366452670523078,252,-0.9999992874672801,0.0
63,1.1499121189117432,-0.9999999284287191,9.752862674219169e-08,-0.999999759504681,-0.9999999850632597,0.0,0.06064649689620108,0.1,0.00180816650390625,0.03290104866027832,0.04884721,4.9391103,-0.9999998103525662,0.0,-0.03999999994495781,0.0,4,0.0013248920440673828,0.9366864463141809,0.9366864463141809,256,-0.9999997474673256,0.0
64,1.0806729793548584,-0.9999999637488921,3.672157283811962e-08,-0.9999999001492756,-0.9999999852922137,0.0,0.06349264737472418,0.1,0.0016455650329589844,0.03206586837768555,0.048810292,2.783449,-0.9999998256921988,0.0,-0.03999999895223767,0.0,4,0.0012903213500976562,0.9366409121367542,0.9366409121367542,260,-0.9999997999667017,0.0
65,1.1019737720489502,-0.9999999829491153,3.486454994123056e-09,-0.9999999769106265,-0.9999999849947645,0.0,0.04510935479512679,0.1,0.0017697811126708984,0.0368952751159668,0.050027557,2.0838044,-0.9999998414178906,0.0,-0.03999999993574025,0.0,4,0.0015251636505126953,0.9366711950727202,0.9366711950727202,264,-0.9999998763018052,0.0
66,1.1124200820922852,-0.9999998305463118,2.378046892098539e-07,-0.999999420342421,-0.9999999849109835,0.0,0.055322776777898965,0.1,0.0017473697662353516,0.034587860107421875,0.04899929,9.673596,-0.9999998403307327,0.0,-0.039999999707416335,0.0,4,0.0015711784362792969,0.9366641986786514,0.9366641986786514,268,-0.999999835673024,0.0
67,1.0587146282196045,-0.9999999796970009,9.090756777963965e-09,-0.9999999639542283,-0.9999999851828865,0.0,0.08673135369459742,0.1,0.001958131790161133,0.036087751388549805,0.049948912,1.4096135,-0.9999998542673596,0.0,-0.03999999995228194,0.0,4,0.00150299072265625,0.9366643405385882,0.9366643405385882,272,-0.9999998251132682,0.0
68,1.111147165298462,-0.999999984999087,2.0711028307609357e-10,-0.9999999847780277,-0.999999985332807,0.0,0.05894537708051785,0.1,0.0016188621520996094,0.03365373611450195,0.04794244,8.01047,-0.9999998673405324,0.0,-0.039999999181653624,0.0,4,0.0015931129455566406,0.936672983212059,0.936672983212059,276,-0.9999997788386903,0.0
69,1.0230085849761963,-0.9999999840405591,1.5076634002655382e-09,-0.9999999814565326,-0.9999999851681096,0.0,0.06515637484798137,0.1,0.0016617774963378906,0.03461170196533203,0.05096834,1.9332775,-0.9999998790105351,0.0,-0.039999999956945934,0.0,4,0.0013725757598876953,0.9366860366292322,0.9366860366292322,280,-0.9999999606673091,0.0
70,0.9984452724456787,-0.9999997335118422,4.23039956287996e-07,-0.9999990009262978,-0.9999999845141083,0.0,0.051253572605584136,0.1,0.0018696784973144531,0.03348708152770996,0.04626699,16.055128,-0.9999998644606659,0.0,-0.039999999813290124,0.0,4,0.0014312267303466797,0.9366931589995333,0.9366931589995333,284,-0.9999997844257901,0.0
71,0.9912610054016113,-0.9999993739195548,1.0531372988877228e-06,-0.999997549842097,-0.9999999850869947,0.0,0.057718908312100324,0.1,0.0017232894897460938,0.03487801551818848,0.05081208,8.0672,-0.9999998154065548,0.0,-0.039999999888497166,0.0,4,0.0013747215270996094,0.9366708215552336,0.9366708215552336,288,-0.9999989248378457,0.0
72,0.9925024509429932,-0.9999999790902689,8.852914073361425e-09,-0.999999963820823,-0.9999999851065313,0.0,0.07369699869105978,0.1,0.0017020702362060547,0.03610420227050781,0.04940626,3.8291278,-0.9999998317749262,0.0,-0.03999999775319778,0.0,4,0.0014722347259521484,0.9366714930959433,0.9366714930959433,292,-0.9999999116268015,0.0
73,0.965256929397583,-0.9999999580272569,4.673061471723836e-08,-0.9999998770874645,-0.9999999850264303,0.0,0.043262821327248915,0.1,0.0018856525421142578,0.036669254302978516,0.049132816,3.962789,-0.9999998444001593,0.0,-0.03999999944972239,0.0,4,0.0013544559478759766,0.936683469855554,0.936683469855554,296,-0.9999999799876759,0.0
74,1.0048027038574219,-0.9999999848310059,2.553660128969565e-10,-0.9999999845397745,-0.9999999852329842,0.0,0.05344706996980109,0.1,0.0016396045684814453,0.03193259239196777,0.050642658,4.6647325,-0.999999858443244,0.0,-0.03999999818990195,0.0,4,0.0012793540954589844,0.9366766787000258,0.9366766787000258,300,-0.9999998890784766,0.0
75,1.1084015369415283,-0.9999999810906299,4.3813660671806535e-09,-0.9999999743488812,-0.9999999853653903,0.0,0.05616360458628372,0.1,0.0016663074493408203,0.03376436233520508,0.04792993,5.059183,-0.9999998707079827,0.0,-0.039999999812853876,0.0,4,0.0014688968658447266,0.9366667247243733,0.9366667247243733,304,-0.9999999568669576,0.0
76,0.9433839321136475,-0.9999999786662394,6.376995993184714e-09,-0.9999999698587041,-0.999999984834236,0.0,0.051418672978924974,0.1,0.0018863677978515625,0.03618955612182617,0.046926238,12.998951,-0.9999998815038084,0.0,-0.03999999505302783,0.0,4,0.0013458728790283203,0.936693248791232,0.936693248791232,308,-0.9999999823409844,0.0
77,1.0317201614379883,-0.9999999794023124,9.055125858649907e-09,-0.999999963731234,-0.9999999851883459,0.0,0.0650924559051088,0.1,0.001558542251586914,0.031891822814941406,0.050800323,1.5628484,-0.9999998912936588,0.0,-0.03999999980602424,0.0,4,0.0011801719665527344,0.936664996189679,0.936664996189679,312,-0.9999998482297352,0.0
78,1.101745843887329,-0.9999999653920801,3.152953018735984e-08,-0.9999999108940436,-0.9999999853897894,0.0,0.059207193026773734,0.1,0.0016579627990722656,0.031671762466430664,0.04724321,6.424266,-0.9999998987035009,0.0,-0.03999999995740006,0.0,4,0.0013227462768554688,0.9366825795598439,0.9366825795598439,316,-0.9999997760184381,0.0
79,1.0873217582702637,-0.9999999850093113,2.4931395743352796e-10,-0.9999999847411125,-0.9999999854171666,0.0,0.07291121123345808,0.1,0.0016906261444091797,0.03400158882141113,0.04960693,3.415308,-0.999999907334082,0.0,-0.03999999710209595,0.0,4,0.0013852119445800781,0.9366263127753166,0.9366263127753166,320,-0.9999999731366652,0.0
80,1.047327995300293,-0.999999984852408,1.699628180198829e-10,-0.999999984635723,-0.9999999850483432,0.0,0.07546739461255664,0.1,0.0017812252044677734,0.03557586669921875,0.045836903,2.8752382,-0.9999999150859146,0.0,-0.03999999984114723,0.0,4,0.0017557144165039062,0.936648426098473,0.936648426098473,324,-0.999999890865265,0.0
81,1.1900310516357422,-0.9999998742638596,1.9126124543015004e-07,-0.9999995429897603,-0.9999999848651775,0.0,0.07152393417342864,0.1,0.00167083740234375,0.034245967864990234,0.052102424,1.220637,-0.9999999110037091,0.0,-0.039999996522579066,0.0,4,0.0014727115631103516,0.936644417482135,0.936644417482135,328,-0.9999996486096556,0.0
82,1.0189452171325684,-0.9999999709004879,2.4656010900393752e-08,-0.999999928195358,-0.9999999852335295,0.0,0.060973006901509044,0.1,0.0017921924591064453,0.03249382972717285,0.048402254,4.9198637,-0.999999916993387,0.0,-0.03999999972921758,0.0,4,0.0012919902801513672,0.936645863098754,0.936645863098754,332,-0.9999996737986366,0.0
83,1.062117576599121,-0.9999999828126406,2.492392845198231e-09,-0.9999999795267596,-0.9999999853293902,0.0,0.08172476066052238,0.1,0.0017919540405273438,0.03212761878967285,0.048484232,2.8137784,-0.9999999235753123,0.0,-0.03999999841671523,0.0,4,0.0012443065643310547,0.9366942620701906,0.9366942620701906,336,-0.9999993839605458,0.0
84,1.1041765213012695,-0.9999999839881069,1.6328587626244077e-09,-0.9999999812229963,-0.9999999851929224,0.0,0.06371714132345045,0.1,0.001669168472290039,0.03229665756225586,0.048682857,5.2666054,-0.9999999296165918,0.0,-0.039999998859041846,0.0,4,0.0013098716735839844,0.9366894936986205,0.9366894936986205,340,-0.9999998468666602,0.0
85,0.9723553657531738,-0.9999979333761517,3.55078135666666e-06,-0.9999917832429439,-0.9999999848089138,0.0,0.07777861523247423,0.1,0.001753091812133789,0.03731560707092285,0.051423848,1.2002335,-0.9999997299925478,0.0,-0.03999999894553741,0.0,4,0.001527547836303711,0.936670219359299,0.936670219359299,344,-0.9999997463099474,0.0
86,0.9998180866241455,-0.9999999328446572,8.698101776075723e-08,-0.9999997822231563,-0.9999999848758407,0.0,0.06650540876259334,0.1,0.0018341541290283203,0.03365612030029297,0.05356675,0.78177094,-0.9999997502777588,0.0,-0.03999999004301826,0.0,4,0.001462697982788086,0.9366645118023436,0.9366645118023436,348,-0.9999999219934796,0.0
87,0.9932637214660645,-0.9999999846886529,6.050839740007043e-10,-0.9999999836441829,-0.9999999851134367,0.0,0.058180873426467924,0.1,0.0019278526306152344,0.0338749885559082,0.05168526,1.0002806,-0.9999997737188482,0.0,-0.039999999528282246,0.0,4,0.0013375282287597656,0.9366619563528031,0.9366619563528031,352,-0.9999998902683496,0.0
88,1.072361946105957,-0.9999997565565877,3.4010074457449267e-07,-0.9999991700720949,-0.9999999852559138,0.0,0.05817584990418748,0.1,0.0018787384033203125,0.03491663932800293,0.05079829,8.343877,-0.9999997720026221,0.0,-0.03999999994723254,0.0,4,0.0014653205871582031,0.9366913670858514,0.9366913670858514,356,-0.9999991289604484,0.0
89,0.9869084358215332,-0.9999999849956214,2.1221125383095595e-10,-0.9999999847883114,-0.9999999852982209,0.0,0.046961049460898185,0.1,0.0016782283782958984,0.031911611557006836,0.048219904,8.205903,-0.999999793301922,0.0,-0.03999999934672626,0.0,4,0.0014350414276123047,0.9366938448376783,0.9366938448376783,360,-0.9999999677819215,0.0
90,0.9683167934417725,-0.9999998247781618,2.2865242859860935e-07,-0.9999994338421072,-0.9999999852087735,0.0,0.06570395997980119,0.1,0.0018224716186523438,0.03917956352233887,0.04979688,1.7801168,-0.999999796449546,0.0,-0.03999999993639393,0.0,4,0.00148773193359375,0.9366697456873627,0.9366697456873627,364,-0.9999988990785039,0.0
91,1.0609495639801025,-0.9999999113857989,1.2590654366022825e-07,-0.9999996933180066,-0.9999999851138914,0.0,0.0662839932670783,0.1,0.0019605159759521484,0.03636360168457031,0.049866922,1.7472576,-0.9999998079431713,0.0,-0.03999999986247733,0.0,4,0.0013926029205322266,0.9366658231046816,0.9366658231046816,368,-0.9999996992630321,0.0
92,1.0684595108032227,-0.9999993063406964,1.1742525414866431e-06,-0.9999972724761326,-0.9999999852421984,0.0,0.06896455127002625,0.1,0.0017290115356445312,0.03553271293640137,0.050417595,3.1040957,-0.9999997577829238,0.0,-0.039999999956193966,0.0,4,0.0015459060668945312,0.9366662206671504,0.9366662206671504,372,-0.999999574032682,0.0
93,1.0108833312988281,-0.9999999808840718,5.7387186207636005e-09,-0.9999999710797218,-0.9999999850714798,0.0,0.06668670427041824,0.1,0.0015747547149658203,0.031806230545043945,0.049014226,1.0466973,-0.9999997800930387,0.0,-0.039999999850864915,0.0,4,0.0012612342834472656,0.9366425848432995,0.9366425848432995,376,-0.9999996971255333,0.0
94,1.084334135055542,-0.999999650974666,2.8163258890639135e-07,-0.9999992754348812,-0.9999999733689904,0.0,0.048555208846158646,0.1,0.0016140937805175781,0.03204798698425293,0.050427556,2.8240368,-0.9999997671812015,0.0,-0.03999999995218147,0.0,4,0.0012912750244140625,0.9366611957936246,0.9366611957936246,380,-0.9999997832080071,0.0
95,1.0696687698364258,-0.9999999786599612,7.107738624579579e-09,-0.9999999678135696,-0.999999985163337,0.0,0.061317840177301755,0.1,0.001664876937866211,0.03418684005737305,0.050369084,3.3681471,-0.9999997883290775,0.0,-0.0399999994300832,0.0,4,0.0016326904296875,0.9366718507238111,0.9366718507238111,384,-0.9999999395807336,0.0
96,1.134629249572754,-0.9999999806651221,4.617171957145197e-09,-0.9999999734679998,-0.9999999848485863,0.0,0.047196493899701694,0.1,0.0018570423126220703,0.03477311134338379,0.049736213,24.146395,-0.9999998075626819,0.0,-0.039999999957238935,0.0,4,0.0014624595642089844,0.9366936064190997,0.9366936064190997,388,-0.9999999762458298,0.0
97,1.121290922164917,-0.999999953561272,3.9180058784618024e-08,-0.9999998890467139,-0.9999999851084012,0.0,0.05662622631852397,0.1,0.0018379688262939453,0.03510284423828125,0.049012035,5.192507,-0.999999822162541,0.0,-0.03999999995114671,0.0,4,0.0016436576843261719,0.9367051621748246,0.9367051621748246,392,-0.9999999562233349,0.0
98,1.0545058250427246,-0.9999999850516575,3.1173943106228126e-10,-0.99999998461178,-0.9999999854430572,0.0,0.06354650357956626,0.1,0.001573324203491211,0.03234982490539551,0.04952559,4.3367057,-0.9999998384514527,0.0,-0.039999999814250245,0.0,4,0.001338958740234375,0.9366904473729345,0.9366904473729345,396,-0.9999999338025635,0.0
99,0.9824707508087158,-0.9999996806508342,5.252570102117441e-07,-0.9999987708811695,-0.9999999850753412,0.0,0.05281455525234457,0.1,0.0017359256744384766,0.03565168380737305,0.05134791,3.6124747,-0.9999998226713909,0.0,-0.039999999880068166,0.0,4,0.0013875961303710938,0.9366682963011412,0.9366682963011412,400,-0.9999988227023294,0.0
100,1.032689094543457,-0.9999999700062031,2.5875926051156465e-08,-0.9999999251894758,-0.9999999853051826,0.0,0.04323491229743779,0.1,0.0017685890197753906,0.03334450721740723,0.050525986,0.8387161,-0.9999998374048722,0.0,-0.03999999985904514,0.0,4,0.0013163089752197266,0.936666605515084,0.936666605515084,404,-0.9999999805462623,0.0
101,0.9989607334136963,-0.9999999570843381,4.584953284245179e-08,-0.9999998777316679,-0.9999999850752168,0.0,0.06924491988765194,0.1,0.001922607421875,0.03387951850891113,0.050184615,1.4113384,-0.9999998493728188,0.0,-0.03999999972996234,0.0,4,0.0014176368713378906,0.9366723237863445,0.9366723237863445,408,-0.9999997921183192,0.0
102,1.0828406810760498,-0.9999999346032641,8.20576328266194e-08,-0.9999997926028454,-0.9999999854569503,0.0,0.07857571714827878,0.1,0.0017080307006835938,0.035265445709228516,0.050916456,1.0583805,-0.9999998578958633,0.0,-0.039999999037828866,0.0,4,0.0016508102416992188,0.9366692205698304,0.9366692205698304,412,-0.9999998904844491,0.0
103,0.9859423637390137,-0.999999984846491,1.5285256178536466e-10,-0.9999999846909327,-0.9999999850589074,0.0,0.07106309736849234,0.1,0.0016083717346191406,0.0321962833404541,0.052373443,1.4868792,-0.9999998705909261,0.0,-0.03999999985782493,0.0,4,0.0012443065643310547,0.9366648173757453,0.9366648173757453,416,-0.9999997886417962,0.0
104,1.0577435493469238,-0.9999997323832747,4.370661741176273e-07,-0.9999989753625615,-0.9999999850656651,0.0,0.06523129841360685,0.1,0.0017783641815185547,0.035271644592285156,0.048815623,3.4516778,-0.9999998567701609,0.0,-0.039999999108356346,0.0,4,0.0015139579772949219,0.9366623433835674,0.9366623433835674,420,-0.9999999841566983,0.0
105,1.0391967296600342,-0.9999996151858797,6.387615848686869e-07,-0.9999985088203194,-0.9999999851303041,0.0,0.05773912935689586,0.1,0.0016720294952392578,0.03245830535888672,0.05049214,3.478536,-0.9999998326117328,0.0,-0.03999999891530809,0.0,4,0.0015015602111816406,0.9366332411953001,0.9366332411953001,424,-0.9999997791811714,0.0
106,1.1445918083190918,-0.9999999850235186,2.508633709131892e-10,-0.9999999847026206,-0.9999999852895842,0.0,0.05395742964697572,0.1,0.0019521713256835938,0.03649163246154785,0.049797907,9.42538,-0.9999998478529114,0.0,-0.03999999968205309,0.0,4,0.001367330551147461,0.9366781688161415,0.9366781688161415,428,-0.9999999674931788,0.0
107,1.0563714504241943,-0.9999999821764101,4.471063632932084e-09,-0.9999999744469314,-0.9999999850155834,0.0,0.06669483980696246,0.1,0.0017938613891601562,0.035307884216308594,0.04968091,3.06735,-0.9999998612852613,0.0,-0.03999999782901587,0.0,4,0.0013620853424072266,0.9367084479756117,0.9367084479756117,432,-0.9999995723246085,0.0
108,1.0750882625579834,-0.999999403229139,6.07540028622366e-07,-0.9999985450451612,-0.9999999851277306,0.0,0.06047784464304689,0.1,0.001734018325805664,0.03440260887145996,0.05085716,3.7281744,-0.9999998154796491,0.0,-0.03999999641869625,0.0,4,0.0013790130615234375,0.9366856035247224,0.9366856035247224,436,-0.9999999817552226,0.0
109,1.0870575904846191,-0.999999978415766,1.1378373376371823e-08,-0.9999999587080592,-0.9999999850680523,0.0,0.06558926676555546,0.1,0.0017566680908203125,0.03178119659423828,0.050641123,2.4925437,-0.9999998317732609,0.0,-0.03999999971920602,0.0,4,0.001332998275756836,0.9366825795598439,0.9366825795598439,440,-0.9999999800853109,0.0
110,1.0386970043182373,-0.9999987388662064,2.157925248767112e-06,-0.9999950012301266,-0.9999999852329942,0.0,0.05239380233580036,0.1,0.0016891956329345703,0.03506350517272949,0.049353898,12.712411,-0.9999997224825555,0.0,-0.039999999774622236,0.0,4,0.0014231204986572266,0.9366834343324238,0.9366834343324238,444,-0.9999999415944444,0.0
111,1.018744707107544,-0.9999998854681997,1.3144112468910187e-07,-0.9999996593141987,-0.999999974995049,0.0,0.05991396174043546,0.1,0.0017390251159667969,0.0346989631652832,0.048174735,7.226082,-0.99999973878112,0.0,-0.039999999278240536,0.0,4,0.0014352798461914062,0.9366810147426611,0.9366810147426611,448,-0.9999999747021607,0.0
112,1.0586705207824707,-0.9999991179500477,1.0569809962073233e-06,-0.999997328563317,-0.999999985002205,0.0,0.05397527840998696,0.1,0.0016105175018310547,0.032842159271240234,0.05198464,0.82760143,-0.9999996766980128,0.0,-0.039999999957967367,0.0,4,0.00177001953125,0.9366521275209062,0.9366521275209062,452,-0.9999999731282937,0.0
113,1.0623483657836914,-0.9999992508357942,9.501144066808575e-07,-0.9999976519604883,-0.9999999850212073,0.0,0.06546967177987274,0.1,0.001598358154296875,0.033426761627197266,0.04933031,2.195115,-0.999999634111791,0.0,-0.03999999804785092,0.0,4,0.0015048980712890625,0.9366501832198167,0.9366501832198167,456,-0.9999999703733122,0.0
114,1.061410903930664,-0.9999999434202547,7.231369930399733e-08,-0.9999998181692793,-0.9999999852384889,0.0,0.054590581808374464,0.1,0.0016765594482421875,0.036051273345947266,0.05029545,1.4184487,-0.9999996650426374,0.0,-0.039999997361041026,0.0,4,0.0015215873718261719,0.9366629620813985,0.9366629620813985,460,-0.9999999274632083,0.0
115,1.045161247253418,-0.999999985058935,2.2303593939662142e-10,-0.9999999848124035,-0.9999999854089716,0.0,0.056410156046025055,0.1,0.001665353775024414,0.033944129943847656,0.04773045,5.1333976,-0.9999996970442672,0.0,-0.03999999451245548,0.0,4,0.0013744831085205078,0.9366824603505546,0.9366824603505546,464,-0.9999998152231632,0.0
116,1.0344538688659668,-0.9999999806746134,4.146534901533832e-09,-0.9999999745059205,-0.9999999850028944,0.0,0.04543055529742297,0.1,0.0017757415771484375,0.033946990966796875,0.05176799,0.89899546,-0.9999997254073019,0.0,-0.039999999893133985,0.0,4,0.0013051033020019531,0.9366406178900268,0.9366406178900268,468,-0.9999997268409571,0.0
117,1.007781982421875,-0.9999999842532927,1.0080287935994974e-09,-0.9999999825465511,-0.9999999851389352,0.0,0.07629627583875541,0.1,0.0017323493957519531,0.03524208068847656,0.052642506,0.9803623,-0.999999751291901,0.0,-0.039999999650840876,0.0,4,0.001455545425415039,0.9366495585867208,0.9366495585867208,472,-0.9999999660569974,0.0
118,1.03346586227417,-0.9999997357698609,4.31695713152827e-07,-0.9999989880509546,-0.9999999850601615,0.0,0.05700945412680624,0.1,0.0021429061889648438,0.03763556480407715,0.050406247,1.530171,-0.999999749739697,0.0,-0.03999999907598787,0.0,4,0.0014939308166503906,0.9366455944704409,0.9366455944704409,476,-0.9999999179242046,0.0
119,1.0035080909729004,-0.9999999809916684,5.775754892832825e-09,-0.999999971089137,-0.9999999849841714,0.0,0.05651959889236873,0.1,0.001974821090698242,0.036313533782958984,0.050594155,3.054563,-0.999999772864894,0.0,-0.03999997338581973,0.0,4,0.0013453960418701172,0.9366728043981252,0.9366728043981252,480,-0.9999999420964487,0.0
120,0.9960389137268066,-0.9999997127188411,4.6204329473820887e-07,-0.999998912492625,-0.9999999853730213,0.0,0.05007758997743814,0.1,0.0017685890197753906,0.0323023796081543,0.05104862,1.7539233,-0.9999997668502888,0.0,-0.03999999988191208,0.0,4,0.0014278888702392578,0.9366646045860577,0.9366646045860577,484,-0.999999975504109,0.0
121,0.9730734825134277,-0.9999999846731136,2.965391730556368e-10,-0.9999999842176,-0.9999999850368686,0.0,0.05304767039060852,0.1,0.001947641372680664,0.037027835845947266,0.053595614,1.1899763,-0.9999997886325712,0.0,-0.03999999974286015,0.0,4,0.0014908313751220703,0.936689255280042,0.936689255280042,488,-0.9999996797434495,0.0
122,1.0809824466705322,-0.9999999847544526,6.358752129731754e-10,-0.9999999836533566,-0.9999999851362031,0.0,0.07244199306849147,0.1,0.0018715858459472656,0.0349574089050293,0.051009253,0.8318243,-0.9999998082447594,0.0,-0.039999999878366284,0.0,4,0.001653909683227539,0.9366723275609681,0.9366723275609681,492,-0.9999998774979825,0.0
123,1.205366611480713,-0.9999998825542251,1.6964378721843071e-07,-0.9999995888930999,-0.9999999853816133,0.0,0.06084197224226154,0.1,0.0016396045684814453,0.033870697021484375,0.048925065,1.50132,-0.9999998156757061,0.0,-0.039999999956645396,0.0,4,0.0016283988952636719,0.9366605107400211,0.9366605107400211,496,-0.9999993354397975,0.0
124,0.9771385192871094,-0.9999988941190094,1.8893386943012378e-06,-0.9999956216884265,-0.9999999852026711,0.0,0.057914822498514616,0.1,0.0016274452209472656,0.031710147857666016,0.050119225,1.8062652,-0.9999997235200364,0.0,-0.03999999978910398,0.0,4,0.0012595653533935547,0.9366788078039839,0.9366788078039839,500,-0.9999997999728204,0.0
125,1.0515131950378418,-0.9999999092815519,1.306272788205551e-07,-0.9999996830308893,-0.999999985240668,0.0,0.07670051348627303,0.1,0.0016443729400634766,0.03213644027709961,0.04848157,3.2419875,-0.9999997420961879,0.0,-0.03999999994502554,0.0,4,0.0015912055969238281,0.9366689225465716,0.9366689225465716,504,-0.9999998849123846,0.0
126,1.0392494201660156,-0.9999999850596308,1.7564426819606156e-10,-0.9999999847748564,-0.9999999852467969,0.0,0.04806421731310558,0.1,0.0017952919006347656,0.033313751220703125,0.048787452,3.0626307,-0.9999997663925322,0.0,-0.03999999689959219,0.0,4,0.001310110092163086,0.9366539693304232,0.9366539693304232,508,-0.9999998922907017,0.0
127,1.072943925857544,-0.9999996597821558,3.3787465985922245e-07,-0.9999991922939926,-0.9999999851091432,0.0,0.051486539919103146,0.1,0.0016155242919921875,0.03194117546081543,0.05116968,23.473448,-0.9999997557314946,0.0,-0.03999999942288773,0.0,4,0.0013017654418945312,0.9366678119139104,0.9366678119139104,512,-0.9999998826504823,0.0
128,1.1381502151489258,-0.9999999850745184,2.7630728401475634e-10,-0.9999999847976748,-0.9999999854634916,0.0,0.055895156536534,0.1,0.0016796588897705078,0.03452157974243164,0.04967559,1.8362807,-0.999999778665797,0.0,-0.039999999932165874,0.0,4,0.0013763904571533203,0.9366693473287369,0.9366693473287369,516,-0.9999999586711114,0.0
129,1.1309964656829834,-0.9999997438198784,3.9974814535118125e-07,-0.999999051799491,-0.9999999851244725,0.0,0.04570372996917126,0.1,0.0018694400787353516,0.03628182411193848,0.046306245,23.384258,-0.9999997751812052,0.0,-0.03999999993541779,0.0,4,0.0014493465423583984,0.9366794499247322,0.9366794499247322,520,-0.9999998904318755,0.0
130,1.0846469402313232,-0.9999999845224615,1.030954160655126e-09,-0.9999999827689741,-0.9999999854133894,0.0,0.05458547186757337,0.1,0.001917123794555664,0.03802680969238281,0.050846953,3.8274696,-0.9999997961153309,0.0,-0.039999999472746295,0.0,4,0.001369476318359375,0.9366674399801087,0.9366674399801087,524,-0.9999999572580313,0.0
131,1.0970237255096436,-0.9999994951646798,7.921930670524437e-07,-0.9999981247416538,-0.9999999848997494,0.0,0.06961072952025849,0.1,0.0016438961029052734,0.03409838676452637,0.04552234,4.5205393,-0.9999997660202657,0.0,-0.0399999996942773,0.0,4,0.0013766288757324219,0.936672267166936,0.936672267166936,528,-0.999999931153403,0.0
132,1.0558826923370361,-0.9999999830160183,2.468177676426961e-09,-0.9999999789007337,-0.9999999852693431,0.0,0.060401423765231846,0.1,0.0015876293182373047,0.0318295955657959,0.047877133,1.7467742,-0.999999787719841,0.0,-0.039999999693370814,0.0,4,0.0012857913970947266,0.9366373992392171,0.9366373992392171,532,-0.9999999149207813,0.0
133,1.1428780555725098,-0.9999998589345058,2.1802773152987282e-07,-0.9999994812999207,-0.9999999852375872,0.0,0.06035861222909526,0.1,0.0018475055694580078,0.03467440605163574,0.050173752,3.37064,-0.9999997948413075,0.0,-0.039999999914390856,0.0,4,0.0017473697662353516,0.9366904918834162,0.9366904918834162,536,-0.9999999676539252,0.0
134,1.3340542316436768,-0.9999998027845813,1.9939609987268302e-07,-0.9999995066736753,-0.9999999854097315,0.0,0.0662107574413107,0.1,0.002076864242553711,0.03692626953125,0.05045239,2.574879,-0.9999997956356349,0.0,-0.03999998780883081,0.0,4,0.0014188289642333984,0.9366900074990046,0.9366900074990046,540,-0.9999996927812291,0.0
135,1.0429768562316895,-0.9999999490037002,6.155655274450968e-08,-0.9999998423867189,-0.9999999849555217,0.0,0.07593846484570735,0.1,0.0017430782318115234,0.03382730484008789,0.049321346,3.2830832,-0.9999998109724415,0.0,-0.03999999965152288,0.0,4,0.0016064643859863281,0.9366670151977162,0.9366670151977162,544,-0.9999998696228777,0.0
136,1.0086696147918701,-0.9999999850532613,2.297269625361529e-10,-0.9999999848208119,-0.9999999854123176,0.0,0.074141859034157,0.1,0.0016629695892333984,0.03299760818481445,0.04774225,3.4724522,-0.9999998283805235,0.0,-0.03999999852123035,0.0,4,0.0013537406921386719,0.9366708374448525,0.9366708374448525,548,-0.999998873863957,0.0
137,1.0074591636657715,-0.9999999849144732,2.9532506366732196e-10,-0.9999999844463319,-0.9999999852139587,0.0,0.06537315660290546,0.1,0.0017762184143066406,0.03739595413208008,0.05111912,2.785454,-0.9999998440339185,0.0,-0.03999999988041519,0.0,4,0.0014765262603759766,0.9366766190953812,0.9366766190953812,552,-0.9999998290097025,0.0
138,0.9877190589904785,-0.9999999828442288,4.101025410812407e-09,-0.9999999757478972,-0.9999999854006898,0.0,0.048401404535106565,0.1,0.0016942024230957031,0.031096220016479492,0.049858756,10.82372,-0.9999998579149495,0.0,-0.03999999959983044,0.0,4,0.001413106918334961,0.9366915202565378,0.9366915202565378,556,-0.9999999573704791,0.0
139,0.9453632831573486,-0.9999999849531148,1.4778524003023485e-10,-0.9999999848409382,-0.9999999852074182,0.0,0.07523885999361232,0.1,0.0014240741729736328,0.026540756225585938,0.049736932,2.5599267,-0.999999870618766,0.0,-0.03999999764864491,0.0,4,0.0010743141174316406,0.9366502142378117,0.9366502142378117,560,-0.9999998456538505,0.0
140,0.9298009872436523,-0.9999999267549733,9.561789239224903e-08,-0.9999997611808669,-0.9999999837224265,0.0,0.05030251578200126,0.1,0.0013453960418701172,0.02356266975402832,0.04920851,22.987709,-0.9999998762323867,0.0,-0.039999997897613285,0.0,4,0.000978708267211914,0.9366927048026127,0.9366927048026127,564,-0.9999999767733404,0.0
141,0.9173438549041748,-0.9999999817169288,6.047691237610874e-09,-0.9999999712424605,-0.999999985292394,0.0,0.0536812187726661,0.1,0.0014081001281738281,0.02513718605041504,0.049502756,7.283347,-0.999999886780841,0.0,-0.03999999993729415,0.0,4,0.001071929931640625,0.9366823411412654,0.9366823411412654,568,-0.9999998314939288,0.0
142,1.4253942966461182,-0.9999996695657464,3.140358721390712e-07,-0.9999993018710776,-0.9999999813910452,0.0,0.0632163661649298,0.1,0.0019338130950927734,0.035381317138671875,0.04880225,5.855815,-0.9999998650593315,0.0,-0.03999999988214886,0.0,4,0.0014297962188720703,0.9366548218677574,0.9366548218677574,572,-0.999999869341137,0.0
143,1.8969850540161133,-0.9999999819242709,5.656236058675093e-09,-0.9999999721300328,-0.9999999853217136,0.0,0.058644066695800745,0.1,0.0017344951629638672,0.028883695602416992,0.050039545,6.464177,-0.9999998767458255,0.0,-0.03999999958795708,0.0,4,0.0011353492736816406,0.9366409755178946,0.9366409755178946,576,-0.9999996239729071,0.0
144,1.5119390487670898,-0.9999999852022293,1.8125433569378571e-10,-0.999999985025009,-0.9999999854899377,0.0,0.058476805739137515,0.1,0.001638174057006836,0.031725168228149414,0.048642904,3.3050458,-0.9999998875914659,0.0,-0.039999996356952144,0.0,4,0.001331329345703125,0.9366803741879927,0.9366803741879927,580,-0.999999972595823,0.0
145,1.732853651046753,-0.9999999384724026,4.819164201444184e-08,-0.9999998732276398,-0.9999999851300079,0.0,0.05295360811144888,0.1,0.0016484260559082031,0.03561663627624512,0.046494387,14.066974,-0.9999998926795595,0.0,-0.03999999618249939,0.0,4,0.0019235610961914062,0.9367102285702218,0.9367102285702218,584,-0.9999999696276832,0.0
146,1.5843288898468018,-0.9999999591034023,3.753841217460582e-08,-0.9999998945226123,-0.9999999844521865,0.0,0.06821783411160469,0.1,0.0018451213836669922,0.03455781936645508,0.049872547,1.264806,-0.9999998993219438,0.0,-0.039999999930580364,0.0,4,0.002629518508911133,0.9366563497406325,0.9366563497406325,588,-0.9999998769657662,0.0
147,1.6583843231201172,-0.9999999851839267,1.8114044017248466e-10,-0.9999999849787606,-0.9999999854382771,0.0,0.0601560070482067,0.1,0.0015749931335449219,0.03202009201049805,0.048812404,7.083467,-0.9999999079081421,0.0,-0.03999999979563075,0.0,4,0.0012905597686767578,0.9367017722554135,0.9367017722554135,592,-0.9999998147803225,0.0
148,1.6385934352874756,-0.9999999610498892,4.1901545532373155e-08,-0.9999998884747558,-0.9999999854262676,0.0,0.05320652143187762,0.1,0.0017936229705810547,0.03750348091125488,0.049246766,2.700361,-0.9999999132223167,0.0,-0.03999999980691285,0.0,4,0.0014126300811767578,0.9366691051353428,0.9366691051353428,596,-0.9999999637270394,0.0
149,1.5977659225463867,-0.9999999411256449,4.032355568677187e-08,-0.9999998844231452,-0.9999999848168941,0.0,0.07306442580910458,0.1,0.0017750263214111328,0.036539316177368164,0.051631734,1.230481,-0.9999999160126496,0.0,-0.039999999957985075,0.0,4,0.00153350830078125,0.9366616507790604,0.9366616507790604,600,-0.9999999608680104,0.0
150,1.7588634490966797,-0.9999994274799426,9.653288947191141e-07,-0.9999977554812969,-0.9999999851821262,0.0,0.052903634793330385,0.1,0.0020470619201660156,0.03682827949523926,0.051272772,2.2283163,-0.9999998671593789,0.0,-0.03999999995476815,0.0,4,0.0015201568603515625,0.9366737459608453,0.9366737459608453,604,-0.999999917601636,0.0
151,1.5422368049621582,-0.9999998635521532,2.1061124926643647e-07,-0.9999994987628278,-0.9999999852990644,0.0,0.07748797514071325,0.1,0.002033710479736328,0.034801483154296875,0.050652266,1.4301351,-0.9999998667986564,0.0,-0.03999999978991789,0.0,4,0.0013630390167236328,0.9366680805316935,0.9366680805316935,608,-0.9999998747181306,0.0
152,1.5121660232543945,-0.9999996503516336,4.914067845000845e-07,-0.9999988063532308,-0.9999999850300738,0.0,0.070672843777003,0.1,0.0016469955444335938,0.03464007377624512,0.051146496,1.7429321,-0.9999998451539541,0.0,-0.03999999962764132,0.0,4,0.0015652179718017578,0.9366451025280647,0.9366451025280647,612,-0.9999999184764475,0.0
153,1.5852336883544922,-0.999999982144645,5.171960281279931e-09,-0.9999999731866551,-0.9999999851701382,0.0,0.06553030252942113,0.1,0.0017235279083251953,0.03335452079772949,0.05064211,2.454331,-0.9999998588530232,0.0,-0.039999999954108384,0.0,4,0.0014653205871582031,0.9366635060735634,0.9366635060735634,616,-0.9999999699744598,0.0
154,1.6370759010314941,-0.9999998579406002,1.5712460383575985e-07,-0.999999589775548,-0.9999999730440845,0.0,0.06334228697583474,0.1,0.0016541481018066406,0.03405284881591797,0.049303725,4.178455,-0.9999998587617809,0.0,-0.03999999995289407,0.0,4,0.001605987548828125,0.9366928164651109,0.9366928164651109,620,-0.9999999802813163,0.0
155,1.5560886859893799,-0.9999993316266408,1.130604473299411e-06,-0.9999973733628182,-0.9999999852440122,0.0,0.08036755919521314,0.1,0.0016727447509765625,0.041028738021850586,0.04893106,3.312797,-0.9999998060482669,0.0,-0.03999999911625498,0.0,4,0.0018308162689208984,0.9366675953507668,0.9366675953507668,624,-0.9999999512418466,0.0
156,1.5685606002807617,-0.9999999731125165,2.0732796266900564e-08,-0.9999999372052515,-0.9999999854152923,0.0,0.05459278197585203,0.1,0.00168609619140625,0.03419637680053711,0.05120969,1.7604208,-0.9999998227546919,0.0,-0.0399999999571421,0.0,4,0.0013513565063476562,0.9366617179342246,0.9366617179342246,628,-0.9999999594036861,0.0
157,1.5619933605194092,-0.999999521766709,8.018192690141828e-07,-0.9999981329750076,-0.9999999848535772,0.0,0.07138393172224179,0.1,0.0018742084503173828,0.03433728218078613,0.05147665,1.0623971,-0.9999997926558937,0.0,-0.039999987741748934,0.0,4,0.0014369487762451172,0.9366683332566389,0.9366683332566389,632,-0.9999999662191522,0.0
158,1.676325798034668,-0.9999999085236461,1.3248574109237466e-07,-0.9999996790518042,-0.9999999852465609,0.0,0.06151355365602496,0.1,0.001653909683227539,0.03464937210083008,0.049747095,6.2385664,-0.999999804242669,0.0,-0.03999999946109745,0.0,4,0.0014939308166503906,0.9366913935002745,0.9366913935002745,636,-0.9999998468123564,0.0
159,1.7800538539886475,-0.9999967890937829,5.53556472879538e-06,-0.9999872012144362,-0.9999999855079178,0.0,0.06743949999855944,0.1,0.0016145706176757812,0.03585982322692871,0.05166494,1.999492,-0.9999995027277805,0.0,-0.039999999842251256,0.0,4,0.0014979839324951172,0.9366444419809591,0.9366444419809591,640,-0.9999996504342064,0.0
160,1.6110718250274658,-0.99999998499905,3.3370628155987554e-10,-0.9999999844379048,-0.999999985310698,0.0,0.08695907898770149,0.1,0.0016558170318603516,0.03436088562011719,0.050384913,1.2809471,-0.9999995509549074,0.0,-0.03999999995795016,0.0,4,0.0014376640319824219,0.9366906261868684,0.9366906261868684,644,-0.9999998702089977,0.0
161,1.73146390914917,-0.9999999819479204,5.316782510549761e-09,-0.9999999727399584,-0.9999999850841077,0.0,0.06055639658770198,0.1,0.0018072128295898438,0.03231644630432129,0.051763035,1.8864505,-0.9999995940542088,0.0,-0.039999994927123014,0.0,4,0.0012936592102050781,0.9366533136793324,0.9366533136793324,648,-0.9999997648022095,0.0
162,1.6898760795593262,-0.9999999850114136,1.9389987055051035e-10,-0.9999999847490215,-0.9999999852861778,0.0,0.06716356829297647,0.1,0.001842498779296875,0.03608345985412598,0.048321515,3.6192813,-0.9999996331499293,0.0,-0.039999992916213645,0.0,4,0.0013244152069091797,0.9366396642157129,0.9366396642157129,652,-0.9999999487841841,0.0
163,1.6483275890350342,-0.9999999667131656,3.105471346179031e-08,-0.999999912930994,-0.9999999853290278,0.0,0.09046088880157276,0.1,0.0019347667694091797,0.0328373908996582,0.05122253,0.8023822,-0.9999996665062529,0.0,-0.03999999254373296,0.0,4,0.0012443065643310547,0.9366332865187379,0.9366332865187379,656,-0.9999999721816296,0.0
164,1.5981993675231934,-0.9999999430679258,7.145419998738196e-08,-0.999999819315369,-0.9999999853344665,0.0,0.05712309947774076,0.1,0.0019063949584960938,0.03996777534484863,0.052365586,0.8443248,-0.9999996941624203,0.0,-0.03999999951250092,0.0,4,0.0017087459564208984,0.9366611143371948,0.9366611143371948,660,-0.9999999156000491,0.0
165,1.7224822044372559,-0.9999999565393516,2.966403398621915e-08,-0.9999999092715888,-0.9999999847898451,0.0,0.049795110530244935,0.1,0.0016989707946777344,0.03401517868041992,0.05021537,4.588403,-0.9999997204001134,0.0,-0.039999999957859904,0.0,4,0.0014030933380126953,0.9366555711045838,0.9366555711045838,664,-0.9999998484642281,0.0
166,1.6625573635101318,-0.9999999116933973,7.360360132473182e-08,-0.9999998338875888,-0.9999999852881307,0.0,0.053986271072082856,0.1,0.0018231868743896484,0.032421112060546875,0.04787735,3.9725275,-0.9999997395294419,0.0,-0.0399999999384146,0.0,4,0.0012655258178710938,0.9366789323538325,0.9366789323538325,668,-0.9999999752950229,0.0
167,1.581629753112793,-0.9999999099328609,1.3020373276883434e-07,-0.999999684413623,-0.9999999854041957,0.0,0.08222668676088554,0.1,0.001642465591430664,0.034696340560913086,0.04988061,1.6927215,-0.9999997565697838,0.0,-0.03999999981347643,0.0,4,0.0016565322875976562,0.9366636177325676,0.9366636177325676,672,-0.9999999544401604,0.0
168,1.8607795238494873,-0.9999999780277854,7.2092941751982124e-09,-0.9999999683057814,-0.9999999852815513,0.0,0.058654224950009826,0.1,0.0016217231750488281,0.031981468200683594,0.05063824,3.4169822,-0.999999778715584,0.0,-0.03999999804203027,0.0,4,0.0012125968933105469,0.9366920566983394,0.9366920566983394,676,-0.9999998416919854,0.0
169,1.7586042881011963,-0.9999998164720846,2.9095073243636406e-07,-0.9999993125321724,-0.999999985227294,0.0,0.08524426113814387,0.1,0.0018124580383300781,0.03264045715332031,0.0508097,1.7380389,-0.9999997824912341,0.0,-0.03999999987215218,0.0,4,0.0013284683227539062,0.9366587150493846,0.9366587150493846,680,-0.9999999264809606,0.0
170,1.7090978622436523,-0.9999999652298364,3.447802375981869e-08,-0.9999999055148332,-0.9999999854885773,0.0,0.055591846406673744,0.1,0.0017464160919189453,0.03253436088562012,0.04550358,10.611746,-0.9999998007650943,0.0,-0.03999999995641918,0.0,4,0.0012204647064208984,0.9367006955988777,0.9367006955988777,684,-0.9999999627862476,0.0
171,1.4792728424072266,-0.9999999576380432,2.7948673789520075e-08,-0.9999999229074155,-0.9999999854587245,0.0,0.05915028956055446,0.1,0.0016050338745117188,0.03266620635986328,0.050386235,2.2144215,-0.9999998164523892,0.0,-0.03999998308547992,0.0,4,0.0012714862823486328,0.9366637407170066,0.9366637407170066,688,-0.9999998236040485,0.0
172,1.6168968677520752,-0.9999999316732984,5.242143806572282e-08,-0.9999998446245619,-0.9999999850020964,0.0,0.05985021940553504,0.1,0.0016918182373046875,0.034841299057006836,0.052014045,1.2125621,-0.9999998279744802,0.0,-0.03999999836885976,0.0,4,0.0014386177062988281,0.9366542598022457,0.9366542598022457,692,-0.9999995813771285,0.0
173,1.5171549320220947,-0.9999999154575914,1.1244518039822178e-07,-0.99999972096754,-0.9999999853217758,0.0,0.08235099209298405,0.1,0.0018763542175292969,0.03545355796813965,0.048499607,1.7925198,-0.9999998367227912,0.0,-0.03999999987980475,0.0,4,0.0015456676483154297,0.9366749426163966,0.9366749426163966,696,-0.9999996241170533,0.0
174,1.6993052959442139,-0.99999998226301,4.481632055890622e-09,-0.9999999745311696,-0.9999999853046133,0.0,0.07320116866605372,0.1,0.0016961097717285156,0.035677194595336914,0.049313486,2.451793,-0.9999998512768131,0.0,-0.039999999911086534,0.0,4,0.00139617919921875,0.9366587377019933,0.9366587377019933,700,-0.9999999797362119,0.0
175,1.5164482593536377,-0.9999996261008938,6.15601584100557e-07,-0.9999985598744883,-0.999999985194155,0.0,0.07478076329455396,0.1,0.0016126632690429688,0.03247570991516113,0.049318627,2.633572,-0.9999998287592212,0.0,-0.03999998787113936,0.0,4,0.0013699531555175781,0.9366554737436478,0.9366554737436478,704,-0.9999999036310477,0.0
176,1.4850409030914307,-0.9999999832997508,2.9392636342574017e-09,-0.9999999782363418,-0.9999999854703789,0.0,0.07105382102206421,0.1,0.0016872882843017578,0.03440093994140625,0.04572337,1.5162394,-0.9999998442132741,0.0,-0.03999999995624275,0.0,4,0.0015239715576171875,0.9366325116583577,0.9366325116583577,708,-0.9999999572525685,0.0
177,1.6607990264892578,-0.9999999566992038,2.8578455358865793e-08,-0.9999999247435938,-0.9999999854514872,0.0,0.06928517439576597,0.1,0.0018606185913085938,0.03274822235107422,0.04844874,2.9761395,-0.9999998554618671,0.0,-0.039999998601520974,0.0,4,0.0012540817260742188,0.9366502142378117,0.9366502142378117,712,-0.9999998710686656,0.0
178,1.460796594619751,-0.9999999848881453,3.100133143352002e-10,-0.9999999843548768,-0.9999999851030585,0.0,0.07637390052435539,0.1,0.0016279220581054688,0.031737565994262695,0.0512044,1.4918603,-0.999999868404495,0.0,-0.039999999696079765,0.0,4,0.0011889934539794922,0.9366850233502736,0.9366850233502736,716,-0.9999999422787514,0.0
179,1.60158109664917,-0.9999997300040494,2.845043050838177e-07,-0.9999992946427907,-0.9999999840205072,0.0,0.06397355390113321,0.1,0.0018935203552246094,0.036255598068237305,0.048497632,1.4998044,-0.9999998545644504,0.0,-0.03999999957278526,0.0,4,0.0017752647399902344,0.9366572732108358,0.9366572732108358,720,-0.9999999644741299,0.0
180,1.9720025062561035,-0.9999999789953039,9.946837207403722e-09,-0.9999999617692761,-0.9999999849348669,0.0,0.05433790632271231,0.1,0.0017147064208984375,0.03585171699523926,0.048148356,3.9720654,-0.9999998670075357,0.0,-0.03999999995802219,0.0,4,0.0015747547149658203,0.9366733408399268,0.9366733408399268,724,-0.999999945465451,0.0
181,1.4718406200408936,-0.9999999849943604,1.4345043455151754e-10,-0.9999999847825374,-0.9999999851383758,0.0,0.061536903631504894,0.1,0.0017514228820800781,0.0356287956237793,0.05133427,1.1380175,-0.9999998788062182,0.0,-0.03999999993912119,0.0,4,0.001344442367553711,0.936658618492704,0.936658618492704,728,-0.9999999597773758,0.0
182,1.5706336498260498,-0.9999999848919876,3.849570028085197e-10,-0.9999999842483378,-0.9999999852363675,0.0,0.062382773975662234,0.1,0.0016553401947021484,0.03291893005371094,0.047666498,7.2465096,-0.9999998894147952,0.0,-0.03999999995690151,0.0,4,0.001405477523803711,0.9366863346524553,0.9366863346524553,732,-0.9999997773743637,0.0
183,1.7048413753509521,-0.9999999814700435,5.835773059198352e-09,-0.9999999713874725,-0.9999999851788461,0.0,0.054251459571413925,0.1,0.001874685287475586,0.03261256217956543,0.049391225,9.298062,-0.99999989862032,0.0,-0.039999997865466375,0.0,4,0.001234292984008789,0.9366903281636453,0.9366903281636453,736,-0.999999896706886,0.0
184,1.5617198944091797,-0.9999999809076652,7.34909243461308e-09,-0.9999999681909646,-0.9999999855727546,0.0,0.06273308452478367,0.1,0.0018296241760253906,0.03475308418273926,0.049345158,5.604537,-0.9999999068490546,0.0,-0.039999999958003817,0.0,4,0.0014121532440185547,0.9366725659795466,0.9366725659795466,740,-0.9999991461966626,0.0
185,1.723097801208496,-0.9999999850074888,6.298762610983543e-11,-0.9999999849552401,-0.9999999851126085,0.0,0.073735384290124,0.1,0.0017876625061035156,0.032488107681274414,0.05159214,1.2625688,-0.9999999146648981,0.0,-0.03999999861341079,0.0,4,0.0012445449829101562,0.9366731620259929,0.9366731620259929,744,-0.9999997292908561,0.0
186,1.638227939605713,-0.999999985205801,1.0785329791284507e-10,-0.9999999850343091,-0.9999999853090371,0.0,0.06259518583308832,0.1,0.0018186569213867188,0.03245854377746582,0.049304217,3.590751,-0.9999999217189885,0.0,-0.039999998825465975,0.0,4,0.0012969970703125,0.9366563535162082,0.9366563535162082,748,-0.9999994721147859,0.0
187,1.605154275894165,-0.9999999770922925,1.3408463533617398e-08,-0.999999953876499,-0.9999999852031078,0.0,0.07550668551918296,0.1,0.0016274452209472656,0.03453803062438965,0.051421434,1.4755191,-0.999999927256319,0.0,-0.0399999988342144,0.0,4,0.0014069080352783203,0.9366571283765884,0.9366571283765884,752,-0.9999999133235606,0.0
188,1.5166621208190918,-0.9999998846441103,1.743078331832147e-07,-0.9999995827344119,-0.9999999855664541,0.0,0.0653487830420701,0.1,0.0016431808471679688,0.0342097282409668,0.049109943,3.485954,-0.9999999229950982,0.0,-0.03999999830034226,0.0,4,0.0013446807861328125,0.9366597358794562,0.9366597358794562,756,-0.9999999845553069,0.0
189,1.5823934078216553,-0.9999999804663877,7.390414265419278e-09,-0.999999967669478,-0.9999999850079104,0.0,0.051461444995781855,0.1,0.0016994476318359375,0.03462553024291992,0.05230926,0.89713216,-0.9999999287422272,0.0,-0.03999999992688027,0.0,4,0.0015480518341064453,0.9366769171186043,0.9366769171186043,760,-0.9999990395844086,0.0
190,1.9119913578033447,-0.9999999557125665,5.035144603191284e-08,-0.9999998685016454,-0.9999999850128538,0.0,0.05384151820729589,0.1,0.0017910003662109375,0.03249979019165039,0.04971642,5.570362,-0.9999999314392611,0.0,-0.039999999956724326,0.0,4,0.0013132095336914062,0.9366514621594818,0.9366514621594818,764,-0.9999998328537928,0.0
191,1.4472758769989014,-0.9999994928617135,8.316590146462572e-07,-0.9999980526005228,-0.9999999849375019,0.0,0.058392760745047664,0.1,0.0018296241760253906,0.03817152976989746,0.050998755,1.3688692,-0.9999998875815065,0.0,-0.03999999943909975,0.0,4,0.0015149116516113281,0.9366843035427197,0.9366843035427197,768,-0.9999998604207981,0.0
192,1.5241646766662598,-0.9999999847675054,3.756090963253795e-10,-0.9999999843091627,-0.9999999852451682,0.0,0.05836647455667351,0.1,0.0016679763793945312,0.03300213813781738,0.05060628,2.3224049,-0.9999998973001064,0.0,-0.03999999606061105,0.0,4,0.0013842582702636719,0.9366483664938283,0.9366483664938283,772,-0.9999999102536598,0.0
193,1.4362201690673828,-0.9999999760315783,1.1448723865959242e-08,-0.9999999571025013,-0.9999999851631265,0.0,0.06284551688249898,0.1,0.0017428398132324219,0.035559892654418945,0.052311122,1.210185,-0.9999999051732535,0.0,-0.03999999905781387,0.0,4,0.0013959407806396484,0.9366856193967198,0.9366856193967198,776,-0.9999999493004889,0.0
194,1.3966448307037354,-0.9999999852852901,1.8792919667627417e-10,-0.9999999850410248,-0.9999999855689523,0.0,0.06262713240600506,0.1,0.0016493797302246094,0.03202199935913086,0.046027355,1.6450444,-0.9999999131844572,0.0,-0.03999999958652381,0.0,4,0.00124359130859375,0.9366555786558282,0.9366555786558282,780,-0.9999999801693588,0.0
195,1.4403045177459717,-0.9999998154298553,2.9370682160050746e-07,-0.999999306714928,-0.9999999853342201,0.0,0.0593368756181227,0.1,0.0016543865203857422,0.03375720977783203,0.049830705,3.878291,-0.999999903408997,0.0,-0.039999999943638356,0.0,4,0.0014848709106445312,0.9366937625929589,0.9366937625929589,784,-0.9999997221148943,0.0
196,1.49766206741333,-0.9999999848471401,4.573284466775234e-10,-0.999999984379081,-0.999999985574417,0.0,0.0538785040972031,0.1,0.0016551017761230469,0.03183245658874512,0.047902748,18.583591,-0.9999999115528113,0.0,-0.039999996123117935,0.0,4,0.001308441162109375,0.9366856790013645,0.9366856790013645,788,-0.9999998386990953,0.0
197,1.4817194938659668,-0.9999998979641476,1.510503833253274e-07,-0.9999996363372607,-0.9999999853160764,0.0,0.05166672363476109,0.1,0.0016014575958251953,0.03271746635437012,0.04868748,11.415623,-0.999999910193945,0.0,-0.03999999946555418,0.0,4,0.0012674331665039062,0.9366787535398666,0.9366787535398666,792,-0.9999999411566516,0.0
198,1.5062384605407715,-0.9999999338679225,8.616703817879633e-08,-0.9999997846401862,-0.9999999848244321,0.0,0.052432995591403304,0.1,0.0017032623291015625,0.034516096115112305,0.047618825,13.111365,-0.9999999125613427,0.0,-0.039999999782420276,0.0,4,0.001546621322631836,0.936674644593138,0.936674644593138,796,-0.999999971215213,0.0
199,1.4627442359924316,-0.9999999686568382,2.7933760769564164e-08,-0.9999999202742631,-0.9999999848561156,0.0,0.0716346906306531,0.1,0.0018401145935058594,0.037340402603149414,0.050255317,1.2808915,-0.9999999181708923,0.0,-0.03999999995773737,0.0,4,0.0013842582702636719,0.9366719699331003,0.9366719699331003,800,-0.9999999586455095,0.0
200,1.6936125755310059,-0.9999999792237894,5.992385009818782e-09,-0.99999997040385,-0.9999999849167511,0.0,0.05446120084690696,0.1,0.0016739368438720703,0.03453421592712402,0.049750566,5.150342,-0.999999924276182,0.0,-0.039999999887392335,0.0,4,0.0015337467193603516,0.936657187981233,0.936657187981233,804,-0.9999998821612314,0.0
201,1.6396663188934326,-0.9999988181234678,1.1665362652990612e-06,-0.9999976180424188,-0.9999999851625181,0.0,0.058100376055387946,0.1,0.00179290771484375,0.03218817710876465,0.0505832,5.963903,-0.9999998136609106,0.0,-0.03999999995786827,0.0,4,0.00127410888671875,0.9366827266229238,0.9366827266229238,808,-0.9999999492938961,0.0
202,1.5247836112976074,-0.9999998855091389,1.6719728170010785e-07,-0.9999995959932215,-0.9999999853468817,0.0,0.057647778145968234,0.1,0.0016465187072753906,0.03284764289855957,0.04985989,7.0707617,-0.9999998208457335,0.0,-0.039999999919742,0.0,4,0.001344442367553711,0.9366928760697697,0.9366928760697697,812,-0.9999990914573624,0.0
203,1.473966360092163,-0.9999999835746061,2.338331246391385e-09,-0.999999979529826,-0.9999999850436214,0.0,0.05105030768667683,0.1,0.0016319751739501953,0.032297372817993164,0.050657608,2.466794,-0.9999998371186208,0.0,-0.03999999991319662,0.0,4,0.0013947486877441406,0.936663088841051,0.936663088841051,816,-0.9999999680825336,0.0
204,1.569185495376587,-0.9999993931267865,1.0197992992464187e-06,-0.9999976267937833,-0.9999999849797601,0.0,0.05750893492820662,0.1,0.0019066333770751953,0.033822059631347656,0.04938326,4.617383,-0.9999997927194375,0.0,-0.03999999963205467,0.0,4,0.0013620853424072266,0.936703425334711,0.936703425334711,820,-0.9999998927316084,0.0
205,1.5178475379943848,-0.999999952177373,4.252222988586009e-08,-0.999999879498324,-0.9999999850666883,0.0,0.04734702406237053,0.1,0.0018298625946044922,0.03431534767150879,0.050958194,4.094504,-0.9999998086652311,0.0,-0.03999999994593421,0.0,4,0.0015320777893066406,0.9366823373672386,0.9366823373672386,824,-0.9999998824747678,0.0
206,1.5841355323791504,-0.9999997324595589,3.3763334726901624e-07,-0.9999991515742903,-0.9999999854729675,0.0,0.06047566981842901,0.1,0.001802682876586914,0.035187721252441406,0.049364552,3.0968359,-0.9999998010446639,0.0,-0.03999999288174186,0.0,4,0.0013628005981445312,0.9366578096529252,0.9366578096529252,828,-0.9999999606065786,0.0
207,1.5850613117218018,-0.9999999820494065,4.080773533940227e-09,-0.9999999752851167,-0.9999999852780623,0.0,0.05462452002674628,0.1,0.001695394515991211,0.03615546226501465,0.05039969,1.4761599,-0.9999998191451381,0.0,-0.03999999985977752,0.0,4,0.0014460086822509766,0.9366504526563902,0.9366504526563902,832,-0.999999861037805,0.0
208,1.5064427852630615,-0.9999999678068214,2.9330849166785828e-08,-0.999999917012985,-0.9999999852794366,0.0,0.07570468127724035,0.1,0.0017347335815429688,0.033712148666381836,0.050628826,2.5110111,-0.9999998340113065,0.0,-0.03999998432273148,0.0,4,0.0013103485107421875,0.9366802549787034,0.9366802549787034,836,-0.9999999691007716,0.0
209,1.506068468093872,-0.999999926010058,1.017947977927211e-07,-0.9999997496964277,-0.9999999849017958,0.0,0.04892441959205361,0.1,0.0018477439880371094,0.035280466079711914,0.0474101,15.637393,-0.9999998432111817,0.0,-0.03999999859363632,0.0,4,0.0014710426330566406,0.9366562863604045,0.9366562863604045,840,-0.9999998751162007,0.0
210,1.5129449367523193,-0.9999999657081398,3.37135310740955e-08,-0.9999999073146686,-0.9999999852622035,0.0,0.07349396582414396,0.1,0.0016090869903564453,0.032904863357543945,0.048565067,2.8660092,-0.9999998554608776,0.0,-0.03999999976817749,0.0,4,0.0013592243194580078,0.9366715489259182,0.9366715489259182,844,-0.9999999529903721,0.0
211,1.6616051197052002,-0.999999958691365,4.438895333097882e-08,-0.9999998818126503,-0.9999999847876617,0.0,0.06579654345741977,0.1,0.0019123554229736328,0.03747844696044922,0.050495937,1.4865502,-0.9999998657839264,0.0,-0.03999999964687479,0.0,4,0.001356363296508789,0.936664515577433,0.936664515577433,848,-0.9999998426988489,0.0
212,1.577552080154419,-0.9999999229955494,7.910025494789319e-08,-0.9999997916103669,-0.9999999851724541,0.0,0.05689638776502816,0.1,0.001707315444946289,0.033309221267700195,0.049257852,4.7270784,-0.9999998715050887,0.0,-0.03999999994749187,0.0,4,0.0016515254974365234,0.9366755386629139,0.9366755386629139,852,-0.9999997110441715,0.0
213,1.5467936992645264,-0.9999999782045363,1.0470511693802576e-08,-0.9999999600895839,-0.9999999850439738,0.0,0.05773223005326277,0.1,0.0018548965454101562,0.0324854850769043,0.051089507,1.7925828,-0.9999998821750335,0.0,-0.039999999830084725,0.0,4,0.0012629032135009766,0.9366880035825048,0.9366880035825048,856,-0.999999977011017,0.0
214,1.6438260078430176,-0.9999998977655399,1.4338091144506973e-07,-0.9999996495383701,-0.99999998447531,0.0,0.06034912930979003,0.1,0.0016789436340332031,0.03412342071533203,0.04944055,2.0782661,-0.9999998837340842,0.0,-0.039999999956107125,0.0,4,0.0017828941345214844,0.9366855484705691,0.9366855484705691,860,-0.999999676363176,0.0
215,1.498600721359253,-0.999999984705503,6.811958498754014e-10,-0.9999999835513451,-0.9999999853139754,0.0,0.06893688754543414,0.1,0.0018413066864013672,0.03343939781188965,0.048687898,2.0560372,-0.9999998938312261,0.0,-0.03999999995430602,0.0,4,0.0015726089477539062,0.9366306639143743,0.9366306639143743,864,-0.9999999834161217,0.0
216,1.6848247051239014,-0.9999999305997113,9.355205540405922e-08,-0.9999997685629618,-0.9999999848046537,0.0,0.05950232162610691,0.1,0.0016586780548095703,0.032700538635253906,0.04839362,6.5127974,-0.9999998975080746,0.0,-0.03999999994550993,0.0,4,0.0014719963073730469,0.9366466304068239,0.9366466304068239,868,-0.9999998261224815,0.0
217,1.6508657932281494,-0.9999999706840993,1.1310259150265152e-08,-0.9999999549211831,-0.9999999852843038,0.0,0.06240915885958042,0.1,0.0016942024230957031,0.03362560272216797,0.052012444,1.2453033,-0.999999904825677,0.0,-0.039999999796436286,0.0,4,0.001499176025390625,0.9367003975756368,0.9367003975756368,872,-0.9999997550318137,0.0
218,1.6887948513031006,-0.9999999703077878,2.514198182070879e-08,-0.9999999267610886,-0.9999999849475736,0.0,0.0635278027525201,0.1,0.0018684864044189453,0.03398585319519043,0.049767718,2.975983,-0.9999999113738881,0.0,-0.03999999988637902,0.0,4,0.0017583370208740234,0.9366806722112158,0.9366806722112158,876,-0.9999998224854169,0.0
219,1.7424161434173584,-0.9999999541829567,5.375683886043554e-08,-0.9999998610735632,-0.9999999853600541,0.0,0.06574889899308377,0.1,0.001725912094116211,0.03475594520568848,0.049995154,2.8657074,-0.999999915654795,0.0,-0.039999999873721125,0.0,4,0.0015616416931152344,0.9366547404151316,0.9366547404151316,880,-0.999999844241957,0.0
220,1.600022554397583,-0.9999999619743842,3.7061073502643575e-08,-0.9999998978994653,-0.9999999852973664,0.0,0.05933928456297848,0.1,0.0016217231750488281,0.032358646392822266,0.04922174,4.5802574,-0.999999920286754,0.0,-0.039999982970875314,0.0,4,0.0012326240539550781,0.9366757212512907,0.9366757212512907,884,-0.9999993769840442,0.0
221,1.541990041732788,-0.9999999746578536,1.7746899274139812e-08,-0.9999999439207075,-0.9999999850540728,0.0,0.0719512949094867,0.1,0.0016446113586425781,0.03258228302001953,0.050970823,2.247285,-0.999999925723864,0.0,-0.03999999956376683,0.0,4,0.0014078617095947266,0.9366768575139597,0.9366768575139597,888,-0.9999995169658892,0.0
222,1.6131010055541992,-0.9999999585950947,4.6028820311861084e-08,-0.9999998788708448,-0.9999999851977099,0.0,0.07153136432378931,0.1,0.0019371509552001953,0.03376269340515137,0.050709438,1.7141899,-0.9999999290109871,0.0,-0.03999999990180361,0.0,4,0.0013828277587890625,0.9366837082741467,0.9366837082741467,892,-0.9999999580303586,0.0
223,1.7381258010864258,-0.9999997942545638,3.2553859171382416e-07,-0.9999992304067951,-0.9999999834721855,0.0,0.04876124798217145,0.1,0.0017855167388916016,0.03265213966369629,0.049917147,5.6892123,-0.9999999155353447,0.0,-0.039999999957809014,0.0,4,0.0012922286987304688,0.9366863716143821,0.9366863716143821,896,-0.9999999611259037,0.0
224,1.5327496528625488,-0.9999997693681044,3.729868872332293e-07,-0.9999991233359684,-0.999999984966818,0.0,0.043567658729863734,0.1,0.0016493797302246094,0.03550219535827637,0.048142128,14.116743,-0.9999999009186207,0.0,-0.039999971378607745,0.0,4,0.0015833377838134766,0.9366523894031684,0.9366523894031684,900,-0.9999998636329145,0.0
225,1.6430606842041016,-0.9999999560028157,4.591784736963323e-08,-0.9999998766623877,-0.9999999853743353,0.0,0.06005231152753656,0.1,0.0018360614776611328,0.035829782485961914,0.048738472,3.7454305,-0.9999999064270403,0.0,-0.039999999957762,0.0,4,0.0015246868133544922,0.9366587339265596,0.9366587339265596,904,-0.9999999258419411,0.0
226,1.5746686458587646,-0.9999999850393226,2.0867136720298558e-10,-0.9999999846850391,-0.9999999852223642,0.0,0.05325718884222337,0.1,0.0016889572143554688,0.03646373748779297,0.05207137,2.4958527,-0.9999999142882685,0.0,-0.03999999985169571,0.0,4,0.001573801040649414,0.9366706586309186,0.9366706586309186,908,-0.9999999618745908,0.0
227,1.5389378070831299,-0.9999997460678278,3.243970467530815e-07,-0.9999991968195596,-0.9999999850945445,0.0,0.05176704548955109,0.1,0.001644134521484375,0.03530454635620117,0.049234465,8.914418,-0.9999998974662244,0.0,-0.039999987373897566,0.0,4,0.0015211105346679688,0.9366703900144289,0.9366703900144289,912,-0.9999997503764351,0.0
228,1.5013580322265625,-0.9999999839357187,9.64744492270812e-10,-0.9999999825477,-0.9999999849382626,0.0,0.06876272239345833,0.1,0.0018286705017089844,0.034745216369628906,0.05000262,2.9397323,-0.9999999061131739,0.0,-0.03999999995733941,0.0,4,0.0014443397521972656,0.93669914965105,0.93669914965105,916,-0.9999999585638957,0.0
229,1.3918077945709229,-0.9999982228259646,3.051572287569e-06,-0.9999929373477743,-0.9999999850638104,0.0,0.06433152074539465,0.1,0.0017871856689453125,0.03478717803955078,0.050997075,2.1091428,-0.999999737784453,0.0,-0.039999995078626296,0.0,4,0.0015823841094970703,0.9366501702710445,0.9366501702710445,920,-0.9999999772622677,0.0
230,1.6569559574127197,-0.99999998364205,1.9768022636863153e-09,-0.9999999802285517,-0.9999999849516259,0.0,0.06199149191200234,0.1,0.0017914772033691406,0.03362417221069336,0.04996626,4.17755,-0.9999997623702127,0.0,-0.03999999277608473,0.0,4,0.0013797283172607422,0.9366860366292322,0.9366860366292322,924,-0.9999996019556364,0.0
231,1.8067669868469238,-0.9999995549518568,7.336483928060087e-07,-0.999998284310208,-0.9999999851433492,0.0,0.05383918735080788,0.1,0.0017375946044921875,0.035162925720214844,0.051781483,1.2027165,-0.9999997416283771,0.0,-0.03999999974997205,0.0,4,0.0015869140625,0.9366896159086602,0.9366896159086602,928,-0.9999993608049222,0.0
232,1.4161920547485352,-0.9999999186939822,8.570456496279037e-08,-0.99999977469774,-0.9999999852106891,0.0,0.06268993194319263,0.1,0.001750946044921875,0.03441882133483887,0.04864228,1.964566,-0.9999997593349377,0.0,-0.03999999705800419,0.0,4,0.0016109943389892578,0.9366785188955005,0.9366785188955005,932,-0.9999999658740816,0.0
233,1.5906095504760742,-0.9999999570979576,3.780914304226332e-08,-0.9999998919767232,-0.9999999848978842,0.0,0.05206651896941023,0.1,0.0017275810241699219,0.03370380401611328,0.05229105,1.3193374,-0.9999997791112397,0.0,-0.03999999787322394,0.0,4,0.0014085769653320312,0.9366581378800779,0.9366581378800779,936,-0.9999990380467244,0.0
234,1.4787983894348145,-0.9999998615182837,2.1384682197043377e-07,-0.9999994911259871,-0.9999999854625747,0.0,0.06675406481667451,0.1,0.0018756389617919922,0.03291201591491699,0.050383944,4.595911,-0.9999997873519442,0.0,-0.039999998357149576,0.0,4,0.0017631053924560547,0.9366937105349934,0.9366937105349934,940,-0.9999999279246903,0.0
235,1.7803707122802734,-0.9999999432617208,7.01145000508899e-08,-0.9999998218400032,-0.9999999850509336,0.0,0.04834792443792146,0.1,0.0018830299377441406,0.037085533142089844,0.05123368,1.6524855,-0.9999998029429219,0.0,-0.03999999995788486,0.0,4,0.0014612674713134766,0.9366718431745066,0.9366718431745066,944,-0.9999999294810894,0.0
236,1.5943236351013184,-0.9999999792313008,7.591415096418953e-09,-0.9999999666456765,-0.9999999852851849,0.0,0.06348845900798067,0.1,0.0019354820251464844,0.03649115562438965,0.048303716,4.166885,-0.9999998205717598,0.0,-0.03999999988602522,0.0,4,0.001398324966430664,0.9366810298390835,0.9366810298390835,948,-0.9999998593992118,0.0
237,1.4663290977478027,-0.9999999816998332,6.313609085595044e-09,-0.9999999707666194,-0.9999999855546529,0.0,0.055353308361932224,0.1,0.00173187255859375,0.03248858451843262,0.049909383,2.0447495,-0.9999998366845672,0.0,-0.039999999891255515,0.0,4,0.0013415813446044922,0.9366771555371829,0.9366771555371829,952,-0.9999997102268611,0.0
238,1.6333472728729248,-0.999999951659682,5.775286157776347e-08,-0.9999998516296866,-0.9999999853619086,0.0,0.0514647387737567,0.1,0.0015702247619628906,0.03534507751464844,0.051133193,2.2244782,-0.9999998481820787,0.0,-0.03999999995208635,0.0,4,0.0017247200012207031,0.9366685686935092,0.9366685686935092,956,-0.9999999736918063,0.0
239,1.4066038131713867,-0.9999999838313788,2.4501047023885116e-09,-0.999999979589554,-0.9999999853596817,0.0,0.06442838554597058,0.1,0.0016307830810546875,0.031861066818237305,0.04812947,10.005059,-0.9999998617470087,0.0,-0.03999999966906357,0.0,4,0.0012481212615966797,0.9366945004887691,0.9366945004887691,960,-0.9999999729096419,0.0
240,1.4106049537658691,-0.9999999820717764,3.2354620381569534e-09,-0.9999999771393411,-0.9999999851426375,0.0,0.06360117914123341,0.1,0.0019474029541015625,0.034665584564208984,0.04981566,3.6804657,-0.9999998737794855,0.0,-0.039999999787475794,0.0,4,0.0013360977172851562,0.9366889572568189,0.9366889572568189,964,-0.9999997797934673,0.0
241,1.4472620487213135,-0.9999999603173337,2.885621840347821e-08,-0.9999999120052487,-0.9999999848357919,0.0,0.07722231173905683,0.1,0.001611948013305664,0.032494306564331055,0.046895757,3.6730213,-0.9999998824332703,0.0,-0.03999999994395877,0.0,4,0.0013756752014160156,0.9366402006575145,0.9366402006575145,968,-0.9999998989285291,0.0
242,1.5111403465270996,-0.9999990026942289,1.6830229703704271e-06,-0.999996087636867,-0.999999985283822,0.0,0.060550209392633454,0.1,0.0018432140350341797,0.036327362060546875,0.04744487,1.7626581,-0.9999997944593662,0.0,-0.039999999677936396,0.0,4,0.001420736312866211,0.936663496927761,0.936663496927761,972,-0.9999999839216529,0.0
243,1.5310041904449463,-0.999999876668308,1.8267284779242215e-07,-0.9999995603177687,-0.9999999855456383,0.0,0.056780693314632695,0.1,0.0016820430755615234,0.031775474548339844,0.04917971,1.4426594,-0.9999998026802603,0.0,-0.03999999764010802,0.0,4,0.0012407302856445312,0.9366803590914139,0.9366803590914139,976,-0.9999999809149102,0.0
244,1.4904298782348633,-0.9999998546488398,2.2582200806661583e-07,-0.9999994635137566,-0.9999999852975991,0.0,0.054276593598619895,0.1,0.0016388893127441406,0.03446197509765625,0.05112892,1.6727082,-0.9999998078771183,0.0,-0.039999999711193925,0.0,4,0.0016481876373291016,0.9366720740438356,0.9366720740438356,980,-0.9999999667519837,0.0
245,1.7683801651000977,-0.9999999437071347,7.117417618320954e-08,-0.9999998204301812,-0.999999984971756,0.0,0.05196247698560883,0.1,0.0017616748809814453,0.03713178634643555,0.046080764,3.7049806,-0.99999982146012,0.0,-0.039999995252776026,0.0,4,0.001417398452758789,0.9366616507790604,0.9366616507790604,984,-0.99999895367259,0.0
246,1.608055591583252,-0.9999999648489369,3.193304792212195e-08,-0.9999999096319898,-0.9999999851083035,0.0,0.07587023778167883,0.1,0.0016245841979980469,0.03172898292541504,0.049453914,1.6177056,-0.9999998357990016,0.0,-0.039999998545216874,0.0,4,0.0012714862823486328,0.9367026625522676,0.9367026625522676,988,-0.9999994661263084,0.0
247,1.5944404602050781,-0.9999999596377618,3.9489077877332505e-08,-0.9999998913135466,-0.9999999849315087,0.0,0.07606865071388069,0.1,0.0016849040985107422,0.03490138053894043,0.049017705,4.467892,-0.9999998481828777,0.0,-0.0399999999574975,0.0,4,0.0015044212341308594,0.9366813240882196,0.9366813240882196,992,-0.9999999581308873,0.0
248,1.5284178256988525,-0.9999999620151563,3.737966449122114e-08,-0.9999998973334456,-0.9999999849299948,0.0,0.05530271604224706,0.1,0.0016214847564697266,0.03176593780517578,0.048662554,8.954113,-0.9999998595661056,0.0,-0.03999999995778983,0.0,4,0.001489877700805664,0.9366460381364975,0.9366460381364975,996,-0.9999995358437453,0.0
249,1.5340487957000732,-0.9999980817444647,3.272089890349497e-06,-0.9999924144000172,-0.9999999852593908,0.0,0.054841010151460534,0.1,0.0017206668853759766,0.033155202865600586,0.049342036,10.744371,-0.9999996817839416,0.0,-0.03999999794721568,0.0,4,0.0013968944549560547,0.9366916363821646,0.9366916363821646,1000,-0.9999999016140958,0.0
250,1.480175495147705,-0.9999998737546736,1.380812570793465e-07,-0.999999646594645,-0.9999999852201533,0.0,0.05966283701829141,0.1,0.0018091201782226562,0.03224062919616699,0.047491714,5.070934,-0.9999997009810148,0.0,-0.03999999989224802,0.0,4,0.0012514591217041016,0.9366833989290146,0.9366833989290146,1004,-0.9999999412219748,0.0
251,1.6705405712127686,-0.9999999819512229,5.997395832370655e-09,-0.999999971564592,-0.9999999855599839,0.0,0.07020996472803095,0.1,0.0015859603881835938,0.03168153762817383,0.04833065,3.2477076,-0.9999997290780356,0.0,-0.0399999998680727,0.0,4,0.0011730194091796875,0.9366648173757453,0.9366648173757453,1008,-0.9999999042975793,0.0
252,1.5237267017364502,-0.9999998422801243,1.1244165728723324e-07,-0.9999996883491389,-0.9999999849049181,0.0,0.053444725907791174,0.1,0.001634359359741211,0.03509187698364258,0.04745514,2.2757394,-0.9999997403982446,0.0,-0.03999999565070834,0.0,4,0.001478433609008789,0.9366589572434701,0.9366589572434701,1012,-0.9999994944282248,0.0
253,1.5880146026611328,-0.9999999767436611,1.4662739240854622e-08,-0.9999999513473887,-0.999999985304221,0.0,0.059050855606611434,0.1,0.0017991065979003906,0.033292293548583984,0.048062567,8.484348,-0.9999997640327862,0.0,-0.03999999846723771,0.0,4,0.0014007091522216797,0.9366674399801087,0.9366674399801087,1016,-0.9999992662725704,0.0
254,1.473982572555542,-0.9999980312638201,3.383917463959864e-06,-0.9999921701468695,-0.9999999852658552,0.0,0.058729749777996464,0.1,0.0016312599182128906,0.03287649154663086,0.050881468,2.3543377,-0.9999995907558896,0.0,-0.03999999990028806,0.0,4,0.0013222694396972656,0.9366936554010795,0.9366936554010795,1020,-0.9999999711131865,0.0
255,1.4514169692993164,-0.9999999599600045,4.1317106553174136e-08,-0.9999998884618113,-0.9999999853518418,0.0,0.06756868946146423,0.1,0.0018324851989746094,0.032393455505371094,0.049540885,1.965848,-0.9999996276763012,0.0,-0.03999999886038553,0.0,4,0.0013277530670166016,0.9366488991596101,0.9366488991596101,1024,-0.9999986839418998,0.0
256,1.6737613677978516,-0.9999999832555466,2.1695223753040585e-09,-0.9999999798244645,-0.9999999851462797,0.0,0.09197087676945193,0.1,0.0018603801727294922,0.03450441360473633,0.050049175,1.6996616,-0.9999996632342258,0.0,-0.03999999993698517,0.0,4,0.0013833045959472656,0.9366297698447049,0.9366297698447049,1028,-0.9999987616459415,0.0
257,1.3559327125549316,-0.9999999429925616,4.326189313309441e-08,-0.9999998873197431,-0.9999999852006995,0.0,0.05085703484554257,0.1,0.001781463623046875,0.03323507308959961,0.048656955,10.038009,-0.9999996912100595,0.0,-0.039999992304798594,0.0,4,0.0012898445129394531,0.9366793533606248,0.9366793533606248,1032,-0.9999992228664984,0.0
258,1.541917085647583,-0.9999999852662409,1.9341477531968083e-10,-0.9999999850394994,-0.9999999855716968,0.0,0.05430048605577004,0.1,0.0016753673553466797,0.03436398506164551,0.05139076,2.7295868,-0.9999997206156777,0.0,-0.03999999990793068,0.0,4,0.001409292221069336,0.9366580224462578,0.9366580224462578,1036,-0.9999995322894351,0.0
259,1.4625139236450195,-0.9999999818562226,3.398909630521369e-09,-0.9999999771686368,-0.999999985317253,0.0,0.0651101592442074,0.1,0.0016818046569824219,0.035696983337402344,0.05000181,2.9959178,-0.9999997467397321,0.0,-0.03999999948597365,0.0,4,0.0014445781707763672,0.9366747117467532,0.9366747117467532,1040,-0.9999998589694208,0.0
260,1.3341186046600342,-0.9999999684212235,2.8779853417568406e-08,-0.9999999185730648,-0.9999999850653367,0.0,0.06361358057492796,0.1,0.0018579959869384766,0.0371549129486084,0.04953873,4.9538193,-0.9999997689078813,0.0,-0.039999999846790105,0.0,4,0.0016074180603027344,0.9366561747022744,0.9366561747022744,1044,-0.9999999553828219,0.0
261,1.5356132984161377,-0.9999999770391428,1.0457568981767055e-08,-0.9999999596023488,-0.9999999852416857,0.0,0.0745063777648422,0.1,0.0016796588897705078,0.034992218017578125,0.05203014,1.0582567,-0.9999997897210076,0.0,-0.03999999926920969,0.0,4,0.0013141632080078125,0.9366360879370352,0.9366360879370352,1048,-0.9999999599301338,0.0
262,1.4613327980041504,-0.9999995494559648,5.664793439486991e-07,-0.9999986015529105,-0.9999999852173371,0.0,0.05788883209477723,0.1,0.0016999244689941406,0.03379702568054199,0.05002848,2.998554,-0.9999997656945032,0.0,-0.039999999925857566,0.0,4,0.0016224384307861328,0.9366862818193719,0.9366862818193719,1052,-0.9999999521280847,0.0
263,1.4157748222351074,-0.9999999820249956,5.2305365253785035e-09,-0.999999972966154,-0.9999999851472761,0.0,0.05769022690554055,0.1,0.0016148090362548828,0.0321049690246582,0.05068767,1.3246133,-0.9999997873275526,0.0,-0.039999998942979245,0.0,4,0.0012388229370117188,0.9366813278623067,0.9366813278623067,1056,-0.9999999734521453,0.0
264,1.5651164054870605,-0.999999983905268,9.660709021473621e-10,-0.9999999825315649,-0.9999999850898016,0.0,0.062201043087736316,0.1,0.0016078948974609375,0.0315244197845459,0.05046581,4.095301,-0.9999998069853242,0.0,-0.039999999941438116,0.0,4,0.0012345314025878906,0.9366957521863063,0.9366957521863063,1060,-0.999999975096968,0.0
265,1.4924063682556152,-0.9999997499729895,4.070252197326928e-07,-0.9999990449846314,-0.9999999850021342,0.0,0.0753908680268775,0.1,0.0016939640045166016,0.03171539306640625,0.049524225,2.4743984,-0.9999998012840907,0.0,-0.03999999995278877,0.0,4,0.0011343955993652344,0.9366447600050182,0.9366447600050182,1064,-0.9999998664344819,0.0
266,1.852726936340332,-0.9999999840519318,8.447945096561266e-10,-0.9999999831532889,-0.9999999850110997,0.0,0.06880660822109544,0.1,0.0014717578887939453,0.027942180633544922,0.04783124,2.2799926,-0.9999998195608748,0.0,-0.03999999830734606,0.0,4,0.0012750625610351562,0.9367128587193141,0.9367128587193141,1068,-0.999999978255607,0.0
267,1.6355040073394775,-0.9999999788410917,1.0378550638478763e-08,-0.9999999608690775,-0.9999999851964705,0.0,0.06876031327880416,0.1,0.0018177032470703125,0.03357815742492676,0.049320128,2.107256,-0.9999998354888965,0.0,-0.039999999128029776,0.0,4,0.0014927387237548828,0.936686871094257,0.936686871094257,1072,-0.9999998354582401,0.0
268,2.0184240341186523,-0.9999998962270064,1.526338004336469e-07,-0.9999996318599051,-0.9999999853405415,0.0,0.04560624971533128,0.1,0.0017552375793457031,0.031259775161743164,0.04864683,2.3271523,-0.9999998415627075,0.0,-0.03999999977592915,0.0,4,0.0011358261108398438,0.9366691571903658,0.9366691571903658,1076,-0.9999985796011227,0.0
269,1.5911493301391602,-0.9999998208545144,2.171314893635503e-07,-0.999999455613761,-0.9999999850651407,0.0,0.05714271656677694,0.1,0.0016884803771972656,0.03606700897216797,0.050234884,1.2327895,-0.9999998394918882,0.0,-0.03999999985321613,0.0,4,0.001444101333618164,0.9366601455613672,0.9366601455613672,1080,-0.9999999358015655,0.0
270,1.599134922027588,-0.9999998682920689,1.248538490721067e-07,-0.9999996790440275,-0.9999999845804175,0.0,0.06376288181427205,0.1,0.0016412734985351562,0.03495979309082031,0.04870008,4.5970597,-0.9999998423719062,0.0,-0.039999999734740506,0.0,4,0.0012707710266113281,0.9366879288830863,0.9366879288830863,1084,-0.9999996426526069,0.0
271,1.7122011184692383,-0.9999998980210796,9.63227835032425e-08,-0.9999997525443953,-0.9999999851750876,0.0,0.06819456705234266,0.1,0.0016241073608398438,0.04018068313598633,0.05239675,1.0597969,-0.9999998479368236,0.0,-0.03999999995537143,0.0,4,0.0015223026275634766,0.9366917473547186,0.9366917473547186,1088,-0.9999999714182333,0.0
272,1.7013154029846191,-0.9999999579149514,3.683885034168811e-08,-0.9999998955382112,-0.9999999851424182,0.0,0.0643842377885112,0.1,0.0016331672668457031,0.03363752365112305,0.050097834,1.7065151,-0.9999998589346364,0.0,-0.039999999957867155,0.0,4,0.0017008781433105469,0.9366469284300827,0.9366469284300827,1092,-0.9999999058824923,0.0
273,1.6181294918060303,-0.999999679500303,5.196501760653147e-07,-0.9999987794591296,-0.9999999846291014,0.0,0.044185827162051126,0.1,0.0016660690307617188,0.034943342208862305,0.051640034,2.4989839,-0.9999998409912031,0.0,-0.03999998838036183,0.0,4,0.0014986991882324219,0.9366708593023878,0.9366708593023878,1096,-0.9999998063144359,0.0
274,1.4843661785125732,-0.9999999652436622,2.09768812887601e-08,-0.9999999353432203,-0.9999999854556083,0.0,0.06031155192128455,0.1,0.001857757568359375,0.03425335884094238,0.048367463,8.856086,-0.999999853416449,0.0,-0.03999999805913144,0.0,4,0.001528024673461914,0.936674827181568,0.936674827181568,1100,-0.9999998228746915,0.0
275,1.4657201766967773,-0.9999999846544452,6.665249172604071e-10,-0.9999999836344635,-0.999999985271357,0.0,0.07100596753762606,0.1,0.0018918514251708984,0.03863167762756348,0.048654474,1.3929766,-0.9999998665402486,0.0,-0.03999999961993766,0.0,4,0.0013124942779541016,0.9367129779286033,0.9367129779286033,1104,-0.9999994117093145,0.0
276,1.3714749813079834,-0.9999999015175056,1.4297695762915138e-07,-0.9999996538807816,-0.9999999849715431,0.0,0.08739302803317811,0.1,0.001959085464477539,0.03719377517700195,0.048334043,1.0590724,-0.9999998700379743,0.0,-0.039999999524789,0.0,4,0.0020482540130615234,0.9366937739129982,0.9366937739129982,1108,-0.9999998826100326,0.0
277,1.4603190422058105,-0.9999999163457591,1.1585051015066727e-07,-0.9999997157316243,-0.9999999852790966,0.0,0.0652389021757424,0.1,0.002045154571533203,0.034338951110839844,0.049661085,4.176257,-0.9999998746687528,0.0,-0.03999999993988375,0.0,4,0.0013880729675292969,0.936676611546645,0.936676611546645,1112,-0.9999999758960368,0.0
278,1.512913703918457,-0.9999998395980054,1.5497301602341959e-07,-0.9999996185087843,-0.9999999852366088,0.0,0.06007111898502205,0.1,0.001645803451538086,0.03369927406311035,0.049407493,4.0205407,-0.9999998711616782,0.0,-0.03999999958797044,0.0,4,0.0013189315795898438,0.9367033627169506,0.9367033627169506,1116,-0.9999999753442365,0.0
279,1.5916452407836914,-0.999999977582104,1.1315323703923703e-08,-0.9999999581645089,-0.9999999853615058,0.0,0.06971633029469236,0.1,0.0017170906066894531,0.03459572792053223,0.04983043,2.0235794,-0.9999998818037209,0.0,-0.03999999993447862,0.0,4,0.001435995101928711,0.9366542673536463,0.9366542673536463,1120,-0.9999997881906783,0.0
280,1.494570016860962,-0.999999985163645,1.7811063650224646e-10,-0.9999999849560466,-0.9999999854471566,0.0,0.051971840455069584,0.1,0.0018870830535888672,0.03350830078125,0.051300623,2.652524,-0.9999998921397134,0.0,-0.03999999990051579,0.0,4,0.0013208389282226562,0.9366898513264883,0.9366898513264883,1124,-0.9999997738672461,0.0
281,1.4424548149108887,-0.9999999765629857,1.214129655601976e-08,-0.9999999559113713,-0.9999999853467514,0.0,0.07428444400053065,0.1,0.001623392105102539,0.031903743743896484,0.048293114,5.399962,-0.9999999005820406,0.0,-0.03999999990744958,0.0,4,0.0012311935424804688,0.9366944408841245,0.9366944408841245,1128,-0.9999999226110236,0.0
282,1.440016508102417,-0.9999999783748112,1.1290414024006515e-08,-0.999999958822025,-0.9999999851296806,0.0,0.05299671508542779,0.1,0.0017385482788085938,0.03534531593322754,0.048122462,12.299701,-0.9999999083613177,0.0,-0.03999999888650235,0.0,4,0.0015294551849365234,0.9366676783986873,0.9366676783986873,1132,-0.9999991094108065,0.0
283,1.5280537605285645,-0.9999998641207897,2.0962993056028518e-07,-0.9999995010311227,-0.9999999852722998,0.0,0.06819243490032788,0.1,0.0015711784362792969,0.03161263465881348,0.049373314,4.6271563,-0.9999999039372649,0.0,-0.03999999908563658,0.0,4,0.0011479854583740234,0.9366730277183769,0.9366730277183769,1136,-0.9999998462054656,0.0
284,1.6873855590820312,-0.999999978555228,6.679443962056724e-09,-0.9999999701371889,-0.9999999852573316,0.0,0.05797454453854342,0.1,0.0018057823181152344,0.03315591812133789,0.04920409,2.7332563,-0.9999999113990613,0.0,-0.0399999746064022,0.0,4,0.0015897750854492188,0.9366736388631499,0.9366736388631499,1140,-0.9999999311256506,0.0
285,1.7332401275634766,-0.9999999843038668,1.3085914329850728e-09,-0.9999999820566767,-0.9999999852413324,0.0,0.05842675978273619,0.1,0.0019631385803222656,0.03382611274719238,0.049726497,3.9719706,-0.9999999186895419,0.0,-0.03999999679871863,0.0,4,0.001422882080078125,0.9366738772817285,0.9366738772817285,1144,-0.9999999847722365,0.0
286,1.5673177242279053,-0.999999979861762,7.01909547444786e-09,-0.9999999678070459,-0.999999985092868,0.0,0.04369745136214777,0.1,0.0017673969268798828,0.03602743148803711,0.05195606,1.281894,-0.9999999248067639,0.0,-0.039999999788026444,0.0,4,0.0015113353729248047,0.9366506314703241,0.9366506314703241,1148,-0.999999976041912,0.0
287,1.4468348026275635,-0.9999997459759307,3.907422390146131e-07,-0.9999990695540109,-0.9999999821051466,0.0,0.0757473489572172,0.1,0.0018558502197265625,0.03581047058105469,0.051056705,1.1437479,-0.9999999069236807,0.0,-0.03999999991200258,0.0,4,0.0015032291412353516,0.9366413029339814,0.9366413029339814,1152,-0.9999997876566472,0.0
288,1.3727171421051025,-0.9999999847307005,6.161456979745982e-10,-0.9999999838620544,-0.9999999853393846,0.0,0.043719254891856935,0.1,0.0016434192657470703,0.0321345329284668,0.051284313,0.82591796,-0.9999999147043827,0.0,-0.03999999387855263,0.0,4,0.001527547836303711,0.9366900897450667,0.9366900897450667,1156,-0.9999999545833581,0.0
289,1.441087245941162,-0.9999997641292613,2.8727475101475424e-07,-0.9999992834734335,-0.999999985380825,0.0,0.06720040321675408,0.1,0.001676797866821289,0.03229928016662598,0.04925741,1.8410995,-0.9999998996468705,0.0,-0.039999999762582276,0.0,4,0.0012543201446533203,0.9366551908228016,0.9366551908228016,1160,-0.9999999546122248,0.0
290,1.3753299713134766,-0.9999998870940192,1.6967327760540704e-07,-0.9999995932113244,-0.999999985201476,0.0,0.04650254595831356,0.1,0.0016334056854248047,0.03163290023803711,0.0513339,2.2849019,-0.9999998983915854,0.0,-0.039999999948177954,0.0,4,0.001230001449584961,0.9366916243719341,0.9366916243719341,1164,-0.9999998865119374,0.0
291,1.330359697341919,-0.999999489048991,6.659417405116763e-07,-0.9999983577936618,-0.9999999850317614,0.0,0.07268251033857952,0.1,0.0016796588897705078,0.03255438804626465,0.049320843,3.1699243,-0.9999998574573261,0.0,-0.03999999994399461,0.0,4,0.0014538764953613281,0.9366927636374237,0.9366927636374237,1168,-0.999999984427471,0.0
292,1.6149115562438965,-0.9999999833625095,2.2831382835094658e-09,-0.9999999799142785,-0.9999999855101109,0.0,0.056699884042865474,0.1,0.0017881393432617188,0.03429889678955078,0.04964866,7.8294115,-0.9999998700478445,0.0,-0.0399999995519085,0.0,4,0.0013706684112548828,0.9366808510251496,0.9366808510251496,1172,-0.9999998753900131,0.0
293,1.7405767440795898,-0.9999999849382988,3.3806661263163763e-10,-0.9999999844604692,-0.9999999853519606,0.0,0.05746386433352335,0.1,0.0019102096557617188,0.0340113639831543,0.050153706,2.8668985,-0.99999988153689,0.0,-0.03999999977022359,0.0,4,0.0013346672058105469,0.9366536713072001,0.9366536713072001,1176,-0.999999982921754,0.0
294,1.5528564453125,-0.9999999837557175,1.9541624650637586e-09,-0.9999999804099997,-0.9999999851585164,0.0,0.046484762400537886,0.1,0.0017004013061523438,0.033577680587768555,0.048829958,19.041035,-0.9999998917587728,0.0,-0.03999999993204849,0.0,4,0.0013892650604248047,0.9366782284207862,0.9366782284207862,1180,-0.9999999510131224,0.0
295,1.6444668769836426,-0.9999999780841822,1.2306488272757524e-08,-0.99999995677194,-0.999999985494817,0.0,0.0463637999249923,0.1,0.0016598701477050781,0.034013986587524414,0.04114053,6.4078946,-0.9999999003913138,0.0,-0.03999999980815486,0.0,4,0.0013132095336914062,0.9366803145833481,0.9366803145833481,1184,-0.9999991193500094,0.0
296,1.5627684593200684,-0.999999772911897,3.6212585033772464e-07,-0.9999991457276423,-0.9999999853013006,0.0,0.04573964572267432,0.1,0.0018379688262939453,0.03477287292480469,0.04855377,1.8992555,-0.9999998876433721,0.0,-0.03999999963744734,0.0,4,0.001619577407836914,0.9366696189284659,0.9366696189284659,1188,-0.9999997024030206,0.0
297,1.2867217063903809,-0.9999999799622377,9.080939182068348e-09,-0.9999999642348683,-0.9999999853287898,0.0,0.051201164839750304,0.1,0.0016262531280517578,0.03432822227478027,0.04835029,12.926809,-0.9999998968752586,0.0,-0.03999999862288497,0.0,4,0.0013663768768310547,0.9366806722112158,0.9366806722112158,1192,-0.9999999801589986,0.0
298,1.4186084270477295,-0.9999999745392507,1.8029059484064057e-08,-0.9999999433139339,-0.9999999852645389,0.0,0.05019212988827029,0.1,0.0016717910766601562,0.03496885299682617,0.04736128,10.331541,-0.9999999046416578,0.0,-0.03999999805539642,0.0,4,0.001386404037475586,0.9367074943012977,0.9367074943012977,1196,-0.9999999494414965,0.0
299,1.5876617431640625,-0.9999999645997852,2.8735976542213264e-08,-0.9999999151542027,-0.9999999851973629,0.0,0.06532898313259422,0.1,0.0018279552459716797,0.03474068641662598,0.05037801,1.2669266,-0.9999999106374706,0.0,-0.039999996215848696,0.0,4,0.0015292167663574219,0.9366651153989684,0.9366651153989684,1200,-0.9999999588186316,0.0
300,1.4284429550170898,-0.9999999845428689,1.0823033335207502e-09,-0.9999999826696147,-0.9999999852343397,0.0,0.06574876075288577,0.1,0.0016019344329833984,0.03370356559753418,0.05222366,1.0179868,-0.9999999180280105,0.0,-0.039999999917945596,0.0,4,0.0013890266418457031,0.9366828179784223,0.9366828179784223,1204,-0.9999996948873618,0.0
301,1.7331585884094238,-0.9999999845532959,1.6276198544040194e-09,-0.9999999817439542,-0.999999985707428,0.0,0.04776885555850579,0.1,0.0016016960144042969,0.034638166427612305,0.044939414,12.5042715,-0.999999924680539,0.0,-0.03999999808390074,0.0,4,0.0019207000732421875,0.9366704798169847,0.9366704798169847,1208,-0.9999999386755274,0.0
302,1.557884931564331,-0.9999999831022139,3.0181576646041735e-09,-0.9999999778793165,-0.9999999850029653,0.0,0.08866954154982278,0.1,0.0015673637390136719,0.031944990158081055,0.049523357,1.3682498,-0.9999999305227065,0.0,-0.03999999529216704,0.0,4,0.0012519359588623047,0.9366534924932662,0.9366534924932662,1212,-0.9999999549618276,0.0
303,1.548823595046997,-0.9999965779575269,5.0653700742112884e-06,-0.9999878672290872,-0.999999985203873,0.0,0.062417501303717066,0.1,0.0016829967498779297,0.037149906158447266,0.04997492,1.3565431,-0.9999995952661886,0.0,-0.039999998710409324,0.0,4,0.001383066177368164,0.9366603934763952,0.9366603934763952,1216,-0.9999999743552958,0.0
304,1.4724655151367188,-0.9999998998046524,1.2428454587124723e-07,-0.9999996863328924,-0.9999999853367898,0.0,0.05993678902654075,0.1,0.0019261837005615234,0.03706645965576172,0.05043109,1.8035812,-0.999999625720035,0.0,-0.039999999939769215,0.0,4,0.0015757083892822266,0.936667313220975,0.936667313220975,1220,-0.9999996549203137,0.0
305,1.4322898387908936,-0.9999999844053002,7.571487272968891e-10,-0.9999999832181239,-0.9999999852383912,0.0,0.040795728779817665,0.1,0.0019485950469970703,0.03563570976257324,0.049206346,6.3584843,-0.9999996615885616,0.0,-0.039999999904149035,0.0,4,0.0013926029205322266,0.9366559958883405,0.9366559958883405,1224,-0.9999999285177447,0.0
306,1.3881165981292725,-0.999999873581906,1.9274494031183146e-07,-0.9999995397379453,-0.9999999850561228,0.0,0.050387875250623534,0.1,0.0017919540405273438,0.03482198715209961,0.04432925,1.0376573,-0.9999996827878961,0.0,-0.039999999923302415,0.0,4,0.0013475418090820312,0.9366590206235502,0.9366590206235502,1228,-0.9999999840913983,0.0
307,1.4550256729125977,-0.999999984583234,1.069385473520716e-09,-0.9999999827386947,-0.9999999853475621,0.0,0.05129210329110865,0.1,0.001722097396850586,0.03305816650390625,0.04462324,6.8402457,-0.99999971296743,0.0,-0.03999999752180827,0.0,4,0.001445770263671875,0.9366730428167036,0.9366730428167036,1232,-0.9999998596456862,0.0
308,1.5180003643035889,-0.9999996497201347,5.272972404082932e-07,-0.9999987388885339,-0.9999999851054744,0.0,0.04713122169636409,0.1,0.0016849040985107422,0.03373527526855469,0.050290182,5.7965245,-0.9999997066427004,0.0,-0.039999999630274535,0.0,4,0.00130462646484375,0.9366557755426967,0.9366557755426967,1236,-0.999999731511398,0.0
309,1.369011402130127,-0.9999993867118957,8.571889708486656e-07,-0.9999979195637869,-0.999999985201401,0.0,0.06181385674499504,0.1,0.001722097396850586,0.03462815284729004,0.049181208,1.5025601,-0.99999967464962,0.0,-0.03999999995803355,0.0,4,0.0014443397521972656,0.9366649206883811,0.9366649206883811,1240,-0.9999999394634962,0.0
310,1.4103715419769287,-0.9999999834400288,2.222163067577669e-09,-0.999999979688402,-0.9999999851393171,0.0,0.06084121835052677,0.1,0.001861572265625,0.036628007888793945,0.048929546,3.4199357,-0.9999997055286609,0.0,-0.039999998938517634,0.0,4,0.001508474349975586,0.9366574263998115,0.9366574263998115,1244,-0.9999997285638266,0.0
311,1.3438372611999512,-0.9999996040541139,4.538861238270777e-07,-0.9999988732477127,-0.9999999851275305,0.0,0.06446678504370773,0.1,0.0016851425170898438,0.035982608795166016,0.047906645,1.6271513,-0.9999996953812063,0.0,-0.03999999903206936,0.0,4,0.001573801040649414,0.9366896234558519,0.9366896234558519,1248,-0.9999998054865271,0.0
312,1.4084300994873047,-0.9999999825374062,4.559279862908205e-09,-0.9999999746443282,-0.9999999853743926,0.0,0.054079151087253315,0.1,0.0019297599792480469,0.03543972969055176,0.049120836,5.266809,-0.9999997240968262,0.0,-0.03999999995079296,0.0,4,0.0015139579772949219,0.93667042021234,0.93667042021234,1252,-0.9999998564630702,0.0
313,1.9618935585021973,-0.9999997819159603,3.5149406957715096e-07,-0.9999991731105109,-0.9999999852247303,0.0,0.0577018834173929,0.1,0.0018565654754638672,0.034458160400390625,0.047345124,6.4405713,-0.9999997298787396,0.0,-0.03999999666763508,0.0,4,0.0013990402221679688,0.93671283231385,0.93671283231385,1256,-0.9999999647707867,0.0
314,1.4168968200683594,-0.9999999718375635,1.937853930375432e-08,-0.9999999385453715,-0.9999999851681043,0.0,0.07628119327302844,0.1,0.0016083717346191406,0.03361034393310547,0.048365034,2.700278,-0.9999997540746219,0.0,-0.03999999869589136,0.0,4,0.0015196800231933594,0.9366385317274649,0.9366385317274649,1260,-0.9999999848852377,0.0
315,1.6325304508209229,-0.9999999487605762,4.8460763265428104e-08,-0.9999998667972194,-0.9999999848504191,0.0,0.07224107503519238,0.1,0.0016140937805175781,0.03212571144104004,0.043128554,2.4110909,-0.9999997735432173,0.0,-0.03999998989630031,0.0,4,0.0011913776397705078,0.9366718431745066,0.9366718431745066,1264,-0.999999901659772,0.0
316,1.4070980548858643,-0.9999998723170365,1.7718559942743838e-07,-0.9999995662947676,-0.9999999854040968,0.0,0.05554423201018444,0.1,0.0016183853149414062,0.03200817108154297,0.049077146,8.66661,-0.9999997834205993,0.0,-0.03999999950863937,0.0,4,0.001210927963256836,0.9366699282761174,0.9366699282761174,1268,-0.999999863795798,0.0
317,1.5177288055419922,-0.9999999751313213,1.7757099201395808e-08,-0.9999999443755287,-0.999999985507849,0.0,0.05313544423607622,0.1,0.0016398429870605469,0.0324254035949707,0.04993812,0.9499735,-0.9999998025916715,0.0,-0.03999999991345836,0.0,4,0.0012688636779785156,0.936651287121415,0.936651287121415,1272,-0.9999999657365614,0.0
318,1.5032916069030762,-0.9999999322069514,8.432035095481489e-08,-0.9999997863024983,-0.9999999849916121,0.0,0.06064189406488901,0.1,0.0017862319946289062,0.032865047454833984,0.050302766,3.1758242,-0.9999998155531995,0.0,-0.039999997647651386,0.0,4,0.0015053749084472656,0.9366807838722663,0.9366807838722663,1276,-0.9999998759290073,0.0
319,1.7931699752807617,-0.9999999301717957,8.34029080181299e-08,-0.9999997862787502,-0.9999999850413899,0.0,0.051176985766539784,0.1,0.0016934871673583984,0.03272414207458496,0.047125645,13.242929,-0.9999998270150591,0.0,-0.0399999999562094,0.0,4,0.0013778209686279297,0.9366654058721195,0.9366654058721195,1280,-0.9999996210339271,0.0
320,1.6820001602172852,-0.9999995630780835,7.120615409072144e-07,-0.9999983299881294,-0.9999999855295756,0.0,0.054338888648609814,0.1,0.0016553401947021484,0.03194403648376465,0.048547156,3.0792568,-0.9999998006213615,0.0,-0.03999999990292601,0.0,4,0.0014383792877197266,0.9366549893548306,0.9366549893548306,1284,-0.9999999789001319,0.0
321,1.6573905944824219,-0.9999999851524419,2.2846233525292398e-10,-0.9999999849581807,-0.9999999855398347,0.0,0.06337404938031622,0.1,0.002052783966064453,0.0375673770904541,0.049357086,2.699017,-0.9999998190744696,0.0,-0.03999999991144192,0.0,4,0.0015420913696289062,0.9366588569112826,0.9366588569112826,1288,-0.9999997560055253,0.0
322,1.3593840599060059,-0.9999999848757921,4.5525440868949176e-10,-0.9999999842858909,-0.9999999854026247,0.0,0.05649515748653508,0.1,0.0018305778503417969,0.032863616943359375,0.049346782,3.73192,-0.9999998356546018,0.0,-0.039999999949159426,0.0,4,0.0013172626495361328,0.9366784668393646,0.9366784668393646,1292,-0.9999999197735859,0.0
323,1.4158604145050049,-0.9999971356151023,4.75645080379275e-06,-0.9999888982244884,-0.9999999853279327,0.0,0.04784854486081874,0.1,0.001798868179321289,0.03679299354553223,0.048917033,0.55945504,-0.999999565650652,0.0,-0.03999999916610326,0.0,4,0.001583099365234375,0.9366964032391797,0.9366964032391797,1296,-0.9999999123491512,0.0
324,1.5963571071624756,-0.9999996424736145,5.931306805682996e-07,-0.9999986151412361,-0.9999999853358079,0.0,0.055936865209874315,0.1,0.0016164779663085938,0.033426761627197266,0.049361974,3.1726084,-0.9999995733329482,0.0,-0.03999999995457651,0.0,4,0.0013523101806640625,0.9366678715185977,0.9366678715185977,1300,-0.9999999304241519,0.0
325,1.6916167736053467,-0.9999989193302262,1.846016465392416e-06,-0.999995721935955,-0.9999999854698742,0.0,0.06172369011659767,0.1,0.001739501953125,0.03811192512512207,0.051649455,1.2118807,-0.999999507932676,0.0,-0.03999999993764476,0.0,4,0.0015954971313476562,0.9366860199814594,0.9366860199814594,1304,-0.9999999810746539,0.0
326,1.603255271911621,-0.999999946342828,4.7538496328284034e-08,-0.9999998686268703,-0.9999999851874202,0.0,0.051582297791481206,0.1,0.0018706321716308594,0.035074472427368164,0.049962603,8.993774,-0.9999995517736912,0.0,-0.03999999957561228,0.0,4,0.0014650821685791016,0.9366842409420668,0.9366842409420668,1308,-0.9999999831176839,0.0
327,1.5638678073883057,-0.9999999650655338,3.210435080405073e-08,-0.9999999095677621,-0.9999999854567625,0.0,0.08214022336482735,0.1,0.0017845630645751953,0.035280466079711914,0.050619304,1.6701715,-0.9999995931028753,0.0,-0.03999999957288933,0.0,4,0.001482248306274414,0.9367019472964895,0.9367019472964895,1312,-0.9999999416013031,0.0
328,1.7831261157989502,-0.9999999802846185,8.815824395886516e-09,-0.9999999650159737,-0.9999999854668717,0.0,0.07384686519575856,0.1,0.0018868446350097656,0.03612947463989258,0.051106177,1.5492519,-0.9999996318210497,0.0,-0.03999999995159408,0.0,4,0.0014035701751708984,0.9366893744893313,0.9366893744893313,1316,-0.9999999150009292,0.0
329,1.613753080368042,-0.9999999381659832,8.031378418461594e-08,-0.9999997990648632,-0.9999999853048116,0.0,0.055031065977629495,0.1,0.001970529556274414,0.03369951248168945,0.05178472,1.8604786,-0.9999996624555431,0.0,-0.03999999987155008,0.0,4,0.0014424324035644531,0.9366708298954272,0.9366708298954272,1320,-0.9999996191049384,0.0
330,1.5702390670776367,-0.9999999781061379,6.567980327480319e-09,-0.9999999679511986,-0.9999999854809054,0.0,0.05469235275642395,0.1,0.001621246337890625,0.031870365142822266,0.04411766,2.5212023,-0.9999996940206026,0.0,-0.039999999877381946,0.0,4,0.0012519359588623047,0.9366530156561091,0.9366530156561091,1324,-0.9999994071281763,0.0
331,1.5798637866973877,-0.9999999584758938,4.6515864495749975e-08,-0.9999998779083372,-0.9999999854686832,0.0,0.06970714819696115,0.1,0.0016164779663085938,0.032230377197265625,0.04908373,2.92952,-0.9999997204661317,0.0,-0.03999999341692805,0.0,4,0.0012459754943847656,0.9366670785773047,0.9366670785773047,1328,-0.9999997754288681,0.0
332,1.7531800270080566,-0.9999999846932981,6.614908887168884e-10,-0.999999983663961,-0.9999999853024484,0.0,0.06803836819585855,0.1,0.0017533302307128906,0.037774085998535156,0.048710424,1.7778287,-0.9999997468888484,0.0,-0.03999999815772437,0.0,4,0.0017979145050048828,0.9366972423024219,0.9366972423024219,1332,-0.9999999303753738,0.0
333,1.796647310256958,-0.9999999832086364,3.1962131262395622e-09,-0.9999999776831168,-0.9999999852472181,0.0,0.055464512297374466,0.1,0.0018572807312011719,0.03489565849304199,0.05114243,2.0121138,-0.9999997705208272,0.0,-0.03999999989514404,0.0,4,0.0013766288757324219,0.9367025471157937,0.9367025471157937,1336,-0.9999997500686044,0.0
334,1.6931521892547607,-0.9999999841681972,1.825151563902648e-09,-0.9999999810148148,-0.9999999854089796,0.0,0.06550916824397003,0.1,0.001888275146484375,0.03531146049499512,0.050955832,1.2903738,-0.9999997918855642,0.0,-0.039999996580811825,0.0,4,0.001466989517211914,0.9366826987691331,0.9366826987691331,1340,-0.9999999066728426,0.0
335,1.597106695175171,-0.9999999118571343,1.2726882409471363e-07,-0.9999996914211182,-0.9999999854537795,0.0,0.06429332175506314,0.1,0.0016300678253173828,0.032652854919433594,0.047143765,3.4956176,-0.9999998038827212,0.0,-0.039999999948957234,0.0,4,0.0014574527740478516,0.9366632601046572,0.9366632601046572,1344,-0.9999996664036749,0.0
336,1.6696803569793701,-0.9999999846230385,1.5080716766320595e-09,-0.9999999820156469,-0.9999999855794843,0.0,0.06165951684014792,0.1,0.0015888214111328125,0.032961130142211914,0.048711166,2.6909854,-0.9999998219567531,0.0,-0.039999999954683174,0.0,4,0.0013117790222167969,0.9366343594023411,0.9366343594023411,1348,-0.9999996672889263,0.0
337,1.7506098747253418,-0.999999732641778,4.363607178783846e-07,-0.9999989768429993,-0.9999999848226986,0.0,0.055547340603835864,0.1,0.0016722679138183594,0.03502631187438965,0.051432446,0.7133186,-0.9999998130252556,0.0,-0.03999999995174024,0.0,4,0.0014073848724365234,0.9366354020713497,0.9366354020713497,1352,-0.9999999848451094,0.0
338,1.586824893951416,-0.9999999766377602,1.3473365061157946e-08,-0.999999953310321,-0.9999999850266037,0.0,0.05979700136989466,0.1,0.0016794204711914062,0.032724857330322266,0.04961977,4.8511844,-0.9999998293865061,0.0,-0.03999999691689855,0.0,4,0.0014040470123291016,0.9366879439778603,0.9366879439778603,1356,-0.999999971466821,0.0
339,1.412898302078247,-0.9999997274706959,2.558313867917486e-07,-0.9999994543355013,-0.9999999852722539,0.0,0.05905460469739545,0.1,0.0019199848175048828,0.03328728675842285,0.049039613,4.5760655,-0.9999998191949251,0.0,-0.03999999471286578,0.0,4,0.0014424324035644531,0.9366942914883212,0.9366942914883212,1360,-0.9999998306464292,0.0
340,1.5252714157104492,-0.9999998736799592,1.9178270169384494e-07,-0.999999541510695,-0.9999999855486008,0.0,0.06607272313221377,0.1,0.0018601417541503906,0.03449845314025879,0.049389876,4.351372,-0.9999998246434285,0.0,-0.0399999975571852,0.0,4,0.0015621185302734375,0.9366560403906083,0.9366560403906083,1364,-0.9999999224701451,0.0
341,1.5541319847106934,-0.999999985219676,1.0635106521160114e-10,-0.999999985087392,-0.9999999853376063,0.0,0.06028158687558817,0.1,0.0016255378723144531,0.033179521560668945,0.04925064,4.7222085,-0.9999998407010533,0.0,-0.03999999755781167,0.0,4,0.001567840576171875,0.936658618492704,0.936658618492704,1368,-0.999999244207456,0.0
342,1.5159993171691895,-0.9999999842592733,1.6590625872599977e-09,-0.9999999813945999,-0.999999985393522,0.0,0.05581822025878269,0.1,0.0016636848449707031,0.034043073654174805,0.047884606,11.454077,-0.9999998550568753,0.0,-0.03999999857732935,0.0,4,0.00145721435546875,0.9366911030240255,0.9366911030240255,1372,-0.9999998718421779,0.0
343,1.4172279834747314,-0.999999916577503,1.1162561488516527e-07,-0.9999997233094122,-0.9999999854332116,0.0,0.049638239770827666,0.1,0.0015850067138671875,0.03303027153015137,0.049533274,7.148296,-0.999999861208938,0.0,-0.039999997280417386,0.0,4,0.0015933513641357422,0.9366741081512724,0.9366741081512724,1376,-0.9999999825527914,0.0
344,1.714040756225586,-0.9999989263218847,1.8028218453305538e-06,-0.9999958039763379,-0.9999999854335124,0.0,0.060305638163581796,0.1,0.0016396045684814453,0.03393363952636719,0.048985884,5.6258183,-0.9999997677202327,0.0,-0.03999999748497135,0.0,4,0.0013489723205566406,0.9366675425019768,0.9366675425019768,1380,-0.9999996421605627,0.0
345,1.5519626140594482,-0.9999995300894532,7.879723867284237e-07,-0.9999981652813095,-0.9999999854212038,0.0,0.05539421043710138,0.1,0.0016813278198242188,0.034636497497558594,0.048018396,14.239214,-0.9999997439571549,0.0,-0.039999999742482056,0.0,4,0.0013496875762939453,0.9366642205322375,0.9366642205322375,1384,-0.9999998899422821,0.0
346,1.5043182373046875,-0.9999999816631662,3.1221665269935755e-09,-0.9999999766648993,-0.9999999844391241,0.0,0.0625991858389137,0.1,0.001592397689819336,0.03216195106506348,0.04561839,4.7443686,-0.999999767727756,0.0,-0.03999999987022071,0.0,4,0.0012307167053222656,0.9366608238645552,0.9366608238645552,1388,-0.9999999835961789,0.0
347,1.5051181316375732,-0.9999996691826719,5.198506095670294e-07,-0.9999987694334158,-0.999999985497503,0.0,0.09058118459342297,0.1,0.001695394515991211,0.04157304763793945,0.050623924,1.4978147,-0.9999997578732476,0.0,-0.03999999956940362,0.0,4,0.0014259815216064453,0.936675985304881,0.936675985304881,1392,-0.9999999788341555,0.0
348,1.5503628253936768,-0.9999999478897517,6.030553214690444e-08,-0.9999998436183828,-0.9999999855687871,0.0,0.04732400458658433,0.1,0.0017168521881103516,0.03343510627746582,0.050322674,5.0743885,-0.9999997768748979,0.0,-0.039999996059938106,0.0,4,0.0015447139739990234,0.9366831084536839,0.9366831084536839,1396,-0.9999993548250027,0.0
349,1.8666009902954102,-0.9999999852391062,2.6684078399271416e-10,-0.9999999850250934,-0.9999999856844517,0.0,0.058882163598609226,0.1,0.0016770362854003906,0.033926963806152344,0.04840915,4.8907776,-0.9999997977113187,0.0,-0.03999999983186096,0.0,4,0.001369476318359375,0.936651763958572,0.936651763958572,1400,-0.999999726463381,0.0
350,1.8320271968841553,-0.9999999202620404,1.1092979178377511e-07,-0.9999997281314594,-0.9999999850581132,0.0,0.06516181239694427,0.1,0.0016107559204101562,0.036130428314208984,0.04809779,5.8497868,-0.9999998099663909,0.0,-0.03999999610357212,0.0,4,0.001531839370727539,0.9367031952213175,0.9367031952213175,1404,-0.9999999332831578,0.0
351,1.5326006412506104,-0.9999999829810331,4.0759804136790584e-09,-0.9999999759299278,-0.9999999855491815,0.0,0.05348015265352298,0.1,0.0015447139739990234,0.03240799903869629,0.04647839,6.5291486,-0.9999998272678552,0.0,-0.0399999992573776,0.0,4,0.0013709068298339844,0.9366624331899601,0.9366624331899601,1408,-0.9999999602658067,0.0
352,1.5635783672332764,-0.9999999833254266,2.252786679705347e-09,-0.9999999799150645,-0.9999999855233122,0.0,0.05359317427951791,0.1,0.0019795894622802734,0.03627371788024902,0.052178647,1.323497,-0.9999998428736124,0.0,-0.039999999765791244,0.0,4,0.0015659332275390625,0.936686871094257,0.936686871094257,1412,-0.9999999032655631,0.0
353,1.6251704692840576,-0.9999999835718831,2.0357476608788852e-09,-0.999999980385966,-0.9999999854697645,0.0,0.059854086020618515,0.1,0.0017452239990234375,0.03496098518371582,0.050711002,1.6974763,-0.9999998569434395,0.0,-0.03999999968715609,0.0,4,0.001430511474609375,0.9366586780973487,0.9366586780973487,1416,-0.9999998161548004,0.0
354,1.6745760440826416,-0.9999999654837592,3.357527850390495e-08,-0.9999999073364119,-0.9999999854705035,0.0,0.05459123655537803,0.1,0.0016896724700927734,0.03204751014709473,0.047769204,14.157025,-0.9999998677974715,0.0,-0.0399999934121665,0.0,4,0.0012519359588623047,0.9366831122276649,0.9366831122276649,1420,-0.9999997809134465,0.0
355,1.542841911315918,-0.9999999273523327,1.0026779062417196e-07,-0.9999997536835508,-0.9999999853655512,0.0,0.08233930120375119,0.1,0.0018131732940673828,0.032688140869140625,0.048821196,2.5822365,-0.9999998737529577,0.0,-0.039999995343138355,0.0,4,0.0011703968048095703,0.9367116590818634,0.9367116590818634,1424,-0.9999999209801351,0.0
