iteration,time_sampling,stoc_pol_mean,stoc_pol_std,stoc_pol_max,stoc_pol_min,rollout_success,alpha,delta,time_vpg,time_npg,kl_dist,surr_improvement,running_score,rwd_sparse,rwd_dense,success_percentage,num_samples,time_VF,VF_error_before,VF_error_after,env_samples,eval_score,eval_success
0,1.1456339359283447,0.027380330296149922,0.020407210194632302,0.05624247512119648,0.0028784306374298116,0.0,0.14168371867946947,0.1,0.05862736701965332,0.05793046951293945,0.055513717,1.3436371,0.027380330296149922,0.0,0.0005415084614953568,0.0,200,0.043824195861816406,2.6311503385048605,0.901923734960712,200,0.025512887702571815,0.0
1,1.0408194065093994,0.031352625335002084,0.012688840682067003,0.050110898507684645,0.0178856187577976,0.0,0.1472890438686856,0.1,0.002840757369995117,0.0535731315612793,0.049255475,0.872428,0.02777755980003514,0.0,0.0006047573027631524,0.0,200,0.016986846923828125,0.7144847087331146,0.3625411267215407,400,0.02983994098070346,0.0
2,1.000338077545166,0.025116187454553626,0.005808767814227329,0.03247267185769823,0.017098490684941542,0.0,0.14678454343195144,0.1,0.0028519630432128906,0.055017709732055664,0.053084355,1.0844979,0.02751142256548699,0.0,0.0004994734335186204,0.0,200,0.014233112335205078,0.7748561429667375,0.23928669166922573,600,0.03262980725100222,0.0
3,1.023261308670044,0.028728437405914416,0.022321707607215538,0.06092828026523738,0.005506275991478652,0.0,0.1437155048079311,0.1,0.002716541290283203,0.05351877212524414,0.051932942,0.988415,0.027633124049529736,0.0,0.0005721770986810623,0.0,200,0.01926589012145996,0.49094635577459683,0.4916553369599469,800,0.046539322642988774,0.0
4,1.1326789855957031,0.11087027185706455,0.07255862545564151,0.21870201576935966,0.022626245030978792,0.0,0.14270273289145513,0.1,0.002658843994140625,0.05225419998168945,0.050902866,1.4842225,0.03595683883028322,0.0,0.002203298697073643,0.0,200,0.014085054397583008,0.8192583486860899,0.4635007983622696,1000,0.07294434307015539,0.0
5,1.1416211128234863,0.0897340823129553,0.021706593334213865,0.11584692990056993,0.05854410346082248,0.0,0.14274903062384142,0.1,0.0027375221252441406,0.0532071590423584,0.04895641,0.7710689,0.04133456317855043,0.0,0.0017864300031585245,0.0,200,0.01576089859008789,0.26124993901379506,0.451491871190356,1200,0.09802518396901384,0.0
6,1.0527877807617188,0.04850208419013948,0.04046289969682385,0.11294510041703329,0.010600616391951246,0.0,0.1525232967377668,0.1,0.002800464630126953,0.05227780342102051,0.052038617,0.95426047,0.04205131527970934,0.0,0.0009666035274598396,0.0,200,0.013880729675292969,1.712107394211107,0.8481285510160871,1400,0.13501476265217585,0.0
7,1.1383850574493408,0.041889892136426306,0.03708374541789249,0.10501772049238776,0.01462282181642626,0.0,0.14772165160815015,0.1,0.0027518272399902344,0.05368399620056152,0.05068066,1.4510182,0.042035172965381035,0.0,0.0008313236575510311,0.0,200,0.01637101173400879,1.2976502957947904,0.5003221057128688,1600,0.11501546054457192,0.0
8,1.186948299407959,0.17766570357826553,0.20733660908743906,0.5278930462814908,0.017437723488365146,0.0,0.14059703228675932,0.1,0.0026612281799316406,0.05373048782348633,0.048054248,1.5466748,0.05559822602666949,0.0,0.0035408890221381396,0.0,200,0.014206409454345703,0.8527628963227571,0.8114547709814317,1800,0.14125068151685774,0.0
9,1.1850287914276123,0.12558494855295999,0.12486222177566149,0.32058517793884317,0.006755814570681052,0.0,0.14823594148842145,0.1,0.003707408905029297,0.053133487701416016,0.050455727,1.2286749,0.06259689827929854,0.0,0.0024948031011137154,0.0,200,0.01668524742126465,0.692494497199937,0.5758057198142067,2000,0.17810194394626286,0.0
10,1.151244878768921,0.045493883366722665,0.02799459881001542,0.08308905152810787,0.006983393932736291,0.0,0.14333817684713615,0.1,0.002968311309814453,0.053015947341918945,0.048749432,1.0395314,0.06088659678804095,0.0,0.0009098279492259066,0.0,200,0.014054059982299805,1.4399094029341322,2.0507758578192914,2200,0.11048301561639702,0.0
11,1.104356050491333,0.1999634094357338,0.2400923878087945,0.608181908073263,0.015850263152191735,0.0,0.135831819754225,0.1,0.0027785301208496094,0.0541844367980957,0.04832508,1.4742703,0.07479427805281025,0.0,0.003982793667412079,0.0,200,0.01615762710571289,0.7399383740374728,0.7058986961702103,2400,0.10631222549304002,0.0
12,1.0742781162261963,0.14244354013413746,0.10152198027246342,0.2557259366715337,0.039559093986985046,0.0,0.14311478667729263,0.1,0.0028803348541259766,0.053963661193847656,0.049356643,1.1756476,0.08155920426094297,0.0,0.002843155862047631,0.0,200,0.014713287353515625,0.4572789804769051,0.4523805379757374,2600,0.1353059550624056,0.0
13,1.1527793407440186,0.16998877681140326,0.2409335250100069,0.5858666304796943,0.013092517153480794,0.0,0.14294265266362732,0.1,0.0028607845306396484,0.0546872615814209,0.04932055,1.3513656,0.09040216151598901,0.0,0.0033658838353588633,0.0,200,0.013962268829345703,0.7129935425326979,0.7029965014130629,2800,0.19248174806333537,0.0
14,1.176689863204956,0.2298741850459301,0.14033906556341735,0.46559799216055364,0.10214544050600179,0.0,0.14075864673045624,0.1,0.002680540084838867,0.05240154266357422,0.049669873,1.5950332,0.10434936386898312,0.0,0.004590139384813776,0.0,200,0.013914346694946289,0.3843660336221971,0.34672867092461274,3000,0.28151088808510755,0.0
15,1.132782220840454,0.07139700997075157,0.015085142234801006,0.09148183046489017,0.04983723828271906,0.0,0.13127122573606737,0.1,0.0028715133666992188,0.05367588996887207,0.0527427,5.030231,0.10105412847915997,0.0,0.0014260089976469614,0.0,200,0.01496577262878418,5.905952985529523,3.192385888395453,3200,0.23927129999999605,0.0
16,1.193577527999878,0.10184271370459709,0.02777167542714307,0.1264932545860635,0.05611916505364809,0.0,0.13520056941910144,0.1,0.002687692642211914,0.05341362953186035,0.04922605,0.8615471,0.10113298700170369,0.0,0.0019848214961424976,0.0,200,0.01434946060180664,0.726526218480744,0.182930378796555,3400,0.4369506668098202,0.0
17,1.1786479949951172,0.14533708783938304,0.09881728487392345,0.30489429141709956,0.05490344146045419,0.0,0.138889636048134,0.1,0.0028679370880126953,0.05287742614746094,0.05026731,1.2341026,0.10555339708547162,0.0,0.002894747529051874,0.0,200,0.014332056045532227,0.4237910701936678,0.5060492513892793,3600,0.426895773567398,0.0
18,1.2312793731689453,0.35996739414240514,0.14994225053962507,0.51502269511098,0.11365230855297265,0.0,0.13959755211519675,0.1,0.0026400089263916016,0.05276155471801758,0.048331212,0.9253193,0.130994796791165,0.0,0.007193165462675861,0.0,200,0.016475200653076172,0.6974792937690352,0.5478949419851087,3800,0.3481870229080484,0.0
19,1.2206954956054688,0.21287845046916365,0.20818502897363514,0.567187614508607,0.031664860032306875,0.0,0.1437680593299814,0.1,0.0026845932006835938,0.05401897430419922,0.048621465,1.3381171,0.13918316215896487,0.0,0.0041846580995895406,0.0,200,0.014345645904541016,0.5914613194954825,0.5305604147047146,4000,0.4018254266700721,0.0
20,1.238940715789795,0.21631972216621392,0.08332674125579104,0.320217687410242,0.09511127781856082,0.0,0.12901675775209995,0.1,0.002706766128540039,0.053312063217163086,0.049164664,2.5632412,0.14689681815968977,0.0,0.004290860619600249,0.0,200,0.014590263366699219,0.25940068640808656,0.2503900530541812,4200,0.5239305976425691,0.0
21,1.1937873363494873,0.11181883629625075,0.09431474067399966,0.25817960705786364,0.027860469682674284,0.0,0.14801240512409802,0.1,0.0027685165405273438,0.05380439758300781,0.050634213,0.9984415,0.14338901997334588,0.0,0.0022039490079378446,0.0,200,0.014362573623657227,1.0879994438564362,1.0799929486031836,4400,0.9933797848969125,0.0
22,1.2343003749847412,0.332507576469335,0.24751265308230133,0.6902672513387671,0.0374292922708691,0.0,0.1380332854214883,0.1,0.0027358531951904297,0.054033756256103516,0.050386176,1.3489828,0.1623008756229448,0.0,0.006605487160993014,0.0,200,0.013987064361572266,0.4883671162923431,0.48791172423034135,4600,0.41165583399633016,0.0
23,1.227020263671875,0.14871554008539797,0.05700896118844757,0.23138642512450022,0.07943972655112437,0.0,0.14034701604066085,0.1,0.0026290416717529297,0.05789899826049805,0.049370732,1.035656,0.16094234206919011,0.0,0.0029435270134603956,0.0,200,0.015256404876708984,0.4455811570565629,0.36785079009476,4800,0.4346208260720399,0.0
24,1.2189970016479492,0.4911931571209635,0.3581501962231123,1.0532991589278593,0.058505018189421026,0.0,0.12662159953748642,0.1,0.0027799606323242188,0.05447244644165039,0.05003895,1.7344391,0.19396742357436747,0.0,0.00965504381343725,0.0,200,0.01408696174621582,0.6333024795064095,0.5881731986426425,5000,0.2718872385221011,0.0
25,1.1893000602722168,0.21667943379895785,0.19153670648995827,0.5474565602526591,0.08359822905300514,0.0,0.13821451614542468,0.1,0.0027663707733154297,0.05535078048706055,0.04959842,1.76571,0.1962386245968265,0.0,0.004262851658493718,0.0,200,0.01455378532409668,0.5404306615821258,0.5681603221389516,5200,0.36138526379590014,0.0
26,1.1453437805175781,0.1506562804965838,0.09030520052899745,0.2967328221510041,0.060844446427466815,0.0,0.1368410852921419,0.1,0.0029942989349365234,0.054953575134277344,0.049641773,1.3023628,0.19168039018680225,0.0,0.0030029177104353346,0.0,200,0.014869213104248047,0.9721587827931499,0.8730756653281383,5400,0.2987691276609469,0.0
27,1.1578798294067383,0.1331167297048928,0.16372904171951305,0.4157207099044047,0.018958542380007652,0.0,0.12832054004602392,0.1,0.002897024154663086,0.05452561378479004,0.049470372,1.9151628,0.1858240241386113,0.0,0.0026562669531451136,0.0,200,0.015119791030883789,1.0774200548337864,0.8219869045159673,5600,0.33759117886294904,0.0
28,1.1995618343353271,0.07838223002239372,0.039452840830043315,0.14448708957624937,0.04004262127083435,0.0,0.12592614705123117,0.1,0.002869844436645508,0.05561685562133789,0.05049609,1.7766733,0.17507984472698954,0.0,0.0015599926511908066,0.0,200,0.01484823226928711,3.7653489334122052,1.5157656860991413,5800,0.39427249993301744,0.0
29,1.1309823989868164,0.17414881485136913,0.1472075844409715,0.41589442293635015,0.01896383562157387,0.0,0.13492932844916666,0.1,0.002888917922973633,0.057034969329833984,0.04872467,2.0523853,0.17498674173942752,0.0,0.0034727231896639526,0.0,200,0.014773845672607422,0.47667180433007195,0.515354722002116,6000,0.5448808932962151,0.0
30,1.1965699195861816,0.2500324112632588,0.1344159047612993,0.4083271771226273,0.06340359859510204,0.0,0.13784556491956845,0.1,0.002773761749267578,0.05421137809753418,0.051143423,1.2090561,0.18249130869181066,0.0,0.004985761556341752,0.0,200,0.015540361404418945,0.4941084464523778,0.4920272386509308,6200,0.5426102319221727,0.0
31,1.174574375152588,0.22438931546177943,0.13079944171299487,0.44744564979661244,0.12232361850700561,0.0,0.1444076023159596,0.1,0.0028107166290283203,0.05228233337402344,0.049904767,1.219019,0.18668110936880755,0.0,0.00448365982364972,0.0,200,0.014004230499267578,0.40826754001488813,0.37303030240415147,6400,0.8712923499103088,0.0
32,1.2246346473693848,0.17463821087266912,0.07665044201855178,0.22745801646841157,0.043145333360338434,0.0,0.1379171798457456,0.1,0.0027396678924560547,0.05472707748413086,0.05049602,0.74178046,0.1854768195191937,0.0,0.003480915328308744,0.0,200,0.01489567756652832,0.2564139202785784,0.24734338177726284,6600,0.7378880378401759,0.0
33,1.1904797554016113,0.3438925443341926,0.08853115365436294,0.4447690869302273,0.2021974303892946,0.0,0.12857908620371172,0.1,0.0039293766021728516,0.05345749855041504,0.049701754,0.7662035,0.2013183920006936,0.0,0.006776062040858765,0.0,200,0.01515340805053711,0.397571643341598,0.3313757311864736,6800,0.6332776728581564,0.0
34,1.2159454822540283,0.23961958009647208,0.1461598832536324,0.44032059165794557,0.057455072336420894,0.0,0.13096242931933458,0.1,0.00270843505859375,0.053316354751586914,0.048629526,2.4921546,0.20514851081027144,0.0,0.0046647245918058815,0.0,200,0.01576066017150879,0.400054098295198,0.37236445353372577,7000,0.9093760154044986,0.0
35,1.1631600856781006,0.282566787208808,0.17313063139137067,0.5296192280577589,0.040184760569228886,0.0,0.12603250655237225,0.1,0.002727508544921875,0.053302764892578125,0.04965596,3.814315,0.21289033845012512,0.0,0.005574806892168711,0.0,200,0.016626596450805664,0.381311459466314,0.3567795824095276,7200,0.9836002310417005,0.0
36,1.2051351070404053,0.1867534766990503,0.08941768721131681,0.33000562228110986,0.09328124241307319,0.0,0.12527616396551594,0.1,0.002813577651977539,0.05310535430908203,0.049897954,1.3279523,0.21027665227501763,0.0,0.0037067201252871476,0.0,200,0.016315937042236328,0.40250981066122843,0.4127470496044373,7400,1.0111126606518819,0.0
37,1.1833603382110596,0.22245878773405484,0.20136211919209746,0.5605205258412187,0.052547672475072284,0.0,0.1382460967786643,0.1,0.002656698226928711,0.05293869972229004,0.05057076,1.6000842,0.21149486582092134,0.0,0.004341724910031767,0.0,200,0.014636039733886719,0.5302563933606642,0.5109893260667417,7600,0.8443325436780441,0.0
38,1.232433795928955,0.21230529691928735,0.12887151421663542,0.38857855229252736,0.08550738601440706,0.0,0.12879735916119464,0.1,0.0027549266815185547,0.053981781005859375,0.050329007,1.4079864,0.21157590893075795,0.0,0.004213648785271743,0.0,200,0.014662027359008789,0.3763060318420197,0.3336541361649499,7800,0.6924224580922952,0.0
39,1.288548231124878,0.34888373910718806,0.26323124451692015,0.7492764967586657,0.0380630723337105,0.0,0.12973242219017173,0.1,0.002771139144897461,0.05344390869140625,0.050411798,1.634764,0.22530669194840097,0.0,0.00695243288354376,0.0,200,0.014361858367919922,0.49118894890939335,0.4824556816137553,8000,0.8133372195283494,0.0
40,1.2652599811553955,0.3037221351085799,0.06879808449654047,0.3992106543696172,0.21363509207333087,0.0,0.13987923098482027,0.1,0.004282236099243164,0.05422091484069824,0.04958502,0.8858517,0.23314823626441888,0.0,0.005955675848453172,0.0,200,0.0152740478515625,0.1580601879185266,0.1269798846079708,8200,0.8380543484634498,0.0
41,1.2389552593231201,0.5116057810026852,0.17591205010247696,0.8031753016177346,0.3414112358066896,0.0,0.1269628482493102,0.1,0.0026481151580810547,0.05289053916931152,0.050463524,1.166964,0.26099399073824553,0.0,0.010152762490424848,0.0,200,0.013737678527832031,0.3926500620044606,0.29392671033277884,8400,0.9056910615959449,0.0
42,1.262310266494751,0.299010707229245,0.15652012331288878,0.5013001508153458,0.11825816350097718,0.0,0.13091016654247611,0.1,0.0026657581329345703,0.054498910903930664,0.04989355,1.0821824,0.2647956623873455,0.0,0.005915401981183212,0.0,200,0.014198541641235352,0.3107913557890326,0.3620344942894602,8600,0.8077834383737695,0.0
43,1.2001535892486572,0.46244646267544487,0.12097769596750098,0.6596284791417525,0.33693983229393537,0.0,0.13830467425098247,0.1,0.0030858516693115234,0.061421871185302734,0.051387906,1.2495539,0.2845607424161554,0.0,0.009234829711603661,0.0,200,0.01501917839050293,0.19236844164079497,0.16646256363713235,8800,1.022872346452005,0.0
44,1.1650433540344238,0.5889987432863785,0.315759120954312,1.049421583786138,0.17537146955358734,0.0,0.12541817517990558,0.1,0.00284576416015625,0.055229902267456055,0.049033474,1.7918073,0.3150045425031777,0.0,0.011658201492496861,0.0,200,0.014992475509643555,0.3562025369053769,0.3121587809315422,9000,0.996705342473431,0.0
45,1.1455342769622803,0.09882524519620739,0.05779796518437539,0.19532369889082332,0.05160281411778827,0.0,0.1335056616601157,0.1,0.0028235912322998047,0.05398917198181152,0.049102295,1.2159915,0.2933866127724807,0.0,0.001957527416768926,0.0,200,0.014175891876220703,15.260541642861458,8.877398086422613,9200,0.925643126353768,0.0
46,1.1468684673309326,0.3015816461018016,0.24229653946462304,0.7112576248856652,0.08380100101371443,0.0,0.13198539055488565,0.1,0.0028581619262695312,0.05376124382019043,0.049210586,1.6582385,0.2942061161054128,0.0,0.0060296473220421845,0.0,200,0.014460325241088867,0.5076003475345401,0.46035123077037277,9400,0.756438226323335,0.0
47,1.213632583618164,0.3283541999380129,0.2670446217458626,0.7614497161418935,0.061645235196215016,0.0,0.13179942194968408,0.1,0.0026922225952148438,0.05252814292907715,0.04939461,1.6486801,0.29762092448867283,0.0,0.006479843547719419,0.0,200,0.017728090286254883,0.46693189243664524,0.4918008808538421,9600,0.9218443699339,0.0
48,1.190704107284546,0.6690544065146994,0.31551168674736646,1.0370920687373124,0.3258718552500233,0.0,0.12888623480958714,0.1,0.002907991409301758,0.05501151084899902,0.050453015,1.5666951,0.3347642726912755,0.0,0.013362124059156724,0.0,200,0.014811992645263672,0.552264295219728,0.4635214707533371,9800,0.8800310951433676,0.0
49,1.208906888961792,0.2787352913969117,0.1890232918135349,0.5849618551860069,0.08793914333989418,0.0,0.1348480044537531,0.1,0.0027506351470947266,0.05236387252807617,0.04934447,1.7721906,0.32916137456183914,0.0,0.005501148031395047,0.0,200,0.013919591903686523,0.371899279295219,0.4126974274496786,10000,0.9879555848900546,0.0
50,1.2193222045898438,0.39838882231841477,0.2639011963386253,0.7910710938993595,0.05905196327452675,0.0,0.12979976447993388,0.1,0.0027697086334228516,0.05330371856689453,0.05008894,1.7130989,0.3360841193374967,0.0,0.007762598407397286,0.0,200,0.014298677444458008,0.3849097081532317,0.3667349573575439,10200,1.1495738970501534,0.0
51,1.191441535949707,0.49934987410279136,0.12402087895962034,0.6573574455227402,0.3336166713707265,0.0,0.12381267200635299,0.1,0.0027549266815185547,0.057108163833618164,0.050601605,1.4783765,0.3524106948140262,0.0,0.009966644641945228,0.0,200,0.014460563659667969,0.1877222943258127,0.1750493488566798,10400,1.1102178300907968,0.0
52,1.1950430870056152,0.26694488995679466,0.13596582765603343,0.46483559851172757,0.10700646313513028,0.0,0.12398162068407387,0.1,0.002889871597290039,0.05423259735107422,0.04962805,11.129045,0.34386411432830305,0.0,0.005308027121668292,0.0,200,0.015553712844848633,0.7233896631107013,0.6470839711475903,10600,1.222417552156084,0.0
53,1.1505815982818604,0.3561414029019764,0.19070918319670718,0.5467698936131452,0.03848061596489794,0.0,0.1278817341102127,0.1,0.002762317657470703,0.05302166938781738,0.05026366,0.99961334,0.34509184318567043,0.0,0.007063089073404138,0.0,200,0.014022350311279297,0.2877831866132033,0.26499240826621306,10800,0.9984939693273228,0.0
54,1.2171704769134521,0.49154911220584696,0.30082635611331965,0.9753825050322429,0.15924061054324518,0.0,0.12600310109279894,0.1,0.0028641223907470703,0.05376577377319336,0.050411537,1.910424,0.3597375700876881,0.0,0.00968284291986524,0.0,200,0.014960765838623047,0.39553235326814484,0.39265395112386126,11000,1.0187650118386815,0.0
55,1.1767604351043701,0.47959079034395896,0.3676249364758134,1.060104057767474,0.050595254518797345,0.0,0.1318256856241078,0.1,0.0028159618377685547,0.05234479904174805,0.050089546,1.440747,0.37172289211331516,0.0,0.009453980590692747,0.0,200,0.01860356330871582,0.46765324114809614,0.4482143458713753,11200,1.08157996952885,0.0
56,1.2585773468017578,0.6202917972075856,0.32783637445302793,1.0962034347833012,0.2401252924128507,0.0,0.12127346615754021,0.1,0.0026133060455322266,0.05373954772949219,0.049491797,1.482511,0.3965797826227422,0.0,0.012174300036263505,0.0,200,0.013768672943115234,0.36315274716034823,0.30609011878680553,11400,0.8413424936591395,0.0
57,1.1996891498565674,0.5572413989537188,0.5695308916147983,1.4368310915607083,0.03806010452487311,0.0,0.12057474471631865,0.1,0.002695798873901367,0.05491495132446289,0.05015687,1.9408301,0.4126459442558399,0.0,0.010558539668141334,0.0,200,0.015655517578125,0.5504356405401584,0.5306012644934008,11600,0.7643361422018092,0.0
58,1.2314975261688232,0.32038866551078915,0.15097118323105213,0.5378237271738104,0.12131906652324824,0.0,0.1277814311096713,0.1,0.002749204635620117,0.0539700984954834,0.04957882,1.5006392,0.4034202163813348,0.0,0.0064028694660961585,0.0,200,0.014122724533081055,0.7905192304294921,0.7215844125124461,11800,0.8845665717153143,0.0
59,1.215712308883667,0.3838523309915073,0.12338446001652055,0.5604267922363503,0.21149379826651482,0.0,0.13118831875756812,0.1,0.0027947425842285156,0.05209827423095703,0.04964914,2.3718069,0.401463427842352,0.0,0.007662034353615715,0.0,200,0.014487504959106445,0.3560888896006908,0.18507301680645122,12000,0.9724495319081221,0.0
60,1.2192063331604004,0.2880606991780513,0.19957568177315538,0.584848795487099,0.09040556970822321,0.0,0.128184924978424,0.1,0.003014087677001953,0.05467414855957031,0.049357783,1.748855,0.390123154975922,0.0,0.005728155746949607,0.0,200,0.015245914459228516,0.72633427792516,0.4952150474704267,12200,0.9620955865919333,0.0
61,1.2132809162139893,0.36892794071581514,0.1763847297530884,0.5935550322700456,0.1355851100886235,0.0,0.13582110768020034,0.1,0.002865314483642578,0.05287528038024902,0.049194325,1.3235778,0.3880036335499113,0.0,0.007335960150636598,0.0,200,0.014055490493774414,0.23844250224422853,0.25740594353808066,12400,1.0293676547299402,0.0
62,1.2050049304962158,0.7208849655342806,0.31595216538374266,1.1641986365051051,0.2754496050155919,0.0,0.12733592391638104,0.1,0.0028052330017089844,0.05403423309326172,0.050247293,1.4103049,0.4212917667483483,0.0,0.014334781223369395,0.0,200,0.01597738265991211,0.4721386860082825,0.446985425863732,12600,1.1875804453693404,0.0
63,1.1825182437896729,0.4968373055247234,0.2346317709832303,0.7706043719217553,0.17966884634331257,0.0,0.12772981786378867,0.1,0.0027709007263183594,0.054215431213378906,0.048937626,1.1060476,0.42884632062598577,0.0,0.00990683624595904,0.0,200,0.01408696174621582,0.3099313445408182,0.2604965939612333,12800,1.0234995364685362,0.0
64,1.2405896186828613,0.33158460049381944,0.18195503304705796,0.6158849028632623,0.14752935757638458,0.0,0.13682922262417346,0.1,0.002814769744873047,0.054674386978149414,0.050125875,1.2732372,0.41912014861276914,0.0,0.006588446644236988,0.0,200,0.015000104904174805,0.27648206235367967,0.31399703164665094,13000,0.9089367556833784,0.0
65,1.2392959594726562,0.5097203054809332,0.4015946673963655,0.9548413932519086,0.05299309968110664,0.0,0.12490903838854428,0.1,0.002832651138305664,0.055197954177856445,0.04982313,1.3714318,0.4281801642995856,0.0,0.010176853616127678,0.0,200,0.016341686248779297,0.4632333214670209,0.45324423359794574,13200,1.1437194617074256,0.0
66,1.205315113067627,0.6289999042150127,0.4923306493475188,1.1650528979559613,0.062448165490386974,0.0,0.12215421136776058,0.1,0.0028028488159179688,0.05477476119995117,0.049330845,1.332574,0.4482621382911284,0.0,0.012492298763301308,0.0,200,0.014317035675048828,0.4497719748699387,0.4256533452714908,13400,1.1505594219393256,0.0
67,1.231238603591919,0.4905803131956991,0.41098318063122363,1.1048007389419907,0.0671204447542791,0.0,0.13132511566943927,0.1,0.0028076171875,0.05418205261230469,0.050008643,1.4264433,0.45249395578158547,0.0,0.00972194884658884,0.0,200,0.014641284942626953,0.46052480219581066,0.4627505228609815,13600,0.8188590239937449,0.0
68,1.201744556427002,0.70425510305246,0.3641843530974184,1.1580910292912872,0.19615630709585627,0.0,0.12485785664180395,0.1,0.002839803695678711,0.0536046028137207,0.04961744,1.5184469,0.47767007050867294,0.0,0.014061602967601422,0.0,200,0.014800548553466797,0.2999751193878345,0.2788411489001547,13800,0.6044161773300114,0.0
69,1.2347197532653809,0.7337546625760448,0.477531095671498,1.2505843828341805,0.07308083835807684,0.0,0.12645433954143265,0.1,0.0027747154235839844,0.05212831497192383,0.050385505,1.4727054,0.5032785297154101,0.0,0.014380327726633103,0.0,200,0.01393270492553711,0.37656601915099436,0.3509822016763575,14000,0.34621261211399945,0.0
70,1.250756025314331,0.43891533682101513,0.25285218299506995,0.6860617936412047,0.03235439190394191,0.0,0.12446098696027061,0.1,0.0027348995208740234,0.05399465560913086,0.04926678,1.7576426,0.4968422104259706,0.0,0.008400517188670447,0.0,200,0.015517711639404297,0.512695895228065,0.47102458924329305,14200,0.3320083834774677,0.0
71,1.2253451347351074,0.3938819210916679,0.24533850256828693,0.747488353651977,0.07391869953512367,0.0,0.1264901510175095,0.1,0.002983570098876953,0.05295109748840332,0.04995247,0.92916787,0.4865461814925403,0.0,0.007831718877035891,0.0,200,0.014072895050048828,0.680216867458524,0.422196242738461,14400,0.4659612325110418,0.0
72,1.2697770595550537,0.45619289928536916,0.05745771332349391,0.5085186399198031,0.35895033736354276,0.0,0.12054144071042808,0.1,0.0027437210083007812,0.054508209228515625,0.048607536,1.2489957,0.4835108532718232,0.0,0.00895047157725304,0.0,200,0.014476776123046875,0.1033166357717617,0.06634935836433425,14600,0.19989920227131738,0.0
73,1.302272081375122,0.6200208924888295,0.2593775975828532,1.006349957580662,0.29702205286234484,0.0,0.126144280290027,0.1,0.0028803348541259766,0.05460715293884277,0.050224785,1.7217501,0.49716185719352385,0.0,0.011961213265554056,0.0,200,0.013675451278686523,0.2953163167056626,0.3115716362199965,14800,0.06447443624247774,0.0
74,1.1947896480560303,0.536288772966656,0.26872051957584053,0.85036604670655,0.13745690296953214,0.0,0.12366961707689218,0.1,0.003032684326171875,0.059085845947265625,0.04956296,1.2739224,0.501074548770837,0.0,0.010510371568661367,0.0,200,0.015726566314697266,0.33219617260020734,0.3052488636204363,15000,0.05988748699431435,0.0
75,1.2431988716125488,0.5236240879655851,0.24488160316612495,0.9055651718182185,0.25937443172248725,0.0,0.12745447736436888,0.1,0.0027441978454589844,0.05321383476257324,0.04966751,1.7046787,0.5033295026903118,0.0,0.010351741887074939,0.0,200,0.014649152755737305,0.2894931959410722,0.2741190659662307,15200,0.05752770096604077,0.0
76,1.2105400562286377,0.5491403034189216,0.17885970961879763,0.7113676061079302,0.254492868472449,0.0,0.12632183433682467,0.1,0.0028045177459716797,0.054247379302978516,0.050013065,1.1576976,0.5079105827631728,0.0,0.010817699427835212,0.0,200,0.016876220703125,0.17729069544034806,0.16868820742998697,15400,0.05834373659554524,0.0
77,1.204350471496582,0.37703281720214404,0.1536389575657026,0.5409847671451761,0.1450850007724969,0.0,0.13247738885085972,0.1,0.002725839614868164,0.05279874801635742,0.050499965,0.9675638,0.49482280620707,0.0,0.0074810711128550055,0.0,200,0.013538122177124023,0.24983605595339142,0.2576413322240593,15600,0.20242569624050769,0.0
78,1.1952943801879883,0.3665201188277301,0.21667066409497956,0.7209685528003472,0.142925751935575,0.0,0.12466879601886843,0.1,0.0027952194213867188,0.05386185646057129,0.04932887,1.5544906,0.481992537469136,0.0,0.00730477251233861,0.0,200,0.013977289199829102,0.5309560718958937,0.4498289496643606,15800,0.2888158926999969,0.0
79,1.214883804321289,0.5180796753588007,0.040074071490508414,0.5536246929228797,0.45634338062270136,0.0,0.12969115486062094,0.1,0.0026922225952148438,0.0534207820892334,0.050391935,0.80809265,0.4856012512581025,0.0,0.010252585571434969,0.0,200,0.01400899887084961,0.08590615877814692,0.08610514433761149,16000,0.19096997756630582,0.0
80,1.2450218200683594,0.5423181211030078,0.24967447404599533,0.860608888420037,0.21123424628181262,0.0,0.1383734762638973,0.1,0.002814054489135742,0.054024457931518555,0.049415797,1.0752901,0.491272938242593,0.0,0.010635168016805767,0.0,200,0.01412820816040039,0.2612927055458916,0.258017197488482,16200,0.218757963666775,0.0
81,1.2274000644683838,0.6662469294276249,0.2396111019878614,1.0157484637874392,0.33897551328038816,0.0,0.12332060312435845,0.1,0.0027647018432617188,0.05425286293029785,0.05050745,1.3136954,0.5087703373610962,0.0,0.01304630556112605,0.0,200,0.015096902847290039,0.2603694662239589,0.23132167357652186,16400,0.7551060876503274,0.0
82,1.2337851524353027,0.3752682100110758,0.25039773893918266,0.6372873850878411,0.11991277211588788,0.0,0.12332564721358127,0.1,0.002783536911010742,0.053826332092285156,0.049070135,1.174974,0.4954201246260942,0.0,0.007421386075740819,0.0,200,0.014152050018310547,0.4494916981149898,0.4634251319426968,16600,0.9340032802463528,0.0
83,1.2553870677947998,0.5367148679751216,0.06769054020189197,0.627961476835015,0.43725110619280594,0.0,0.12347426457365077,0.1,0.0028052330017089844,0.0525050163269043,0.049140703,1.8465723,0.49954959896099693,0.0,0.010660784599796237,0.0,200,0.013592243194580078,0.05763890250392211,0.05464918166843713,16800,0.25694097481100625,0.0
84,1.2900357246398926,0.583385906581367,0.260692623916342,1.0340291076573713,0.40646393144228304,0.0,0.12487190190626885,0.1,0.0028371810913085938,0.05458211898803711,0.049453907,2.1382058,0.507933229723034,0.0,0.011557171570270695,0.0,200,0.01642894744873047,0.2507915301247584,0.23909347667966602,17000,0.48009203476306156,0.0
85,1.280409336090088,0.9279648332656418,0.5888633855026848,1.67273745474667,0.07457427293461139,0.0,0.12061249782663705,0.1,0.002725839614868164,0.05205512046813965,0.050262958,1.5800194,0.5499363900772948,0.0,0.018205486101055823,0.0,200,0.015532255172729492,0.4659000980789332,0.40779924021836156,17200,0.5575364680784155,0.0
86,1.3160040378570557,1.019484143133307,0.5487484516229088,1.7799653711590069,0.2550670683001607,0.0,0.12502564161029245,0.1,0.0027489662170410156,0.05269265174865723,0.05065532,1.2140652,0.596891165382896,0.0,0.01979750334888351,0.0,200,0.015416145324707031,0.3828128996764409,0.30355432574438923,17400,0.785797102943108,0.0
87,1.2481539249420166,0.37720361976401595,0.21023249509639397,0.5897042174247643,0.07019277352646797,0.0,0.1295725416336226,0.1,0.002668619155883789,0.05274701118469238,0.04957964,0.99831873,0.574922410821008,0.0,0.007451707190787203,0.0,200,0.015710830688476562,1.4543952676373908,1.4625387593988444,17600,0.5479846817043935,0.0
88,1.2348215579986572,0.800001995930971,0.5274087604575332,1.6748733235040616,0.28673493112353277,0.0,0.12790279084995998,0.1,0.0029320716857910156,0.0556640625,0.049595345,1.6800377,0.5974303693320043,0.0,0.01580777608515262,0.0,200,0.014929056167602539,0.3469164385492026,0.3283643147868109,17800,0.6192502628121627,0.0
89,1.2225492000579834,0.6434899480945195,0.3361422602546445,1.005902207982173,0.23811162461033655,0.0,0.1258125633306501,0.1,0.0027856826782226562,0.05409097671508789,0.049437743,1.2724866,0.602036327208256,0.0,0.012808077948897604,0.0,200,0.014221906661987305,0.32205456509672364,0.2568159215919736,18000,0.29322963350826736,0.0
90,1.2394931316375732,0.7863859749145667,0.5525817082539253,1.6397739815295995,0.13094503703847843,0.0,0.12531578313101105,0.1,0.002866506576538086,0.05595731735229492,0.049473867,1.6382843,0.6204712919788871,0.0,0.015462578476378833,0.0,200,0.01576066017150879,0.4105816272809784,0.4228535662305027,18200,0.3849671515211986,0.0
91,1.218813419342041,0.2851070964651228,0.08533084832597647,0.366772048518695,0.14292868359011776,0.0,0.13449494081030286,0.1,0.0027239322662353516,0.05371713638305664,0.049776684,0.85268736,0.5869348724275106,0.0,0.005558142886612634,0.0,200,0.014850378036499023,1.231853563615336,0.8018530097526956,18400,0.38269096620401305,0.0
92,1.2121076583862305,0.534897380831701,0.5253326345777416,1.4214439262969765,0.04633849204815163,0.0,0.1338893066466381,0.1,0.0027866363525390625,0.05427432060241699,0.050555382,1.2808142,0.5817311232679298,0.0,0.010523037436286593,0.0,200,0.01492166519165039,0.5273701604526035,0.5300743823640598,18600,0.4635777709431998,0.0
93,1.257542371749878,0.81922069707624,0.44683436386644787,1.3955803624930347,0.30095727654869214,0.0,0.1243025682041318,0.1,0.002790212631225586,0.05424666404724121,0.0497579,1.3830998,0.6054800806487608,0.0,0.0162831874730894,0.0,200,0.01437520980834961,0.3804891664430912,0.36116646575116906,18800,0.6130547653781616,0.0
94,1.226848840713501,0.6548161443769523,0.23648588058649592,1.0206520830900427,0.41114881385361446,0.0,0.10996569534198891,0.1,0.002730846405029297,0.0577390193939209,0.049272593,7.156203,0.6104136870215799,0.0,0.012773962528047937,0.0,200,0.014451742172241211,0.2799797749471631,0.21141970181398612,19000,0.6709262285232703,0.0
95,1.2076683044433594,0.4797691671643539,0.05560580287765468,0.5509606237091862,0.39793612400004136,0.0,0.1271832592147931,0.1,0.0028569698333740234,0.05374550819396973,0.05024252,1.2738065,0.5973492350358574,0.0,0.009581430147486072,0.0,200,0.014377593994140625,0.10045588627397473,0.16331986364114148,19200,0.5949748501496789,0.0
96,1.2754199504852295,1.1787105474892678,0.29512626967502986,1.6573076245237777,0.9144266698136466,0.0,0.11963269914210249,0.1,0.002856016159057617,0.05940556526184082,0.049979225,2.0417242,0.6554853662811985,0.0,0.02335396186160823,0.0,200,0.015247344970703125,0.3029750530228134,0.2438179721957808,19400,0.3512862290560879,0.0
97,1.2614963054656982,0.5386580560258524,0.2773633656221127,0.9342803022359216,0.24553994604552867,0.0,0.11461160354475325,0.1,0.003032684326171875,0.0536961555480957,0.049497575,2.3028047,0.6438026352556638,0.0,0.010678787182772676,0.0,200,0.014097213745117188,0.39680887273608145,0.44986225768278915,19600,0.38569991606410364,0.0
98,1.2734670639038086,0.5991507955366868,0.18908830211499594,0.8252574265388416,0.3423019193501734,0.0,0.12149109901898952,0.1,0.002786874771118164,0.053884029388427734,0.04960625,1.7710518,0.6393374512837662,0.0,0.011951971753867545,0.0,200,0.014400720596313477,0.21229113600976363,0.1617418028977936,19800,0.4346695394350701,0.0
99,1.244783878326416,0.6861980683717175,0.16408388022428566,0.920642769093249,0.4674209437940408,0.0,0.1185725638401725,0.1,0.0030488967895507812,0.05420112609863281,0.049543433,1.4853653,0.6440235129925613,0.0,0.01356521723772311,0.0,200,0.014277458190917969,0.1254796390729677,0.10971049055676226,20000,0.48109773275709755,0.0
100,1.2767624855041504,0.42447489577410796,0.4340035062092465,1.1566873315366244,0.06734309588855289,0.0,0.11969208975032293,0.1,0.0028748512268066406,0.05526447296142578,0.04848261,2.792113,0.6220686512707161,0.0,0.00844929051513104,0.0,200,0.014027595520019531,0.6760873315700647,0.6284367544457287,20200,0.34533521729401784,0.0
101,1.2695906162261963,0.441085403982788,0.2771964357042262,0.7622196387268437,0.045556783293590544,0.0,0.12026827904580674,0.1,0.0029053688049316406,0.05686497688293457,0.049832746,1.0217634,0.6039703265419233,0.0,0.008737766521404705,0.0,200,0.014139652252197266,0.42824865238238913,0.37670747449998326,20400,0.5658337679453105,0.0
102,1.2897660732269287,0.9632960181838379,0.468647139590895,1.4279277810388382,0.39116985936701204,0.0,0.12484170070339243,0.1,0.0027685165405273438,0.053392887115478516,0.049997587,1.5363097,0.6399028957061148,0.0,0.01897321316679132,0.0,200,0.013698816299438477,0.37372215219356,0.3653778677202263,20600,0.6037208083926283,0.0
103,1.2442677021026611,0.7283212145170728,0.3880634168676004,1.3244200608621328,0.26824940323149077,0.0,0.11916136081318768,0.1,0.002848386764526367,0.052491188049316406,0.050494716,2.6471891,0.6487447275872106,0.0,0.014130496310566686,0.0,200,0.014017820358276367,0.3459139783404333,0.2988798578514216,20800,0.7018784849977745,0.0
104,1.2626566886901855,0.5993049518946592,0.3250414631768222,0.9242985418031687,0.08429247219749886,0.0,0.1255016562877087,0.1,0.003394603729248047,0.05471491813659668,0.050783806,0.9845249,0.6438007500179554,0.0,0.011901768803615334,0.0,200,0.014305830001831055,0.26624218070639993,0.2894444540079565,21000,1.040596040974441,0.0
105,1.3089985847473145,0.7039133361357034,0.2326351903171848,1.0677333807778053,0.42105252643230234,0.0,0.12958151011912206,0.1,0.0027196407318115234,0.05316042900085449,0.04954837,1.0041137,0.6498120086297302,0.0,0.013977405782159266,0.0,200,0.013937711715698242,0.15874476513051305,0.1583126961607407,21200,1.0348770969657273,0.0
106,1.2348320484161377,0.5293762510258433,0.38835427152604785,1.1882104102448527,0.19377584078195442,0.0,0.12232135262846812,0.1,0.0029876232147216797,0.05508136749267578,0.049521755,1.9556063,0.6377684328693416,0.0,0.010401119087147812,0.0,200,0.014734268188476562,0.44559089020233905,0.41459780617452674,21400,0.865561648614996,0.0
107,1.2433149814605713,0.3440872252484675,0.11561163334894482,0.47027536545824816,0.15545885563374284,0.0,0.12924455899773868,0.1,0.002839803695678711,0.05449199676513672,0.04968684,1.119874,0.6084003121072542,0.0,0.006758759813039026,0.0,200,0.013979673385620117,1.0987475538345572,0.6956120755182962,21600,0.6473273310839645,0.0
108,1.2603509426116943,0.653789870195794,0.46031743386943696,1.1349446068480193,0.13494636087752976,0.0,0.1285622125226014,0.1,0.002840757369995117,0.05407547950744629,0.049409937,0.92035943,0.6129392679161082,0.0,0.012783327781632716,0.0,200,0.014259099960327148,0.35685126200753076,0.3731340209077375,21800,0.6492456733542893,0.0
109,1.209730625152588,0.36001708555187206,0.18319674118033555,0.6375098345172437,0.13533764957161312,0.0,0.12474379973838239,0.1,0.0028581619262695312,0.05453634262084961,0.049197424,1.1681311,0.5876470496796846,0.0,0.007012952483136738,0.0,200,0.020591020584106445,0.35113643492995283,0.3009175250000987,22000,0.6175981426133716,0.0
110,1.2622137069702148,0.7267214513746652,0.29614177739406616,1.2342964098457647,0.5185182255845258,0.0,0.11752736257184608,0.1,0.002795696258544922,0.0544123649597168,0.049515907,2.2464418,0.6015544898491827,0.0,0.014303329602844025,0.0,200,0.013818502426147461,0.3220429294863249,0.31724848343602646,22200,0.5488461760919322,0.0
111,1.2280232906341553,0.6021146078859503,0.37691227818388645,1.2506795249225926,0.3172652835139525,0.0,0.12592602326836072,0.1,0.0027823448181152344,0.05283856391906738,0.049893923,1.9902496,0.6016105016528596,0.0,0.011864325539883912,0.0,200,0.013992071151733398,0.34838540178903266,0.3243379939131823,22400,0.6160850868426039,0.0
112,1.2936866283416748,0.7443561909107678,0.2877185204497396,1.1073059637113154,0.3318031680768637,0.0,0.1206199698606567,0.1,0.0028002262115478516,0.05394935607910156,0.050191544,1.6487752,0.6158850705786504,0.0,0.014668661359003804,0.0,200,0.01516580581665039,0.2902208784723561,0.24152209227313806,22600,0.6328971993553816,0.0
113,1.2777514457702637,0.6486775418127209,0.4970202783238977,1.4015871396550088,0.10917792002252008,0.0,0.1241113793336646,0.1,0.0029342174530029297,0.053507089614868164,0.050058752,1.3871273,0.6191643177020575,0.0,0.01276298633319271,0.0,200,0.01403665542602539,0.4058577125476488,0.4025438480135172,22800,0.7230096725367331,0.0
114,1.2937037944793701,1.375282616070285,0.5523394563236266,2.1191108393923868,0.6607879577460981,0.0,0.1233886923724481,0.1,0.002826213836669922,0.05395674705505371,0.049665127,1.1113853,0.6947761475388802,0.0,0.02697336903902054,0.0,200,0.014257669448852539,0.42238970184363833,0.3296932974192708,23000,0.8150863798439761,0.0
115,1.296696424484253,1.0880029273062566,0.4458088421960077,1.850060748306167,0.7697629555433037,0.0,0.12290958691538938,0.1,0.0028018951416015625,0.055291175842285156,0.04986527,1.6739357,0.7340988255156178,0.0,0.021557684791854423,0.0,200,0.013878822326660156,0.25389813156988256,0.20668214729809278,23200,0.932987933603814,0.0
116,1.265622854232788,0.5743193634815658,0.07093961109199165,0.6778253511298571,0.48045903964503256,0.0,0.13241996475963475,0.1,0.002971649169921875,0.05443263053894043,0.04934908,0.9681024,0.7181208793122126,0.0,0.011136777946191773,0.0,200,0.013902902603149414,0.8033356726682299,0.7297206803051638,23400,0.9414944081093969,0.0
117,1.2904980182647705,0.4092422583612534,0.24966647180000803,0.7458680590137394,0.15588707065568466,0.0,0.12332584398137733,0.1,0.0028731822967529297,0.0549311637878418,0.049999997,1.1815826,0.6872330172171166,0.0,0.00807878319160867,0.0,200,0.013983964920043945,2.275209028649145,1.107603236679919,23600,1.472984891793305,0.0
118,1.2868220806121826,0.9466576718216784,0.7103793685234118,1.800419669988287,0.03770838762448393,0.0,0.12172663241784933,0.1,0.0027768611907958984,0.052478790283203125,0.04999642,1.2536167,0.7131754826775729,0.0,0.01843092770786916,0.0,200,0.013497591018676758,0.405752891753855,0.44383704008895614,23800,0.7345131621290858,0.0
119,1.2739346027374268,0.46945854961473815,0.38195906697683263,1.0707536819487633,0.06540930388107284,0.0,0.12386557351205472,0.1,0.0033693313598632812,0.053643226623535156,0.0490533,1.1318861,0.6888037893712895,0.0,0.009318260074654873,0.0,200,0.01384735107421875,0.6046355815667357,0.526078013481512,24000,0.9094664102756624,0.0
120,1.307316780090332,1.0394710571639294,0.6477446868534141,1.879824956291129,0.26745405932148075,0.0,0.12227307159216566,0.1,0.0028150081634521484,0.05379652976989746,0.050005913,1.6457518,0.7238705161505535,0.0,0.02059848048341891,0.0,200,0.016134262084960938,0.4761447709955643,0.46598718897282415,24200,1.1909528370922644,0.0
121,1.3383393287658691,0.7366152342718616,0.4332104046960877,1.1691290354002997,0.06804803921638887,0.0,0.1223544903285954,0.1,0.0026674270629882812,0.05316901206970215,0.05021153,1.2533314,0.7251449879626843,0.0,0.014482427941404861,0.0,200,0.014531135559082031,0.33432020212387575,0.3151982416213364,24400,1.2133577722869904,0.0
122,1.3452227115631104,0.5461561466679735,0.366404801613644,1.0580452754463316,0.14302714324919763,0.0,0.12454074619441696,0.1,0.00275421142578125,0.05341625213623047,0.049705926,1.3807168,0.7072461038332133,0.0,0.010817917031437042,0.0,200,0.01519918441772461,0.3289975614748355,0.3390100492491235,24600,1.182952456250231,0.0
