iteration,time_sampling,stoc_pol_mean,stoc_pol_std,stoc_pol_max,stoc_pol_min,rollout_success,alpha,delta,time_vpg,time_npg,kl_dist,surr_improvement,running_score,rwd_sparse,rwd_dense,success_percentage,num_samples,time_VF,VF_error_before,VF_error_after,env_samples,eval_score,eval_success
0,1.0865285396575928,0.039480393178522165,0.01694802353757587,0.06408993035825904,0.016333517794084037,0.0,0.13784123123320297,0.1,0.03448200225830078,0.05313920974731445,0.048570853,1.6241816,0.039480393178522165,0.0,0.0007848037279706067,0.0,200,0.013085126876831055,4.15103442743526,1.2047122063225595,200,0.0380809051713737,0.0
1,0.9447104930877686,0.0355843457368227,0.012389451826611471,0.051124396496767664,0.019712486767208215,0.0,0.14222436904723632,0.1,0.002740621566772461,0.05652499198913574,0.05403335,1.3291303,0.039090788434352215,0.0,0.0006958716405855135,0.0,200,0.013299226760864258,1.6418880810285947,0.339261499674635,400,0.04199713209740807,0.0
2,0.9019198417663574,0.024153283087316516,0.01094609937739412,0.03555896503379697,0.008704252553351022,0.0,0.15711418463428745,0.1,0.0027132034301757812,0.05219888687133789,0.05219967,1.0090367,0.03759703789964865,0.0,0.00048214538965980964,0.0,200,0.013641595840454102,1.214794438411083,1.0150029189075362,600,0.03189148930391351,0.0
3,1.0295515060424805,0.06763627931372748,0.06891358719693687,0.1850928230802985,0.009018631407063058,0.0,0.15210649086284203,0.1,0.0026521682739257812,0.0524439811706543,0.053798135,1.2200676,0.04060096204105654,0.0,0.0013413599023177553,0.0,200,0.01314401626586914,1.025413243829391,0.7423996403793601,800,0.04917294802873171,0.0
4,0.9622445106506348,0.07865120466740294,0.0382442852391127,0.11981724747593789,0.016233091673670902,0.0,0.14319962045879775,0.1,0.0026845932006835938,0.05209207534790039,0.051506117,1.1656313,0.04440598630369118,0.0,0.0015559818338349717,0.0,200,0.013501405715942383,0.5566265020603512,0.3484002562702877,1000,0.05598378281888769,0.0
5,0.9991176128387451,0.06241302166742872,0.02504284032946148,0.08792516722967564,0.03713035913407694,0.0,0.14235484233353457,0.1,0.002655029296875,0.05230093002319336,0.05065413,1.0623128,0.046206689840064936,0.0,0.0012322609357291862,0.0,200,0.013817310333251953,0.47285431154820406,0.6038493842637592,1200,0.05275099758654809,0.0
6,0.9557614326477051,0.05245295528260107,0.05007335418502214,0.1386557005157289,0.01731963142070787,0.0,0.1485328265531597,0.1,0.002708911895751953,0.052186012268066406,0.052584015,1.6906738,0.04683131638431855,0.0,0.0010468860879590432,0.0,200,0.013172388076782227,0.9187585934437194,0.6210085738416867,1400,0.15936099576207902,0.0
7,1.0670430660247803,0.0254987767995285,0.01114338844827757,0.03643120536900717,0.0093408577925467,0.0,0.14693347700789516,0.1,0.0026907920837402344,0.05198788642883301,0.05005073,1.0165212,0.04469806242583954,0.0,0.0005019994046098445,0.0,200,0.012703418731689453,1.7064411450199148,0.2857405793082183,1600,0.19144321659343233,0.0
8,1.083735466003418,0.0800697620227469,0.10056988203907696,0.253570625041142,0.008125903885076178,0.0,0.1390184968895906,0.1,0.0026941299438476562,0.051869869232177734,0.05088558,1.7111466,0.04823523238553028,0.0,0.0015907461767680337,0.0,200,0.013287067413330078,0.8369117721209025,0.862697850258517,1800,0.28379082089942503,0.0
9,0.9518516063690186,0.09452491066089387,0.06712475781145275,0.20258539798479497,0.038146838718587865,0.0,0.14952525574239503,0.1,0.002632617950439453,0.05192136764526367,0.049928177,1.318237,0.052864200213066634,0.0,0.0018766238042426447,0.0,200,0.013140678405761719,0.7756821457233872,0.548907010638917,2000,0.26289385720098435,0.0
10,0.9923629760742188,0.06406262413392012,0.0510815645474545,0.13878478391383742,0.006654054205137368,0.0,0.14415963590240483,0.1,0.0029053688049316406,0.05285334587097168,0.049189318,1.2694856,0.05398404260515198,0.0,0.0012796165123070613,0.0,200,0.013682365417480469,0.5104088685251355,0.5545786333945805,2200,0.17621012462821442,0.0
11,1.0015606880187988,0.10642686897969672,0.07385429456611187,0.2017189990414359,0.024484092172257933,0.0,0.14099600159973147,0.1,0.0027608871459960938,0.05238676071166992,0.048396703,1.105046,0.05922832524260646,0.0,0.0021213936724454084,0.0,200,0.013441324234008789,0.47443390431468385,0.4343001808963714,2400,0.11324845298574156,0.0
12,1.0003142356872559,0.06859269921398105,0.0393782447455644,0.12916575331610766,0.021985495420332155,0.0,0.1527845807949189,0.1,0.002718687057495117,0.05590987205505371,0.052546073,1.0620662,0.06016476263974392,0.0,0.0013559616961229385,0.0,200,0.014007806777954102,0.673100506515826,0.5402202071572846,2600,0.17213060003456873,0.0
13,0.9996938705444336,0.14355669178512426,0.12892329238550826,0.293859452768455,0.013433192112536123,0.0,0.14022635924623322,0.1,0.002834796905517578,0.052556514739990234,0.051391605,1.164286,0.06850395555428196,0.0,0.0028586709142048496,0.0,200,0.01414942741394043,0.5836149829134684,0.5670090618584182,2800,0.2506218011537542,0.0
14,1.0703647136688232,0.13035181640244753,0.10980473942636533,0.3173057943945848,0.04337842519076956,0.0,0.12672259003919484,0.1,0.00272369384765625,0.054799556732177734,0.05021925,2.7945051,0.07468874163909853,0.0,0.002602055931912176,0.0,200,0.013324737548828125,0.5197443463079255,0.4848969957507276,3000,0.2562591848350357,0.0
15,1.0365631580352783,0.09179489973384217,0.03118456486915496,0.14545436402912565,0.06887474266715701,0.0,0.1355264320624456,0.1,0.0026786327362060547,0.05460762977600098,0.04985056,1.4728417,0.0763993574485729,0.0,0.0018173437961222622,0.0,200,0.013646364212036133,0.440055842157622,0.342604431593715,3200,0.3004751955707241,0.0
16,1.0320396423339844,0.09798657101770453,0.054283664548771565,0.16573139513981588,0.024285803253092993,0.0,0.137448426216773,0.1,0.0026383399963378906,0.052861928939819336,0.050336204,0.98345757,0.07855807880548607,0.0,0.001892160357247651,0.0,200,0.013270139694213867,0.29629939035450026,0.2878229930385506,3400,0.4514955144231674,0.0
17,1.0571167469024658,0.1543816287114591,0.10821737775908906,0.3410192904890782,0.07783768589045062,0.0,0.1421746398019047,0.1,0.0026252269744873047,0.05215620994567871,0.05104382,1.3178983,0.08614043379608338,0.0,0.003050895434742288,0.0,200,0.018294811248779297,0.5052318764627438,0.44143969782283377,3600,0.3700818860640012,0.0
18,1.0426690578460693,0.19858732597148304,0.10075565855642839,0.29419603837507907,0.02914403622204032,0.0,0.13166172671308304,0.1,0.0031189918518066406,0.05366253852844238,0.05019564,1.8183635,0.09738512301362336,0.0,0.0039657199791371285,0.0,200,0.014101028442382812,0.39644072370227357,0.2892561097896258,3800,0.225913367744729,0.0
19,1.0470225811004639,0.21468280584564986,0.23983668328071886,0.6253490659085722,0.047725395081102594,0.0,0.14412639032776847,0.1,0.0026781558990478516,0.05208635330200195,0.050486155,1.2241112,0.10911489129682601,0.0,0.004202208696175578,0.0,200,0.013384342193603516,0.6033595653582943,0.6002167640090845,4000,0.2284257886767316,0.0
20,1.070554256439209,0.15028235381811222,0.08583705712113843,0.27273966810227734,0.038483841473263086,0.0,0.13898688337161072,0.1,0.002650737762451172,0.055234432220458984,0.050797142,1.1346135,0.11323163754895464,0.0,0.003001141658635489,0.0,200,0.012837648391723633,0.6645808707038998,0.41902870155207006,4200,0.2353250433129919,0.0
21,1.0429751873016357,0.20235491259936542,0.143708929877134,0.40610155011436977,0.03139234108029817,0.0,0.13949051450606578,0.1,0.0027730464935302734,0.05231332778930664,0.050096665,1.3729692,0.12214396505399572,0.0,0.004016461451243126,0.0,200,0.013390779495239258,0.40625531096989487,0.41991668050660286,4400,0.3330204418322933,0.0
22,1.0899975299835205,0.15744429215332442,0.12394274750876007,0.33958725045193416,0.028964679773509413,0.0,0.13855405438594876,0.1,0.002744436264038086,0.061192989349365234,0.050143722,1.2230604,0.1256739977639286,0.0,0.00314258541844251,0.0,200,0.013827800750732422,0.4554463888818053,0.4490000831596936,4600,0.43548100063300915,0.0
23,1.0935437679290771,0.14156338253612552,0.06764198842869354,0.2090066061523427,0.03177401535806582,0.0,0.14343216682993248,0.1,0.0026781558990478516,0.05224037170410156,0.05023687,0.9025381,0.1272629362411483,0.0,0.002783367705232209,0.0,200,0.012845993041992188,0.2656785988878645,0.27023790706382594,4800,0.47401096316900854,0.0
24,1.058516502380371,0.2328864186904569,0.17446576543662504,0.5241346642595194,0.08793690577824652,0.0,0.1254636404435641,0.1,0.0028645992279052734,0.05296444892883301,0.049541973,2.744753,0.13782528448607914,0.0,0.004557668384206718,0.0,200,0.013404369354248047,0.5456120330800558,0.47447581942268624,5000,0.46884559073676263,0.0
25,1.0465731620788574,0.10801558943359509,0.07873181445670842,0.23976168337179088,0.03757756408939196,0.0,0.14632071599849134,0.1,0.002752542495727539,0.052678823471069336,0.05056444,1.4925075,0.13484431498083074,0.0,0.0021243070559576914,0.0,200,0.013802289962768555,0.5607468132292945,0.6448400408956078,5200,0.5500335073117718,0.0
26,1.061047077178955,0.0853391115167283,0.07678374416463098,0.2162733127339905,0.020091429370845428,0.0,0.13735685415822654,0.1,0.002836942672729492,0.05266833305358887,0.050702203,1.133483,0.1298937946344205,0.0,0.001703507135781278,0.0,200,0.014096498489379883,0.9508820675059716,0.6171416784013594,5400,0.59840777798947,0.0
27,1.0359394550323486,0.11947520953565381,0.122130004633785,0.3250207941145764,0.023700040737079958,0.0,0.13010272694229938,0.1,0.002836465835571289,0.0534512996673584,0.048814774,2.39581,0.12885193612454382,0.0,0.0023889861973840285,0.0,200,0.013580322265625,0.5951665949642819,0.5956987929400234,5600,0.6611955635607732,0.0
28,1.0428719520568848,0.1219229736969841,0.05233171708647542,0.19202919921092465,0.04456376459467784,0.0,0.13314754818161423,0.1,0.002909421920776367,0.05353546142578125,0.05052311,1.092503,0.12815903988178784,0.0,0.002432160770033161,0.0,200,0.014262914657592773,0.28099048837574997,0.3097548338550534,5800,0.6766076503813164,0.0
29,1.0119025707244873,0.14759270012941406,0.10115046257167387,0.2911824832326248,0.021509198364662124,0.0,0.14157786921737023,0.1,0.0027937889099121094,0.05315256118774414,0.04915709,0.97815806,0.13010240590655048,0.0,0.002883760359286569,0.0,200,0.013999700546264648,0.4873195678600828,0.421389012266488,6000,0.574211148994751,0.0
30,1.0688385963439941,0.27563958488267515,0.20122534527055438,0.5756372668605945,0.06056913989177068,0.0,0.14382284901979497,0.1,0.0027246475219726562,0.05201458930969238,0.0498592,1.0017132,0.14465612380416296,0.0,0.005470253592301456,0.0,200,0.01385188102722168,0.6228545231933094,0.46902502875227386,6200,0.5111987083001496,0.0
31,1.095078468322754,0.20809648867537245,0.13598981031742574,0.35033122702792824,0.043831044314160655,0.0,0.14289362722555665,0.1,0.002780437469482422,0.05348801612854004,0.049858704,0.91002816,0.1510001602912839,0.0,0.004052963006479668,0.0,200,0.014026641845703125,0.3678226446018582,0.37628748147908514,6400,0.48180437268950915,0.0
32,1.1022002696990967,0.19316732936339898,0.09818228014866556,0.362616085092592,0.1242581053201656,0.0,0.14467546174956653,0.1,0.002947568893432617,0.0535426139831543,0.049951605,1.028149,0.15521687719849542,0.0,0.0038267056746024227,0.0,200,0.014961004257202148,0.4529976695451381,0.41842306571267107,6600,0.5602746202902873,0.0
33,1.0856125354766846,0.3471150000096117,0.03910985895569147,0.39615830914269246,0.28893307862958595,0.0,0.13188451092709855,0.1,0.0028257369995117188,0.05286216735839844,0.04976329,0.6477828,0.17440668947960705,0.0,0.006784847367844987,0.0,200,0.01362466812133789,0.16236766040208409,0.13993113485046665,6800,0.5351602903679867,0.0
34,1.1347665786743164,0.1792567994382105,0.127777949612517,0.3770336586233571,0.056559888655671235,0.0,0.13898141706744396,0.1,0.00333404541015625,0.052907705307006836,0.050183486,1.4559442,0.1748917004754674,0.0,0.003510061684608377,0.0,200,0.01344442367553711,0.6512375020591405,0.5376418518905515,7000,0.6110399013967353,0.0
35,1.1296517848968506,0.23426858664372155,0.09168227748350855,0.31110809387665006,0.07862154056035411,0.0,0.13102396171160643,0.1,0.0027532577514648438,0.05285215377807617,0.04952575,2.0910523,0.18082938909229282,0.0,0.0045518141787044795,0.0,200,0.012989282608032227,0.18910139897804756,0.20629298372377558,7200,0.48722746908421216,0.0
36,1.0626115798950195,0.1879100239785489,0.06541030462041449,0.26465849766763205,0.08438607853867683,0.0,0.1328513683669787,0.1,0.0028836727142333984,0.05321693420410156,0.049785532,0.99209,0.18153745258091844,0.0,0.0037266596574607315,0.0,200,0.013326883316040039,0.1888619876814333,0.1670155081667019,7400,0.5006828991347235,0.0
37,1.1025898456573486,0.16489806869349485,0.1780880393637776,0.4723662255722379,0.039578765105964475,0.0,0.13964004149766748,0.1,0.002885580062866211,0.05308055877685547,0.050101243,1.4352881,0.17987351419217606,0.0,0.00324524530932279,0.0,200,0.01375579833984375,0.627281993664914,0.6143488602690534,7600,0.5199160422623387,0.0
38,1.128502607345581,0.21588921016808305,0.09232055726478898,0.36412618835765853,0.11029586780785301,0.0,0.1408144661841387,0.1,0.002691030502319336,0.055402278900146484,0.050004095,1.1514355,0.1834750837897668,0.0,0.004253887333899351,0.0,200,0.014106988906860352,0.29071118657187495,0.2941893761826193,7800,0.4880925283877871,0.0
39,1.1045804023742676,0.2745550473659586,0.16036763908572302,0.45161666274235884,0.06357706605841587,0.0,0.14250902019312736,0.1,0.0026481151580810547,0.05198812484741211,0.050271068,0.92273635,0.19258308014738598,0.0,0.005425305023777088,0.0,200,0.013098001480102539,0.4093532088514317,0.33721137117556665,8000,0.2873787968055602,0.0
40,1.0876476764678955,0.17875458959253643,0.1274332328483413,0.3832597683097897,0.041104907577380986,0.0,0.13605733040197263,0.1,0.0026764869689941406,0.052103281021118164,0.048666175,1.5212408,0.191200231091901,0.0,0.0034917869642388235,0.0,200,0.015138864517211914,0.39442057102195144,0.44276954652762174,8200,0.23212106582840333,0.0
41,1.0515546798706055,0.31007949342494845,0.10265040649499987,0.4258657479585538,0.1481851625986242,0.0,0.1362493766966719,0.1,0.0028836727142333984,0.05319571495056152,0.04931139,1.3934234,0.20308815732520577,0.0,0.006087789353465455,0.0,200,0.014129877090454102,0.2387877362669899,0.19377865710685613,8400,0.23734391161070786,0.0
42,1.050316572189331,0.24127761333458442,0.17762684447941945,0.4630257059284196,0.06385257915499648,0.0,0.1447137779660115,0.1,0.0028862953186035156,0.05542111396789551,0.049328208,1.0838659,0.20690710292614364,0.0,0.004711633853916637,0.0,200,0.014238834381103516,0.42212661405940877,0.4275405471679034,8600,0.3502135785989249,0.0
43,1.0582447052001953,0.3077889742671387,0.1189115677942536,0.4319069028114931,0.1445337142949507,0.0,0.13172826137611673,0.1,0.0028536319732666016,0.05421042442321777,0.050320894,1.0648398,0.21699529006024315,0.0,0.006029895780570312,0.0,200,0.013979434967041016,0.200597088482325,0.19200278847884672,8800,0.47951652975574005,0.0
44,1.0735573768615723,0.3995538665025037,0.16449402816126732,0.5605425787608134,0.12598772148846585,0.0,0.1332397881173469,0.1,0.002752542495727539,0.05220603942871094,0.050077125,0.99679536,0.2352511477044692,0.0,0.007899243015837438,0.0,200,0.013997077941894531,0.2787931959756997,0.22440261000426184,9000,0.48518153598938696,0.0
45,1.0504329204559326,0.24576505124788242,0.1658741327865759,0.5002763238256478,0.06223432363287492,0.0,0.1279961901701021,0.1,0.002880096435546875,0.05328559875488281,0.04973807,1.9154387,0.23630253805881052,0.0,0.004874417466261335,0.0,200,0.013582706451416016,0.45839243950370767,0.41599651276635535,9200,0.40608252576164455,0.0
46,1.0765256881713867,0.26312124384794344,0.16223604702885058,0.4833006128807185,0.059395918362297455,0.0,0.1363925639841094,0.1,0.002830982208251953,0.05406451225280762,0.050522313,0.9511079,0.23898440863772383,0.0,0.005205196334125206,0.0,200,0.014526605606079102,0.3723999197890095,0.35056994201748115,9400,0.4235702815541966,0.0
47,1.0528411865234375,0.26719645857554264,0.1442576851181388,0.49076800254990266,0.09632410661934714,0.0,0.13425426275382335,0.1,0.0032644271850585938,0.052351951599121094,0.048971504,1.3948436,0.2418056136315057,0.0,0.005248810522401929,0.0,200,0.014144420623779297,0.2678287240914181,0.2629932982403381,9600,0.45411515320907375,0.0
48,1.0818915367126465,0.2518002855296652,0.1082002695399606,0.3711395625319932,0.07662776417031766,0.0,0.13928423617129002,0.1,0.00273895263671875,0.05337023735046387,0.04980626,1.0247545,0.24280508082132168,0.0,0.00495745605433845,0.0,200,0.013878107070922852,0.1981114603277565,0.1904901583648174,9800,0.49059547641336826,0.0
49,1.0878753662109375,0.2676465580101598,0.06928972352927902,0.3620692556070414,0.16898443328523613,0.0,0.1399643984837592,0.1,0.0026373863220214844,0.0518498420715332,0.048738685,1.2900409,0.2452892285402055,0.0,0.005188821519036629,0.0,200,0.013087034225463867,0.21625567480285895,0.18500765669328045,10000,0.5544458574219029,0.0
50,1.0962035655975342,0.27681391497254665,0.023451880231425346,0.3009879535351405,0.23856821684362484,0.0,0.1250748887705376,0.1,0.0027446746826171875,0.0516054630279541,0.048028458,0.7020489,0.2484416971834396,0.0,0.0055029949955882704,0.0,200,0.013696670532226562,0.08266286390190271,0.06799415503435095,10200,0.4486029989593334,0.0
51,1.0823123455047607,0.24481507613218348,0.15425644126745833,0.4454747031146461,0.04610861180408954,0.0,0.1330033337598846,0.1,0.002672433853149414,0.05173492431640625,0.049901266,1.0681683,0.248079035078314,0.0,0.0048359906131360195,0.0,200,0.013058185577392578,0.3469678819253425,0.34180129975800905,10400,0.4615565153641246,0.0
52,1.112426996231079,0.1871643650701697,0.11595992039673587,0.3076765969029303,0.03581313199292424,0.0,0.13065059615026334,0.1,0.0027573108673095703,0.051761627197265625,0.050697546,1.1041125,0.24198756807749955,0.0,0.0036875069328941405,0.0,200,0.01353907585144043,0.5516304853762565,0.3696366374107042,10600,0.5135685229783785,0.0
53,1.1121172904968262,0.17473696339765438,0.1128451023712504,0.3261256338917141,0.019866062033172385,0.0,0.1294679363285848,0.1,0.0031218528747558594,0.051912784576416016,0.05009272,1.0364659,0.23526250760951506,0.0,0.003423515196826747,0.0,200,0.013955831527709961,0.4100000519309651,0.32643130108555213,10800,0.6752602138339082,0.0
54,1.0941340923309326,0.18573184996851094,0.08880147672441452,0.30965142171963445,0.05858306778420729,0.0,0.1334032339576122,0.1,0.0027616024017333984,0.054338693618774414,0.05005649,1.3479638,0.23030944184541466,0.0,0.0037074393927150314,0.0,200,0.013696908950805664,0.25999910942332516,0.3097268011550899,11000,0.5980872246810954,0.0
55,1.1315059661865234,0.26404284166947656,0.17419827421063502,0.5089433530543995,0.04096297023009404,0.0,0.12989543552751145,0.1,0.0027544498443603516,0.05691862106323242,0.0498858,1.3923317,0.23368278182782085,0.0,0.005257652480777161,0.0,200,0.013924598693847656,0.5190226246326405,0.4687608904859504,11200,0.6482228078756956,0.0
56,1.1174602508544922,0.24178116058600374,0.1818698971628136,0.542069788137849,0.06171149380828141,0.0,0.1272776362925488,0.1,0.0028200149536132812,0.05251884460449219,0.050453786,1.6118631,0.23449261970363913,0.0,0.004750687664531805,0.0,200,0.013603925704956055,0.49224272669756597,0.4244963498587408,11400,0.5814722681093134,0.0
57,1.1566166877746582,0.2855624393225982,0.2517917461806104,0.699455249080235,0.021676862327352255,0.0,0.13591261528864113,0.1,0.0026290416717529297,0.051970481872558594,0.050435554,1.5758688,0.23959960166553507,0.0,0.005675587234036876,0.0,200,0.014801025390625,0.4943804675315674,0.4620615825677439,11600,0.8352843747984338,0.0
58,1.0878701210021973,0.23580632880707306,0.14789350805092785,0.463788928697395,0.05531561620164638,0.0,0.13339100373929827,0.1,0.005471944808959961,0.0543370246887207,0.049677696,1.2714146,0.23922027437968887,0.0,0.004650185967383358,0.0,200,0.013903141021728516,0.33487629799185037,0.36171888682785414,11800,0.619969444675322,0.0
59,1.0928540229797363,0.28608356601032753,0.030322537045963698,0.32280979469722604,0.23961517778410904,0.0,0.1313462450672886,0.1,0.002815723419189453,0.05324292182922363,0.049365483,0.8803563,0.24390660354275273,0.0,0.005688546260491,0.0,200,0.014034271240234375,0.13833664413835137,0.11467635676515517,12000,0.7127692871661934,0.0
60,1.0917043685913086,0.23547779095386187,0.1566518877411345,0.3967245204312447,0.047490712238555326,0.0,0.1307118442535885,0.1,0.002899169921875,0.052629947662353516,0.05096306,1.1493542,0.24306372228386366,0.0,0.004682746200181206,0.0,200,0.013891220092773438,0.42279267206673415,0.38802835460381807,12200,0.8341548430755857,0.0
61,1.0902690887451172,0.37038284412594535,0.16412770284500872,0.6163410644613395,0.1628680094499948,0.0,0.13233928962756072,0.1,0.0027785301208496094,0.05242013931274414,0.04933281,1.063411,0.25579563446807185,0.0,0.0072705157775631805,0.0,200,0.014629840850830078,0.2940651503948017,0.26198178231271785,12400,0.577535864306088,0.0
62,1.053316354751587,0.2978557629629446,0.14986546671116913,0.5292377219994562,0.11148565615723892,0.0,0.1344196279195114,0.1,0.0028297901153564453,0.052594661712646484,0.050953064,1.1488003,0.26000164731755915,0.0,0.005922471128846238,0.0,200,0.013788223266601562,0.24474385434082135,0.2517033482036854,12600,0.5472444942632163,0.0
63,1.0823729038238525,0.2191400196720597,0.10768163879447375,0.3580587144600842,0.10930664795824482,0.0,0.13187486983651941,0.1,0.0027751922607421875,0.05396389961242676,0.049989037,1.0452626,0.2559154845530092,0.0,0.004308600928298513,0.0,200,0.013784646987915039,0.42665756067393107,0.3142354383557138,12800,0.40536879949652044,0.0
64,1.0962014198303223,0.20278741113110652,0.1418002464296071,0.35641441359134557,0.04048597848268926,0.0,0.12719944846748485,0.1,0.002838611602783203,0.05355238914489746,0.050285134,1.0343285,0.25060267721081897,0.0,0.003972115523371127,0.0,200,0.013856649398803711,0.5050387305387342,0.4154442422171022,13000,0.3623435855825648,0.0
65,1.0672707557678223,0.2299310604223277,0.14312160422651207,0.3857846406074937,0.05968952690618019,0.0,0.12741961640439786,0.1,0.002773284912109375,0.05302906036376953,0.049852684,1.2422261,0.24853551553196984,0.0,0.004515055512198042,0.0,200,0.013187170028686523,0.3395343655864656,0.35706134003698314,13200,0.43149104630445984,0.0
66,1.0348575115203857,0.5247893327531621,0.19048800844985594,0.8207613304864906,0.35220264880412405,0.0,0.13626526949123846,0.1,0.0027337074279785156,0.05306124687194824,0.04948564,1.115196,0.27616089725408904,0.0,0.010388189831752525,0.0,200,0.013526439666748047,0.49552039841360335,0.38516985550917826,13400,0.45232692656067114,0.0
67,1.1324057579040527,0.3235698286901354,0.22451825118052263,0.5600111106705348,0.09078930778413757,0.0,0.12948432551120728,0.1,0.002730846405029297,0.05265045166015625,0.049967993,1.1899418,0.2809017903976937,0.0,0.006400412420604405,0.0,200,0.013574600219726562,0.382525086193212,0.3658776170064499,13600,0.4430085049254589,0.0
68,1.1106481552124023,0.3186084170114293,0.1418387384590398,0.4699543497359097,0.17510579768008686,0.0,0.13139994079946385,0.1,0.002796173095703125,0.05231332778930664,0.049941387,1.0824817,0.2846724530590673,0.0,0.006330479170349476,0.0,200,0.013527154922485352,0.28493662199560443,0.3227821765238793,13800,0.6816646955103342,0.0
69,1.111701250076294,0.3331491478869102,0.1734655821794888,0.5118344280831042,0.05251932505057606,0.0,0.12898261000503455,0.1,0.0026748180389404297,0.05237555503845215,0.05018434,0.93526924,0.2895201225418516,0.0,0.006618797625849273,0.0,200,0.013319015502929688,0.26725665195462045,0.25113211270980085,14000,0.6537684845846419,0.0
70,1.0961120128631592,0.32524842574671364,0.10537497237698343,0.4871588771418185,0.22377750461413812,0.0,0.12824946238470836,0.1,0.002696990966796875,0.052115440368652344,0.05009299,1.3106118,0.29309295286233783,0.0,0.006431227036907069,0.0,200,0.013187885284423828,0.17011228654965285,0.15348087147797754,14200,0.6660366320699931,0.0
71,1.0900533199310303,0.33268537502642226,0.09721419717671485,0.4670364852864493,0.22526086522876293,0.0,0.14032252380041957,0.1,0.002646923065185547,0.052599430084228516,0.049375553,0.89388186,0.2970521950787463,0.0,0.006502656667576516,0.0,200,0.013002872467041016,0.16845437065603122,0.16120897646362306,14400,0.6053994313171317,0.0
72,1.120392084121704,0.47727358796000036,0.20526120452098157,0.8204961526609693,0.31067679407071214,0.0,0.13339305790925857,0.1,0.002705812454223633,0.05180549621582031,0.049089216,1.5400367,0.3150743343668717,0.0,0.009220500647136967,0.0,200,0.013186216354370117,0.27300326542367837,0.23593632128857495,14600,0.6833911730611021,0.0
73,1.089134693145752,0.4216332239586013,0.2485099754907847,0.8442205386879416,0.20433899107771805,0.0,0.1335227984590698,0.1,0.0027153491973876953,0.05217313766479492,0.050733674,1.3162661,0.3257302233260447,0.0,0.008241389478934904,0.0,200,0.013350248336791992,0.32968166308927227,0.3115248587333215,14800,0.6053590537092611,0.0
74,1.0788896083831787,0.30787859968065134,0.08878898132119714,0.40022404390622285,0.16740364457272863,0.0,0.13381237818420366,0.1,0.002839803695678711,0.053121089935302734,0.04873053,1.064158,0.3239450609615054,0.0,0.0060984692335735715,0.0,200,0.014502286911010742,0.322595447597085,0.23182580626440885,15000,0.6166281383775756,0.0
75,1.0875258445739746,0.3964287501184452,0.11493507962291867,0.5486531058622938,0.22528785020749664,0.0,0.13202767500857165,0.1,0.0027964115142822266,0.05292987823486328,0.049154617,1.5101868,0.33119342987719935,0.0,0.007849287186579491,0.0,200,0.013471841812133789,0.16119838810236498,0.16028424217944917,15200,0.6438607665405494,0.0
76,1.1107392311096191,0.3128888650542364,0.12692964906827087,0.5122740167303972,0.18294793896298536,0.0,0.1311570223447133,0.1,0.0027832984924316406,0.0529630184173584,0.049887624,1.2901034,0.3293629733949031,0.0,0.006206109108106692,0.0,200,0.013552188873291016,0.236066260387514,0.21931574065669193,15400,0.4871230691380149,0.0
77,1.085921287536621,0.2565275408637514,0.21596783511940296,0.5814070030023357,0.017956158215222864,0.0,0.1270362498515617,0.1,0.0027768611907958984,0.052661895751953125,0.05127584,1.5401133,0.3220794301417879,0.0,0.005119928436192254,0.0,200,0.013549566268920898,0.4590255377056481,0.4409523451545487,15600,0.6908890797936529,0.0
78,1.090160608291626,0.36142509288160796,0.14780466943356674,0.5700026085097325,0.16080925676052937,0.0,0.1335829315615422,0.1,0.003027200698852539,0.05386495590209961,0.04988837,1.4080362,0.32601399641576995,0.0,0.0070785045449608675,0.0,200,0.013766050338745117,0.257287932824579,0.25520986697538267,15800,0.3719366624799174,0.0
79,1.137171983718872,0.4295488078798654,0.14046776075552325,0.5562175593106615,0.19148658639435792,0.0,0.134474597623773,0.1,0.0029845237731933594,0.054253578186035156,0.05009367,1.079699,0.3363674775621795,0.0,0.008402851675174162,0.0,200,0.012819528579711914,0.24607624184166968,0.1779188689018461,16000,0.38849587688644194,0.0
80,1.1151800155639648,0.35898417965732365,0.1698962624982899,0.6151533236288295,0.1518597570891727,0.0,0.1338279418476265,0.1,0.002982616424560547,0.05293536186218262,0.05026844,1.117771,0.3386291477716939,0.0,0.006862569313851774,0.0,200,0.01496124267578125,0.20688541273422825,0.21568752135848987,16200,0.440866246532992,0.0
81,1.1272201538085938,0.43307399671381985,0.0835338966082085,0.5613369116608655,0.3272029615903196,0.0,0.13197864306209414,0.1,0.0027990341186523438,0.05338168144226074,0.049831618,0.88388336,0.34807363266590646,0.0,0.008467485836885585,0.0,200,0.014271020889282227,0.09325317694362288,0.08050073359486969,16400,0.8139510478885983,0.0
82,1.11159348487854,0.2718595241952699,0.18572612837452998,0.5313784818392683,0.05640526141630308,0.0,0.13305566803483057,0.1,0.0027806758880615234,0.05266141891479492,0.04991511,1.0957816,0.3404522218188428,0.0,0.005419920367124102,0.0,200,0.014283180236816406,0.6072687328356504,0.48893250884126505,16600,0.6279968695863233,0.0
83,1.1187927722930908,0.4221819848208723,0.12336208934540803,0.6189279325360396,0.28367435821177356,0.0,0.1298191227669026,0.1,0.0027365684509277344,0.059130191802978516,0.049998067,0.908507,0.3486251981190458,0.0,0.008347957269210546,0.0,200,0.013620853424072266,0.1432761477673276,0.15035969670745558,16800,1.0383887658090443,0.0
84,1.1326916217803955,0.48220969720247914,0.15528186617514111,0.6011084707427925,0.2189874531929515,0.0,0.12583717001600747,0.1,0.002712249755859375,0.052103281021118164,0.049279146,1.6993505,0.36198364802738914,0.0,0.00946658232673761,0.0,200,0.013505697250366211,0.21009539015144862,0.18531421828348513,17000,1.0608594300766758,0.0
85,1.143125295639038,0.5012346277367057,0.24471330798498508,0.844701354795295,0.16492125956146123,0.0,0.13091492192706433,0.1,0.0027468204498291016,0.052033424377441406,0.04948884,1.045716,0.3759087459983208,0.0,0.009852938731678973,0.0,200,0.013370275497436523,0.2941680895439934,0.24696465566836423,17200,0.9809351198961491,0.0
86,1.1307032108306885,0.3731399760622469,0.20773296876620317,0.7317918041906616,0.2303264226479208,0.0,0.13859135161821204,0.1,0.003057718276977539,0.053205013275146484,0.050723728,1.24912,0.3756318690047134,0.0,0.007390245470550151,0.0,200,0.015025854110717773,0.3239063278669334,0.34042785711816204,17400,0.8132168918163251,0.0
87,1.121703863143921,0.3542758962391323,0.14587645779365507,0.5638539912458986,0.19720255571763023,0.0,0.13204010482043121,0.1,0.0028176307678222656,0.054167985916137695,0.049864855,1.1262933,0.3734962717281553,0.0,0.006915993899365704,0.0,200,0.01400446891784668,0.2873675616455462,0.1995443080809313,17600,0.8946999340336271,0.0
88,1.1301701068878174,0.31981807107975035,0.08557751131100638,0.4158687726168103,0.20590111003364145,0.0,0.12477637074425137,0.1,0.0029077529907226562,0.053197622299194336,0.048993006,3.3270762,0.3681284516633148,0.0,0.006345346695145842,0.0,200,0.013602495193481445,0.18705878689079994,0.1420690146377271,17800,0.8780044623517954,0.0
89,1.110914945602417,0.4214915138405334,0.2395752645541991,0.6668799739796027,0.02586473557885063,0.0,0.12460901398468026,0.1,0.0045642852783203125,0.05424857139587402,0.049843006,0.7857262,0.37346475788103667,0.0,0.00823526043204767,0.0,200,0.01392984390258789,0.29586583341251566,0.3056305652992319,18000,0.7180780007859969,0.0
90,1.1376864910125732,0.45156015345189915,0.11677031240698013,0.5822721959974603,0.28416352099275993,0.0,0.12739650010120124,0.1,0.0028100013732910156,0.054083824157714844,0.05003164,1.2246964,0.3812742974381229,0.0,0.008890469929157891,0.0,200,0.01378011703491211,0.18964092765105645,0.1404127529377655,18200,0.8159797860277104,0.0
91,1.1081984043121338,0.17626647502128956,0.0529147096077238,0.25016257529231145,0.12065754922080875,0.0,0.13501649736175447,0.1,0.002859830856323242,0.05355429649353027,0.049808413,0.90871954,0.3607735151964396,0.0,0.003429557715651414,0.0,200,0.01339578628540039,1.0289524156123806,0.9122327667061667,18400,0.6498275008751218,0.0
92,1.1002726554870605,0.22591663630922754,0.15777156137614481,0.4913555319746769,0.0936344189582468,0.0,0.1252136180508916,0.1,0.0027544498443603516,0.05295228958129883,0.050101325,1.993261,0.34728782730771834,0.0,0.004446105992024345,0.0,200,0.014191627502441406,0.5319182255273273,0.3625697844788635,18600,0.6132196140464438,0.0
93,1.1501851081848145,0.28541488076845917,0.10847474166251006,0.4403766067392539,0.14362542234845307,0.0,0.12674244338685173,0.1,0.002780437469482422,0.05255460739135742,0.049918327,1.6087734,0.3411005326537924,0.0,0.005680512521920359,0.0,200,0.013410568237304688,0.17223149930216372,0.17859963125801456,18800,0.756812615835191,0.0
94,1.1415367126464844,0.4442043734444818,0.16617872675302353,0.7011561178110446,0.25474761478043184,0.0,0.1286851674151321,0.1,0.002804994583129883,0.0551295280456543,0.050293256,1.2484559,0.35141091673286134,0.0,0.008768284700055126,0.0,200,0.013819694519042969,0.3228490697040786,0.29378907004130617,19000,0.7314081308181438,0.0
95,1.1091547012329102,0.4312007032839869,0.15738807153961534,0.6525985201917839,0.25061394231927997,0.0,0.12809417382833516,0.1,0.003147125244140625,0.053522348403930664,0.04954878,1.4886165,0.35938989538797395,0.0,0.008523253712391227,0.0,200,0.013625383377075195,0.27809158936414125,0.19733408517046822,19200,0.7592381690874052,0.0
96,1.0718793869018555,0.4747435015438077,0.1070295020728861,0.5979876301260033,0.33824634656525815,0.0,0.1300293295857313,0.1,0.002813577651977539,0.05468177795410156,0.050235197,0.94331735,0.37092525600355736,0.0,0.00944836846691622,0.0,200,0.013386011123657227,0.1825799692545474,0.11900497151714039,19400,0.8112042880281742,0.0
97,1.0779075622558594,0.37446030224268695,0.1945898836578062,0.6186566749379502,0.09138848601294687,0.0,0.12782539292784348,0.1,0.0026955604553222656,0.05275535583496094,0.049702164,1.0907079,0.3712787606274703,0.0,0.007366359732170288,0.0,200,0.014655590057373047,0.27270262586610694,0.29448768888376253,19600,0.8757977410867707,0.0
98,1.1091878414154053,0.4634931483244198,0.09721652565759714,0.5584540447790917,0.30180443053174777,0.0,0.1313840895744374,0.1,0.002765178680419922,0.05362391471862793,0.050116733,1.0055892,0.38050019939716523,0.0,0.009225046731236296,0.0,200,0.013504266738891602,0.11784552674443645,0.11074780536157461,19800,0.8784904042889758,0.0
99,1.1641302108764648,0.4182897351874753,0.08618355484137068,0.512842176040114,0.3280188766369582,0.0,0.1232380717976159,0.1,0.002701282501220703,0.0525660514831543,0.049583353,1.1065214,0.38427915297619625,0.0,0.008326490030170178,0.0,200,0.014004230499267578,0.09423234937453195,0.08317762506632506,20000,0.9243336448402809,0.0
100,1.1561429500579834,0.4266035060342034,0.11590152167254952,0.5320769192911906,0.23305318311048823,0.0,0.13320627383909905,0.1,0.0027370452880859375,0.05266094207763672,0.049223404,1.0255836,0.38851158828199694,0.0,0.008426955860260679,0.0,200,0.014174938201904297,0.0967058954445323,0.09414887701984535,20200,0.6810662230233234,0.0
101,1.1601643562316895,0.3541548163612849,0.11970153711004246,0.5174936184483013,0.20568555699302227,0.0,0.1251956159451084,0.1,0.002833843231201172,0.05332326889038086,0.049793974,1.3102652,0.3850759110899258,0.0,0.007016947954636679,0.0,200,0.014450311660766602,0.2030371096558877,0.1639251399343547,20400,0.8740736009638663,0.0
102,1.1534910202026367,0.5708450793489467,0.2392920432587916,0.7959517821208166,0.17925345294678438,0.0,0.1354013556678976,0.1,0.002737283706665039,0.053078413009643555,0.05012306,0.97990113,0.4036528279158279,0.0,0.01116494810494282,0.0,200,0.013346195220947266,0.2766287646597005,0.24349297189435684,20600,0.8538742952053097,0.0
103,1.173280954360962,0.5433100983870506,0.24939653351165783,0.9735167704890804,0.36457362361572043,0.0,0.13152274803263914,0.1,0.0028085708618164062,0.053389787673950195,0.050044455,1.5673435,0.4176185549629502,0.0,0.010675587328633733,0.0,200,0.013443946838378906,0.2410258449382201,0.1953273050646514,20800,0.8475976518397171,0.0
104,1.163100004196167,0.4124834643372377,0.038273945335089724,0.4567195441291329,0.356209141835274,0.0,0.13363508841056781,0.1,0.0028252601623535156,0.053125619888305664,0.049635246,1.6907437,0.41710504590037895,0.0,0.008205883477384704,0.0,200,0.013573169708251953,0.21999280227225507,0.21930373990269544,21000,0.9010296408022921,0.0
105,1.1313493251800537,0.42390479577894463,0.1749815526981878,0.5506731135242775,0.12575179213210577,0.0,0.1297882902311733,0.1,0.0026748180389404297,0.05258607864379883,0.050352987,0.9586928,0.41778502088823555,0.0,0.008372129012609945,0.0,200,0.013761043548583984,0.2648280065427224,0.18476942025491136,21200,0.9407409664201726,0.0
106,1.2654695510864258,0.4804098655995502,0.11311690939221311,0.6459783948721933,0.32754344684935965,0.0,0.13710325263056153,0.1,0.002699136734008789,0.05223894119262695,0.049469046,1.0675381,0.424047505359367,0.0,0.009500867556342638,0.0,200,0.013208389282226562,0.12301212709839161,0.13755457386958886,21400,0.9314138782294438,0.0
107,1.0957863330841064,0.44024237525558524,0.1675689604993777,0.7060615339788779,0.2764736738195596,0.0,0.1362887056744719,0.1,0.002882242202758789,0.05485868453979492,0.05002739,0.94915164,0.42566699234898886,0.0,0.008698653828673472,0.0,200,0.013587474822998047,0.2238086593982169,0.21680776101021063,21600,0.7975778447321762,0.0
108,1.0850231647491455,0.4027407434487305,0.22679218505328533,0.6796135046491374,0.12160091643555739,0.0,0.13199875156068033,0.1,0.0028181076049804688,0.05733156204223633,0.049994882,0.71599555,0.42337436745896306,0.0,0.007925414057043252,0.0,200,0.01393580436706543,0.2566687378410208,0.2562808711087582,21800,0.8191558043481844,0.0
109,1.0853843688964844,0.45658051664948907,0.16238003761293968,0.6205288996033683,0.1894747048855178,0.0,0.1267543181185441,0.1,0.0028235912322998047,0.05262184143066406,0.049676318,1.1820263,0.4266949823780157,0.0,0.008977579673306233,0.0,200,0.013924121856689453,0.1841327712727717,0.17262776515878553,22000,0.8342867396614544,0.0
110,1.134286880493164,0.4553796351004565,0.1615003893253033,0.6519659290326492,0.21083250871084216,0.0,0.12313279006389154,0.1,0.0027832984924316406,0.05267000198364258,0.050221663,1.6050717,0.4295634476502597,0.0,0.008957045914433876,0.0,200,0.013565540313720703,0.13628661674984424,0.12981716748317185,22200,0.9675632250372742,0.0
111,1.0824682712554932,0.4684871301537793,0.12553635459547385,0.6117141896367748,0.2666800334726183,0.0,0.133610116924526,0.1,0.0027780532836914062,0.0531771183013916,0.0502759,1.0516704,0.43345581590061166,0.0,0.00932833881821313,0.0,200,0.013445615768432617,0.11084731242436255,0.10566860518200565,22400,0.8498275274453637,0.0
112,1.0981292724609375,0.3554676090538561,0.15936942257062217,0.5229872805631537,0.15262524631109445,0.0,0.13051262375981007,0.1,0.0028073787689208984,0.05262017250061035,0.049399003,1.0772959,0.42565699521593614,0.0,0.006932699638803523,0.0,200,0.013603448867797852,0.3060579913533378,0.286400493711018,22600,0.8693742751632882,0.0
113,1.1726300716400146,0.4809559819940554,0.18034906554910707,0.6856244079015468,0.19025349848057307,0.0,0.13121241438686426,0.1,0.0027954578399658203,0.054731130599975586,0.05006107,0.837992,0.4311868938937481,0.0,0.009462581769865565,0.0,200,0.013510942459106445,0.1506717344597676,0.15051785375335844,22800,0.8458936004177217,0.0
114,1.18363618850708,0.48495794534406733,0.09284200718423312,0.6092579291847727,0.36246885830201947,0.0,0.1263651289713653,0.1,0.002858400344848633,0.053261518478393555,0.049181085,1.1944367,0.43656399903878,0.0,0.0095116759522544,0.0,200,0.01395273208618164,0.07324342272062503,0.0635898605940374,23000,0.7005929517242097,0.0
115,1.1441707611083984,0.5201755824754447,0.09597077957530402,0.6254082513554791,0.3714264373434408,0.0,0.1312187649203327,0.1,0.0028259754180908203,0.05325675010681152,0.04823979,2.1105356,0.44492515738244653,0.0,0.010142676747156177,0.0,200,0.01359868049621582,0.11743739755056432,0.09291771069249408,23200,0.8667300539827795,0.0
116,1.1140787601470947,0.4128644705758473,0.24436991404812972,0.7997619000012771,0.1292620637733399,0.0,0.1273651297929874,0.1,0.0027985572814941406,0.05551767349243164,0.049984116,1.8005546,0.4417190887017866,0.0,0.00815339494515862,0.0,200,0.013812780380249023,0.3770904602903626,0.3731591427889235,23400,0.8799331667075266,0.0
117,1.1758348941802979,0.39597710715388196,0.11333639327098612,0.5310367728595102,0.22209345310730969,0.0,0.12658434642923302,0.1,0.0028238296508789062,0.053833723068237305,0.05004456,0.7734824,0.4371448905469962,0.0,0.00778003636070849,0.0,200,0.014148950576782227,0.1765844942662803,0.1118637337411791,23600,0.8772176365898189,0.0
118,1.151360034942627,0.4675348853306185,0.08894954947697725,0.5499793360430134,0.33473257553783964,0.0,0.13047995988701694,0.1,0.002772092819213867,0.05289125442504883,0.049700674,1.001466,0.4401838900253584,0.0,0.009243760615696218,0.0,200,0.013951778411865234,0.060863867680383155,0.07658771278278338,23800,0.748280333019877,0.0
119,1.1227777004241943,0.46146529652487733,0.12437113473191846,0.6560837904584398,0.31930348755250243,0.0,0.13057364078186567,0.1,0.002841949462890625,0.05242609977722168,0.049786076,1.5884308,0.4423120306753103,0.0,0.009080648323898691,0.0,200,0.013681173324584961,0.11614405177914523,0.10486968455604208,24000,0.8134844234360571,0.0
120,1.2065377235412598,0.3956383345704674,0.15273990207441054,0.5753387329715907,0.1805880061276556,0.0,0.13288387134497534,0.1,0.0027718544006347656,0.052780866622924805,0.050335187,0.89295197,0.43764466106482597,0.0,0.007786399068665281,0.0,200,0.014109134674072266,0.1792958963105521,0.18231801038609266,24200,0.862059693426688,0.0
121,1.1918385028839111,0.5109937829657016,0.16863374512547516,0.7811044038988115,0.3246977629174574,0.0,0.12888874122969435,0.1,0.0028345584869384766,0.05568361282348633,0.049589243,1.4058894,0.44497957325491355,0.0,0.010013339825939969,0.0,200,0.014360189437866211,0.1514202533979739,0.13840033114207528,24400,0.8548890693964823,0.0
122,1.1806702613830566,0.4859007111531069,0.22350918766808525,0.8210856959206281,0.1916413826324052,0.0,0.13375831895612683,0.1,0.002725362777709961,0.0517115592956543,0.049588833,1.1639452,0.4490716870447329,0.0,0.009560119282593345,0.0,200,0.012969493865966797,0.20144913234095146,0.19503054972833556,24600,0.8710368695946977,0.0
123,1.1248698234558105,0.39751871238693803,0.16669911813736762,0.6357522208582251,0.16524832176782853,0.0,0.12451854452925659,0.1,0.0029375553131103516,0.05312180519104004,0.05006115,1.3653386,0.4439163895789534,0.0,0.007857457624569637,0.0,200,0.01436471939086914,0.21567886714647078,0.19789008571816147,24800,0.7879860077707025,0.0
124,1.0812315940856934,0.31634036610705274,0.0564632334182516,0.35900029908244807,0.21966259479740696,0.0,0.1281811990378358,0.1,0.0028188228607177734,0.05437946319580078,0.050578352,1.9488928,0.4311587872317634,0.0,0.006317421752793478,0.0,200,0.013901233673095703,0.2638230893033251,0.1554561737895949,25000,0.8277411663143789,0.0
125,1.10899019241333,0.3937540002691128,0.2439478177042259,0.702805422917241,0.031577343347032744,0.0,0.1345973128244806,0.1,0.002763509750366211,0.05325007438659668,0.050274197,0.82565,0.42741830853549834,0.0,0.007765373147726993,0.0,200,0.015351295471191406,0.30093954539711715,0.30212855888754103,25200,0.45604746905825416,0.0
126,1.1028552055358887,0.3805165078564108,0.054155181064289654,0.4505767099714752,0.3003280552510961,0.0,0.1358249070996185,0.1,0.002747058868408203,0.05352950096130371,0.04988248,1.4398254,0.4227281284675896,0.0,0.00755336244973319,0.0,200,0.013863563537597656,0.0873481818623107,0.09118930266754863,25400,0.5172541634213415,0.0
127,1.1197192668914795,0.4612902282651441,0.08591106713489766,0.5174459777253142,0.31272121175603496,0.0,0.1280404041227304,0.1,0.0027892589569091797,0.053262948989868164,0.049410257,1.5679222,0.4265843384473451,0.0,0.00907204648420271,0.0,200,0.014068126678466797,0.14070890358255206,0.11596873003132134,25600,0.5249479191541233,0.0
128,1.1500115394592285,0.4785069568736091,0.08051319162688106,0.6045658690481349,0.3927528025943601,0.0,0.12248660993903163,0.1,0.0027136802673339844,0.052446842193603516,0.04909069,2.2003098,0.43177660028997156,0.0,0.009357131288923575,0.0,200,0.014939308166503906,0.10387111733865194,0.07029248159005187,25800,0.5820041998161861,0.0
129,1.172271490097046,0.48010126960491034,0.06656080466339094,0.5655871074179821,0.3996227654052857,0.0,0.1285808955782869,0.1,0.0027658939361572266,0.05283546447753906,0.050161935,0.95390946,0.4366090672214654,0.0,0.009394644341886365,0.0,200,0.013709545135498047,0.05537254988733113,0.0463133290901766,26000,0.6832414995351143,0.0
130,1.224931240081787,0.46863523320638323,0.06936201967936391,0.5726434762539827,0.3878910672099962,0.0,0.12819622530253644,0.1,0.002755403518676758,0.05243968963623047,0.05009909,0.8993888,0.4398116838199572,0.0,0.009196059825500261,0.0,200,0.013306140899658203,0.08622123251746054,0.08381972203934614,26200,0.44505278717106816,0.0
131,1.1391818523406982,0.4793777434308437,0.2470153330299299,0.8249699081969175,0.14871658197581836,0.0,0.12819868665832831,0.1,0.002785205841064453,0.05345892906188965,0.049785715,2.0463183,0.4437682897810459,0.0,0.00949007093727941,0.0,200,0.013285398483276367,0.24110787441370227,0.23045579961105447,26400,0.4604747848098116,0.0
132,1.1902813911437988,0.39936692392966266,0.0434579520826791,0.474498600041978,0.37005535180428406,0.0,0.1282672496570419,0.1,0.003168344497680664,0.05316281318664551,0.04995337,1.1487565,0.43932815319590757,0.0,0.007816000095124212,0.0,200,0.013193845748901367,0.08487570230211755,0.05267581320291264,26600,0.9323608134537777,0.0
133,1.1205086708068848,0.4761975996060336,0.055970297406354466,0.5393880892658645,0.3860528534818212,0.0,0.13263947145492527,0.1,0.002834796905517578,0.05350303649902344,0.049284145,1.0982248,0.44301509783692017,0.0,0.009408336519849455,0.0,200,0.014737129211425781,0.0557675534699668,0.06365225005469934,26800,1.0742545943216033,0.0
134,1.1465332508087158,0.33547555750760455,0.13391655816829606,0.5643013932179266,0.2251815945780248,0.0,0.12748236204518737,0.1,0.0027763843536376953,0.05292534828186035,0.049560033,1.2765595,0.4322611438039886,0.0,0.006451270687818183,0.0,200,0.013847112655639648,0.23780476765383168,0.21311445957235842,27000,1.0428250939588681,0.0
135,1.1345536708831787,0.35493382156975956,0.22948890859795343,0.6256418602837935,0.05069044634647043,0.0,0.1303363343258424,0.1,0.0027451515197753906,0.05238676071166992,0.04992422,0.9767968,0.4245284115805657,0.0,0.007003769808271425,0.0,200,0.013043403625488281,0.3231767105090954,0.3106348477313475,27200,1.1141162893260756,0.0
136,1.1318974494934082,0.39696187024922364,0.04510662816876579,0.44349574579208406,0.33032898842674735,0.0,0.1343975535667989,0.1,0.0029251575469970703,0.05328845977783203,0.050021883,1.0327226,0.42177175744743145,0.0,0.00783480876283149,0.0,200,0.014046430587768555,0.03746840450591204,0.043050741829574045,27400,1.058898330983823,0.0
137,1.1764774322509766,0.5177391037911621,0.12343797611899271,0.6989382467884209,0.3503588746944342,0.0,0.13039500045275904,0.1,0.002857685089111328,0.0532069206237793,0.049669586,1.0484684,0.43136849208180456,0.0,0.010040062055696738,0.0,200,0.013422727584838867,0.1886130433487956,0.15821715295741634,27600,0.9354035756925224,0.0
138,1.1747889518737793,0.5059332875483062,0.1069439231934909,0.6392415961357766,0.38661532492162604,0.0,0.129472582834432,0.1,0.002680540084838867,0.052427053451538086,0.049280666,1.1416376,0.43882497162845474,0.0,0.00999250415657929,0.0,200,0.013390064239501953,0.10611684138017191,0.07488286495531749,27800,1.0283055303553044,0.0
139,1.1826341152191162,0.5093507022755748,0.15381767760639545,0.7121089021448013,0.352226665575426,0.0,0.13085457395992423,0.1,0.0026760101318359375,0.05167865753173828,0.050070167,0.9688966,0.44587754469316676,0.0,0.009988276413743368,0.0,200,0.013473987579345703,0.17208266879027134,0.16461980365937345,28000,0.9601924791397766,0.0
140,1.1156504154205322,0.42762513100936106,0.1289905797976815,0.5845605855938504,0.22981888667100084,0.0,0.13824806223131567,0.1,0.0028662681579589844,0.05435752868652344,0.050929237,0.95554215,0.4440523033247862,0.0,0.008355693484557737,0.0,200,0.013323307037353516,0.13834816456251725,0.13145498461299868,28200,0.8288531853307188,0.0
141,1.125314474105835,0.3920028202512067,0.1247433264063237,0.5859052244537296,0.27048760477932665,0.0,0.12493171461366401,0.1,0.002863645553588867,0.053710222244262695,0.049876116,1.8739235,0.4388473550174282,0.0,0.007712762088780485,0.0,200,0.013371706008911133,0.22211841364450766,0.1392222209702256,28400,1.0360891140677404,0.0
142,1.1431078910827637,0.4043361244787003,0.15022876529560447,0.6508732883751747,0.24380650737925322,0.0,0.13248649182455408,0.1,0.0027701854705810547,0.053357601165771484,0.04999812,1.3658535,0.4353962319635554,0.0,0.008027998407574136,0.0,200,0.013339757919311523,0.1428451118352188,0.14042020988665146,28600,1.0603708579007305,0.0
143,1.158498764038086,0.3048581027926528,0.10343283027447939,0.4699566207442007,0.19938018482007344,0.0,0.12882459535530016,0.1,0.002796173095703125,0.05301403999328613,0.050125066,1.1422523,0.4223424190464652,0.0,0.00600823720466975,0.0,200,0.013800621032714844,0.2004786363387538,0.15501762130942004,28800,0.9081559976329653,0.0
144,1.1590533256530762,0.4137374389848893,0.17303210647937112,0.6016896219728571,0.22224506646763895,0.0,0.1258932146389089,0.1,0.0027594566345214844,0.053373098373413086,0.05009325,1.2878004,0.42148192104030757,0.0,0.008168692336505438,0.0,200,0.013051986694335938,0.19678912479079336,0.19717172032581143,29000,0.9912228946388716,0.0
145,1.1560873985290527,0.423112312029145,0.1340954339465916,0.5532446066047954,0.20868594801281584,0.0,0.13016083619705165,0.1,0.0027303695678710938,0.053374290466308594,0.05022211,0.9146405,0.42164496013919134,0.0,0.00830966517655303,0.0,200,0.016585111618041992,0.17381918009364333,0.14756932973969392,29200,0.5087459858968815,0.0
146,1.1996288299560547,0.33139047018925355,0.13994490059901837,0.512379714668256,0.14287329925219058,0.0,0.13243838152428927,0.1,0.002784252166748047,0.05341053009033203,0.049950868,1.0164952,0.41261951114419754,0.0,0.006479595034219306,0.0,200,0.013736963272094727,0.1666380381448074,0.17260641662150117,29400,0.5058871965383755,0.0
147,1.1726396083831787,0.4388863259775201,0.05604372132209573,0.5330925144434945,0.38982055161928286,0.0,0.13522537051524278,0.1,0.0027947425842285156,0.05273008346557617,0.05036664,1.0467978,0.41524619262752976,0.0,0.00856415197886493,0.0,200,0.015232324600219727,0.07234155637708417,0.05659264193872511,29600,0.5796041493079966,0.0
148,1.1738560199737549,0.5046287497187011,0.05692667351975285,0.5617899385130559,0.41321453787350765,0.0,0.13596924603785937,0.1,0.0028803348541259766,0.05804872512817383,0.050070886,0.81922257,0.4241844483366469,0.0,0.009884094093709531,0.0,200,0.014163970947265625,0.09781082324127865,0.05978026349336955,29800,0.5411761483996324,0.0
149,1.1836140155792236,0.46112626225627296,0.04842471310176761,0.5088895781374432,0.380439602443523,0.0,0.13081612291259756,0.1,0.002773761749267578,0.052304983139038086,0.04974741,0.8666609,0.4278786297286095,0.0,0.009104499979271943,0.0,200,0.013805150985717773,0.039624845302220234,0.042775781181654655,30000,0.6568997982085637,0.0
150,1.165386438369751,0.4756561476716412,0.12644941111412242,0.6444100981322816,0.3014817665659981,0.0,0.12288634355678583,0.1,0.0027277469635009766,0.05259370803833008,0.049999055,1.1176506,0.4326563815229127,0.0,0.009375678191494638,0.0,200,0.013500213623046875,0.1396462203422488,0.13666165730530025,30200,0.6285459455540725,0.0
151,1.2127792835235596,0.5162344035087189,0.09929739820686238,0.652747908559933,0.38506779361245447,0.0,0.12832634382110775,0.1,0.002798795700073242,0.05256986618041992,0.049691282,0.89224887,0.4410141837214933,0.0,0.010160396752926147,0.0,200,0.014447927474975586,0.10993762530151048,0.09720084147412879,30400,0.4472313247715902,0.0
152,1.2128961086273193,0.4913926033609048,0.04257558723860481,0.5391806488088374,0.4271185901127994,0.0,0.12366357928812559,0.1,0.0029299259185791016,0.053668975830078125,0.049773116,0.8185376,0.44605202568543445,0.0,0.009744529331062892,0.0,200,0.01312255859375,0.05997721874278435,0.03573704469326726,30600,0.5905226373543996,0.0
153,1.2241718769073486,0.5255472530996971,0.09315425297637127,0.679902382436574,0.435551750749248,0.0,0.12741133095831492,0.1,0.0026903152465820312,0.052437543869018555,0.04967213,1.4291588,0.4540015484268607,0.0,0.01040061133040841,0.0,200,0.014301061630249023,0.08118868594955893,0.08246648076257238,30800,0.5693407822815216,0.0
154,1.1904830932617188,0.45836740952888283,0.20584398213757027,0.7573764005085324,0.23428605580722434,0.0,0.11793680270331681,0.1,0.003886699676513672,0.052755117416381836,0.04983491,2.0188475,0.45443813453706294,0.0,0.00908466701536622,0.0,200,0.014814615249633789,0.2038039291095403,0.19993669258818897,31000,0.47753575231432327,0.0
155,1.191333293914795,0.4679003023984383,0.09776300157601506,0.6335657573137765,0.3796522473961603,0.0,0.12479145881354596,0.1,0.0027251243591308594,0.05245089530944824,0.050171446,1.2597685,0.4557843513232005,0.0,0.009281226681926122,0.0,200,0.013557672500610352,0.06441624808426918,0.06290029488673934,31200,0.6233451591557444,0.0
156,1.2537846565246582,0.6348439213136472,0.0440383675965237,0.6904098294123652,0.5882731216721793,0.0,0.13703462147979067,0.1,0.002735137939453125,0.05283474922180176,0.050158966,1.1789963,0.47369030832224523,0.0,0.012436093401022662,0.0,200,0.014925956726074219,0.09863075959452701,0.05534411135226174,31400,0.7173395596285056,0.0
157,1.26224684715271,0.3694292935166659,0.08953317159426463,0.4891157438430129,0.23742330180515137,0.0,0.12121748764178217,0.1,0.0029900074005126953,0.05711936950683594,0.049409386,1.3075,0.46326420684168734,0.0,0.007255906922082753,0.0,200,0.014174461364746094,0.27461448578751285,0.25166383267298437,31600,0.707436836150087,0.0
158,1.1840770244598389,0.44142202131412533,0.11418404156299727,0.5700244193939544,0.25708514676528804,0.0,0.1300979755150792,0.1,0.0027735233306884766,0.05491781234741211,0.049881253,1.0345056,0.46107998828893115,0.0,0.008615462128900091,0.0,200,0.013534307479858398,0.11088951584075472,0.0877585763803094,31800,0.7663829421096578,0.0
159,1.1899442672729492,0.2864804773545885,0.17195420672061276,0.5182940357986442,0.08920773720505477,0.0,0.128960800760965,0.1,0.0027625560760498047,0.05399179458618164,0.049672842,1.2772547,0.4436200371954969,0.0,0.005710098872120365,0.0,200,0.013860940933227539,0.6429021858563645,0.3695791643659078,32000,0.6278744008549673,0.0
160,1.1803369522094727,0.48236218600687897,0.14198570898702173,0.6232023922222288,0.285762457506238,0.0,0.13045903399454886,0.1,0.0028312206268310547,0.05404829978942871,0.04963023,1.3302399,0.4474942520766351,0.0,0.009519491704374371,0.0,200,0.01354837417602539,0.15611981112591342,0.17877248650249375,32200,0.7283373549575805,0.0
161,1.2042922973632812,0.481388109479341,0.19976572027202538,0.7058542693351468,0.17431122955112646,0.0,0.13292226026355716,0.1,0.0029120445251464844,0.05399179458618164,0.050293934,0.81660044,0.4508836378169057,0.0,0.009399931178014636,0.0,200,0.013573169708251953,0.2521425322360018,0.21590295839189422,32400,0.9263138881589685,0.0
162,1.1820130348205566,0.36170882647097624,0.11922180212378486,0.4491348042698533,0.1575340714291816,0.0,0.12651878831582142,0.1,0.0028579235076904297,0.05368447303771973,0.05016366,0.92363447,0.44196615668231276,0.0,0.0070848891782044916,0.0,200,0.014937400817871094,0.11409326816284635,0.11973273939936387,32600,0.7052813825623508,0.0
163,1.203589677810669,0.5348125990087461,0.035707840565302185,0.5890862690274921,0.48913043830783426,0.0,0.13214962775292727,0.1,0.002866983413696289,0.05389285087585449,0.050291084,0.87087464,0.4512508009149561,0.0,0.010559137772960924,0.0,200,0.015172958374023438,0.08490859986473961,0.06416516462610065,32800,0.8441287515587029,0.0
164,1.1293866634368896,0.5000874634569095,0.16387740998990682,0.6992426349400782,0.2430789098000512,0.0,0.12586812816036208,0.1,0.0027871131896972656,0.05285215377807617,0.049749848,1.1333538,0.45613446716915146,0.0,0.009848762863941382,0.0,200,0.013415098190307617,0.12430329789772049,0.11264965916319247,33000,0.8678012534996818,0.0
165,1.1738739013671875,0.5043775588477789,0.03620527673605044,0.5484899087903785,0.46639006562033025,0.0,0.13051312198765722,0.1,0.002845287322998047,0.052580833435058594,0.049811877,0.9858986,0.4609587763370142,0.0,0.010006752380515299,0.0,200,0.01522374153137207,0.06414161485739277,0.061772771292258506,33200,0.952419361720361,0.0
166,1.1736421585083008,0.4442811742895529,0.14675722821767292,0.6621845435986096,0.26998163410374226,0.0,0.13085048215220277,0.1,0.0027811527252197266,0.05460476875305176,0.05011255,1.3793283,0.4592910161322681,0.0,0.008814209064779362,0.0,200,0.013223409652709961,0.17490793855046732,0.15833955444419753,33400,0.8988040523777686,0.0
167,1.170083999633789,0.39629675867710157,0.19023402824491203,0.6148500256512811,0.09843219095114362,0.0,0.12337161807537468,0.1,0.002797842025756836,0.052478790283203125,0.049783524,0.8202926,0.45299159038675146,0.0,0.00772358839162513,0.0,200,0.013692378997802734,0.26058054237388617,0.2260921174387536,33600,0.9231203562616753,0.0
168,1.181014060974121,0.4498886088087859,0.09330312517044588,0.5818783921004429,0.3349391458139199,0.0,0.13071978391777478,0.1,0.0027570724487304688,0.052370309829711914,0.049477812,0.93384445,0.4526812922289549,0.0,0.008735721920382716,0.0,200,0.013586044311523438,0.07590448966303821,0.08153095151165625,33800,0.9977057682363918,0.0
169,1.1707541942596436,0.35240378286602747,0.16354249268003834,0.5127185409055955,0.13786012892726168,0.0,0.12006529785737306,0.1,0.0029735565185546875,0.052735090255737305,0.049698662,1.885694,0.4426535412926622,0.0,0.006950988733561533,0.0,200,0.014693021774291992,0.2532622246021008,0.2172440559330539,34000,0.840854371873113,0.0
170,1.2253937721252441,0.4730775160899617,0.18660643516308423,0.6728840941381448,0.1901964578190982,0.0,0.12503708220169885,0.1,0.002806425094604492,0.05232071876525879,0.049907774,0.91819894,0.4456959387723922,0.0,0.009270386005379369,0.0,200,0.015083074569702148,0.158317462643264,0.1615478397335398,34200,0.8090778551609267,0.0
171,1.1975626945495605,0.6123413842973722,0.03822155340130775,0.6769335392035674,0.5771326966824625,0.0,0.12296116591087639,0.1,0.0027909278869628906,0.05225419998168945,0.04993278,0.8826779,0.46236048332489027,0.0,0.012029808587555476,0.0,200,0.013344764709472656,0.15358044073362187,0.1067520964852713,34400,0.6746912762131675,0.0
172,1.2121398448944092,0.42980625892591356,0.13420546113486298,0.6295831262202847,0.2750781233493766,0.0,0.12604176234178624,0.1,0.0028204917907714844,0.05330085754394531,0.05057744,2.013553,0.4591050608849926,0.0,0.008486914524025013,0.0,200,0.015831708908081055,0.14693430898045454,0.16241551826938527,34600,0.5366089309279333,0.0
173,1.1816983222961426,0.49335966576869433,0.2466560510578021,0.651200899697224,0.06669268429802315,0.0,0.12678538491574115,0.1,0.0027294158935546875,0.0531458854675293,0.049652025,0.72744477,0.4625305213733628,0.0,0.009659080916352189,0.0,200,0.013037443161010742,0.2281720891349469,0.22576830130529613,34800,0.727408121764407,0.0
174,1.2195005416870117,0.5268787064977173,0.11465621590090096,0.6976481229142355,0.40338074542626823,0.0,0.12890002958931304,0.1,0.002694845199584961,0.05192708969116211,0.049761277,1.3627487,0.46896533988579825,0.0,0.010360577618661982,0.0,200,0.013968706130981445,0.08199606597550252,0.07681846621207744,35000,0.8338949018954219,0.0
175,1.118523120880127,0.44528466749517664,0.1876396009607219,0.6612520954368405,0.1966512437058516,0.0,0.12147034742653352,0.1,0.0030317306518554688,0.05356907844543457,0.050075978,1.0082881,0.4665972726467361,0.0,0.008832409116901621,0.0,200,0.014100313186645508,0.21627600006573544,0.20210672779657032,35200,0.8489951624611948,0.0
176,1.165522813796997,0.5753709176291467,0.1960512951718189,0.8765612153865695,0.3979647436844953,0.0,0.12256157754046255,0.1,0.002761363983154297,0.05317997932434082,0.050059285,1.2708529,0.4774746371449772,0.0,0.011209608215968276,0.0,200,0.013384819030761719,0.1697546421521472,0.16373593591719537,35400,1.1454050456812637,0.0
177,1.1159672737121582,0.3890203523122802,0.19914110447309036,0.6043232426108816,0.1477020410283771,0.0,0.11963665494930485,0.1,0.0028612613677978516,0.05572009086608887,0.049514152,0.9632985,0.4686292086617075,0.0,0.0076971923193685735,0.0,200,0.013921976089477539,0.3184970618432828,0.2793581264302744,35600,0.9303487058558932,0.0
