iteration,time_sampling,stoc_pol_mean,stoc_pol_std,stoc_pol_max,stoc_pol_min,rollout_success,alpha,delta,time_vpg,time_npg,kl_dist,surr_improvement,running_score,rwd_sparse,rwd_dense,success_percentage,num_samples,time_VF,VF_error_before,VF_error_after,env_samples,eval_score,eval_success
0,1.9577052593231201,-6926.542437145222,2699.975599640849,-2267.7411669751145,-8724.503555056954,0.0,0.2760896737008194,0.1,0.033269643783569336,0.06683659553527832,0.05403673,0.4817323,-6926.542437145222,0.13438666298092872,-34.505873913251236,0.0,671,0.03918147087097168,0.9999851876256527,0.9997897091702512,671,-1359.0368426945622,0.0
1,1.8803813457489014,-5718.65450003242,1546.990462650939,-4725.239680011104,-8395.172515725948,0.0,0.47906522856989675,0.1,0.003473043441772461,0.06988072395324707,0.051235013,0.19885881,-6805.753643433942,0.24776382499644745,-28.562805270918165,0.0,800,0.044643402099609375,0.9997129584930016,0.9985832246237338,1471,-1144.742243697554,0.0
2,1.9937231540679932,-2777.797995176387,3563.8378307587063,598.199718955909,-8428.547935480885,0.0,0.4152007167790589,0.1,0.0034058094024658203,0.0696563720703125,0.053250168,0.22152805,-6402.958078608187,0.6154652205536193,-13.892208119925595,0.0,698,0.038572072982788086,0.998942555133771,0.9971245262131838,2169,-1291.824396609534,0.0
3,1.9393408298492432,-4071.6329105414106,3116.0852978619955,-333.18408387629404,-8652.100528720823,0.0,0.42363779212089614,0.1,0.0037009716033935547,0.07571816444396973,0.050383613,0.23182735,-6169.825561801509,0.5302486918189789,-20.329301740726386,0.0,667,0.04308509826660156,0.9967027884327537,0.9913959930082307,2836,-1494.829898332818,0.0
4,2.01277232170105,-2906.0803543740903,2720.858391928242,-20.26917885159767,-6183.929174079964,0.0,0.4795438815531388,0.1,0.003554105758666992,0.06999063491821289,0.051694065,0.19096898,-5843.451041058767,0.4678697464613505,-14.59665215875241,0.0,800,0.045493125915527344,0.9893028327586637,0.9749262126004186,3636,-1252.3838038852373,0.0
5,2.1154980659484863,-3536.3480678666065,3245.135299065965,-377.53778587966644,-8480.000729650908,0.0,0.49749475084937045,0.1,0.0035545825958251953,0.07026338577270508,0.05038456,0.20117763,-5612.74074373955,0.2922423226691907,-17.683768496182402,0.0,800,0.04561877250671387,0.9792972915104892,0.9550975087182957,4436,-1198.0719417512648,0.0
6,1.9692707061767578,-3884.9620471790317,2768.2832535427237,-1762.4750189443562,-8615.223082150058,0.0,0.3928662454994846,0.1,0.003332376480102539,0.06662106513977051,0.049408022,0.26808468,-5439.962874083499,0.5513568324895748,-19.3635647297204,0.0,561,0.032529354095458984,0.9574496333902083,0.9334603481291679,4997,-1170.386975440398,0.0
7,2.09403657913208,-2466.2802425419613,2475.59637761303,123.44545663450288,-5128.135030156998,0.0,0.46467673987583274,0.1,0.0035390853881835938,0.07690763473510742,0.047848683,0.20108372,-5142.594610929345,0.6476278214951328,-12.39868320798874,0.0,800,0.04489612579345703,0.9024453980173426,0.848923035578649,5797,-1140.9414724771939,0.0
8,1.968214511871338,-3142.1377043584007,3212.0711699559297,204.48621298865794,-8434.1640252286,0.0,0.39223128836771937,0.1,0.0031566619873046875,0.06530952453613281,0.051313005,0.26575178,-4942.548920272251,0.4951730137237662,-15.654108515298699,0.0,541,0.03305172920227051,0.9028374074630792,0.870981846479526,6338,-1064.7799763490234,0.0
9,2.1102590560913086,-4406.270297544684,4305.610837829158,-81.77953180329573,-8733.913697824815,0.0,0.5014948523704974,0.1,0.003836393356323242,0.07397747039794922,0.05042979,0.20618372,-4888.921057999494,0.5725803771330809,-22.034869564599155,0.0,800,0.04662966728210449,0.8837252738689448,0.8180447951571029,7138,-1140.8993192745372,0.0
10,2.1318695545196533,-5614.763452948793,2155.776391171822,-2682.189833419369,-8645.03284457983,0.0,0.48844213549433807,0.1,0.003470897674560547,0.0706017017364502,0.0497371,0.22659174,-4961.505297494424,0.2726759678109609,-28.075419304011476,0.0,800,0.04478120803833008,0.7529122138506719,0.6444759018229779,7938,-1261.6593574314502,0.0
11,2.0187036991119385,-2827.770827001389,2261.2543833000605,583.7818514427416,-4892.381230843637,0.0,0.4002990257735375,0.1,0.003468751907348633,0.06657934188842773,0.051699307,0.26261517,-4748.13185044512,0.4815112015807521,-14.145835758768255,0.0,656,0.03705096244812012,0.6058433778269067,0.567141296929435,8594,-1185.6299432207422,0.0
12,2.144803047180176,-2142.280311498409,3275.9214537960693,-38.13094398745241,-7811.715345181111,0.0,0.4311112035033441,0.1,0.0035772323608398438,0.07214093208312988,0.048407543,0.20983878,-4487.546696550449,0.8492390574181985,-10.779378511472524,0.0,800,0.04994821548461914,0.7797333416364108,0.7766194941627206,9394,-955.0540371680222,0.0
13,2.154099464416504,-999.4677614292597,2030.9660653813735,549.6006933997866,-4489.244256180152,0.0,0.4720785712599939,0.1,0.003522634506225586,0.07197189331054688,0.0502937,0.19284853,-4138.738803038331,1.0067034519768234,-5.1083417741604755,0.0,800,0.04620003700256348,1.2421806981135735,1.1006161396211442,10194,-953.7885316103128,0.0
14,2.3753151893615723,-8118.23338847448,150.6918952454864,-7943.865120031556,-8290.147474145562,0.0,0.5260071960614016,0.1,0.0035228729248046875,0.07224345207214355,0.053302795,0.24574655,-4536.688261581946,0.3293223766936086,-40.46623780830182,0.0,800,0.04435420036315918,0.6585995791619221,0.5509516069734411,10994,-1098.3415733863155,0.0
15,2.0206356048583984,-4418.8320997612545,2467.1771952806785,-1732.701256683483,-8270.494687673341,0.0,0.4385789153063712,0.1,0.0032739639282226562,0.06789064407348633,0.050076615,0.24379396,-4524.902645399877,0.3065955054999141,-22.063857289096912,0.0,683,0.03772997856140137,0.5238245062662307,0.46914911636026296,11677,-1220.6632447028721,0.0
16,2.075415849685669,-3676.773811459603,3121.0643799962204,-67.77893541566424,-8091.960925078622,0.0,0.41713906765326775,0.1,0.003529787063598633,0.06995105743408203,0.049221404,0.25440317,-4440.0897620058495,0.22050894162406365,-18.353320474750127,0.0,655,0.039405107498168945,0.5289089579269992,0.5170185984954027,12332,-924.907041582556,0.0
17,2.017354965209961,-5127.067503623083,2921.840080130163,-2076.6044787997416,-8073.489896788875,0.0,0.3886729355218069,0.1,0.003328084945678711,0.0634922981262207,0.05028566,0.35251674,-4508.787536167572,0.24461850775052302,-25.509410979683345,0.0,539,0.031693220138549805,0.44375018526836135,0.40006316892712845,12871,-1423.6235930285993,0.0
18,2.1416475772857666,-1338.4173495062118,1031.8362245008082,-264.4362560508329,-2393.9531095615434,0.0,0.3347441342948365,0.1,0.0031862258911132812,0.0651712417602539,0.05154987,0.3399597,-4191.750517501437,0.5919523469288885,-6.694816999726162,0.0,537,0.03434467315673828,4.098518496185381,3.870460926224726,13408,-966.1867852964265,0.0
19,2.0582098960876465,-733.5724380551225,1152.4625756630328,764.9204942816892,-1967.0328088345043,0.0,0.3594906146044714,0.1,0.0031332969665527344,0.06270790100097656,0.05000992,0.30640325,-3845.932709556805,0.6595384393497833,-3.676860069257244,0.0,533,0.03086256980895996,6.57538541533761,5.005683542005826,13941,-822.7959223451766,0.0
20,2.1139109134674072,-5682.7399628532185,2294.487563994616,-3082.6906408676105,-8094.244693024256,0.0,0.5360151240222824,0.1,0.0034449100494384766,0.07322072982788086,0.051994506,0.20055744,-4029.6134348864466,0.3346249228454692,-28.35241690199728,0.0,800,0.0462188720703125,0.41099017651451925,0.39748243823867807,14741,-882.3557987885016,0.0
21,2.16170072555542,-888.4431351509456,1109.1393982568723,-21.49059223580155,-2760.951447150746,0.0,0.4071080042308143,0.1,0.0034608840942382812,0.07032966613769531,0.052228678,0.24168128,-3715.4964049128967,0.6499570454235707,-4.519852600480599,0.0,730,0.042345523834228516,5.143413427142048,4.4477063638334595,15471,-1377.3143330116093,0.0
22,2.1449639797210693,-3778.388912645999,3129.0975182756015,244.0579147662801,-8471.717570102399,0.0,0.4567098423984081,0.1,0.003374814987182617,0.06983613967895508,0.051219292,0.22265248,-3721.785655686207,0.6418292326689666,-18.900825339465555,0.0,800,0.04441404342651367,0.5292564615943542,0.5320015629784257,16271,-1124.5436773392073,0.0
23,2.1060502529144287,-3057.9538953442852,3016.210876396346,730.9829182365969,-7711.560245748326,0.0,0.4294405212815579,0.1,0.0033636093139648438,0.06801033020019531,0.049550425,0.24366239,-3655.402479652015,0.6529104006991383,-15.235387113818177,0.0,615,0.03409314155578613,0.6182784674893432,0.615130991869225,16886,-985.0638923312744,0.0
24,2.1829817295074463,-3471.6990337376874,2678.813276879255,-1143.3221047543295,-7680.591813402875,0.0,0.44260510704865197,0.1,0.0033097267150878906,0.0696096420288086,0.049629197,0.23672375,-3637.032135060582,0.06577377157189851,-17.357926037684944,0.0,800,0.046838998794555664,0.5118266325196672,0.5088800765097575,17686,-1003.0538527585055,0.0
25,2.1884069442749023,-637.2516927624932,1583.783003610453,858.6079549925254,-3303.7347400308863,0.0,0.41632825510077887,0.1,0.0034036636352539062,0.06767439842224121,0.051742196,0.24003483,-3337.054090830773,0.8979464801584217,-3.260638574032943,0.0,735,0.040860652923583984,3.2509365767477174,2.713734510184256,18421,-759.0014800374823,0.0
26,2.154904842376709,-3128.2095896971855,3107.7242689126033,340.11728652600044,-8074.463438935353,0.0,0.4112158812624616,0.1,0.003192901611328125,0.06422615051269531,0.05230317,0.2538843,-3316.1696407174145,0.4951683158660737,-15.584975353010728,0.0,600,0.03296017646789551,0.6168203437783983,0.6201894598621959,19021,-684.5536944199815,0.0
27,2.171861410140991,-6338.365159982237,1802.161089340787,-3339.7556762119752,-8145.639620735731,0.0,0.4944585330509463,0.1,0.003439664840698242,0.06811308860778809,0.04965634,0.24267748,-3618.389192643897,0.2212653276439593,-31.5663035202868,0.0,675,0.03822445869445801,0.4945997064183642,0.43464430172051094,19696,-636.7750755500829,0.0
28,2.2126407623291016,-1989.2425533945066,2391.2316076308202,-110.62654371704816,-6045.108910931083,0.0,0.5144280025227018,0.1,0.003476858139038086,0.07068490982055664,0.04903582,0.19570303,-3455.474528718958,0.5144008322150436,-10.01225767553426,0.0,800,0.04489612579345703,0.6898272837765769,0.7047450123962862,20496,-1059.9097322967448,0.0
29,2.1020312309265137,-4122.56129085952,1823.9921630965277,-1945.1779556752517,-6911.247746316982,0.0,0.38882072535558004,0.1,0.0032529830932617188,0.06712818145751953,0.05034617,0.3106792,-3522.1832049330146,0.22020125282546496,-20.51890698211202,0.0,577,0.033640146255493164,0.3429536950604404,0.3315467795200853,21073,-796.8857338866743,0.0
30,2.1866815090179443,-1114.3389049721548,1508.9636402545325,858.7689995294945,-3120.5255428251044,0.0,0.4071460950186304,0.1,0.0032224655151367188,0.06787490844726562,0.050667606,0.26750126,-3281.398774936929,0.8117862507709146,-5.607362562797134,0.0,702,0.037659406661987305,1.7269124064780745,1.579365542006861,21775,-789.5751712381674,0.0
31,2.167297601699829,-3834.112355149398,2347.150434047683,-1743.6098800950506,-7511.586860703847,0.0,0.4004442165176075,0.1,0.0033416748046875,0.06446719169616699,0.048710734,0.31448403,-3336.6701329581756,0.1529037532452549,-19.107764364647636,0.0,584,0.03381204605102539,0.38202715405116666,0.3812277422978409,22359,-635.1769808659516,0.0
32,2.2519373893737793,-2573.2875639659355,2822.5722718381076,-105.33018273542713,-7351.139927391733,0.0,0.39461132745635996,0.1,0.003446817398071289,0.06551003456115723,0.048720032,0.24872048,-3260.331876058952,0.2295701796419452,-12.803694661436815,0.0,578,0.03559732437133789,0.5747317440617172,0.5738310107656258,22937,-592.5137078145641,0.0
33,2.189659357070923,-2991.2195341313695,2541.307976436431,-101.32095712152746,-7044.432328007817,0.0,0.3958105209492072,0.1,0.0032196044921875,0.064544677734375,0.05074992,0.27441183,-3233.420641866194,0.3072571436176798,-14.893478466065972,0.0,600,0.033203125,0.5126737429739529,0.5115366203641715,23537,-2018.6840823453397,0.0
34,2.288440704345703,-4002.718040805208,2419.7349129835543,-1393.6430355553741,-7957.256632589472,0.0,0.46479819034073894,0.1,0.003450632095336914,0.07007551193237305,0.049294356,0.21806908,-3310.3503817600954,0.23867297969059886,-19.98343250382933,0.0,800,0.04467654228210449,0.43176949532504455,0.42646130107666347,24337,-3071.857012318178,0.0
35,2.2900984287261963,-2203.02614058448,1518.8399774507939,38.74182848562658,-4001.572803510022,0.0,0.4291224292680576,0.1,0.003397703170776367,0.06936001777648926,0.048887603,0.29445633,-3199.617957642534,0.4723807957779085,-11.01774239177167,0.0,672,0.03806900978088379,0.5107319846596688,0.49545544774970596,25009,-181.0819052300748,0.0
36,2.1813321113586426,-1708.2623099568718,1485.1613991865759,-53.59960399717556,-4116.732958137637,0.0,0.37801266411684115,0.1,0.0032024383544921875,0.06416106224060059,0.05139761,0.2932698,-3050.482392873968,0.2958431976896226,-8.51032173402439,0.0,589,0.033299922943115234,0.7251481916390883,0.662217247152183,25598,-180.1108664946413,0.0
37,2.2795605659484863,-1405.9887790123757,1708.8096807342038,631.276985053866,-3597.3673883490396,0.0,0.4514074184985392,0.1,0.0034868717193603516,0.07463669776916504,0.050254088,0.23214865,-2886.033031487809,0.6827775577749164,-7.070432293282704,0.0,713,0.04334378242492676,1.0726197059622853,0.9434082074570209,26311,-181.77314288554876,0.0
38,2.282867193222046,-3304.5143329640796,443.41459490372614,-2591.0367516143356,-3768.161888137853,0.0,0.4691837267262705,0.1,0.003390073776245117,0.06957530975341797,0.05017748,0.27720383,-2927.881161635436,0.1595920912747859,-16.491447748402283,0.0,703,0.03770732879638672,0.21548045944947664,0.21592979035538343,27014,-2763.857768680527,0.0
39,2.3332791328430176,-3111.075741995284,778.95336761928,-2132.748786978433,-3927.491393483191,0.0,0.4713175724893507,0.1,0.003358602523803711,0.07169985771179199,0.049224444,0.2459048,-2946.2006196714206,0.40160990412959174,-15.557895530295735,0.0,800,0.04463529586791992,0.19811443537032764,0.18692198490075926,27814,-1802.9920263719696,0.0
40,2.194844961166382,-1724.6532889384878,1531.1620988803845,825.1423992000309,-3261.106651865176,0.0,0.41608830623480025,0.1,0.0034415721893310547,0.07119464874267578,0.050249066,0.25271437,-2824.0458865981273,0.5689340576308641,-8.600226300818209,0.0,637,0.03464245796203613,0.6251386745144129,0.612778500548924,28451,-485.9332831282295,0.0
41,2.2716240882873535,-3245.9068368812195,2629.357373426229,32.42772933033557,-7096.943464223642,0.0,0.4077509440912849,0.1,0.003400564193725586,0.07142305374145508,0.04992702,0.26369163,-2866.231981626436,0.3414639251913097,-16.199876093777736,0.0,718,0.04329276084899902,0.46160452427779686,0.45532115228227926,29169,-346.8874434649672,0.0
42,2.3149607181549072,-1806.7571241905825,1585.7729643024916,-83.11983369805523,-4018.0995847897902,0.0,0.4327932020574023,0.1,0.003500223159790039,0.06896185874938965,0.04908982,0.28874046,-2760.284495882851,0.08602886384494438,-9.064727274658246,0.0,731,0.040926218032836914,0.6769436140721053,0.651997079743049,29900,-441.3746388871109,0.0
43,2.332379102706909,-859.7284775214896,1665.4856460395742,811.8980930261391,-2632.1498372459746,0.0,0.43819008977772733,0.1,0.0036468505859375,0.06816530227661133,0.049549725,0.23706299,-2570.2288940467147,1.0372103964726196,-4.347543384363469,0.0,712,0.04064774513244629,1.4361377017734482,1.2298835472575849,30612,-424.9649990119249,0.0
44,2.41702938079834,-3167.256059031735,3106.7999021935316,17.6245721162384,-7574.935657172685,0.0,0.46817231974795714,0.1,0.003611326217651367,0.07265782356262207,0.050011687,0.21125393,-2629.9316105452167,0.08145605472136298,-15.836027136870989,0.0,770,0.04744100570678711,0.5558144831624157,0.5529829317595533,31382,-290.16936692531726,0.0
45,2.354543924331665,-766.6464726146143,1748.1653005547935,892.56595738741,-3396.7441604007468,0.0,0.4179037076360257,0.1,0.003416299819946289,0.06800031661987305,0.051269203,0.23903301,-2443.6030967521565,0.9393018036657522,-3.8806332859411863,0.0,710,0.04977726936340332,1.2579343080493888,1.169741055995122,32092,-408.00662590176404,0.0
46,2.342542886734009,-3845.0680509279164,648.4673136455293,-3250.5882722826086,-4901.396464900539,0.0,0.4500473274996155,0.1,0.0033104419708251953,0.06760621070861816,0.050607163,0.2837183,-2583.7495921697328,0.26919327847103636,-19.195169330524894,0.0,713,0.04068326950073242,0.3153255458837337,0.29850242102102037,32805,-549.4904439488608,0.0
47,2.463369607925415,-2092.026207182143,1261.9633319657455,12.690714365633964,-3346.724236024286,0.0,0.4737262665082438,0.1,0.003343343734741211,0.07013583183288574,0.05081032,0.2187244,-2534.5772536709737,0.2883100094205712,-10.462660710860025,0.0,800,0.04493451118469238,0.3219526192188313,0.32272425993790516,33605,-610.5553790357576,0.0
48,2.429792881011963,-3631.785915567977,267.3017451214765,-3294.1644930409916,-4039.8569516406346,0.0,0.5226449903623838,0.1,0.003420114517211914,0.07252001762390137,0.05148079,0.2171053,-2644.298119860674,0.22615432544523797,-18.16041469737226,0.0,800,0.045534372329711914,0.2423949160682625,0.21633427819128903,34405,-1784.6928652053623,0.0
49,2.453925132751465,-2879.7444866760984,1318.253487792181,-606.4677534566353,-3805.4925424616413,0.0,0.5248341035236668,0.1,0.0033092498779296875,0.07057046890258789,0.050375987,0.20722875,-2667.8427565422166,-0.017303035885017137,-14.429592921350618,0.0,800,0.04436063766479492,0.342595456157769,0.33693878361828666,35205,-3664.7033818006635,0.0
50,2.436546564102173,-1810.6339954691828,1753.64332826599,32.0307517329687,-3655.6665015450417,0.0,0.4746931082021274,0.1,0.0033566951751708984,0.07355976104736328,0.04972408,0.23362024,-2582.1218804349132,0.4938064794177098,-9.119552338460146,0.0,800,0.04455137252807617,0.6160084524880315,0.5864560310540713,36005,-3681.7727611049854,0.0
51,2.3880929946899414,-584.1290493149493,1276.0865305215013,655.4473932460455,-2365.572285485663,0.0,0.43551901960431555,0.1,0.003393411636352539,0.06850528717041016,0.049876947,0.24500908,-2382.322597322917,0.9503053865420403,-2.936636158947655,0.0,717,0.04097628593444824,1.7629647944864826,1.4390563075064833,36722,-2523.4416370656945,0.0
52,2.316204071044922,-3456.115939148086,1907.0132112583015,-1055.0493931637086,-6390.262319156052,0.0,0.4504250150122811,0.1,0.003421306610107422,0.06861472129821777,0.050400723,0.22379148,-2489.7019315054335,0.1765942254577828,-17.186052802254586,0.0,640,0.03923439979553223,0.4064984173345678,0.3892000607500392,37362,-2558.8813749805254,0.0
53,2.472550868988037,-2412.4530759714444,1250.258615145477,-250.6404252522856,-3239.6710085084455,0.0,0.5029819582547653,0.1,0.0035448074340820312,0.07226943969726562,0.049207546,0.22151743,-2481.9770459520346,0.44139548549810304,-12.097110990234452,0.0,800,0.04572248458862305,0.31909257099352384,0.314568974255124,38162,-1916.9040380788135,0.0
54,2.397653579711914,-2959.283918054489,730.1543952576636,-2126.923624635987,-3794.838244221794,0.0,0.5110625409954848,0.1,0.0034875869750976562,0.07061505317687988,0.050035957,0.23241395,-2529.70773316228,0.18475358139822626,-14.79787387291492,0.0,800,0.04453563690185547,0.18164610473254184,0.17376796275737824,38962,-1027.105006232551,0.0
55,2.5037360191345215,-2986.8744597204,147.48814584484447,-2802.4777190793825,-3198.6506556838044,0.0,0.490304102169923,0.1,0.003547191619873047,0.07260656356811523,0.049776383,0.26045555,-2575.424405818092,0.2817330513070375,-14.904827725463296,0.0,743,0.042887210845947266,0.1603189719159721,0.14691160094265118,39705,-3697.1603074923937,0.0
56,2.4296000003814697,-1288.6864933147256,1634.1807543406858,699.2461982443511,-3808.560888821955,0.0,0.41745065479429777,0.1,0.0034401416778564453,0.07023954391479492,0.05045214,0.24793513,-2446.7506145677557,0.45521217236730765,-6.451081092094219,0.0,686,0.03824806213378906,1.0290568338545163,0.9524681253948749,40391,-3620.2416971114094,0.0
57,2.433072090148926,-2559.1362192333413,2080.649800908379,-853.7153699972844,-6007.911527973955,0.0,0.4770640719115078,0.1,0.003186941146850586,0.0673978328704834,0.050279073,0.19873321,-2457.9891750343145,0.0035735108897895496,-12.731753134775007,0.0,674,0.03720712661743164,0.4379888207860426,0.4397591445078683,41065,-4550.118875514036,0.0
58,2.447601079940796,-2188.1302535851437,1421.186786741941,-276.8370724034834,-3784.211206624408,0.0,0.41347480083868554,0.1,0.003306865692138672,0.07152843475341797,0.049800072,0.28121874,-2431.0032828893977,0.007817152736949586,-10.940874885113553,0.0,686,0.03779029846191406,0.4308047552428662,0.42836418522658853,41751,-4553.44834091346,0.0
59,2.5774478912353516,-2165.652941522823,768.7876311931255,-1003.6211671608629,-3144.9159063360357,0.0,0.5140516057527759,0.1,0.0035800933837890625,0.07283949851989746,0.049150676,0.215158,-2404.4682487527402,0.16149300512095124,-10.82992414909408,0.0,800,0.04539752006530762,0.2243278492475944,0.22154854830571688,42551,-4456.6409460683235,0.0
60,2.4860546588897705,-1070.2026337782956,410.83557059835755,-598.6816886110366,-1618.5998667211118,0.0,0.3934919485916065,0.1,0.0032663345336914062,0.06894731521606445,0.048543308,0.25870922,-2271.0416872552955,0.0013396903518438537,-5.319035677332444,0.0,627,0.034131765365600586,0.9621398777193979,0.8065406010324605,43178,-1190.2729311006603,0.0
61,2.556518316268921,-2034.1817672801974,1154.716223232186,-132.78591903497642,-3208.2982072600807,0.0,0.49976358948986005,0.1,0.0034761428833007812,0.07284665107727051,0.05072909,0.18938853,-2247.355695257786,0.4139793221757703,-10.173818388190586,0.0,788,0.04556632041931152,0.3493525590729799,0.3479023387669266,43966,-537.1481378045963,0.0
62,2.4314217567443848,-2220.4477807749613,502.5965563264625,-1805.6062876762262,-3062.446030114464,0.0,0.48264213536018935,0.1,0.0032536983489990234,0.07005023956298828,0.050053153,0.22227187,-2244.6649038095034,0.19760889706685947,-11.040376225596399,0.0,709,0.041269540786743164,0.15175591358508586,0.14601646861856904,44675,-874.934425755311,0.0
63,2.501351833343506,-1572.4704788688396,1194.8584982360553,-300.4344095853804,-3219.7963619104735,0.0,0.48861249977212134,0.1,0.003562450408935547,0.07090950012207031,0.051008485,0.19778995,-2177.445461315437,0.05872696386913094,-7.89531678277071,0.0,800,0.04472541809082031,0.5801019891797775,0.5582464306923834,45475,-1495.4902479726607,0.0
64,2.423154592514038,-1265.900036596646,637.1048561121303,-322.12905168011036,-2031.4449041316275,0.0,0.45088494475005647,0.1,0.0037915706634521484,0.0711984634399414,0.049694214,0.23501633,-2086.290918843558,0.21643626615484912,-6.299023441750249,0.0,720,0.043257951736450195,0.5707318459003453,0.5003456753722806,46195,-2231.1998540824848,0.0
65,2.466045618057251,-1949.0232165618036,492.97042853637305,-1268.1809983723776,-2651.460721200236,0.0,0.5323590626893977,0.1,0.003618478775024414,0.07343649864196777,0.049862977,0.1966518,-2072.5641486153822,0.2301063206520862,-9.74734436357796,0.0,800,0.047319650650024414,0.15977152019536414,0.16097673612689217,46995,-2183.977668070137,0.0
66,2.5162851810455322,-903.552121801489,804.6375567354647,43.863254008374284,-2069.318088312116,0.0,0.4679166336364892,0.1,0.003452301025390625,0.07301068305969238,0.048754983,0.21434204,-1955.662945933993,0.1881732887491924,-4.5831917252644,0.0,800,0.0510251522064209,1.0197805924512513,0.8858894224655096,47795,-579.1833760271942,0.0
67,2.5015084743499756,-1265.600947161665,968.0894093326214,-336.63306274764847,-2643.3938442327144,0.0,0.4399380275263709,0.1,0.003364086151123047,0.07355213165283203,0.049637385,0.2427354,-1886.65674605676,-0.10816756247907687,-6.391503495552191,0.0,800,0.04847002029418945,0.5962239614101575,0.5403380004556951,48595,-660.2598889786952,0.0
68,2.51884388923645,-1399.6744126814729,1164.55237437702,-161.4150387939239,-2685.931609782254,0.0,0.501932724307643,0.1,0.003426074981689453,0.0716712474822998,0.050949894,0.19135298,-1837.9585127192313,-0.04380904331464726,-7.061131123637108,0.0,800,0.0503542423248291,0.5311847732417104,0.5268630196106959,49395,-1358.365685493017,0.0
69,2.5810482501983643,-1424.9997627343705,1234.5512602799217,-303.944798611888,-3385.0900357274936,0.0,0.47903595411573074,0.1,0.003542661666870117,0.07235884666442871,0.04998685,0.19962208,-1796.6626377207454,-0.05445391449886394,-7.188001745603719,0.0,800,0.05210542678833008,0.5003762441375172,0.496147922312854,50195,-1016.7330660365105,0.0
70,2.5673744678497314,-1316.8685319929439,817.0463868168869,-465.923736863842,-2630.894061166515,0.0,0.47588337793129243,0.1,0.003259897232055664,0.06811904907226562,0.04956756,0.21169178,-1748.6832271479652,-0.009699731442210813,-6.584314903876394,0.0,726,0.048076629638671875,0.37361394741252196,0.3729067723455723,50921,-314.9047319098078,0.0
71,2.500220537185669,-921.4550599434563,958.597487951614,-254.56794548867012,-2566.564756038916,0.0,0.4679076422153196,0.1,0.0038137435913085938,0.07042717933654785,0.050696157,0.2107484,-1665.9604104275145,0.01130072227560388,-4.607378819967655,0.0,701,0.04614114761352539,0.8163783482005854,0.7776762404011826,51622,-2264.0179030890627,0.0
72,2.6570451259613037,-1130.0168806883928,1161.2738938792309,438.1060642385784,-2598.872887064093,0.0,0.475377664518625,0.1,0.0034027099609375,0.0729975700378418,0.05114679,0.20710307,-1612.3660574536023,0.15997046392053077,-5.71851198279131,0.0,800,0.05571269989013672,0.5728573258058844,0.560272895442263,52422,-789.8764931956108,0.0
73,2.6309890747070312,-1570.9084014573232,650.0976221595361,-791.1062938210472,-2579.27129930993,0.0,0.45676453209413675,0.1,0.0036153793334960938,0.07677769660949707,0.050924476,0.20257561,-1608.2202918539742,0.21700699501530268,-7.824768557420223,0.0,800,0.056580305099487305,0.2890584387547009,0.282366028428895,53222,-917.1613707372807,0.0
74,2.6266047954559326,-1529.8798656634513,844.2591637670369,-139.0334384254239,-2415.918682387357,0.0,0.5004909106330929,0.1,0.003289461135864258,0.0699927806854248,0.05005269,0.21145704,-1600.386249234922,0.17622151028109706,-7.683274118847557,0.0,800,0.05966067314147949,0.3174136094531311,0.3106308946457183,54022,-930.9619778009337,0.0
75,2.5371198654174805,-1417.276997396762,994.4290222612848,-377.053244943039,-2412.950050808224,0.0,0.4827955665935399,0.1,0.0033235549926757812,0.07137441635131836,0.049811862,0.1969272,-1582.075324051106,-0.00759366087468504,-7.118140951629274,0.0,779,0.06124401092529297,0.4412034821972918,0.43933015215330706,54801,-763.3044500593672,0.0
76,2.814631938934326,-661.2939463632597,470.9851936114412,-261.258233777149,-1452.5078295167957,0.0,0.4111240661805951,0.1,0.0034241676330566406,0.07105064392089844,0.049652442,0.22579193,-1489.9971862823213,-0.09179117662977959,-3.401417956815619,0.0,800,0.057962894439697266,2.9397119281703743,2.2891485390467934,55601,-1984.2143793734065,0.0
77,2.5726702213287354,-1766.4554647332434,882.0919443233472,-409.0423496636324,-2798.343809362344,0.0,0.46007465735810443,0.1,0.003651857376098633,0.07163810729980469,0.04900006,0.22964314,-1517.6430141274136,0.07362737040247586,-8.832813248754432,0.0,743,0.05579400062561035,0.33775784350301474,0.3361178728400944,56344,-2168.1580952238915,0.0
78,2.5733351707458496,-1374.6189785072188,679.6195077140908,-390.65205486912924,-2031.5872710757724,0.0,0.5008626539658905,0.1,0.0035114288330078125,0.07024526596069336,0.049037136,0.18376186,-1503.3406105653942,0.21633356480059923,-6.875015495971322,0.0,800,0.06030774116516113,0.36383394333255337,0.3586246125333806,57144,-1358.9049714616046,0.0
79,2.649923801422119,-572.7853180314463,593.4716134324847,-116.1307375648031,-1577.7264448337176,0.0,0.5104190923386315,0.1,0.003475666046142578,0.07070088386535645,0.048801854,0.18269919,-1410.2850813119994,0.012652100613674874,-2.9591759932027744,0.0,800,0.06255221366882324,1.3343925395481404,1.1759779635705865,57944,-581.7034806747973,0.0
80,2.5767745971679688,-1692.6864599840835,929.4874872089769,-148.52462072991221,-2524.006465500602,0.0,0.4543969647776381,0.1,0.0035865306854248047,0.06934285163879395,0.05057375,0.2445223,-1438.5252191792079,0.18605799402397605,-8.464351798846577,0.0,758,0.05943489074707031,0.349358048906385,0.3416058685577683,58702,-245.03185232424536,0.0
81,2.5878255367279053,-960.5714268997831,1325.8700115643612,10.290239306804773,-3241.1305294285326,0.0,0.47452690477875875,0.1,0.0036220550537109375,0.07285070419311523,0.050474077,0.19658516,-1390.7298399512654,0.14466466151539473,-4.898859851780558,0.0,800,0.0650489330291748,0.7537153417363925,0.7480271617462693,59502,-203.83953975313932,0.0
82,2.639631986618042,-747.9371144553209,641.6190822174019,-205.60054243014218,-1805.3422790746495,0.0,0.4564004747468542,0.1,0.003291606903076172,0.06728625297546387,0.049734194,0.189507,-1326.450567401671,0.020881237993680666,-3.7713795828521555,0.0,705,0.05900740623474121,0.8174429424653382,0.7309168466145388,60207,-213.92343506826344,0.0
83,2.609924793243408,-569.9056563921713,488.9045873235782,-222.07726250637404,-1413.0764651103693,0.0,0.4755495713303749,0.1,0.0034847259521484375,0.07204151153564453,0.05034479,0.19658592,-1250.7960763007209,-0.07004316380694547,-2.9448303032111163,0.0,800,0.06742477416992188,1.0176266380180201,0.8675906534821496,61007,-224.18417571461964,0.0
84,2.6217856407165527,-560.6634932187793,437.76443268861505,-280.9906546660033,-1317.8776155254675,0.0,0.43762709359401814,0.1,0.003414154052734375,0.07130241394042969,0.05015293,0.20847405,-1181.7828179925266,-0.1479811151996817,-2.865771535327271,0.0,745,0.0625145435333252,1.067776821394338,0.8646452930627089,61752,-1970.7872423514946,0.0
85,2.7237889766693115,-835.7623331687066,566.6760835613808,-197.12021368017824,-1423.1417898754064,0.0,0.4713608564794215,0.1,0.0034732818603515625,0.07358169555664062,0.05058551,0.1899654,-1147.1807695101447,0.07235812582348493,-4.27400332715873,0.0,800,0.07298159599304199,0.4399751890556168,0.4124282692847104,62552,-189.12900671764268,0.0
86,2.658064603805542,-1410.868470371512,734.6586923380804,-811.2057973696213,-2667.837908443826,0.0,0.49347913020592643,0.1,0.003609180450439453,0.07352113723754883,0.050143775,0.18771866,-1173.5495395962816,0.14510520915190342,-7.056623949499961,0.0,800,0.07101655006408691,0.4350260384357708,0.3947757411195043,63352,-198.18004810312945,0.0
87,2.63653564453125,-952.8028956667094,534.1795422254644,-139.72790981984167,-1535.2113578326935,0.0,0.4622919711465191,0.1,0.003745555877685547,0.07642340660095215,0.04964458,0.20419714,-1151.4748752033245,0.19404704022922434,-4.765802416424954,0.0,729,0.06618976593017578,0.3878015730792538,0.3850048208007097,64081,-199.12104303069293,0.0
88,2.5487592220306396,-1452.5360402009196,785.0746276215133,-368.7954230630348,-2310.816773779171,0.0,0.4652080696947682,0.1,0.0037300586700439453,0.07557225227355957,0.050809946,0.20428637,-1181.580991703084,0.038291760143401334,-7.263440345956391,0.0,771,0.07009744644165039,0.4002808373898794,0.3676034270256236,64852,-173.75532976824948,0.0
89,2.6316030025482178,-826.6036341393989,341.64918035211065,-262.5573469145784,-1137.8804914015063,0.0,0.4936690914459499,0.1,0.0037212371826171875,0.07258462905883789,0.04897608,0.20713516,-1146.0832559467156,0.013902787412359674,-4.19723822791579,0.0,800,0.07384204864501953,0.37619737198441544,0.38092122703181225,65652,-178.73965578620752,0.0
90,2.64731764793396,-696.9511338727885,768.7556843448326,-184.82617784447132,-2025.2214110239697,0.0,0.49573021951742124,0.1,0.0036487579345703125,0.07039356231689453,0.0466711,0.17019747,-1101.1700437393229,0.07721092172066256,-3.580284037561868,0.0,800,0.07427358627319336,0.6517550339568688,0.6155394376265936,66452,-173.01253601939231,0.0
91,2.670990467071533,-932.409784147253,1015.1194778671913,-177.64008402787178,-2657.2503869674515,0.0,0.47693574376740183,0.1,0.0036172866821289062,0.06991267204284668,0.05064967,0.19580597,-1084.294017780116,0.05956703260955319,-4.756808700035345,0.0,785,0.07431960105895996,0.7196099376778953,0.7085202278098566,67237,-183.43232384460666,0.0
92,2.624966621398926,-1159.4669448854615,753.0248281912052,-216.34249971770353,-2153.8114015324577,0.0,0.5082056203209967,0.1,0.0035347938537597656,0.07010674476623535,0.049397536,0.19931689,-1091.8113104906506,0.05207731587510785,-5.829153049642734,0.0,795,0.07255077362060547,0.4330316530879873,0.42779153249771085,68032,-163.71284106804626,0.0
93,2.6618034839630127,-517.8829384782238,440.21591538142735,-227.5657023107504,-1279.260410397143,0.0,0.48807466867174126,0.1,0.0034291744232177734,0.0703742504119873,0.05011826,0.17724037,-1034.418473289408,0.08196207471192352,-2.7164291936074236,0.0,800,0.07487678527832031,1.3646446083917045,1.1742262631645264,68832,-190.06196387405248,0.0
94,2.673041343688965,-414.44523700157737,290.16974330550073,-221.69876010976128,-914.4548869288949,0.0,0.4579683183696889,0.1,0.0033690929412841797,0.07072949409484863,0.048443545,0.19476847,-972.421149660625,-0.03678188628502705,-2.1676259434544134,0.0,800,0.07287287712097168,2.1770143954666192,1.633640072604415,69632,-357.8413157957089,0.0
95,2.6195218563079834,-726.3864895668275,779.5453979647651,-210.91630610374466,-2074.7376245903197,0.0,0.5207115798034702,0.1,0.0034880638122558594,0.0726931095123291,0.049798183,0.16718487,-947.8176836512454,-0.04334192860653422,-3.7266271389120402,0.0,800,0.0736081600189209,0.6251126954736999,0.625657375914449,70432,-240.2433663539125,0.0
96,2.7275338172912598,-928.2493051533169,570.6919235321195,-164.0603859607037,-1773.9322178108182,0.0,0.4816650027315804,0.1,0.0035495758056640625,0.07179617881774902,0.046993926,0.18996808,-945.8608458014526,0.07306460723529717,-4.642122950124199,0.0,790,0.07382488250732422,0.3845897902610291,0.36745633326060806,71222,-2048.3338407771876,0.0
97,2.7551355361938477,-493.7496826051973,420.0013212445018,-160.94056520722907,-1205.3378915031738,0.0,0.4546897920322934,0.1,0.003674745559692383,0.07306766510009766,0.051707886,0.1786521,-900.6497294818271,0.022029287289698454,-2.564369911216446,0.0,800,0.07423758506774902,0.8611702305503082,0.8423413121626433,72022,-4167.471250773577,0.0
98,2.978059768676758,-182.1156492587002,84.42141972001446,-128.26483976946207,-327.9558971235633,0.0,0.4026759996505052,0.1,0.003705739974975586,0.07025146484375,0.050086666,0.20531818,-828.7963214595144,0.06991323453520751,-1.0373750967079063,0.0,800,0.07900023460388184,28.41620808111509,18.690914434466,72822,-403.66962353050195,0.0
99,2.6643505096435547,-227.29178199803818,48.69247327845881,-172.2902544557565,-279.852123753338,0.0,0.42824297501701997,0.1,0.003584623336791992,0.07558441162109375,0.049844507,0.23976319,-768.6458675133669,-0.2639732062447836,-1.260865002816518,0.0,800,0.0785067081451416,9.574196783364645,5.288310235678048,73622,-1402.0833160200993,0.0
100,2.556494951248169,-912.6036549555489,888.2732416394555,-168.76005219216026,-2386.7818355298464,0.0,0.48681989352075405,0.1,0.0034296512603759766,0.0691993236541748,0.049218886,0.17498042,-783.0416462575851,0.0568294772282961,-4.594763682284191,0.0,772,0.0724794864654541,0.6654588859394153,0.6547058484881975,74394,-1100.1993171763722,0.0
101,2.727879524230957,-244.43067827113924,102.38211395712096,-136.1974056812724,-407.2331818922847,0.0,0.4361336529463914,0.1,0.003484487533569336,0.07109498977661133,0.050325643,0.20619734,-729.1805494589405,-0.11886622102156302,-1.3484522976693272,0.0,800,0.07325601577758789,8.00464894530232,6.716299082819556,75194,-4043.163434364129,0.0
102,2.6942150592803955,-280.3867192243551,65.07286032912796,-168.54935828346618,-329.47498190031183,0.0,0.4432808794969014,0.1,0.0034461021423339844,0.07326769828796387,0.0484555,0.24082656,-684.301166435482,-0.12618204234464542,-1.5276443103759032,0.0,800,0.07284069061279297,3.2583150871085578,2.152511249201811,75994,-5769.613309739972,0.0
103,2.653851270675659,-803.7748354312147,547.1567719156767,-297.6542778226011,-1646.3937451808833,0.0,0.4683310909955438,0.1,0.0035333633422851562,0.07046651840209961,0.051544446,0.18270634,-696.2485333350552,-0.03862744641488318,-4.082431540775377,0.0,800,0.07060837745666504,0.5985426640802488,0.5703671879157495,76794,-5760.684623466015,0.0
104,2.5676066875457764,-1138.5308602973564,732.6530279649459,-334.07535017526743,-1873.593276176429,0.0,0.44276196415020536,0.1,0.0034661293029785156,0.07220268249511719,0.050043505,0.19827922,-740.4767660312854,0.09374621764251577,-5.661140662265167,0.0,698,0.05921602249145508,0.6541150830559032,0.6058900317946759,77492,-5270.850075364,0.0
105,2.7133119106292725,-782.6674407137236,516.8728910192135,-249.47517966159097,-1359.4667326437623,0.0,0.48162216393781904,0.1,0.003378629684448242,0.07040524482727051,0.049163,0.19637716,-744.6958334995293,0.039621227378544926,-3.9771883101614245,0.0,800,0.07389307022094727,0.4813723898286124,0.4484764508272673,78292,-4378.600097869296,0.0
106,2.7478439807891846,-244.9406904296814,112.0409061425749,-130.57527034917692,-419.8893650898196,0.0,0.4470925464228859,0.1,0.003741741180419922,0.07268095016479492,0.049567003,0.23009571,-694.7203191925445,-0.2033015392308329,-1.350487868557347,0.0,800,0.0739748477935791,8.242524530335048,6.568047611723465,79092,-6367.386120330161,0.0
107,2.7542076110839844,-253.37298691947868,87.23470079436052,-177.87367070568584,-397.1984651606663,0.0,0.46368877679843906,0.1,0.0034189224243164062,0.07219552993774414,0.049600925,0.23085678,-650.585585965238,0.0608415561996452,-1.393178569788816,0.0,800,0.07105302810668945,2.9246011509500356,1.7887136371913819,79892,-6840.09129095628,0.0
108,2.7248878479003906,-338.93581581156775,232.31123002191435,-101.43680277810293,-678.6083210021908,0.0,0.42708426970621144,0.1,0.003490924835205078,0.07016444206237793,0.050227024,0.21726833,-619.420608949871,0.12658184937981962,-1.8207575050107319,0.0,800,0.07100129127502441,1.3086573475649246,0.947768708430191,80692,-6785.650068733586,0.0
109,2.7566640377044678,-657.6070362409482,532.3762316954286,-123.51616558332537,-1400.376186485165,0.0,0.4459359249202609,0.1,0.0034515857696533203,0.0732414722442627,0.04827607,0.19455853,-623.2392516789788,0.14791071245962714,-3.3522636745378946,0.0,800,0.08902311325073242,0.5232422270035779,0.4935247696696215,81492,-6521.095505691828,0.0
110,2.718327045440674,-822.802183788308,1041.5551440856964,-152.87562901612083,-2623.9697727815205,0.0,0.47925670142511895,0.1,0.003513336181640625,0.07234644889831543,0.050050613,0.16606978,-643.1955448899117,0.019456996503599545,-4.177276145490812,0.0,759,0.06658506393432617,0.8228729072724031,0.7943667665648463,82251,-1285.3543055331509,0.0
111,2.7138423919677734,-163.15655488429744,65.47690660282237,-110.33178604135352,-275.09734558360344,0.0,0.42787777611120165,0.1,0.003749847412109375,0.07468819618225098,0.05045024,0.24570747,-595.1916458893504,-0.01004903065002992,-0.9427974958035468,0.0,800,0.0744023323059082,10.066218100894949,8.734036524786973,83051,-200.28663478770378,0.0
112,2.749272108078003,-292.4195492456117,22.350412996023902,-266.00468379782154,-327.507780489934,0.0,0.37768514389968905,0.1,0.003559112548828125,0.07091641426086426,0.04999225,0.22818755,-564.9144362249765,-0.07757256812629998,-1.5880496020005932,0.0,800,0.07148504257202148,4.7887188889829275,3.177059806158551,83851,-2332.214068582557,0.0
113,2.776681900024414,-248.84368049075658,139.56933480096873,-114.02650293861183,-460.24272293370024,0.0,0.46038125267098223,0.1,0.003590106964111328,0.0738060474395752,0.051293753,0.21858406,-533.3073606515545,-0.0185635552516214,-1.3708543872600711,0.0,800,0.07339358329772949,2.4651421356890326,1.7580585152958608,84651,-171.2418797578572,0.0
114,2.744205951690674,-190.01863604937904,68.48140404816272,-117.92911342114755,-281.3964669988288,0.0,0.4302842675844066,0.1,0.003417491912841797,0.0710136890411377,0.04986331,0.25067338,-498.97848819133696,0.021644810783177006,-1.0773382965444835,0.0,800,0.07082486152648926,5.240348561352392,3.771493991905296,85451,-172.02559064700395,0.0
115,2.84417724609375,-256.2835269919566,112.64879390096493,-116.90586250000679,-431.4735830827442,0.0,0.4441764442321112,0.1,0.0035719871520996094,0.07680583000183105,0.04911517,0.2913744,-474.70899207139894,-0.09676871260202169,-1.4079669891725992,0.0,800,0.07260966300964355,0.8228844784450232,0.7724204186765657,86251,-179.64433517641461,0.0
116,2.7831954956054688,-193.43395698587534,81.50292213751747,-102.84123476668394,-282.55671510362856,0.0,0.4355627496422712,0.1,0.003508329391479492,0.07333612442016602,0.050277017,0.24398434,-446.5814885628466,-0.13181888729879937,-1.0936508454260667,0.0,800,0.07293272018432617,2.5106561962207157,2.088101231025113,87051,-175.79402456021913,0.0
117,2.7739593982696533,-184.94266427796452,43.21123156134949,-136.76891156764015,-245.7915034744936,0.0,0.44049031045546544,0.1,0.0036461353302001953,0.07336616516113281,0.050130285,0.26135254,-420.4176061343584,-0.03304621647237638,-1.0511456237552197,0.0,800,0.07262945175170898,2.1341113984479803,1.637490499740606,87851,-173.4422115997153,0.0
118,2.849738597869873,-318.92035580487277,118.02049113679358,-216.20915460179077,-519.5831949659175,0.0,0.45476297172596364,0.1,0.0034694671630859375,0.07274341583251953,0.050719094,0.22574113,-410.26788110140984,-0.005409296824039823,-1.7207607474347753,0.0,800,0.0729830265045166,0.513259612100845,0.49469920225469166,88651,-148.30455684653697,0.0
119,2.8353729248046875,-272.20628692549224,87.99959845984901,-163.44197137686692,-395.046063160642,0.0,0.4465182990492855,0.1,0.0035386085510253906,0.0732121467590332,0.050551314,0.22564459,-396.4617216838181,0.09050703081393788,-1.4575120854430788,0.0,800,0.07407641410827637,0.9096870292664715,0.8997845288295935,89451,-146.99989668708352,0.0
120,2.8591065406799316,-76.09321762127992,80.15637576381785,61.19305704251097,-140.8928863616373,0.0,0.4176902549343809,0.1,0.0034551620483398438,0.07334113121032715,0.047646824,0.29447457,-364.4248712775643,0.30464203600618583,-0.50954245803523,0.0,800,0.07236957550048828,5.372638581925084,4.424560471956021,90251,-146.56016995472217,0.0
121,2.754939079284668,-97.47585642218053,128.75356305474506,87.66368343383373,-274.02493645625043,0.0,0.4090211334397918,0.1,0.00370025634765625,0.07333827018737793,0.048965108,0.32524258,-337.72996979202594,0.35113343366001976,-0.6161845907748451,0.0,800,0.07630515098571777,1.9879804682861368,1.6265495902624587,91051,-125.9722505902035,0.0
122,2.8208200931549072,-162.5646873518403,79.43952348826384,-65.90895733000953,-286.18949717447117,0.0,0.3931906252394912,0.1,0.0037512779235839844,0.0731956958770752,0.04838911,0.3847068,-320.2134415480074,0.09819176645084034,-0.9399146076280683,0.0,800,0.07586050033569336,2.207281229274547,2.0346110011317884,91851,-137.65947395483042,0.0
123,2.846222400665283,-204.74308274143016,60.74490206358512,-113.73161161229272,-284.702218857632,0.0,0.39251936111937963,0.1,0.0035669803619384766,0.0709543228149414,0.04962134,0.36285847,-308.6664056673497,0.06002354538841995,-1.151284760174397,0.0,800,0.07470107078552246,1.5025909584655401,1.4182688695369992,92651,-141.79842463102352,0.0
124,2.764596700668335,-249.30866461495796,169.00410118794036,-94.04867494349531,-516.9820348986589,0.0,0.4703475839627821,0.1,0.003416299819946289,0.07034945487976074,0.05072348,0.19721061,-302.7306315621105,0.12110057012890113,-1.3740042693845926,0.0,800,0.07406091690063477,0.4779252580445742,0.4714194563810765,93451,-140.58467514478443,0.0
125,2.845268726348877,0.19172856648225434,135.45622019271963,154.3978245991905,-139.8293973440257,0.0,0.42372210749583605,0.1,0.003587484359741211,0.07362771034240723,0.04918437,0.31326407,-272.43839554925125,0.7048645312683508,-0.12980250858968184,0.0,800,0.07222819328308105,2.5394328071157526,2.3044583021040737,94251,-139.87865819973482,0.0
126,2.8687846660614014,-510.5068958834601,652.3903590345735,-100.39249931147103,-1639.896904046941,0.0,0.43910335339680423,0.1,0.0036525726318359375,0.0724334716796875,0.052364606,0.18169262,-296.24524558267217,0.1970597950406964,-2.6490753635424586,0.0,800,0.071136474609375,0.9854461813925663,0.8959631107672523,95051,-136.94088693977162,0.0
127,2.832484483718872,-152.08517789201775,71.92965165956059,-102.3657501504588,-276.0947555542892,0.0,0.4280280155753027,0.1,0.0036971569061279297,0.07641100883483887,0.048838854,0.27691483,-281.82923881360676,0.1129398923530877,-0.8879287557420348,0.0,800,0.07358908653259277,2.430903890453745,2.9798207300801485,95851,-135.22873931260622,0.0
128,2.891965866088867,-216.0447094975792,57.10406775767803,-142.9286799122219,-294.9697448154733,0.0,0.40766237888916296,0.1,0.003633260726928711,0.07241058349609375,0.05063472,0.30908033,-275.25078588200404,-0.14063357452625413,-1.207058404647292,0.0,800,0.0774843692779541,0.7971359311830857,0.7795441255857641,96651,-132.77768539060204,0.0
129,2.9024953842163086,-144.6565941287168,62.455974147934334,-96.7139038543644,-251.90278538279998,0.0,0.40496891207377333,0.1,0.0036773681640625,0.07394528388977051,0.049452644,0.35430148,-262.19136670667535,0.22271380280376524,-0.851155269230956,0.0,800,0.07390713691711426,3.652488219127877,3.1432841302248895,97451,-142.83970883024142,0.0
130,2.8832132816314697,-104.59366645709665,52.186051026091114,-16.059486553258285,-150.9568875212039,0.0,0.4298668748107498,0.1,0.0033380985260009766,0.07041287422180176,0.05017802,0.30478987,-246.4315966817175,0.3212934054412196,-0.6516705451575681,0.0,800,0.07134079933166504,3.642161522791458,3.329855235824144,98251,-134.27419205148502,0.0
131,2.877540111541748,-162.50954776071063,59.8499048668867,-110.99281110371976,-264.4872445232797,0.0,0.4049657254124133,0.1,0.003461122512817383,0.07401275634765625,0.051076964,0.33961937,-238.03939178961684,0.0785115997935343,-0.9397169919074819,0.0,800,0.0731816291809082,2.0104044438975563,1.9328815375033017,99051,-141.60991091624967,0.0
132,3.4304206371307373,-120.06494986128615,29.26325349277247,-83.86526191830988,-152.89686894264366,0.0,0.4289642362008196,0.1,0.0034940242767333984,0.0720224380493164,0.050893497,0.32393703,-226.24194759678377,0.1570009599383107,-0.7287079942917183,0.0,800,0.07285213470458984,3.509785161943423,3.381759632455878,99851,-128.9199203978607,0.0
133,2.8413565158843994,-158.12324305971083,39.770304724914155,-119.34128308427012,-224.27449065815833,0.0,0.4121435412547657,0.1,0.0036377906799316406,0.0731966495513916,0.049824376,0.3364445,-219.4300771430765,0.04719289301250858,-0.9180052248883797,0.0,800,0.07338905334472656,1.8990459840388239,1.785089507253349,100651,-134.348556585519,0.0
134,2.859468460083008,-139.32018060589715,37.936654936515495,-105.55837699883409,-202.7274783489354,0.0,0.41759831098914596,0.1,0.0035560131072998047,0.07070279121398926,0.051118985,0.33433515,-211.41908748935856,0.14438332709253907,-0.824869075783424,0.0,800,0.07223272323608398,2.1306363628293017,2.081256103951084,101451,-131.58554288020676,0.0
135,2.9381444454193115,-198.26825182302815,180.66957764071827,81.32212736069513,-423.35929286602754,0.0,0.3720604997978694,0.1,0.0035867691040039062,0.07187128067016602,0.051057123,0.32671767,-210.10400392272552,0.22959074485025843,-1.1199527173476302,0.0,800,0.07330036163330078,0.8446206484548934,0.8112153537965319,102251,-119.71172923052579,0.0
136,2.9151346683502197,-184.250577027847,74.33577745148305,-89.52188176099075,-278.7092308742394,0.0,0.3838367504122751,0.1,0.0036749839782714844,0.0817420482635498,0.049546417,0.33671963,-207.51866123323768,0.17503997115871256,-1.0491053683455223,0.0,800,0.0749979019165039,1.3882508801663451,1.3631902819743964,103051,-105.91740173201002,0.0
137,2.9571282863616943,-196.35309308973387,66.61240767615718,-97.02933039172987,-282.45412701303167,0.0,0.45364152277133396,0.1,0.003690481185913086,0.07347965240478516,0.049305815,0.26987907,-206.4021044188873,0.13013708319760764,-1.1096321636775637,0.0,800,0.07422542572021484,1.095155289493836,1.0348337050682204,103851,-95.35649653359144,0.0
138,2.98565411567688,-74.02172865632566,139.499920110826,151.05412739170475,-225.07872181321775,0.0,0.41879647986466356,0.1,0.0035092830657958984,0.07095217704772949,0.04972059,0.30345875,-193.16406684263114,0.45839049174236446,-0.49942193169338883,0.0,800,0.07233047485351562,1.7216945238133898,1.6995173958902878,104651,-74.88667245599227,0.0
139,2.9381065368652344,-139.86822908651914,31.781756097064797,-96.87431439203029,-186.59475704249832,0.0,0.3870066823276004,0.1,0.0035295486450195312,0.07046627998352051,0.050245713,0.32568225,-187.83448306701993,0.06282969269133029,-0.8265497573796314,0.0,800,0.07211542129516602,1.6703041134851064,1.6389932571614687,105451,-121.8491767999126,0.0
140,2.9368717670440674,-150.85664381952228,60.07160235020609,-92.0068626794213,-250.57837958922326,0.0,0.4071722056514878,0.1,0.003427267074584961,0.07015371322631836,0.05010899,0.32597053,-184.13669914227017,0.09569153330952944,-0.8816170106350285,0.0,800,0.07254457473754883,1.400701707175674,1.3347795466282697,106251,-120.22298639181248,0.0
141,2.964160680770874,-160.01337154724897,32.166796349398474,-110.76439773321117,-200.95456351051584,0.0,0.4226136756559603,0.1,0.003594636917114258,0.07008528709411621,0.04914684,0.3066541,-181.72436638276807,0.11890721323631699,-0.9280205686632783,0.0,800,0.07168364524841309,1.3345364053408661,1.2692766145353558,107051,-136.80210458216771,0.0
142,2.9665887355804443,-232.7276359180081,87.20259888318719,-112.01650577487747,-331.4780852309371,0.0,0.40111535410102395,0.1,0.0035202503204345703,0.07408666610717773,0.050459523,0.28265643,-186.82469333629209,0.03775761635710147,-1.2904808617123467,0.0,800,0.07149410247802734,0.5898747032946037,0.54022123958182,107851,-117.8120790398355,0.0
143,3.2659692764282227,-180.8664123015506,72.00300419146626,-94.70095926209449,-294.03906108910274,0.0,0.4191732446245171,0.1,0.0035173892974853516,0.06966376304626465,0.051488172,0.3033993,-186.22886523281795,0.06711637755966839,-1.0323436492754032,0.0,800,0.07163047790527344,0.8070744569907097,0.7397385860968888,108651,-154.52715628402015,0.0
144,2.906114101409912,-139.41136128283142,47.68718517482734,-65.35901712370192,-196.82273679022285,0.0,0.4119388311874073,0.1,0.0036530494689941406,0.0754544734954834,0.050337363,0.369182,-181.54711483781932,0.12993015108003625,-0.824845195617488,0.0,800,0.07280564308166504,1.5067837025594724,1.4101111694209623,109451,-803.3792196026138,0.0
145,2.970085859298706,-168.33156664039808,82.09565939192365,-89.01103216670256,-300.66203893321943,0.0,0.3829793623638803,0.1,0.0035953521728515625,0.0732569694519043,0.049772616,0.4148126,-180.2255600180772,0.0621071967508169,-0.9692937599433572,0.0,800,0.07301902770996094,0.6731764571364811,0.6563691963591904,110251,-159.43443959842003,0.0
146,2.9402546882629395,-71.5243694040285,79.62283976674517,65.6007277020658,-127.1820918175675,0.0,0.4100966201338464,0.1,0.0036411285400390625,0.07461428642272949,0.049267832,0.34506634,-169.35544095667234,0.3317934491403325,-0.48643144074515776,0.0,800,0.07393550872802734,2.2933570652481077,2.1326289891644676,111051,-164.9323187435625,0.0
147,2.966742515563965,-139.844670081534,38.948284568059684,-105.34560773413952,-205.96509158247423,0.0,0.4040951878893693,0.1,0.0035593509674072266,0.07060027122497559,0.0494401,0.35637438,-166.4043638691585,0.1209551173128155,-0.8268514936980703,0.0,800,0.07270526885986328,1.1421176662306838,1.0736606519282204,111851,-136.76063852064777,0.0
148,2.955784797668457,-131.55750889186572,32.44683063791201,-110.35947689216749,-187.65882902302906,0.0,0.43114652503933704,0.1,0.003375530242919922,0.07150554656982422,0.04997323,0.2904971,-162.91967837142923,0.1748802011845361,-0.7856702242484387,0.0,800,0.07137346267700195,1.2119257846113276,1.1604004147012272,112651,-159.40043425864803,0.0
149,2.962493419647217,-145.16954595147013,46.384190800321576,-109.41314839779092,-224.09750412461602,0.0,0.3776799900000398,0.1,0.003510713577270508,0.07501530647277832,0.050331775,0.34977683,-161.14466512943332,0.1347198100059288,-0.8536577077653773,0.0,800,0.07336044311523438,0.7899268071472396,0.7499223732556219,113451,-164.5784931807111,0.0
150,2.9874446392059326,-118.49565257549793,142.7379761015709,128.37432495099975,-212.85435625627832,0.0,0.43543017198906664,0.1,0.0034704208374023438,0.07557964324951172,0.050661426,0.3073958,-156.87976387403978,0.38988858428322537,-0.7218001811949729,0.0,800,0.07174468040466309,1.0290850784455774,0.9966175657785398,114251,-171.37094950931294,0.0
151,2.9227614402770996,-154.0214498094843,56.94186584725544,-92.36455386350276,-244.773009165689,0.0,0.4086842857373442,0.1,0.003491640090942383,0.0722658634185791,0.049333323,0.38515747,-156.59393246758424,0.1735751533526911,-0.8981937516728449,0.0,800,0.07611203193664551,0.9826219682694416,0.93877671574676,115051,-120.8551090479662,0.0
152,2.861651659011841,-108.54419343315442,14.99351262120072,-92.8603217669844,-126.45171136104894,0.0,0.4370682773851771,0.1,0.0035295486450195312,0.07417535781860352,0.04972044,0.30415395,-151.78895856414127,0.2078344848192628,-0.670677772465452,0.0,800,0.07186460494995117,3.0657666400278187,2.4820030887333395,115851,-124.53461215208806,0.0
153,2.9440393447875977,-143.6661227480991,78.25441030557992,-78.12028262018333,-277.31667557833896,0.0,0.3574397614917774,0.1,0.0033195018768310547,0.07025527954101562,0.050451346,0.28699464,-150.97667498253705,0.1599254323668959,-0.8466433645016853,0.0,800,0.07144498825073242,1.1635511576761068,1.1025315412856853,116651,-120.32850007823401,0.0
154,2.956651449203491,-105.06737668792863,44.66410749601417,-72.11726122016691,-181.71541843471996,0.0,0.3987367453735713,0.1,0.003523111343383789,0.07220959663391113,0.049921617,0.36138952,-146.3857451530762,0.18680734773246815,-0.6535393023057378,0.0,800,0.0729222297668457,1.7995119889559434,1.6162787773302973,117451,-124.7218119300846,0.0
155,3.1222848892211914,-45.269017424302476,102.56948423353154,129.5543754618932,-132.86384246606002,0.0,0.3997221030705385,0.1,0.0034952163696289062,0.06991386413574219,0.050185066,0.37601635,-136.27407238019882,0.4124486310138525,-0.3563293111923962,0.0,800,0.07279658317565918,1.4012828036669096,1.3679863657636389,118251,-120.13487699176947,0.0
156,2.946601390838623,-110.13564139990167,4.045361812016708,-103.6536967408134,-114.6180083704815,0.0,0.40783016642947195,0.1,0.0035772323608398438,0.07703733444213867,0.049025156,0.41539645,-133.6602292821691,0.10157048145441681,-0.6783912885936366,0.0,800,0.07260870933532715,1.3694367311382714,1.1706277385822124,119051,-162.0637800561818,0.0
157,2.9592463970184326,-72.713969623897,97.84867148629397,92.95880125808331,-145.92447485784368,0.0,0.43227508709935025,0.1,0.0035314559936523438,0.07055234909057617,0.048606668,0.30148143,-127.56560331634189,0.4329545380092376,-0.4933330174445799,0.0,800,0.07240653038024902,1.3034331396441794,1.2746795058565525,119851,-271.5255328973982,0.0
158,2.941722869873047,-123.10140385175595,16.811839658544443,-97.9531213165422,-144.08401792578465,0.0,0.4096232262954151,0.1,0.003545522689819336,0.0707252025604248,0.05043502,0.3473895,-127.1191833698833,0.16702937474640284,-0.7435223132781605,0.0,800,0.07375717163085938,1.3962715151804939,1.326588502804987,120651,-181.33127138760008,0.0
159,2.9185287952423096,-47.544136143002774,111.64141153310818,144.99311203020426,-121.13437336846549,0.0,0.4248528588110635,0.1,0.003508329391479492,0.07085013389587402,0.050244138,0.30707753,-119.16167864719525,0.4252225635906614,-0.36730456082900625,0.0,800,0.07210731506347656,1.2883607754192707,1.2465004847813217,121451,-3430.765826534566,0.0
160,3.0075643062591553,-52.00063936660694,107.393044955662,133.52206591746554,-120.57971997685388,0.0,0.41311023916075257,0.1,0.0036973953247070312,0.07134509086608887,0.049997903,0.31251803,-112.44557471913642,0.3962550435854464,-0.3893783620197745,0.0,800,0.0725412368774414,1.1747283556380788,1.1361101710934252,122251,-651.4597611408329,0.0
161,3.0102803707122803,-67.89451862289704,119.40375841281517,123.42177026821528,-203.94417199471184,0.0,0.41488911390290956,0.1,0.0036978721618652344,0.07108807563781738,0.049364578,0.28906804,-107.99046910951249,0.3872032402819673,-0.46918852830108443,0.0,800,0.08038735389709473,1.2531745966067487,1.2155404670143275,123051,-190.2229443585237,0.0
162,2.963453531265259,-118.99382584605152,44.86786057034368,-78.8426788128433,-192.707557766422,0.0,0.41219537697311703,0.1,0.0034494400024414062,0.07065796852111816,0.050142046,0.3460387,-109.09080478316639,0.17825218415538338,-0.7232218827853566,0.0,800,0.07231473922729492,1.3834061849748862,1.2407343657316983,123851,-752.7784857206207,0.0
163,2.979018211364746,-75.38699354787644,130.12780853839567,142.19532312634988,-202.98753948096578,0.0,0.4394460504477312,0.1,0.003582477569580078,0.08119535446166992,0.05039384,0.29119775,-105.72042365963739,0.388440150545886,-0.5061516127941248,0.0,800,0.0747067928314209,1.1803711015276317,1.1576404381088379,124651,-1299.6976993463816,0.0
164,3.0486483573913574,-131.36131017460008,35.98273346378601,-107.56053933352251,-193.58000435736065,0.0,0.3881826792987006,0.1,0.003391742706298828,0.07156181335449219,0.051600095,0.37847817,-108.28451231113365,0.10668573084022902,-0.7845795722924649,0.0,800,0.07433462142944336,0.7542982907817867,0.5602155308874638,125451,-5698.6643281353945,0.0
165,2.967109441757202,-57.352835815467415,102.51528873283051,117.85769134459159,-138.09767529623997,0.0,0.4117545218973238,0.1,0.004086971282958984,0.07364535331726074,0.050914865,0.3719006,-103.19134466156703,0.36483309708894507,-0.41595843993054227,0.0,800,0.0737161636352539,0.8789543200477613,0.8676755987134241,126251,-172.78124104545952,0.0
166,3.041292190551758,-143.15546399857575,32.909043965899734,-110.25270112220487,-181.01715311477588,0.0,0.4342877438879351,0.1,0.0036864280700683594,0.0731666088104248,0.049433857,0.3024571,-107.18775659526791,0.1491722788111931,-0.843187913854019,0.0,800,0.07276272773742676,0.4282522419272598,0.3711788769793095,127051,-157.06701506800906,0.0
167,3.058509588241577,-132.14952754436268,58.54322791402294,-90.1714514075877,-232.89712416240275,0.0,0.39490207383976783,0.1,0.003514528274536133,0.07328128814697266,0.050527178,0.3024609,-109.6839336901774,0.06737533424365703,-0.7878803442555106,0.0,800,0.07299971580505371,0.4412725377802756,0.4307078659322021,127851,-139.0120174732923,0.0
168,3.185781240463257,-109.49674274516937,21.600692346858235,-90.54677523621854,-144.62748700072638,0.0,0.4024268657854079,0.1,0.0036170482635498047,0.0718069076538086,0.048537005,0.38867846,-109.6652145956766,0.15945001258634095,-0.6756675998326223,0.0,800,0.07263708114624023,0.478461393932536,0.46303832326510624,128651,-139.02688183631952,0.0
169,2.944422960281372,-115.88926700924065,6.838419398204654,-106.24458948911364,-124.4499241626862,0.0,0.4020383717135185,0.1,0.003545045852661133,0.07104349136352539,0.049179737,0.34477586,-110.287619837033,0.15282830344834825,-0.7068968546026161,0.0,800,0.0713343620300293,0.4433734053804425,0.41416288263217693,129451,-2436.94823988666,0.0
170,2.9329328536987305,-125.25645466553044,29.621778034608404,-97.22404075439246,-174.79797367901796,0.0,0.3779590534272459,0.1,0.0035810470581054688,0.0713038444519043,0.04890666,0.39110255,-111.78450331988275,0.024783247807298264,-0.7541230898295453,0.0,800,0.07180118560791016,0.42411631762046537,0.4057712755084467,130251,-169.4196726703369,0.0
171,3.0353715419769287,-158.63258948028508,87.68695611036482,-91.54184075223992,-308.4920666814428,0.0,0.3769270162494302,0.1,0.0035080909729003906,0.07602286338806152,0.048941985,0.39697784,-116.46931193592297,0.11029090446037448,-0.9208553657474374,0.0,800,0.0729215145111084,0.40998522948955224,0.3646277883428968,131051,-3591.5604654355725,0.0
172,3.0619008541107178,-82.65627273322731,145.7867934618633,154.17694303288977,-244.16584894147834,0.0,0.4147136989041275,0.1,0.006497621536254883,0.07060813903808594,0.04933921,0.31691334,-113.08800801565341,0.4467435410057626,-0.542185647998661,0.0,800,0.07147407531738281,0.8280846903221994,0.8195771653460563,131851,-2096.4398565362776,0.0
173,3.0619115829467773,-127.02098567540261,17.99175992173396,-103.47547372190299,-154.01817032080135,0.0,0.38363025970159426,0.1,0.0035457611083984375,0.07637715339660645,0.048205942,0.328451,-114.48130578162834,0.1374488331832528,-0.7626855316652821,0.0,800,0.0733339786529541,0.2997944105555067,0.28970467278907486,132651,-139.01286317121898,0.0
174,3.0709621906280518,-105.54665699374797,11.041474801338225,-90.10647016709795,-120.5154646286229,0.0,0.40121975573302604,0.1,0.0033783912658691406,0.07193279266357422,0.048926935,0.37840065,-113.5878409028403,0.18060902763819547,-0.655500695678866,0.0,800,0.07128095626831055,0.35844370585737956,0.34858123520055284,133451,-121.0160064064746,0.0
175,3.088909149169922,-98.76733329906472,18.33102584355019,-79.41660079502503,-126.44776483483864,0.0,0.40899915124251784,0.1,0.0035474300384521484,0.0730125904083252,0.04997489,0.35195088,-112.10579014246274,0.17797953275845363,-0.6220477536699878,0.0,800,0.0731041431427002,0.5278612920133484,0.5130727272435776,134251,-129.0738715860491,0.0
176,3.041898727416992,-125.68054353508728,25.410298092892553,-87.21472208580612,-158.13098816436334,0.0,0.39698778146499747,0.1,0.0033724308013916016,0.07114410400390625,0.04882089,0.4267894,-113.46326548172519,0.15637491247308805,-0.7560282029897095,0.0,800,0.07210016250610352,0.47059541180481324,0.4522784771944858,135051,-132.36657887943522,0.0
177,3.0612552165985107,-146.25018887919563,56.1999489714188,-77.89986489870148,-234.07698412878491,0.0,0.4260559895024858,0.1,0.003526449203491211,0.07012200355529785,0.049897846,0.31972107,-116.74195782147224,-0.0008939939295549149,-0.8583217020286953,0.0,800,0.07389473915100098,0.18494374883841128,0.17745384202807135,135851,-140.24774415012243,0.0
178,3.100512742996216,-137.27604179392472,50.737204450819426,-76.56801206214541,-212.92725001725702,0.0,0.404439613618134,0.1,0.0034439563751220703,0.07122063636779785,0.0491512,0.3184704,-118.79536621871749,0.10987961775248108,-0.8143369111978536,0.0,800,0.07217645645141602,0.39166454158270125,0.3518007756589484,136651,-120.55818614256077,0.0
179,3.0639474391937256,-132.1824625642115,25.647049924734787,-112.88454904762997,-175.80588289773704,0.0,0.40590398298413877,0.1,0.0036618709564208984,0.07328629493713379,0.04871644,0.4887855,-120.13407585326689,0.2103465159821163,-0.788622517065722,0.0,800,0.07286739349365234,0.22266563685973043,0.2093112332857488,137451,-112.26014795344675,0.0
180,3.1229946613311768,-113.63399280523842,36.75031170448971,-74.81127150922894,-163.20817022724268,0.0,0.4253086179623451,0.1,0.003493785858154297,0.07714104652404785,0.048027605,0.31651366,-119.48406754846405,0.1638784331179287,-0.6962851250912534,0.0,800,0.07333946228027344,0.6270326474844357,0.5787562479820426,138251,-119.85241625650666,0.0
181,3.0958328247070312,-113.86578397350007,4.956466201916813,-109.17109999920149,-122.20637961968842,0.0,0.38351979228340527,0.1,0.003948688507080078,0.07521390914916992,0.04962931,0.3645789,-118.92223919096766,0.16421872029155443,-0.6972461693934966,0.0,800,0.07480287551879883,0.29189574059840306,0.27524214507485223,139051,-88.46876362339405,0.0
182,3.165893316268921,-106.00114007016654,30.263456608911977,-65.93145946485204,-149.84018561146817,0.0,0.3925660316630182,0.1,0.003360748291015625,0.07138657569885254,0.049454637,0.32012752,-117.63012927888755,0.19405086718837147,-0.6582437092157769,0.0,800,0.07400059700012207,0.3416307594702427,0.32564981618735744,139851,-138.52782923036122,0.0
183,3.06455659866333,-123.15403833318001,14.168409039168194,-106.04310046536148,-144.75729440608023,0.0,0.38009718528321845,0.1,0.003438234329223633,0.07392406463623047,0.04916188,0.30954313,-118.1825201843168,0.21702798110235377,-0.7444402847029239,0.0,800,0.07676815986633301,0.2667203704621606,0.2323771232663476,140651,-138.44638186891095,0.0
184,3.0458974838256836,-104.23235437560824,29.5736056108286,-72.41133780685585,-150.35375542205617,0.0,0.4243072395737255,0.1,0.003582000732421875,0.07429146766662598,0.04963754,0.29644164,-116.78750360344594,0.20216957277874553,-0.6498666323494907,0.0,800,0.07306385040283203,0.542230361687063,0.5123646344697365,141451,-140.4626579066141,0.0
185,3.0847890377044678,-105.07499245193804,22.01972639822183,-76.70842481093581,-137.71109632085225,0.0,0.36551565756361454,0.1,0.003590822219848633,0.07299017906188965,0.050413523,0.5640306,-115.61625248829515,0.19232665995473824,-0.6531324393079408,0.0,800,0.07285594940185547,0.42883729879467297,0.36988270106474336,142251,-134.87990799210067,0.0
186,3.1046066284179688,-127.88293875202535,33.73768953511141,-100.59175891095653,-185.1405384378517,0.0,0.4012580464930394,0.1,0.00525975227355957,0.07051515579223633,0.049347028,0.33286956,-116.84292111466817,0.1490888903115123,-0.7675309152809708,0.0,800,0.07180523872375488,0.2529943266564522,0.22555285242795695,143051,-129.13568314871802,0.0
187,3.111102819442749,-112.82074787139135,12.75182596418139,-94.87736905026075,-128.62018763530344,0.0,0.43703844605041314,0.1,0.0033981800079345703,0.07336020469665527,0.049895562,0.30054528,-116.44070379034049,0.1419522953299692,-0.692136067903794,0.0,800,0.07309722900390625,0.3359602088062195,0.324353739156858,143851,-135.05478102735458,0.0
188,3.0531582832336426,-210.40964661698888,210.13358026900787,-87.66099986565474,-574.3679036221378,0.0,0.39215748649449383,0.1,0.0034630298614501953,0.0702664852142334,0.049750578,0.16432163,-125.83759807300534,0.16428404344881362,-1.1803211856194373,0.0,800,0.07569575309753418,0.6056587557865147,0.5765799529656461,144651,-93.68974487167593,0.0
189,3.0580406188964844,-75.01330650171778,112.7929057635356,109.13315549002935,-195.50434101467607,0.0,0.44934580809270597,0.1,0.0035071372985839844,0.07079744338989258,0.047743723,0.27706823,-120.75516891587658,0.37313455952821334,-0.5043326163777841,0.0,800,0.07193732261657715,0.8551748063416468,0.8085770114944137,145451,-145.98991615210664,0.0
190,3.0613856315612793,-112.23343325532989,23.70515105026145,-81.28705500762615,-147.9876701146567,0.0,0.3714063500656693,0.1,0.003515005111694336,0.07046842575073242,0.050517134,0.37192085,-119.90299534982192,0.10839366205419754,-0.6890860827750955,0.0,800,0.07201981544494629,0.3222535208821847,0.2969334637551735,146251,-141.90314557128343,0.0
191,3.1210169792175293,-108.87586061143662,26.729910277859638,-72.05539324558421,-139.7827381787425,0.0,0.45890985131230466,0.1,0.0035898685455322266,0.07277321815490723,0.04909834,0.25827596,-118.8002818759834,0.14687392740854605,-0.6720952697938846,0.0,800,0.07612466812133789,0.3594078645928177,0.3335144062740593,147051,-141.8637110056893,0.0
192,3.1656763553619385,-113.51676651661346,31.31567641328247,-85.86061062882919,-164.86993489110716,0.0,0.41533647394009693,0.1,0.0034761428833007812,0.0721735954284668,0.049639367,0.35151255,-118.27193034004641,0.15886367045709032,-0.6957210345117573,0.0,800,0.07491731643676758,0.265740904686676,0.2574204813385392,147851,-130.80095206920518,0.0
193,3.1392722129821777,-171.13126249979504,113.42857811675681,-94.50520855148767,-367.14968383939436,0.0,0.4727382443404913,0.1,0.003543853759765625,0.07295083999633789,0.049369864,0.16999635,-123.55786355602127,0.15507806130489643,-0.9830823419427671,0.0,800,0.07366228103637695,0.4417790622763369,0.4246649378516985,148651,-128.2933197300389,0.0
194,3.143314838409424,-104.79734496395874,18.188342603395007,-81.13305753671848,-125.87421544082699,0.0,0.48823700036687184,0.1,0.003475189208984375,0.07291293144226074,0.04971318,0.2219762,-121.68181169681503,0.17574318491213226,-0.6515794334049543,0.0,800,0.07309627532958984,0.6635623561503634,0.36609434641358196,149451,-123.36736825116611,0.0
195,3.1721105575561523,-115.49100839899957,27.484434784511976,-84.43544870099856,-159.81973521429123,0.0,0.44695911472642996,0.1,0.0034189224243164062,0.0750279426574707,0.05037534,0.26780146,-121.06273136703348,0.20176493016464148,-0.7053313005297255,0.0,800,0.07275056838989258,0.22842328430182193,0.23698020508001677,150251,-117.26483201591549,0.0
196,3.0630030632019043,-83.70460860356332,23.021529703892934,-62.663909746176394,-121.23506729714143,0.0,0.39893816871476623,0.1,0.003551483154296875,0.07245707511901855,0.05064481,0.34529486,-117.32691909068646,0.20393728751683715,-0.5473636916062871,0.0,800,0.07339930534362793,0.6359302948548492,0.6036144595602823,151051,-127.55656539139757,0.0
197,3.178280830383301,-97.07870473220021,11.13660690533829,-84.4587126817215,-110.24307492789124,0.0,0.4084720707502366,0.1,0.0035610198974609375,0.07272458076477051,0.050236747,0.3664941,-115.30209765483784,0.19834361493846503,-0.6133895930395663,0.0,800,0.07558727264404297,0.35612324369104864,0.3066201200988004,151851,-125.5519492452122,0.0
198,3.1248788833618164,-96.00189690470458,21.833327197000173,-71.74625005256642,-124.99140907433807,0.0,0.4763301446805058,0.1,0.0035135746002197266,0.07007169723510742,0.048976086,0.26468953,-113.37207757982452,0.19607857656563266,-0.608718648327497,0.0,800,0.07274127006530762,0.39434178195342934,0.36623727849717613,152651,-127.98365347152749,0.0
199,3.1289687156677246,-155.55503215598662,87.15303989343758,-65.92624537807464,-255.19038015463536,0.0,0.45663340629533977,0.1,0.0034694671630859375,0.07238507270812988,0.0506937,0.17306763,-117.59037303744073,0.3892940734583676,-0.9069097013739121,0.0,800,0.07595014572143555,0.620014017352956,0.5866694720349125,153451,-127.73243726103,0.0
200,3.0741207599639893,-113.71940459192855,17.992518035361687,-94.23490754348667,-138.84576986097488,0.0,0.41892431424827636,0.1,0.0034673213958740234,0.0704493522644043,0.049302835,0.34280345,-117.20327619288952,0.16069534303239635,-0.6964255987570969,0.0,800,0.07749223709106445,0.1889421255870161,0.1881699546034471,154251,-114.27783739740717,0.0
201,3.1743106842041016,-73.80120322654433,8.532533556239938,-63.064448862609034,-86.75932898390143,0.0,0.43407528143388235,0.1,0.0035398006439208984,0.0754852294921875,0.051323272,0.32464215,-112.863068896255,0.19568170483946354,-0.49782205695782844,0.0,800,0.07487988471984863,1.4497750887566774,1.0522948483645147,155051,-104.29920910809584,0.0
202,3.1188180446624756,-114.31504096340569,13.042564283583621,-95.10123833106533,-131.92086233808638,0.0,0.41148542512743874,0.1,0.0035212039947509766,0.07214999198913574,0.051529597,0.33683673,-113.00826610297008,0.18387442031901025,-0.6996111509511846,0.0,800,0.07683682441711426,0.1605079617692756,0.15835918703595728,155851,-112.97851206893944,0.0
203,3.132215976715088,-57.30923882981506,80.21068373859164,79.13519787150534,-120.425878859508,0.0,0.4676324411770859,0.1,0.0036325454711914062,0.07240509986877441,0.050796304,0.2636364,-107.43836337565457,0.4514119364416136,-0.41610176891225403,0.0,800,0.07366943359375,0.9520645487904924,0.8942291333138717,156651,-116.40342941303213,0.0
204,3.115933895111084,-53.99597433628949,118.78405610766578,131.50388800155193,-196.47257904172648,0.0,0.4627391840936331,0.1,0.0034401416778564453,0.07071304321289062,0.049548265,0.262874,-102.09412447171808,0.3633247150819624,-0.3985482201572209,0.0,800,0.07203006744384766,0.5622551130678384,0.5263257154292553,157451,-114.16958524261139,0.0
205,3.0835163593292236,-36.67250335077351,96.13256945509575,127.08360654805522,-114.10705106985243,0.0,0.43981901124968165,0.1,0.0035567283630371094,0.07246160507202148,0.049220107,0.36451516,-95.55196235962363,0.47239358959103656,-0.31358159233857535,0.0,800,0.07689809799194336,0.7869102211645818,0.7613390335654137,158251,-109.23575284227176,0.0
206,3.1340441703796387,-49.892191697292674,104.07892728264349,127.86890779233622,-137.39654932303168,0.0,0.4553574924393929,0.1,0.003409147262573242,0.07056546211242676,0.050077815,0.2953818,-90.98598529339054,0.43219442443804856,-0.3793442704998261,0.0,800,0.07340621948242188,0.6127853281831332,0.5936094566829527,159051,-105.15839840824242,0.0
207,3.1172375679016113,-132.5242758134383,87.72770678952342,-56.79288628083805,-279.09488052703347,0.0,0.30811699001354237,0.1,0.003580808639526367,0.07032918930053711,0.049052075,0.15044814,-95.13981434539531,0.24747377654198166,-0.7914243555835637,0.0,800,0.07297158241271973,0.7896045469387477,0.5002822890541939,159851,-112.47308753859848,0.0
208,3.2022125720977783,-102.72132444096198,55.59720971778763,-59.19042500506321,-198.12951766062716,0.0,0.44796538709768896,0.1,0.003500699996948242,0.07216596603393555,0.049651384,0.26672015,-95.89796535495198,0.09371963002517444,-0.6411868519272084,0.0,800,0.07692837715148926,0.2282766214174932,0.21858496897328641,160651,-104.90725361540386,0.0
209,3.137550115585327,-91.07327879514939,10.767306087670711,-74.80733445780339,-103.0594025390357,0.0,0.4352865803100626,0.1,0.003410816192626953,0.07722735404968262,0.049908295,0.2794204,-95.41549669897172,0.22322466007771605,-0.5837112421316134,0.0,800,0.0737161636352539,0.3227354619079572,0.30951402073621637,161451,-98.92379354664801,0.0
210,3.1641783714294434,-98.47041357319597,1.9276611834174269,-96.42083859038046,-101.61112255606912,0.0,0.4120287751384516,0.1,0.003461122512817383,0.07475137710571289,0.047894567,0.29965955,-95.72098838639415,0.19560931395052222,-0.620690355186076,0.0,800,0.07250046730041504,0.15752446145409055,0.14539520781650994,162251,-99.45498135117585,0.0
211,3.1414151191711426,-121.10289606539163,52.7265977888734,-80.2948675944224,-210.09628127367273,0.0,0.393599267386899,0.1,0.0035924911499023438,0.07045960426330566,0.049720004,0.22722465,-98.2591791542939,0.17220008324644462,-0.7332028992695812,0.0,800,0.07288026809692383,0.3184518161323226,0.287744128005648,163051,-110.27701181235824,0.0
212,3.2060627937316895,-79.30282557718103,143.96294697896244,129.09378198702493,-273.9803384977549,0.0,0.4102065491215193,0.1,0.0034973621368408203,0.07423853874206543,0.048832234,0.18967412,-96.36354379658262,0.43994567657872274,-0.5263054342048215,0.0,800,0.07313251495361328,0.7619741908205744,0.6534487240802413,163851,-105.11558035280545,0.0
213,3.2287402153015137,-99.73629415072737,3.929098470379085,-93.44423484200608,-103.40192963389785,0.0,0.4322789147617143,0.1,0.003368854522705078,0.07338142395019531,0.049140573,0.26357636,-96.7008188319971,0.21236655065015317,-0.627226753084671,0.0,800,0.07307958602905273,0.20983811680047082,0.2088651514077172,164651,-111.12583846773532,0.0
214,3.1396522521972656,-134.12262676935205,85.29393810942564,-64.73721003674004,-278.67060292102343,0.0,0.5213246666855946,0.1,0.003520488739013672,0.07097339630126953,0.049168184,0.15009,-100.4429996257326,0.21541917354897466,-0.798830069876832,0.0,800,0.07675027847290039,0.5628765672817411,0.42284059395486956,165451,-103.9917268336538,0.0
215,3.1515493392944336,-82.659325805197,34.38676456470728,-47.492219009040625,-139.17737411931566,0.0,0.43690608257216984,0.1,0.003496408462524414,0.07050228118896484,0.050170034,0.23950997,-98.66463224367904,0.27310678021618623,-0.5427179347467985,0.0,800,0.07338213920593262,1.5486466160301648,1.1071126481437032,166251,-96.75133289818079,0.0
216,3.139942169189453,-88.72218582713319,26.461436741288853,-56.870998766114354,-120.62306685680348,0.0,0.4349964618828056,0.1,0.0035338401794433594,0.07039237022399902,0.048675157,0.27644747,-97.67038760202445,0.18855082844302698,-0.5718933492747771,0.0,800,0.07567667961120605,0.5931067720986598,0.5866404425141515,167051,-119.00431023427728,0.0
217,3.2625396251678467,6.164928278495459,104.30359911750061,131.7180055120072,-114.79939658810407,0.0,0.45853111955467396,0.1,0.0038454532623291016,0.07370543479919434,0.04858484,0.23953082,-87.28685601397247,0.6738747100743807,-0.10080040085019049,0.0,800,0.0727090835571289,1.3381618582273456,0.8849417598503653,167851,-161.49193215227282,0.0
218,3.1717190742492676,8.339756444240773,100.41984515960655,129.2278402924732,-94.17409546974977,0.0,0.4629820501806948,0.1,0.0034041404724121094,0.07475829124450684,0.050308004,0.29894328,-77.72419476815115,0.6720823589671103,-0.08938045338889147,0.0,800,0.07286787033081055,0.8228957718639434,0.7116910102191166,168651,-586.2069911556848,0.0
219,3.2485358715057373,-92.45170106975043,7.112933016382382,-85.70292990225641,-103.56387029426253,0.0,0.4595483678060855,0.1,0.003360748291015625,0.07063579559326172,0.049539905,0.22409758,-79.19694539831107,0.24593869620549869,-0.5908407773059611,0.0,800,0.07531452178955078,1.7181254722681558,0.48392316290816406,169451,-1981.0177892177517,0.0
220,3.1702892780303955,-38.114676643422506,96.94293644299653,129.74128437775116,-97.92431600884255,0.0,0.46291006368207094,0.1,0.003395557403564453,0.07400035858154297,0.04964156,0.28901932,-75.08871852282222,0.48486189890495374,-0.3209289644388492,0.0,800,0.07353019714355469,0.5563688338737584,0.5637447534114087,170251,-143.7002021687632,0.0
221,3.1350936889648438,-126.56351119684754,72.51406454948025,-64.14463279076764,-248.90902424584885,0.0,0.45566792874751966,0.1,0.004957437515258789,0.07037186622619629,0.047017194,0.14970624,-80.23619779022475,0.3195098296574551,-0.7618345730665993,0.0,800,0.07253909111022949,0.7367196554681074,0.6411689323999361,171051,-110.55805103309588,0.0
222,3.189488649368286,-22.71315657602983,82.85646030093835,118.87056482912796,-91.29825404017396,0.0,0.474899380627242,0.1,0.0035393238067626953,0.0707087516784668,0.049588684,0.24071743,-74.48389366880527,0.5209382419690718,-0.24439389883462093,0.0,800,0.07270932197570801,1.1007853659145936,0.9923637112684968,171851,-111.69926206450403,0.0
223,3.1997883319854736,-74.84052838868274,22.16525829983564,-41.257410676222214,-96.54287376996191,0.0,0.46388492519546737,0.1,0.003458261489868164,0.07461833953857422,0.049476396,0.28517234,-74.51955714079303,0.30841174669872795,-0.5025646892961342,0.0,800,0.0735330581665039,0.8503364350511411,0.7502978809052229,172651,-108.46863116971487,0.0
224,3.1956748962402344,16.092706678986108,92.50357815582268,129.5654094479472,-84.39763180653095,0.0,0.4843885833547242,0.1,0.003498554229736328,0.07263994216918945,0.04886411,0.23621356,-65.45833075881511,0.6946755190559452,-0.050910206119556184,0.0,800,0.07359051704406738,0.9610770086107302,0.7629451519348243,173451,-114.14115746227935,0.0
225,3.2212231159210205,-26.31540869944479,86.78661837699475,120.04975416988569,-104.98099463745933,0.0,0.518408149080077,0.1,0.003519296646118164,0.07074332237243652,0.04921861,0.22174816,-61.54403855287808,0.5500518019894213,-0.2613818307398683,0.0,800,0.07315230369567871,0.901389174223603,0.8988223824002769,174251,-91.73374207577147,0.0
226,3.159496784210205,-95.48989187742484,36.57600068592859,-50.105078241584714,-149.70663075738958,0.0,0.4817288409181071,0.1,0.0036096572875976562,0.07360959053039551,0.049971577,0.2210334,-64.93862388533276,0.23281074946869998,-0.6063411081805065,0.0,800,0.07538366317749023,0.7845328679793457,0.3935729753216308,175051,-97.11839286781861,0.0
227,3.232638120651245,-48.77890652673428,19.349365985979098,-20.596765810640402,-75.23380440899774,0.0,0.45040912458806814,0.1,0.0036878585815429688,0.07460713386535645,0.049256906,0.29630414,-63.322652149472916,0.3274251753071534,-0.3735417309936855,0.0,800,0.07832479476928711,1.7341130416693338,1.688009619925585,175851,-142.0485260013185,0.0
228,3.2709035873413086,-56.01149581628658,28.80564362831213,-24.571554959711776,-97.17049789426153,0.0,0.4825196329104792,0.1,0.0036356449127197266,0.07413816452026367,0.050294343,0.24119315,-62.591536516154285,0.34299381113366045,-0.4093070043937312,0.0,800,0.07766842842102051,1.2933449821970755,1.233626881053106,176651,-1090.1127808990311,0.0
229,3.247011184692383,-15.916401220825325,89.92011476141276,135.66880506236384,-100.09715370606195,0.0,0.48068977562727544,0.1,0.003843545913696289,0.07330584526062012,0.050531697,0.25859305,-57.92402298662139,0.4809032940156115,-0.21038986561353207,0.0,800,0.08004403114318848,0.9128049114788963,0.8320006008864098,177451,-1649.555201954933,0.0
230,3.2713990211486816,-39.27336642759265,11.144772455691285,-20.472877615100685,-49.48423599277156,0.0,0.5427080052510987,0.1,0.0036809444427490234,0.07325267791748047,0.049616065,0.21868283,-56.05895733071851,0.4017911639860655,-0.3266257045282509,0.0,800,0.0746924877166748,3.850897432033534,3.6539748193638095,178251,-1698.5761260943273,0.0
231,3.209707498550415,-60.09903845671954,12.581235501590482,-38.50084138620479,-69.05313805085441,0.0,0.4917370613072177,0.1,0.0034842491149902344,0.07036757469177246,0.049972076,0.21948318,-56.46296544331862,0.30063621853165384,-0.4296817178127509,0.0,800,0.07691431045532227,2.1126467442063053,1.2026329932055577,179051,-1839.4242840661018,0.0
232,3.212618827819824,-64.83450422096999,9.828329942995534,-50.58297364280378,-75.2163850065685,0.0,0.49729200247541683,0.1,0.0037355422973632812,0.07317924499511719,0.050615367,0.24745473,-57.30011932108376,0.2537441804345161,-0.45345325096787265,0.0,800,0.07815170288085938,0.9665808464110073,0.5867456002911244,179851,-115.43577874928518,0.0
233,3.199185848236084,-59.275871730312346,18.416285875645524,-36.6795971178242,-82.11962418568817,0.0,0.5366429905044013,0.1,0.0035157203674316406,0.07383131980895996,0.049097296,0.2282481,-57.49769456200662,0.31583727743686013,-0.426114718857487,0.0,800,0.0737762451171875,0.8076369544026412,0.7836976064117404,180651,-87.71437367826854,0.0
234,3.256708860397339,-40.569278963173005,17.138230652452666,-24.144634409745,-68.51363586867906,0.0,0.5023743524363697,0.1,0.0034246444702148438,0.07087564468383789,0.048760377,0.22920214,-55.80485300212326,0.3565513551323411,-0.33261106901006376,0.0,800,0.07381248474121094,2.4651903788669745,2.265706673971369,181451,-93.14717341497082,0.0
235,3.2413992881774902,-53.186581163538605,25.32364831509063,-24.93624326838613,-91.03740801348262,0.0,0.5419593384120247,0.1,0.0035169124603271484,0.07318282127380371,0.049649738,0.19489615,-55.543025818264795,0.36248950503445276,-0.3955497546194173,0.0,800,0.07590365409851074,1.3172832643009864,1.2660334472204497,182251,-108.73640063614978,0.0
236,3.250133752822876,-73.4578597321155,18.747657089997535,-54.62378972441881,-103.6177891269687,0.0,0.4814306863074572,0.1,0.003993988037109375,0.07480311393737793,0.049607087,0.22193295,-57.334509209649866,0.28329992641857216,-0.4958486230532647,0.0,800,0.0757911205291748,0.5619101219407941,0.4072642692168637,183051,-104.43166107654783,0.0
237,3.264826774597168,-56.21404007541601,23.758609604480476,-38.1770438767857,-97.02443411425466,0.0,0.5451154507774414,0.1,0.003896951675415039,0.07595109939575195,0.048277475,0.19305952,-57.22246229622648,0.2622330113716118,-0.41035781568513036,0.0,800,0.07612347602844238,1.6378012830954634,1.6086304467560886,183851,-76.40284334924888,0.0
238,3.25616717338562,-58.61878526504729,13.832126985753117,-44.98121557076657,-78.10338371073351,0.0,0.48780297627382746,0.1,0.003512144088745117,0.07326412200927734,0.048323516,0.2434216,-57.362094593108566,0.337033371656383,-0.4224808012840666,0.0,800,0.07428717613220215,1.206696007665212,1.1513551110318376,184651,-57.088090799594134,0.0
239,3.23720121383667,-56.14349093887864,21.786735605115194,-24.622268341581503,-84.75780072527012,0.0,0.46660466961818664,0.1,0.0035271644592285156,0.07100892066955566,0.049638413,0.22151046,-57.240234227685576,0.34696840662992184,-0.41079637703638316,0.0,800,0.07361435890197754,1.402611149898715,1.3204599410733173,185451,-68.39370107065754,0.0
240,3.3075811862945557,13.269371084497251,73.14642948843313,138.92512505753984,-42.45450651555848,0.0,0.5167882829570226,0.1,0.0036509037017822266,0.07488775253295898,0.048729196,0.4623498,-50.189273696467296,0.6271948973180441,-0.06468800779574452,0.0,800,0.07265663146972656,0.9739430072663101,0.7416951314274016,186251,-56.72404214515131,0.0
241,3.298447847366333,-24.329379975571406,14.066423806991349,-7.579499499325077,-45.42234278911278,0.0,0.547247618064749,0.1,0.0036935806274414062,0.07317829132080078,0.049188174,0.19873941,-47.60328432437771,0.3927937997897011,-0.2518418954175718,0.0,800,0.07319903373718262,2.796716277381037,2.7324132439659072,187051,-70.5361003815328,0.0
242,3.2330713272094727,-54.16986974579851,27.63219296457545,-19.497686948402006,-89.70316827035715,0.0,0.4682145440488971,0.1,0.0036334991455078125,0.07357072830200195,0.049572576,0.21432047,-48.25994286651979,0.41909555562481293,-0.40078597318347875,0.0,800,0.08028554916381836,2.247211044120706,1.494434460865161,187851,-1789.6258390669975,0.0
243,3.270864963531494,-28.125337230133432,12.107187246332648,-16.35895629751157,-48.112406424709754,0.0,0.5664811609323941,0.1,0.0037882328033447266,0.07185029983520508,0.048874836,0.18549973,-46.24648230288116,0.4162965767136362,-0.27108700860313584,0.0,800,0.0720982551574707,2.1520742881579955,1.9270503116938347,188651,-3862.695893325163,0.0
244,3.264814615249634,25.232094734766317,67.02304270828706,140.82170774616552,-21.59704375458242,0.0,0.5430219703061675,0.1,0.0036041736602783203,0.07097268104553223,0.048078008,0.21479218,-39.09862459911641,0.6358689876210839,-0.005115762941584327,0.0,800,0.0722198486328125,0.7478924859164509,0.6421315503878527,189451,-1477.4396941081889,0.0
245,3.308027744293213,-19.94254208704692,10.292595023651835,-6.122997287652427,-34.65246877891557,0.0,0.5590916471885737,0.1,0.0035483837127685547,0.0754694938659668,0.04940797,0.17485441,-37.18301634790946,0.48373448825625087,-0.22994550858115864,0.0,800,0.07434701919555664,2.8216180839386693,2.442385659524905,190251,-1357.7581096495237,0.0
246,3.268378734588623,-19.394780142944274,10.237070995687736,-10.13173879421881,-34.864649218651564,0.0,0.5819650666396542,0.1,0.003752470016479492,0.07713866233825684,0.05023304,0.1742331,-35.40419272741294,0.4475296885229763,-0.2276069761809426,0.0,800,0.07447385787963867,1.89016184325901,1.6899772929269858,191051,-1476.7643206465284,0.0
247,3.256218671798706,-48.2087628101462,36.84082382220376,-10.58106723789746,-99.86276167044086,0.0,0.423340348242735,0.1,0.0034558773040771484,0.07381200790405273,0.049260486,0.1854543,-36.684649735686264,0.35523120949327003,-0.37104985302054766,0.0,800,0.07196187973022461,1.0502565388603275,0.9869771792247043,191851,-4143.753411707063,0.0
248,3.2534117698669434,-4.041757680556989,4.9901306858235035,4.231779977475045,-9.141866017143144,0.0,0.5542353447540062,0.1,0.003406524658203125,0.07044124603271484,0.04866191,0.18248297,-33.42036053017334,0.497116445319551,-0.15061592474651495,0.0,800,0.06994462013244629,1.3612272625085895,1.2029037523579773,192651,-4068.516543684909,0.0
249,3.191354990005493,-29.4252771862461,8.868189895871208,-19.840498062539123,-43.935762796052835,0.0,0.5284632303658037,0.1,0.003456592559814453,0.07127785682678223,0.04724358,0.2007016,-33.02085219578061,0.40799192627553976,-0.2771538921299661,0.0,800,0.07198405265808105,4.261473035312332,3.503137794857434,193451,-3993.9206804861897,0.0
250,3.3135554790496826,-28.4896045351027,35.396886087028555,7.123090019185108,-81.91704042553798,0.0,0.5668932661394418,0.1,0.0035140514373779297,0.072998046875,0.04955502,0.17531975,-32.567727429712825,0.37757916564859995,-0.2726582414501021,0.0,800,0.0704030990600586,1.5889460404897287,1.4807206792573422,194251,-4075.5419968591036,0.0
251,3.357240676879883,-9.239733461924038,9.935764282552086,1.5919357955379467,-24.13098874006336,0.0,0.5712205671848316,0.1,0.003434419631958008,0.07275652885437012,0.0489416,0.17796399,-30.234928032933947,0.4941793029057986,-0.17700241340009593,0.0,800,0.07037591934204102,1.41457292740916,0.9729384180601127,195051,-4065.7192493365496,0.0
252,3.309986114501953,-20.845899515554304,23.070504220176694,2.1230868667507634,-58.76132283018238,0.0,0.4571836903282092,0.1,0.0034270286560058594,0.07281923294067383,0.048389003,0.19770777,-29.296025181195983,0.49304011516610713,-0.23444373331131013,0.0,800,0.06960749626159668,1.1306564402726198,0.9920651974945005,195851,-3991.0698025122106,0.0
253,3.4954073429107666,-25.47939239969069,28.01449651753661,14.104546506612404,-53.13054153439648,0.0,0.5430769284658423,0.1,0.003454446792602539,0.07453799247741699,0.047352295,0.19128771,-28.914361903045453,0.44736855859677527,-0.2576469555127372,0.0,800,0.06966519355773926,1.033680112130847,0.9678087991670605,196651,-4219.420156830616,0.0
254,3.714123249053955,-51.925753510347356,72.68969727264218,5.91387470958131,-176.20745743580025,0.0,0.4848491268423877,0.1,0.003439188003540039,0.07314801216125488,0.04902855,0.15253787,-31.215501063775644,0.44354297494976624,-0.3898903867563611,0.0,800,0.06966638565063477,0.7168249691464756,0.6618657751389483,197451,-3872.087057042032,0.0
255,3.3764569759368896,-33.81215909388299,19.793723219391413,-14.653279025792665,-66.56061844808544,0.0,0.5611067357013164,0.1,0.004084348678588867,0.0733041763305664,0.04888799,0.17205359,-31.475166866786378,0.45968705803060067,-0.29927910662655155,0.0,800,0.07123017311096191,2.3588759003094437,1.4122416042321129,198251,-3763.924228833521,0.0
256,3.464106321334839,-18.420840811537328,24.241431522058505,14.40269761547461,-48.01247404660327,0.0,0.5042493352806551,0.1,0.0036356449127197266,0.07237648963928223,0.04965354,0.21583115,-30.16973426126147,0.47933981877106585,-0.2223547059350724,0.0,800,0.0730750560760498,1.0923511944966138,1.0409700573216623,199051,-44.93517183488172,0.0
257,3.2992050647735596,-1.8720599825239892,9.22217159045165,9.525262311977322,-14.392949724858807,0.0,0.5146285036335073,0.1,0.003612995147705078,0.07135605812072754,0.049715206,0.1966794,-27.339966833387724,0.5038302802829303,-0.13994612530512995,0.0,800,0.07059907913208008,0.7318907702918734,0.6617990726746124,199851,-3743.8567590336456,0.0
258,3.3650448322296143,-56.388251239901734,46.775414671143764,1.7824020151423678,-128.7908549081882,0.0,0.4612513173800405,0.1,0.003548145294189453,0.07704448699951172,0.050340824,0.21945614,-30.244795274039124,0.3818694252774461,-0.41159144957150734,0.0,800,0.07172513008117676,1.2759325174937726,0.7851756491264178,200651,-26.217068800973284,0.0
259,3.4636642932891846,4.071895823333412,10.532001396488376,12.522787090628867,-13.970090272248632,0.0,0.5449945157497994,0.1,0.003519773483276367,0.0729827880859375,0.049881216,0.19572712,-26.81312616430187,0.5599416989987062,-0.11019356742515671,0.0,800,0.07539629936218262,1.3565938135086457,0.686712164748163,201451,-11.880723325924956,0.0
260,3.3289976119995117,-6.615752834789074,23.61363574952986,13.580406619004009,-46.72822258928862,0.0,0.5551511460937827,0.1,0.0035812854766845703,0.07619690895080566,0.050024513,0.17258398,-24.79338883135059,0.5317807410854799,-0.16395494539274152,0.0,800,0.0706942081451416,0.6102582517505135,0.5729633570917884,202251,-28.410100620338223,0.0
261,3.3183345794677734,-20.52711310484021,23.98315403539025,13.585213854529133,-48.70700391598493,0.0,0.5466500525165141,0.1,0.0033617019653320312,0.07298111915588379,0.049121957,0.18103418,-24.366761258699555,0.5352763610242256,-0.23298079402331667,0.0,800,0.06963491439819336,0.9434349430195165,0.7530104695751322,203051,-27.92607680480606,0.0
262,3.3160643577575684,5.429293166386935,4.215657228859624,12.70716863583113,2.5122035773985654,0.0,0.5530724736771467,0.1,0.003542184829711914,0.07134652137756348,0.048843995,0.17426309,-21.387155816190905,0.56488958458878,-0.10375222593054095,0.0,800,0.06950855255126953,0.5544966108761468,0.46096710354975495,203851,-27.735927098509393,0.0
263,3.318040132522583,34.167203634668645,30.30542290971908,85.56377780316652,7.027618080878073,0.0,0.5163961173982115,0.1,0.003542184829711914,0.07361817359924316,0.04977073,0.22421695,-15.831719871104951,0.6985586575589133,0.03920217529999,0.0,800,0.07336282730102539,0.3788467986362575,0.3171158305420051,204651,-10.518241021732054,0.0
264,3.312361717224121,2.44155764363031,11.683426789034405,21.600655527858827,-7.437674282621119,0.0,0.6123348507513461,0.1,0.003513813018798828,0.07051563262939453,0.050609674,0.15135643,-14.004392119631426,0.5257648222844575,-0.11865571250398924,0.0,800,0.06947588920593262,0.6331299523518593,0.4919477321871052,205451,-6.4161925196076615,0.0
265,3.3167691230773926,11.376144838844205,5.36905280965809,17.65590295933004,4.591255151857896,0.0,0.5708407262937755,0.1,0.0036106109619140625,0.07287836074829102,0.050544452,0.2207797,-11.466338423783863,0.5815798303322983,-0.07413170218981036,0.0,800,0.07076120376586914,0.37940471578721213,0.35288184899714764,206251,-5.805250435875789,0.0
266,3.3589069843292236,-8.100372645987925,16.833565556437087,13.058081287356158,-29.76773997253453,0.0,0.5212819608276733,0.1,0.003633737564086914,0.07393622398376465,0.049837712,0.19157942,-11.12974184600427,0.5123680457992202,-0.17091961860770405,0.0,800,0.07145929336547852,0.571517972412431,0.4836148204996556,207051,-14.834747214743365,0.0
267,3.299529790878296,-2.217602224524094,24.39466829511206,19.31895749223606,-42.6509743774729,0.0,0.545837617967317,0.1,0.004266023635864258,0.08237171173095703,0.04990094,0.17002553,-10.238527883856253,0.601015498842435,-0.1423157347736421,0.0,800,0.0720052719116211,0.3311090297437547,0.257540508132844,207851,-13.090876358931341,0.0
268,3.426746368408203,-24.708898503103804,55.9407893347643,11.396401575901223,-121.4603116645487,0.0,0.5560684276059757,0.1,0.005529642105102539,0.07149386405944824,0.04685451,0.16859294,-11.685564945781008,0.44286598811589173,-0.25344049916742284,0.0,800,0.06909751892089844,1.0002352788627866,0.7677790963130384,208651,-17.858902709468477,0.0
269,3.4434704780578613,1.794793028544737,9.849422621007824,15.6263157972515,-12.041045287735923,0.0,0.5584654866285362,0.1,0.003519773483276367,0.0728461742401123,0.049508806,0.16758004,-10.337529148348434,0.5642134018142425,-0.12182640309423462,0.0,800,0.07079648971557617,0.44389019344014774,0.33202640319440263,209451,-11.025507540263378,0.0
270,3.858356475830078,8.086718669007315,4.400274907298054,13.226188411408758,1.0729165658302127,0.0,0.48986330328286903,0.1,0.0032835006713867188,0.07342672348022461,0.049648926,0.19169869,-8.49510436661286,0.5644431984732539,-0.09063139093005372,0.0,800,0.0696570873260498,0.3264179367986359,0.28645889069239705,210251,-3.139235733564906,0.0
271,3.4190282821655273,7.9548208383709405,12.777648834461468,26.915844531351564,-9.123719091190626,0.0,0.559203816442706,0.1,0.003656625747680664,0.07284688949584961,0.047846194,0.1738422,-6.85011184611448,0.5898116594384382,-0.09109791673528604,0.0,800,0.07018780708312988,0.28547465981722725,0.2481813971652573,211051,-9.618354954130913,0.0
272,3.4563565254211426,27.29445388628711,3.733374061650965,30.428405976337356,20.976561975322547,0.0,0.5141852712660094,0.1,0.003797292709350586,0.07195782661437988,0.04928492,0.1894197,-3.4356552728743206,0.6541543137122782,0.005267191287684819,0.0,800,0.0701913833618164,0.38010573055746544,0.2648232574702004,211851,24.337716552589686,0.0
273,3.4183640480041504,0.31165952603336144,51.62926545422342,34.813710127818865,-88.93825007404554,0.0,0.5558314520455261,0.1,0.0036308765411376953,0.07313847541809082,0.049145956,0.17822918,-3.0609237929835524,0.5473585682587743,-0.12917216504434403,0.0,800,0.07050132751464844,0.8746073949098655,0.678887764970892,212651,24.87441698182843,0.0
274,3.4318017959594727,23.87710767582173,8.932314541218718,31.27878639440907,8.9907675133958,0.0,0.5408657122103749,0.1,0.003587007522583008,0.07344627380371094,0.04933138,0.1856216,-0.3671206461030243,0.6412067641423098,-0.011838663344452117,0.0,800,0.07082891464233398,0.3971199607682903,0.22952487666724414,213451,6.2151457440757385,0.0
275,3.484680652618408,-19.70344714845659,76.26720372465505,28.158018321692868,-151.72765253105362,0.0,0.5374448140633353,0.1,0.0034422874450683594,0.07431149482727051,0.05011101,0.18070064,-2.3007532963383808,0.5024747096750751,-0.22840586062000515,0.0,800,0.0725853443145752,1.1513640055715177,0.9543026734488514,214251,26.637820922880774,0.0
276,3.53365421295166,5.3668717262926195,21.522811867885256,41.60061536782875,-13.805206569504627,0.0,0.4987423310564242,0.1,0.0034797191619873047,0.07399702072143555,0.05000753,0.20464933,-1.5339907940752808,0.5834089272686271,-0.1038457122988271,0.0,800,0.07625508308410645,0.6928135869693706,0.4059982887873489,215051,18.929180982773413,0.0
277,3.504241943359375,-22.683656923682143,85.07074741702931,37.42099424519254,-169.14534898932186,0.0,0.4336056309173842,0.1,0.0034265518188476562,0.07294058799743652,0.04952584,0.15170641,-3.6489574070359674,0.49880936647928276,-0.24388884483038467,0.0,800,0.0720212459564209,0.5758467418259006,0.5614191294268576,215851,34.80873465666848,0.0
278,3.554429054260254,8.553538097783662,20.77645907392989,33.18723012504899,-12.56975054793081,0.0,0.5579921378531562,0.1,0.00342559814453125,0.07045531272888184,0.0493149,0.16245599,-2.4287078565540043,0.600881217557657,-0.08807551009587139,0.0,800,0.07025933265686035,0.3248367811661274,0.30903892685630574,216651,39.219390537073544,0.0
279,3.433889627456665,13.461868445840171,19.825392428032874,28.476348253719742,-20.532111898196952,0.0,0.5668313808060697,0.1,0.003543376922607422,0.07118368148803711,0.051391035,0.15901613,-0.8396502263145869,0.607409483401967,-0.06388461917899774,0.0,800,0.07356929779052734,0.2918606163103143,0.25272814595331317,217451,41.49119984392367,0.0
280,3.3843626976013184,0.9569250571716319,52.14882907314321,33.40919990035738,-89.274270977337,0.0,0.5290548611595954,0.1,0.0035119056701660156,0.07314872741699219,0.048807908,0.16065733,-0.6599926979659649,0.5495535664320902,-0.12610656434025508,0.0,800,0.06965231895446777,0.6474555239851114,0.5992486951527755,218251,36.24571794652448,0.0
281,3.5068554878234863,3.3223136521725363,53.32846106044671,64.63523914883757,-79.06687184554612,0.0,0.5282163235562932,0.1,0.0035407543182373047,0.07825779914855957,0.050151095,0.1801737,-0.26176206295211485,0.5655590758381532,-0.11423034203206835,0.0,800,0.07207679748535156,0.6005111956864112,0.5644019601237795,219051,34.92440660180047,0.0
282,3.578312873840332,16.897069158582884,19.261409150162336,37.44592895514018,-14.506483215885272,0.0,0.49442038385109094,0.1,0.0036940574645996094,0.0736532211303711,0.0495733,0.18973285,1.4541210592013851,0.6455861597148271,-0.04687639322570124,0.0,800,0.08153414726257324,0.2668964648557732,0.25178305324602585,219851,34.365554525378776,0.0
283,3.5523464679718018,27.70388288192381,21.222410983486807,50.18342272013816,-5.260858712008766,0.0,0.5223902767059518,0.1,0.0036649703979492188,0.07337331771850586,0.048501845,0.17833,4.079097241473628,0.6703583917640366,0.006787840511043357,0.0,800,0.07165288925170898,0.18464168144444396,0.17412362055291464,220651,35.282756350796895,0.0
284,3.7370998859405518,-7.545256893091846,35.95312110665597,29.884379985489996,-63.300819722030646,0.0,0.48764477473865975,0.1,0.00393986701965332,0.07364010810852051,0.050112974,0.19216402,2.9166618280170806,0.5320761649605461,-0.16799849678193557,0.0,800,0.07118105888366699,0.72916030250556,0.40360577712724643,221451,30.735982852986428,0.0
285,3.4321846961975098,0.9103891963954023,15.012874693266484,22.730495592955645,-13.406385061847736,0.0,0.5301429255777255,0.1,0.0035834312438964844,0.07186436653137207,0.05036768,0.16652754,2.7160345648549127,0.5864503000395148,-0.1261242173006268,0.0,800,0.07071089744567871,0.2551411959106439,0.2172662306402634,222251,16.723216045911293,0.0
286,3.4524054527282715,1.419464316716197,11.683238959738462,16.21983890337421,-15.127314173768243,0.0,0.5539408936621691,0.1,0.0036492347717285156,0.07519721984863281,0.048906416,0.166564,2.5863775400410414,0.6070175834987763,-0.12370180173390741,0.0,800,0.07185912132263184,0.2901105357566726,0.2626111912237452,223051,23.55707956448674,0.0
287,3.4453511238098145,-52.47826811050283,61.46249649473831,0.9870309733566184,-154.58148629660937,0.0,0.4804030443034247,0.1,0.005986213684082031,0.07385015487670898,0.04994668,0.16982175,-2.9200870250133466,0.4724933545028712,-0.39193034092847395,0.0,800,0.07166171073913574,1.55485087597406,0.9926491205636077,223851,25.422993655419305,0.0
288,3.508467674255371,8.168307293330507,64.20111247538313,61.98453801016952,-101.50513418432146,0.0,0.5089282856511098,0.1,0.003597736358642578,0.0736074447631836,0.049897775,0.1605745,-1.8112475931789613,0.5546696119031511,-0.09070467418110083,0.0,800,0.0717008113861084,0.8162284492039928,0.48860510185038414,224651,33.920140291501006,0.0
289,3.473127603530884,23.305837311318143,17.784693605209608,39.068108980281174,-5.128233893344121,0.0,0.5536170989379949,0.1,0.0034537315368652344,0.07812833786010742,0.048875123,0.16865242,0.7004608972707493,0.6538119764141408,-0.014856274179271187,0.0,800,0.07144355773925781,0.21926297140985418,0.20762154722493528,225451,26.476125695970268,0.0
290,3.473015785217285,-34.57994146172396,85.80848135146167,29.81081339472714,-181.76104391155732,0.0,0.503606314185064,0.1,0.0034613609313964844,0.07291626930236816,0.04876249,0.1638044,-2.8275793386287216,0.4089443441008678,-0.3028913270845594,0.0,800,0.07109189033508301,0.9665718644052907,0.6473615989775894,226251,-5.988740926304888,0.0
291,3.449364423751831,13.492012284147146,17.65605740697363,32.10256626655592,-7.559872224371563,0.0,0.47581769367665083,0.1,0.003368854522705078,0.07112383842468262,0.051021494,0.18169336,-1.195620176351135,0.6172255083753336,-0.06374237735734119,0.0,800,0.07025003433227539,0.9539007418380502,0.1886850556491539,227051,-8.342500062374372,0.0
292,3.448345899581909,7.70665118662958,6.507897927925247,16.509764193565793,0.9972165533184874,0.0,0.4700010388884121,0.1,0.0035860538482666016,0.0746915340423584,0.050063018,0.1865599,-0.30539304005306334,0.5943826449133647,-0.09252022222861886,0.0,800,0.06990981101989746,0.28275045090650514,0.25565303530617506,227851,-8.953103979365286,0.0
293,3.417341470718384,9.226559080305964,16.036084908939888,31.53325162723199,-13.171356695258623,0.0,0.5416080268152694,0.1,0.003515481948852539,0.0739583969116211,0.04930229,0.17330156,0.6478021719828395,0.640044679196703,-0.08490260044474252,0.0,800,0.06924057006835938,0.18262903999366636,0.16235333207899533,228651,-15.966234174784008,0.0
294,3.7475836277008057,2.1666941139784814,14.189316077684838,24.93407099071259,-11.432666398660551,0.0,0.544165680810342,0.1,0.003518819808959961,0.07161760330200195,0.0504948,0.17813367,0.7996913661824037,0.5931508174890853,-0.11957939780044144,0.0,800,0.06853914260864258,0.2921508903287667,0.22633925452954662,229451,-8.387439950993473,0.0
295,3.450425624847412,4.514486589241422,19.670891405304136,25.583844676914538,-17.46618476428708,0.0,0.5525377977523049,0.1,0.003590822219848633,0.07381463050842285,0.0486067,0.18446821,1.1711708884883056,0.581504171391435,-0.10834286605117935,0.0,800,0.07015109062194824,0.30441801114159794,0.2731884908684872,230251,17.030563221914633,0.0
296,3.5101447105407715,-11.926551579417993,45.62096332899999,25.96977151756964,-85.838829335747,0.0,0.5195473413168757,0.1,0.0035142898559570312,0.07576489448547363,0.05011811,0.1631409,-0.138601358302324,0.5412242524314377,-0.19003791356997055,0.0,800,0.0693669319152832,0.562921410430466,0.5118668848156233,231051,9.648293476481435,0.0
297,3.466426372528076,16.33263497099099,10.078668970729384,33.70809223864684,9.675659812794384,0.0,0.47415887810705315,0.1,0.0032465457916259766,0.07025647163391113,0.048095044,0.20426789,1.5085222746270075,0.6538686812169179,-0.04896698091045644,0.0,800,0.0680694580078125,0.22971861824708922,0.14132976520206914,231851,13.181105762742462,0.0
298,3.40991473197937,12.685836574162124,12.183340530224564,31.655702738997526,-0.949231398596065,0.0,0.519946945185883,0.1,0.0034863948822021484,0.07312655448913574,0.04982132,0.20514366,2.6262537045805194,0.6137252383587318,-0.06749644774514861,0.0,800,0.07178354263305664,0.1179732453948654,0.10862028696171067,232651,4.010621742774148,0.0
299,3.8394861221313477,20.081402450517547,4.628903667865574,24.501097188966316,12.303565804725487,0.0,0.5443786649241623,0.1,0.0066263675689697266,0.0711050033569336,0.051172093,0.15380412,4.371768579174223,0.641316251568077,-0.031061699454890287,0.0,800,0.06834936141967773,0.1280852688992748,0.10311820405330545,233451,-6.98090681932286,0.0
300,3.4934749603271484,7.175012526218521,18.74654166307731,26.50487250171539,-16.785366189756033,0.0,0.5245878578645415,0.1,0.0038306713104248047,0.0776071548461914,0.048301805,0.16556434,4.652092973878653,0.6259836463087094,-0.09548850048379143,0.0,800,0.06976604461669922,0.1647396207648209,0.13859710349804275,234251,-6.310143520387061,0.0
301,3.5363118648529053,-48.15360533755034,71.08743850302939,11.959013842148986,-168.74635269021434,0.0,0.3891651066553497,0.1,0.003779888153076172,0.07413554191589355,0.05063495,0.12508537,-0.6284768572642463,0.5212750197478329,-0.3707725553661896,0.0,800,0.07293057441711426,0.9794386045875149,0.7136253601535157,235051,-2.546915814290679,0.0
302,3.457695960998535,20.52720986845535,16.9039784324668,45.34079248184088,-1.7316841254386095,0.0,0.5038944263262818,0.1,0.003704071044921875,0.07456541061401367,0.0498687,0.16083024,1.4870918153077137,0.6598799305644405,-0.028697239533286786,0.0,800,0.06989359855651855,0.5312565930028584,0.17708313124895078,235851,3.9263784648412376,0.0
303,3.451566696166992,13.238905584633361,4.353011591136659,18.033262826772084,6.676728869232381,0.0,0.50013751619804,0.1,0.0035195350646972656,0.0741877555847168,0.048438646,0.19959873,2.6622731922402787,0.6462655607429317,-0.06444013901860428,0.0,800,0.06893444061279297,0.15359884750618358,0.07880793964224195,236651,6.746015542103403,0.0
304,3.4851906299591064,-10.594553784277082,50.30037655466175,25.115103669987082,-96.86021148191669,0.0,0.506845516138688,0.1,0.003507852554321289,0.07087254524230957,0.050241895,0.17476593,1.3365904945885425,0.5133195737188783,-0.18363613548828228,0.0,800,0.06903243064880371,0.700370887457559,0.6451762896613652,237451,13.154423287482956,0.0
305,3.4386210441589355,21.959076565336012,9.439716393638356,32.70728440864208,8.766693205576921,0.0,0.5448343019374403,0.1,0.0036933422088623047,0.07461261749267578,0.049574934,0.1716068,3.3988391016632895,0.6718551174314068,-0.021565675926895726,0.0,800,0.07062816619873047,0.26806696124205265,0.10416983886686854,238251,15.442227164279771,0.0
306,3.48805832862854,24.90319660402138,19.091673799147802,53.5195945147587,-0.09123555869840205,0.0,0.5106998094460115,0.1,0.0036728382110595703,0.07626748085021973,0.051537942,0.20062551,5.549274851899099,0.6808323748624086,-0.006741227155194776,0.0,800,0.07116341590881348,0.10949306464270286,0.10286360130535552,239051,18.701206339696615,0.0
307,3.4471588134765625,17.079968194015905,1.7084315693528132,18.363898064742486,14.153779223110872,0.0,0.5706554926341997,0.1,0.003683328628540039,0.07490134239196777,0.049059164,0.18384652,6.70234418611078,0.6445344312214079,-0.04569308300346566,0.0,800,0.07515239715576172,0.08194902477970739,0.07326332401374708,239851,13.938105417495455,0.0
308,3.4168365001678467,17.538508242354816,27.276780638974053,53.39434881936094,-23.374238424806283,0.0,0.42054075199004426,0.1,0.003543376922607422,0.07273221015930176,0.04987074,0.1629689,7.785960591735184,0.7019234403828956,-0.043828908185552254,0.0,800,0.07454180717468262,0.23808937313120376,0.17123316407401296,240651,10.960342764194609,0.0
309,3.4571404457092285,-3.592561621366774,51.6187829810769,29.836436209744452,-92.90259840952163,0.0,0.5445822965797138,0.1,0.003381967544555664,0.07123494148254395,0.049945716,0.159479,6.648108370424988,0.5461302045150196,-0.14870671664653523,0.0,800,0.07026124000549316,0.6784838869187084,0.4741400549432132,241451,12.165265926621467,0.0
310,3.552744150161743,26.27673812380604,3.5106801591154073,30.52167963633681,20.77076390691686,0.0,0.4763151683029789,0.1,0.0034554004669189453,0.07401466369628906,0.050141145,0.19861904,8.610971345763094,0.6649995683857325,-0.0003042913554005928,0.0,800,0.07118892669677734,0.22104033630573414,0.08102643269739898,242251,16.454179123547323,0.0
311,3.544379472732544,24.761864953831427,8.210050388896244,38.56971471351267,17.90602649569209,0.0,0.5653380774662199,0.1,0.0033774375915527344,0.07326912879943848,0.04919903,0.16026904,10.226060706569928,0.6559304046969542,-0.007729391244189435,0.0,800,0.06909537315368652,0.0872708386209181,0.08125501353958184,243051,10.529552974140465,0.0
312,3.6509439945220947,24.87742867278979,4.360207857996142,28.891604027896992,17.530821756787844,0.0,0.4961648001173484,0.1,0.003450155258178711,0.07424807548522949,0.050144907,0.17103548,11.691197503191916,0.6537042790389855,-0.007341962904109733,0.0,800,0.06870198249816895,0.07595984065351334,0.07106653673023212,243851,1.5251306399149744,0.0
313,3.4328792095184326,25.56876401748609,7.994176174293681,35.941361860699594,14.69659721837183,0.0,0.5245376567541997,0.1,0.003560781478881836,0.07251811027526855,0.05051081,0.20052679,13.078954154621332,0.6663513945455821,-0.0036121508717628205,0.0,800,0.06982278823852539,0.10420449909386598,0.09581902972128707,244651,2.927771482231401,0.0
314,3.504606246948242,19.41425074422114,5.379699118162064,26.311106014263977,11.741906449729086,0.0,0.56731661081242,0.1,0.0038216114044189453,0.0756683349609375,0.049183186,0.15506466,13.712483813581313,0.6451716577907709,-0.03401774999482274,0.0,800,0.07172632217407227,0.08200203106756525,0.07712125684706106,245451,2.491598191485823,0.0
315,3.6291253566741943,28.104228907696182,10.740025672860197,37.36462260509283,9.94309316772071,0.0,0.46264352279418414,0.1,0.0037310123443603516,0.0744023323059082,0.04856074,0.16187763,15.151658322992802,0.7047693571810146,0.00882988946530542,0.0,800,0.07163500785827637,0.08389225536774432,0.058499025964109025,246251,-0.620185929081502,0.0
316,3.622494697570801,21.922241712540114,11.566586990682868,33.82167300502296,5.235684426454199,0.0,0.5931982214665732,0.1,0.005658149719238281,0.0718235969543457,0.04993854,0.16181703,15.828716661947533,0.6887083129351165,-0.02188494788887095,0.0,800,0.07146692276000977,0.0930349228591299,0.06560079870381438,247051,-6.688431411839424,0.0
317,3.533156156539917,33.64927751373463,3.169340939103414,38.252799707277156,29.295883327191056,0.0,0.5122168176465706,0.1,0.0035893917083740234,0.07076168060302734,0.050254732,0.17340918,17.610772747126244,0.68433909827211,0.036284163160343344,0.0,800,0.07357454299926758,0.07546804292136994,0.05691785540332597,247851,-11.597852871665644,0.0
318,3.528740644454956,6.373775372688089,54.02523938136617,40.57073481943109,-87.07405831042918,0.0,0.5506139099280969,0.1,0.006139993667602539,0.07096266746520996,0.050693188,0.16574697,16.48707300968243,0.5752896902397686,-0.09896255201045762,0.0,800,0.07327651977539062,0.503618081577715,0.3985256436303045,248651,-12.2189897034621,0.0
319,3.522087335586548,46.277110636957424,6.730990709857426,55.594568312912564,37.14632983401824,0.0,0.5294729318542439,0.1,0.0037267208099365234,0.07109308242797852,0.05037435,0.17737202,19.46607677240993,0.7495716053967516,0.09963100599307913,0.0,800,0.06928396224975586,0.2584195934456092,0.09253431488860299,249451,-13.430134612030733,0.0
320,3.4981601238250732,-8.745336177273417,60.73876519702877,38.89598471642858,-110.81501937718099,0.0,0.5030195066304207,0.1,0.003384828567504883,0.07353734970092773,0.04954623,0.15416639,16.644935477441596,0.5805452436267599,-0.17450444168390317,0.0,800,0.06900191307067871,0.7512353536011043,0.49186724301568246,250251,-16.443286442944622,0.0
321,3.5180110931396484,37.90337201958034,2.3189363212307454,39.58493311635592,33.92058041131587,0.0,0.486441390512628,0.1,0.0033638477325439453,0.07280325889587402,0.04892305,0.18979704,18.77077913165547,0.7230592952126723,0.05774942972921834,0.0,800,0.07000303268432617,0.2222305104699197,0.07551345130150003,251051,-15.01936910468322,0.0
322,3.5620546340942383,39.775590165043766,6.442443617404512,50.633446024569,34.436247792633395,0.0,0.5168212128961944,0.1,0.0037147998809814453,0.07433342933654785,0.04958142,0.27028185,20.8712602349943,0.7022574763019183,0.06701740772966892,0.0,800,0.07194161415100098,0.06753457974963538,0.05757090063628034,251851,-15.11636635591428,0.0
323,3.5077977180480957,32.7589311593362,8.493452047056108,40.99393008120108,18.698410025407643,0.0,0.5177268926036204,0.1,0.003731250762939453,0.07572293281555176,0.04996462,0.18001561,22.06002732742849,0.7111203529111434,0.0322840824145894,0.0,800,0.07469820976257324,0.06585319844754674,0.06241309321101036,252651,8.65424435175065,0.0
324,3.4779269695281982,36.442167686945204,13.377348236961621,50.60800368244895,14.439000897480955,0.0,0.541667529894809,0.1,0.003683328628540039,0.07548689842224121,0.049410176,0.17225185,23.49824136338016,0.7127843582411145,0.05051658679233954,0.0,800,0.07213687896728516,0.05452478792479919,0.05185766941006621,253451,11.302057608410223,0.0
325,3.4912643432617188,40.057743115777114,6.510651848461676,48.88863776388835,30.929756757593836,0.0,0.5298291077414797,0.1,0.0034270286560058594,0.07158732414245605,0.049805366,0.20249514,25.154191538619855,0.7321883051286391,0.06844680010989707,0.0,800,0.06960487365722656,0.05399764866067663,0.05130568303544311,254251,11.334262308360744,0.0
326,3.4952213764190674,30.216230572113208,20.217876293724377,53.36247998327457,-2.1282066616059647,0.0,0.5185857416567774,0.1,0.003867626190185547,0.07313108444213867,0.0493042,0.20882478,25.660395441969193,0.7071014758514647,0.019532455485314258,0.0,800,0.07544755935668945,0.0740268446732619,0.06945953689006117,255051,31.53659644068695,0.0
327,3.6170783042907715,36.90897955598761,2.412185592115801,40.28904614510911,34.05752622306867,0.0,0.5450157917764159,0.1,0.0035169124603271484,0.07300138473510742,0.049413223,0.17748657,26.785253853371035,0.6989964291642619,0.05264802246872066,0.0,800,0.0700681209564209,0.04468869022820885,0.04260998094123172,255851,32.854552041134085,0.0
328,3.5684800148010254,24.739639254611127,7.627888034252493,31.998464034483185,12.157472635681158,0.0,0.5164304501226807,0.1,0.0035178661346435547,0.07091760635375977,0.048317607,0.17461525,26.580692393495045,0.6877363843794768,-0.007460527478094316,0.0,800,0.06898212432861328,0.06227323567892891,0.05674975111098942,256651,16.67782956091173,0.0
329,3.571343421936035,30.748576225869094,5.011832312567554,39.02205481679361,26.079130852964354,0.0,0.5213736551845408,0.1,0.0034818649291992188,0.0705864429473877,0.05036397,0.16972767,26.997480776732452,0.6948213014179798,0.02206007709938761,0.0,800,0.0688326358795166,0.04037739846105216,0.03678753628736466,257451,23.432857821881147,0.0
330,3.64158296585083,13.854345613634868,45.07981535503098,47.418001777976706,-63.62269041693458,0.0,0.4951848689021931,0.1,0.0035448074340820312,0.07417845726013184,0.05002334,0.17093632,25.683167260422692,0.5963264081067399,-0.06147716397782513,0.0,800,0.07115697860717773,0.2897698873782024,0.2335319270630316,258251,30.287283503682364,0.0
331,3.6372499465942383,26.384881088649628,9.922459464681383,38.37002050055424,11.23422642006804,0.0,0.5380141745150246,0.1,0.003577709197998047,0.08113431930541992,0.04939722,0.16042401,25.753338643245385,0.6778373532902974,0.0005024820245043866,0.0,800,0.07076835632324219,0.0969217615426352,0.047552961627535216,259051,39.556819856255494,0.0
332,3.6489388942718506,36.54654891761872,6.668557376374294,45.175762774373624,26.452824432153818,0.0,0.5337334730486819,0.1,0.003419160842895508,0.07577371597290039,0.04644289,0.1747329,26.83265967068272,0.703156318596015,0.05062742639962725,0.0,800,0.06768035888671875,0.037160283060191424,0.03296464609337647,259851,41.85376701736122,0.0
333,3.5936505794525146,18.91263667491223,16.62670176164875,41.48142778087181,1.721843159829369,0.0,0.5063780317758011,0.1,0.0033998489379882812,0.07708001136779785,0.04680176,0.19067408,26.04065737110567,0.6514429849557422,-0.036581011315754156,0.0,800,0.06751012802124023,0.07908973305941518,0.0754680231118859,260651,34.636449965575046,0.0
334,3.5708746910095215,14.488121301140518,6.9304386536473945,25.873582195132634,7.547756369649851,0.0,0.5025694803116748,0.1,0.0035860538482666016,0.0735328197479248,0.049260564,0.17265502,24.885403764109157,0.6434482594007256,-0.058777804651528015,0.0,800,0.06935405731201172,0.0807258432924621,0.06708507927009125,261451,26.50721449538293,0.0
335,3.9332501888275146,37.15945897886077,4.933048562106883,42.54190596757542,29.119976625989672,0.0,0.5362986460513353,0.1,0.003328561782836914,0.07030725479125977,0.05090063,0.18448597,26.11280928558432,0.6921574963366403,0.054082659612234546,0.0,800,0.07177186012268066,0.069046211348657,0.0404260984834134,262251,18.069598226089273,0.0
336,3.580117702484131,41.00661204115517,1.8006963337736859,43.38591906113846,38.31782047705831,0.0,0.517073239588028,0.1,0.0037794113159179688,0.0749654769897461,0.051055565,0.18369432,27.602189561141405,0.7147014315241531,0.07300158535063972,0.0,800,0.06780648231506348,0.040747359552944465,0.037098567527501784,263051,21.792250579822905,0.0
337,3.5224218368530273,-1.745664607753997,67.2486170167186,44.435978575112614,-117.82620965363358,0.0,0.49438098308951256,0.1,0.003678560256958008,0.07159614562988281,0.04929366,0.17918257,24.667404144251865,0.6252310592075834,-0.13979239920505637,0.0,800,0.07046389579772949,0.5412267324327548,0.4602050258308855,263851,-1.2847119283247774,0.0
338,3.44415283203125,4.769024501913151,51.40899202239409,36.94081170413205,-84.23174291681735,0.0,0.49866871662698664,0.1,0.003554821014404297,0.07245945930480957,0.048862115,0.16252919,22.677566180017994,0.589106754030599,-0.1072124016263508,0.0,800,0.0681760311126709,0.40243245947066314,0.3745174669497562,264651,-2.873636037751536,0.0
339,3.494138240814209,36.9885743126798,7.691594822280666,43.614597872685756,24.7463876580273,0.0,0.581776101015806,0.1,0.003599882125854492,0.07251167297363281,0.047905456,0.16802515,24.108666993284178,0.724028567451859,0.05329775820975699,0.0,800,0.06828904151916504,0.09126525987535855,0.037770755713590703,265451,-5.904771828108032,0.0
340,3.57119083404541,43.088745462613915,1.1830225915283785,44.281340935660005,41.63114460377674,0.0,0.5236145657453334,0.1,0.0037038326263427734,0.07370185852050781,0.047633693,0.21629839,26.006674840217155,0.7650810981698296,0.08342241837175135,0.0,800,0.06949830055236816,0.03431401052544714,0.030867270221604813,266251,-7.594758411402412,0.0
341,3.5521979331970215,15.298921715377691,56.201075864386986,74.25893605507282,-77.37601368401118,0.0,0.5032663783582132,0.1,0.0034770965576171875,0.07133698463439941,0.049358234,0.22452301,24.935899527733206,0.605895835647361,-0.0542450625157315,0.0,800,0.06869745254516602,0.41649612773843275,0.2984704647520672,267051,-7.477987068860642,0.0
342,3.5523886680603027,36.16699105950773,2.5882751918003426,40.50135711287885,33.65558071536735,0.0,0.5385682383094254,0.1,0.003422975540161133,0.073333740234375,0.048836593,0.18532664,26.059008680910658,0.6893458098163173,0.04912048227046142,0.0,800,0.06847834587097168,0.09609189980210352,0.03706876483446287,267851,-5.396170228452351,0.0
343,3.556164264678955,29.495695069319062,15.332432535922871,40.405158445406876,3.0317279134193056,0.0,0.5618243939434784,0.1,0.0034775733947753906,0.07141399383544922,0.04961406,0.16936424,26.402677319751497,0.6815307438805325,0.016105017957617748,0.0,800,0.07009243965148926,0.07287021111944211,0.0605494112145363,268651,-3.253079714493648,0.0
344,3.578134775161743,38.09061645043173,1.7316379382382432,39.53119123497223,35.226721057054654,0.0,0.6093881378500421,0.1,0.0033516883850097656,0.07093095779418945,0.0498514,0.17283158,27.57147123281952,0.7040682417363409,0.058616794820029766,0.0,800,0.06965041160583496,0.048201741771095395,0.03166080863317066,269451,-3.4119744972458825,0.0
345,3.6081879138946533,39.557873517518814,3.198980313288447,42.6769388371141,34.79732217140205,0.0,0.5277204804516508,0.1,0.003652811050415039,0.07202005386352539,0.04942649,0.21159504,28.770111461289453,0.7066031967895046,0.06624417556197595,0.0,800,0.06808662414550781,0.03088414032320793,0.024192018896286492,270251,-48.581681628387436,0.0
346,3.784729480743408,30.18902383267592,23.527399912735145,48.164132295311504,-9.960958076568472,0.0,0.5246661349608801,0.1,0.003513336181640625,0.06987142562866211,0.050134715,0.2058454,28.912002698428104,0.6579371012329334,0.01922910350760762,0.0,800,0.06730341911315918,0.0853374162788266,0.08097749190716075,271051,-47.291167706853464,0.0
