Iter | Sampling Pol | Evaluation Pol | Best (Sampled) 
   0 -526.93 -556.44 -100000000.00 
   1 -528.73 -555.40 -526.93 
   2 -538.09 -553.55 -526.93 
   3 -532.79 -571.29 -526.93 
   4 -531.72 -540.07 -526.93 
   5 -527.87 -554.25 -526.93 
   6 -528.95 -534.84 -526.93 
   7 -530.38 -548.69 -526.93 
   8 -532.75 -546.24 -526.93 
   9 -533.20 -532.68 -526.93 
  10 -522.92 -523.78 -526.93 
  11 -537.57 -529.18 -522.92 
  12 -527.79 -530.55 -522.92 
  13 -536.85 -540.62 -522.92 
  14 -537.38 -533.23 -522.92 
  15 -542.59 -531.86 -522.92 
  16 -536.47 -529.14 -522.92 
  17 -524.72 -522.06 -522.92 
  18 -536.18 -521.91 -522.92 
  19 -533.43 -533.60 -522.92 
  20 -525.83 -526.06 -522.92 
  21 -533.92 -526.39 -522.92 
  22 -534.35 -534.49 -522.92 
  23 -533.38 -537.99 -522.92 
  24 -526.47 -537.65 -522.92 
  25 -530.56 -538.37 -522.92 
  26 -524.56 -527.07 -522.92 
  27 -525.44 -524.82 -522.92 
  28 -535.99 -555.62 -522.92 
  29 -533.42 -556.59 -522.92 
  30 -535.86 -534.15 -522.92 
  31 -530.13 -552.18 -522.92 
  32 -521.50 -537.35 -522.92 
  33 -514.06 -534.26 -521.50 
  34 -527.38 -536.53 -514.06 
  35 -526.07 -530.96 -514.06 
  36 -523.77 -539.20 -514.06 
  37 -540.74 -528.16 -514.06 
  38 -533.24 -521.90 -514.06 
  39 -537.31 -532.94 -514.06 
  40 -531.71 -537.37 -514.06 
  41 -537.39 -541.57 -514.06 
  42 -531.00 -548.47 -514.06 
  43 -531.27 -551.57 -514.06 
  44 -532.12 -551.95 -514.06 
  45 -535.73 -550.46 -514.06 
  46 -531.62 -555.79 -514.06 
  47 -528.64 -560.86 -514.06 
  48 -527.93 -556.78 -514.06 
  49 -533.17 -557.22 -514.06 
  50 -535.55 -553.57 -514.06 
  51 -532.24 -560.32 -514.06 
  52 -529.42 -558.89 -514.06 
  53 -530.80 -569.65 -514.06 
  54 -537.75 -570.54 -514.06 
  55 -536.53 -571.17 -514.06 
  56 -535.92 -570.35 -514.06 
  57 -529.51 -569.94 -514.06 
  58 -534.35 -564.63 -514.06 
  59 -541.83 -567.60 -514.06 
  60 -531.32 -565.38 -514.06 
  61 -538.71 -566.78 -514.06 
  62 -525.58 -565.11 -514.06 
  63 -530.08 -559.81 -514.06 
  64 -532.74 -566.23 -514.06 
  65 -533.61 -563.12 -514.06 
  66 -540.72 -572.06 -514.06 
  67 -532.18 -560.48 -514.06 
  68 -534.04 -565.01 -514.06 
  69 -534.19 -570.46 -514.06 
  70 -546.73 -568.64 -514.06 
  71 -535.92 -573.54 -514.06 
  72 -534.14 -591.89 -514.06 
  73 -536.24 -564.79 -514.06 
  74 -540.92 -569.52 -514.06 
  75 -538.99 -578.23 -514.06 
  76 -536.49 -587.59 -514.06 
  77 -536.86 -581.35 -514.06 
  78 -534.59 -570.45 -514.06 
  79 -529.14 -572.59 -514.06 
  80 -531.84 -576.38 -514.06 
  81 -529.51 -568.39 -514.06 
  82 -532.20 -566.14 -514.06 
  83 -531.84 -566.79 -514.06 
  84 -529.53 -561.29 -514.06 
  85 -530.24 -562.08 -514.06 
  86 -538.08 -563.41 -514.06 
  87 -536.59 -568.76 -514.06 
  88 -537.88 -564.43 -514.06 
  89 -538.07 -560.23 -514.06 
  90 -537.27 -559.42 -514.06 
  91 -529.19 -555.71 -514.06 
  92 -530.42 -561.76 -514.06 
  93 -534.64 -575.95 -514.06 
  94 -539.88 -568.34 -514.06 
  95 -531.33 -567.64 -514.06 
  96 -532.83 -568.26 -514.06 
  97 -544.31 -565.65 -514.06 
  98 -539.82 -577.40 -514.06 
  99 -523.66 -568.25 -514.06 
 100 -526.86 -580.00 -514.06 
 101 -528.41 -573.28 -514.06 
 102 -536.10 -577.14 -514.06 
 103 -536.88 -558.47 -514.06 
 104 -529.58 -569.04 -514.06 
 105 -532.44 -586.85 -514.06 
 106 -532.58 -574.73 -514.06 
 107 -533.00 -583.53 -514.06 
 108 -545.47 -572.37 -514.06 
 109 -528.93 -577.71 -514.06 
 110 -537.03 -574.05 -514.06 
 111 -523.50 -584.74 -514.06 
 112 -528.55 -578.43 -514.06 
 113 -544.20 -582.40 -514.06 
 114 -531.59 -580.76 -514.06 
 115 -533.58 -577.79 -514.06 
 116 -526.92 -580.58 -514.06 
 117 -539.06 -576.79 -514.06 
 118 -531.12 -574.49 -514.06 
 119 -534.07 -564.26 -514.06 
 120 -533.30 -561.08 -514.06 
 121 -533.51 -565.69 -514.06 
 122 -532.31 -567.91 -514.06 
 123 -536.85 -568.36 -514.06 
 124 -533.45 -563.70 -514.06 
 125 -531.13 -562.56 -514.06 
 126 -535.93 -559.40 -514.06 
 127 -530.46 -565.91 -514.06 
 128 -531.60 -561.91 -514.06 
 129 -529.80 -559.42 -514.06 
 130 -534.99 -549.24 -514.06 
 131 -535.52 -548.46 -514.06 
 132 -530.28 -552.34 -514.06 
 133 -526.52 -558.22 -514.06 
 134 -531.49 -558.69 -514.06 
 135 -524.73 -561.97 -514.06 
 136 -538.69 -548.27 -514.06 
 137 -535.92 -548.67 -514.06 
 138 -531.95 -549.06 -514.06 
 139 -535.11 -549.52 -514.06 
 140 -530.30 -550.63 -514.06 
 141 -535.33 -549.75 -514.06 
 142 -536.75 -546.65 -514.06 
 143 -534.32 -546.90 -514.06 
 144 -536.82 -554.89 -514.06 
 145 -540.20 -567.52 -514.06 
 146 -530.44 -567.80 -514.06 
 147 -538.22 -568.83 -514.06 
 148 -531.40 -567.53 -514.06 
 149 -534.33 -565.20 -514.06 
 150 -541.93 -561.31 -514.06 
 151 -541.84 -566.31 -514.06 
 152 -532.80 -561.44 -514.06 
 153 -531.36 -555.01 -514.06 
 154 -530.30 -559.43 -514.06 
 155 -535.90 -559.31 -514.06 
 156 -537.57 -556.26 -514.06 
 157 -531.03 -558.49 -514.06 
 158 -531.99 -558.87 -514.06 
 159 -534.29 -560.99 -514.06 
 160 -536.63 -558.08 -514.06 
 161 -532.41 -560.05 -514.06 
 162 -534.72 -559.94 -514.06 
 163 -533.87 -552.80 -514.06 
 164 -534.34 -558.23 -514.06 
 165 -543.55 -549.68 -514.06 
 166 -537.41 -552.20 -514.06 
 167 -529.44 -553.62 -514.06 
 168 -539.31 -550.03 -514.06 
 169 -525.12 -553.12 -514.06 
 170 -528.47 -555.50 -514.06 
 171 -532.70 -555.11 -514.06 
 172 -527.23 -542.42 -514.06 
 173 -527.84 -539.07 -514.06 
 174 -534.24 -545.86 -514.06 
 175 -534.18 -542.80 -514.06 
 176 -532.49 -543.84 -514.06 
 177 -529.08 -541.44 -514.06 
 178 -532.33 -550.78 -514.06 
 179 -529.92 -556.63 -514.06 
 180 -524.63 -559.84 -514.06 
 181 -524.47 -564.57 -514.06 
 182 -534.65 -555.42 -514.06 
 183 -528.84 -556.88 -514.06 
 184 -530.97 -563.00 -514.06 
 185 -530.45 -560.42 -514.06 
 186 -537.62 -561.30 -514.06 
 187 -539.97 -559.59 -514.06 
 188 -532.97 -558.12 -514.06 
 189 -525.45 -557.07 -514.06 
 190 -531.62 -550.34 -514.06 
 191 -535.64 -551.77 -514.06 
 192 -543.28 -552.90 -514.06 
 193 -532.73 -558.74 -514.06 
 194 -534.99 -557.58 -514.06 
 195 -533.39 -554.70 -514.06 
 196 -525.73 -556.82 -514.06 
 197 -532.30 -555.94 -514.06 
 198 -531.13 -550.47 -514.06 
 199 -530.91 -554.18 -514.06 
 200 -538.31 -554.70 -514.06 
 201 -535.79 -562.90 -514.06 
 202 -522.01 -566.09 -514.06 
 203 -534.78 -557.44 -514.06 
 204 -531.49 -549.19 -514.06 
 205 -530.32 -552.00 -514.06 
 206 -533.05 -556.28 -514.06 
 207 -533.56 -554.19 -514.06 
 208 -534.80 -551.19 -514.06 
 209 -530.27 -553.11 -514.06 
 210 -527.34 -553.69 -514.06 
 211 -531.92 -558.02 -514.06 
 212 -534.18 -550.43 -514.06 
 213 -533.52 -552.43 -514.06 
 214 -537.07 -561.44 -514.06 
 215 -535.42 -556.55 -514.06 
 216 -532.06 -562.94 -514.06 
 217 -535.31 -563.05 -514.06 
 218 -527.79 -560.09 -514.06 
 219 -532.79 -559.26 -514.06 
 220 -535.52 -557.14 -514.06 
 221 -543.87 -554.66 -514.06 
 222 -539.73 -553.97 -514.06 
 223 -530.34 -552.09 -514.06 
 224 -543.99 -546.63 -514.06 
 225 -531.93 -553.70 -514.06 
 226 -532.75 -550.57 -514.06 
 227 -531.27 -550.95 -514.06 
 228 -533.68 -548.17 -514.06 
 229 -535.05 -549.89 -514.06 
 230 -528.98 -550.91 -514.06 
 231 -532.97 -549.67 -514.06 
 232 -534.89 -549.71 -514.06 
 233 -533.06 -548.83 -514.06 
 234 -530.84 -549.91 -514.06 
 235 -525.78 -553.22 -514.06 
 236 -534.95 -550.44 -514.06 
 237 -528.89 -548.30 -514.06 
 238 -532.23 -546.86 -514.06 
 239 -531.75 -546.27 -514.06 
 240 -538.16 -546.21 -514.06 
 241 -524.87 -547.62 -514.06 
 242 -530.25 -546.02 -514.06 
 243 -533.50 -543.88 -514.06 
 244 -534.04 -549.06 -514.06 
 245 -532.15 -549.65 -514.06 
 246 -534.06 -545.82 -514.06 
 247 -530.58 -552.23 -514.06 
 248 -527.91 -552.96 -514.06 
 249 -537.36 -552.89 -514.06 
 250 -530.94 -549.90 -514.06 
 251 -535.35 -549.79 -514.06 
 252 -531.27 -550.23 -514.06 
 253 -539.47 -556.12 -514.06 
 254 -530.17 -559.01 -514.06 
 255 -532.53 -557.94 -514.06 
 256 -543.94 -556.68 -514.06 
 257 -534.87 -563.26 -514.06 
 258 -527.86 -549.62 -514.06 
 259 -541.68 -551.75 -514.06 
 260 -538.33 -547.81 -514.06 
 261 -529.48 -545.60 -514.06 
 262 -522.54 -549.32 -514.06 
 263 -533.63 -546.30 -514.06 
 264 -527.07 -545.34 -514.06 
 265 -535.70 -547.55 -514.06 
 266 -536.81 -547.27 -514.06 
 267 -531.67 -551.64 -514.06 
 268 -519.95 -550.03 -514.06 
 269 -526.68 -549.81 -514.06 
 270 -534.62 -552.00 -514.06 
 271 -537.33 -553.94 -514.06 
 272 -538.10 -563.38 -514.06 
 273 -533.84 -564.45 -514.06 
 274 -530.44 -564.25 -514.06 
 275 -543.00 -562.98 -514.06 
 276 -525.25 -560.89 -514.06 
 277 -525.79 -560.25 -514.06 
 278 -529.46 -556.56 -514.06 
 279 -530.91 -559.54 -514.06 
 280 -529.04 -563.41 -514.06 
 281 -539.22 -564.09 -514.06 
 282 -536.25 -582.29 -514.06 
 283 -529.57 -587.16 -514.06 
 284 -540.89 -587.62 -514.06 
 285 -535.98 -604.84 -514.06 
 286 -534.88 -573.07 -514.06 
 287 -531.38 -565.45 -514.06 
 288 -528.17 -559.00 -514.06 
 289 -532.27 -561.14 -514.06 
 290 -524.89 -560.42 -514.06 
 291 -534.42 -565.62 -514.06 
 292 -524.89 -557.58 -514.06 
 293 -533.60 -554.26 -514.06 
 294 -533.97 -553.93 -514.06 
 295 -532.84 -561.55 -514.06 
 296 -533.01 -564.10 -514.06 
 297 -533.91 -557.91 -514.06 
 298 -531.38 -556.35 -514.06 
 299 -525.43 -555.50 -514.06 
 300 -532.02 -554.04 -514.06 
 301 -525.73 -551.29 -514.06 
 302 -531.11 -550.86 -514.06 
 303 -527.62 -549.76 -514.06 
 304 -526.24 -550.39 -514.06 
 305 -528.70 -546.10 -514.06 
 306 -532.74 -543.39 -514.06 
 307 -522.48 -544.09 -514.06 
 308 -531.02 -543.98 -514.06 
 309 -523.43 -545.65 -514.06 
 310 -526.96 -550.61 -514.06 
 311 -527.00 -547.01 -514.06 
 312 -534.68 -551.24 -514.06 
 313 -521.90 -546.43 -514.06 
 314 -525.00 -553.24 -514.06 
 315 -529.45 -555.03 -514.06 
 316 -523.81 -554.43 -514.06 
 317 -524.19 -555.82 -514.06 
 318 -529.96 -553.73 -514.06 
 319 -529.98 -550.21 -514.06 
 320 -535.12 -551.42 -514.06 
 321 -531.94 -552.58 -514.06 
 322 -529.53 -554.02 -514.06 
 323 -533.15 -555.41 -514.06 
 324 -525.56 -554.26 -514.06 
 325 -529.10 -552.93 -514.06 
 326 -534.73 -552.32 -514.06 
 327 -532.28 -556.23 -514.06 
 328 -530.64 -548.83 -514.06 
 329 -525.29 -547.23 -514.06 
 330 -529.07 -549.58 -514.06 
 331 -531.08 -548.72 -514.06 
 332 -527.63 -556.82 -514.06 
 333 -530.13 -556.54 -514.06 
 334 -530.61 -549.33 -514.06 
 335 -524.90 -552.59 -514.06 
 336 -533.98 -550.66 -514.06 
 337 -530.77 -551.24 -514.06 
 338 -534.19 -553.23 -514.06 
 339 -525.06 -551.01 -514.06 
 340 -527.38 -553.49 -514.06 
 341 -532.17 -556.21 -514.06 
 342 -530.38 -549.88 -514.06 
 343 -525.10 -555.88 -514.06 
 344 -533.63 -553.48 -514.06 
 345 -530.51 -552.86 -514.06 
 346 -525.98 -553.26 -514.06 
 347 -538.06 -554.19 -514.06 
 348 -530.31 -548.53 -514.06 
 349 -530.55 -546.73 -514.06 
 350 -533.90 -552.86 -514.06 
 351 -530.38 -556.34 -514.06 
 352 -532.60 -557.27 -514.06 
 353 -529.74 -552.86 -514.06 
 354 -529.51 -552.64 -514.06 
 355 -528.71 -552.17 -514.06 
 356 -526.98 -554.21 -514.06 
 357 -536.71 -558.73 -514.06 
 358 -532.49 -558.06 -514.06 
 359 -529.95 -552.22 -514.06 
 360 -533.60 -556.52 -514.06 
 361 -531.41 -554.44 -514.06 
 362 -531.06 -553.86 -514.06 
 363 -527.61 -551.77 -514.06 
 364 -534.78 -552.78 -514.06 
 365 -531.96 -546.80 -514.06 
 366 -525.99 -548.46 -514.06 
 367 -532.25 -549.36 -514.06 
 368 -531.79 -552.43 -514.06 
 369 -525.82 -554.31 -514.06 
 370 -534.45 -554.12 -514.06 
 371 -526.81 -555.97 -514.06 
 372 -528.01 -555.90 -514.06 
 373 -541.01 -562.27 -514.06 
 374 -522.89 -564.65 -514.06 
 375 -531.27 -562.59 -514.06 
 376 -532.55 -563.40 -514.06 
 377 -529.03 -563.71 -514.06 
 378 -529.94 -559.52 -514.06 
 379 -536.21 -562.79 -514.06 
 380 -527.06 -561.15 -514.06 
 381 -522.81 -559.99 -514.06 
 382 -527.98 -558.73 -514.06 
 383 -533.39 -560.67 -514.06 
 384 -533.88 -561.53 -514.06 
 385 -527.34 -553.41 -514.06 
 386 -537.26 -557.25 -514.06 
 387 -524.43 -554.95 -514.06 
 388 -529.45 -551.03 -514.06 
 389 -529.69 -552.68 -514.06 
 390 -530.54 -551.58 -514.06 
 391 -532.36 -553.14 -514.06 
 392 -525.04 -548.96 -514.06 
 393 -527.11 -551.55 -514.06 
 394 -529.60 -550.86 -514.06 
 395 -530.48 -550.13 -514.06 
 396 -527.04 -551.46 -514.06 
 397 -530.57 -545.46 -514.06 
 398 -525.96 -547.17 -514.06 
 399 -535.67 -549.03 -514.06 
 400 -532.15 -545.50 -514.06 
 401 -531.71 -549.48 -514.06 
 402 -525.38 -545.33 -514.06 
 403 -531.94 -544.47 -514.06 
 404 -529.30 -550.19 -514.06 
 405 -529.82 -550.81 -514.06 
 406 -530.91 -553.64 -514.06 
 407 -533.41 -554.84 -514.06 
 408 -536.71 -556.91 -514.06 
 409 -531.10 -559.89 -514.06 
 410 -525.82 -559.65 -514.06 
 411 -533.89 -558.15 -514.06 
 412 -526.83 -558.93 -514.06 
 413 -533.51 -558.08 -514.06 
 414 -534.74 -558.15 -514.06 
 415 -531.82 -550.64 -514.06 
 416 -524.44 -549.92 -514.06 
 417 -531.83 -549.37 -514.06 
 418 -534.47 -551.23 -514.06 
 419 -534.93 -553.68 -514.06 
 420 -531.24 -551.23 -514.06 
 421 -528.01 -550.59 -514.06 
 422 -533.94 -549.42 -514.06 
 423 -534.27 -548.04 -514.06 
 424 -531.44 -548.31 -514.06 
 425 -532.65 -549.19 -514.06 
 426 -528.31 -547.94 -514.06 
 427 -533.28 -547.62 -514.06 
 428 -533.03 -546.18 -514.06 
 429 -535.57 -541.17 -514.06 
 430 -534.66 -544.00 -514.06 
 431 -529.99 -544.20 -514.06 
 432 -534.21 -544.55 -514.06 
 433 -532.04 -541.08 -514.06 
 434 -532.57 -534.55 -514.06 
 435 -527.76 -542.94 -514.06 
 436 -541.14 -545.38 -514.06 
 437 -536.05 -544.89 -514.06 
 438 -541.12 -543.12 -514.06 
 439 -531.83 -535.24 -514.06 
 440 -532.09 -538.18 -514.06 
 441 -540.31 -537.80 -514.06 
 442 -527.51 -540.41 -514.06 
 443 -528.63 -541.78 -514.06 
 444 -532.67 -540.02 -514.06 
 445 -534.42 -535.12 -514.06 
 446 -530.01 -530.61 -514.06 
 447 -536.08 -536.48 -514.06 
 448 -538.55 -538.17 -514.06 
 449 -533.59 -537.36 -514.06 
 450 -536.91 -541.32 -514.06 
 451 -535.61 -546.93 -514.06 
 452 -538.84 -541.45 -514.06 
 453 -539.36 -547.94 -514.06 
 454 -538.08 -550.01 -514.06 
 455 -533.51 -549.69 -514.06 
 456 -535.33 -549.18 -514.06 
 457 -538.36 -551.42 -514.06 
 458 -539.18 -552.85 -514.06 
 459 -536.86 -552.88 -514.06 
 460 -541.01 -555.66 -514.06 
 461 -538.42 -555.87 -514.06 
 462 -540.38 -559.46 -514.06 
 463 -544.48 -560.19 -514.06 
 464 -543.17 -561.26 -514.06 
 465 -537.10 -561.48 -514.06 
 466 -543.45 -561.49 -514.06 
 467 -541.57 -559.67 -514.06 
 468 -539.36 -565.72 -514.06 
 469 -541.45 -564.37 -514.06 
 470 -541.86 -562.30 -514.06 
 471 -537.53 -560.81 -514.06 
 472 -545.39 -562.00 -514.06 
 473 -536.74 -557.74 -514.06 
 474 -539.74 -556.81 -514.06 
 475 -538.79 -557.25 -514.06 
 476 -537.25 -553.71 -514.06 
 477 -536.15 -557.38 -514.06 
 478 -545.20 -561.23 -514.06 
 479 -545.22 -561.91 -514.06 
 480 -536.79 -562.05 -514.06 
 481 -534.90 -557.14 -514.06 
 482 -543.97 -562.89 -514.06 
 483 -538.28 -562.33 -514.06 
 484 -543.63 -561.21 -514.06 
 485 -536.73 -562.56 -514.06 
 486 -546.34 -559.29 -514.06 
 487 -535.62 -563.41 -514.06 
 488 -538.82 -561.13 -514.06 
 489 -533.02 -554.41 -514.06 
 490 -536.95 -557.77 -514.06 
 491 -534.65 -553.57 -514.06 
 492 -542.02 -556.49 -514.06 
 493 -541.37 -554.52 -514.06 
 494 -541.54 -555.70 -514.06 
 495 -539.52 -557.47 -514.06 
 496 -545.77 -554.01 -514.06 
 497 -540.82 -555.96 -514.06 
 498 -542.88 -554.73 -514.06 
 499 -538.70 -551.91 -514.06 
