Iter | Sampling Pol | Evaluation Pol | Best (Sampled) 
   0  0.04  0.02 -100000000.00 
   1  0.03  0.02  0.04 
   2  0.02  0.02  0.04 
   3  0.08  0.04  0.04 
   4  0.07  0.04  0.08 
   5  0.04  0.07  0.08 
   6  0.04  0.10  0.08 
   7  0.03  0.20  0.08 
   8  0.18  0.18  0.08 
   9  0.05  0.12  0.18 
  10  0.09  0.13  0.18 
  11  0.10  0.19  0.18 
  12  0.21  0.23  0.18 
  13  0.07  0.20  0.21 
  14  0.14  0.17  0.21 
  15  0.06  0.05  0.21 
  16  0.12  0.22  0.21 
  17  0.17  0.08  0.21 
  18  0.14  0.08  0.21 
  19  0.15  0.18  0.21 
  20  0.09  0.19  0.21 
  21  0.16  0.63  0.21 
  22  0.23  0.33  0.21 
  23  0.29  0.29  0.23 
  24  0.14  0.27  0.29 
  25  0.09  0.54  0.29 
  26  0.16  1.09  0.29 
  27  0.12  1.05  0.29 
  28  0.19  0.88  0.29 
  29  0.25  0.70  0.29 
  30  0.29  0.96  0.29 
  31  0.14  0.81  0.29 
  32  0.19  0.91  0.29 
  33  0.20  1.03  0.29 
  34  0.25  0.96  0.29 
  35  0.17  0.83  0.29 
  36  0.13  0.57  0.29 
  37  0.12  0.35  0.29 
  38  0.32  0.32  0.29 
  39  0.41  0.36  0.32 
  40  0.22  0.69  0.41 
  41  0.49  0.38  0.41 
  42  0.40  0.58  0.49 
  43  0.31  0.87  0.49 
  44  0.47  0.87  0.49 
  45  0.52  1.61  0.49 
  46  0.20  1.75  0.52 
  47  0.45  1.88  0.52 
  48  0.30  1.08  0.52 
  49  0.43  2.06  0.52 
  50  0.44  1.94  0.52 
  51  0.40  1.12  0.52 
  52  0.77  0.63  0.52 
  53  0.32  0.54  0.77 
  54  0.59  1.08  0.77 
  55  0.40  1.17  0.77 
  56  0.24  0.67  0.77 
  57  0.47  0.60  0.77 
  58  0.51  1.10  0.77 
  59  0.38  0.72  0.77 
  60  0.31  0.53  0.77 
  61  0.64  0.45  0.77 
  62  0.63  0.49  0.77 
  63  0.52  0.47  0.77 
  64  0.40  0.48  0.77 
  65  0.40  0.53  0.77 
  66  0.88  0.51  0.77 
  67  0.29  0.43  0.88 
  68  0.32  0.26  0.88 
  69  0.38  0.24  0.88 
  70  0.58  0.19  0.88 
  71  0.58  0.16  0.88 
  72  0.55  0.13  0.88 
  73  0.46  0.14  0.88 
  74  0.53  0.15  0.88 
  75  0.49  0.13  0.88 
  76  0.58  0.12  0.88 
  77  0.54  0.13  0.88 
  78  0.89  0.13  0.88 
  79  0.66  0.13  0.89 
  80  0.67  0.13  0.89 
  81  0.65  0.13  0.89 
  82  0.47  0.11  0.89 
  83  0.67  0.17  0.89 
  84  0.67  0.29  0.89 
  85  0.58  0.24  0.89 
  86  0.69  0.36  0.89 
  87  0.77  0.33  0.89 
  88  0.45  0.31  0.89 
  89  0.82  1.39  0.89 
  90  0.69  0.40  0.89 
  91  0.72  0.44  0.89 
  92  0.75  0.99  0.89 
  93  0.49  0.56  0.89 
  94  0.53  0.59  0.89 
  95  0.47  0.48  0.89 
  96  0.64  1.09  0.89 
  97  0.61  0.85  0.89 
  98  0.69  0.38  0.89 
  99  0.72  0.22  0.89 
 100  0.56  0.36  0.89 
 101  0.59  0.29  0.89 
 102  0.84  0.42  0.89 
 103  1.07  0.30  0.89 
 104  0.69  0.32  1.07 
 105  0.54  0.38  1.07 
 106  0.61  0.17  1.07 
 107  0.98  0.15  1.07 
 108  0.51  0.16  1.07 
 109  0.67  0.29  1.07 
 110  0.60  0.22  1.07 
 111  0.71  0.26  1.07 
 112  0.52  0.17  1.07 
 113  0.76  0.19  1.07 
 114  0.98  0.22  1.07 
 115  0.77  0.25  1.07 
 116  0.39  0.27  1.07 
 117  0.53  0.29  1.07 
 118  0.46  0.23  1.07 
 119  0.58  0.22  1.07 
 120  0.72  0.38  1.07 
 121  0.51  0.39  1.07 
 122  0.76  0.33  1.07 
 123  0.50  0.36  1.07 
 124  1.11  0.40  1.07 
 125  0.50  0.46  1.11 
 126  0.57  0.51  1.11 
 127  0.35  0.60  1.11 
 128  0.94  0.74  1.11 
 129  0.63  0.59  1.11 
 130  0.59  0.62  1.11 
 131  0.67  0.64  1.11 
 132  0.70  0.67  1.11 
 133  0.51  0.73  1.11 
 134  0.49  0.72  1.11 
 135  0.24  0.69  1.11 
 136  0.35  0.63  1.11 
 137  0.43  0.61  1.11 
 138  1.11  0.62  1.11 
 139  0.70  0.55  1.11 
 140  0.45  0.41  1.11 
 141  0.39  0.34  1.11 
 142  0.81  0.29  1.11 
 143  0.45  0.30  1.11 
 144  0.31  0.27  1.11 
 145  0.76  0.18  1.11 
 146  0.37  0.20  1.11 
 147  0.65  0.20  1.11 
 148  0.59  0.24  1.11 
 149  0.80  0.18  1.11 
 150  0.46  0.27  1.11 
 151  1.12  0.23  1.11 
 152  0.99  0.25  1.12 
 153  0.68  0.26  1.12 
 154  0.91  0.33  1.12 
 155  0.41  0.45  1.12 
 156  0.78  0.46  1.12 
 157  0.63  0.44  1.12 
 158  0.18  0.68  1.12 
 159  0.69  0.54  1.12 
 160  1.17  0.50  1.12 
 161  0.93  0.79  1.17 
 162  0.31  0.31  1.17 
 163  1.01  1.00  1.17 
 164  1.00  1.07  1.17 
 165  0.60  0.87  1.17 
 166  0.53  0.31  1.17 
 167  0.51  0.39  1.17 
 168  0.72  0.63  1.17 
 169  1.05  0.80  1.17 
 170  0.85  0.83  1.17 
 171  0.36  1.20  1.17 
 172  0.99  1.03  1.17 
 173  0.63  1.48  1.17 
 174  0.35  1.39  1.17 
 175  0.71  0.97  1.17 
 176  0.90  1.57  1.17 
 177  0.64  1.37  1.17 
 178  0.70  1.60  1.17 
 179  1.18  1.23  1.17 
 180  0.46  1.90  1.18 
 181  0.89  1.07  1.18 
 182  0.88  1.13  1.18 
 183  0.86  0.95  1.18 
 184  0.63  1.37  1.18 
 185  0.48  0.80  1.18 
 186  0.76  1.03  1.18 
 187  0.76  1.26  1.18 
 188  1.07  1.10  1.18 
 189  1.42  0.93  1.18 
 190  0.56  0.96  1.42 
 191  0.95  0.80  1.42 
 192  0.49  0.76  1.42 
 193  0.70  0.83  1.42 
 194  0.83  0.74  1.42 
 195  0.48  0.72  1.42 
 196  0.81  0.70  1.42 
 197  1.06  0.91  1.42 
 198  0.85  0.71  1.42 
 199  0.55  0.30  1.42 
 200  0.71  0.33  1.42 
 201  1.21  0.32  1.42 
 202  1.13  0.33  1.42 
 203  0.38  0.34  1.42 
 204  0.77  0.31  1.42 
 205  1.19  0.28  1.42 
 206  1.15  0.27  1.42 
 207  0.70  0.22  1.42 
 208  1.08  0.23  1.42 
 209  0.80  0.28  1.42 
 210  1.38  0.35  1.42 
 211  0.84  0.30  1.42 
 212  0.95  0.20  1.42 
 213  0.50  0.19  1.42 
 214  1.02  0.18  1.42 
 215  0.65  0.20  1.42 
 216  0.81  0.18  1.42 
 217  0.96  0.16  1.42 
 218  0.91  0.12  1.42 
 219  0.75  0.16  1.42 
 220  0.74  0.24  1.42 
 221  0.46  0.26  1.42 
 222  0.55  0.46  1.42 
 223  0.99  0.57  1.42 
 224  0.58  0.25  1.42 
 225  0.83  0.20  1.42 
 226  1.67  0.18  1.42 
 227  0.69  0.15  1.67 
 228  0.56  0.14  1.67 
 229  0.97  0.13  1.67 
 230  0.69  0.17  1.67 
 231  1.08  0.08  1.67 
 232  1.04  0.20  1.67 
 233  0.91  0.13  1.67 
 234  1.96  0.11  1.67 
 235  0.68  0.09  1.96 
 236  1.05  0.11  1.96 
 237  0.86  0.12  1.96 
 238  1.00  0.15  1.96 
 239  1.10  0.12  1.96 
 240  1.09  0.15  1.96 
 241  1.06  0.23  1.96 
 242  0.89  0.21  1.96 
 243  1.09  0.24  1.96 
 244  0.64  0.12  1.96 
 245  0.63  0.11  1.96 
 246  0.98  0.08  1.96 
 247  0.64  0.07  1.96 
 248  0.55  0.09  1.96 
 249  0.96  0.10  1.96 
 250  1.23  0.07  1.96 
 251  0.59  0.09  1.96 
 252  0.60  0.08  1.96 
 253  1.07  0.08  1.96 
 254  0.27  0.09  1.96 
 255  1.05  0.07  1.96 
 256  0.67  0.13  1.96 
 257  0.51  0.06  1.96 
 258  1.04  0.09  1.96 
 259  0.66  0.08  1.96 
 260  1.17  0.07  1.96 
 261  0.93  0.09  1.96 
 262  0.77  0.11  1.96 
 263  0.48  0.11  1.96 
 264  0.83  0.09  1.96 
 265  0.66  0.11  1.96 
 266  0.57  0.09  1.96 
 267  1.36  0.11  1.96 
 268  0.38  0.16  1.96 
 269  0.71  0.21  1.96 
 270  1.19  0.25  1.96 
 271  1.00  0.23  1.96 
 272  0.77  0.19  1.96 
 273  1.34  0.11  1.96 
 274  0.98  0.17  1.96 
 275  0.90  0.25  1.96 
 276  1.26  0.19  1.96 
 277  1.12  0.16  1.96 
 278  1.06  0.14  1.96 
 279  1.55  0.17  1.96 
 280  0.69  0.14  1.96 
 281  0.44  0.20  1.96 
 282  1.13  0.24  1.96 
 283  1.38  0.26  1.96 
 284  1.06  0.34  1.96 
 285  0.59  0.30  1.96 
 286  0.81  0.32  1.96 
 287  1.33  0.36  1.96 
 288  0.46  0.35  1.96 
 289  0.88  0.28  1.96 
 290  1.78  0.29  1.96 
 291  1.04  0.39  1.96 
 292  0.61  0.25  1.96 
 293  0.76  0.23  1.96 
 294  1.40  0.34  1.96 
 295  1.15  0.26  1.96 
 296  0.69  0.19  1.96 
 297  1.11  0.23  1.96 
 298  0.93  0.50  1.96 
 299  0.84  0.50  1.96 
 300  0.66  0.36  1.96 
 301  0.37  0.18  1.96 
 302  0.86  0.21  1.96 
 303  0.99  0.25  1.96 
 304  0.96  0.19  1.96 
 305  0.56  0.15  1.96 
 306  1.24  0.20  1.96 
 307  1.76  0.18  1.96 
 308  0.62  0.11  1.96 
 309  1.14  0.11  1.96 
 310  0.70  0.12  1.96 
 311  0.91  0.16  1.96 
 312  0.58  0.29  1.96 
 313  0.89  0.16  1.96 
 314  1.30  0.17  1.96 
 315  1.65  0.12  1.96 
 316  1.31  0.10  1.96 
 317  1.09  0.16  1.96 
 318  0.69  0.10  1.96 
 319  0.52  0.22  1.96 
 320  0.42  0.13  1.96 
 321  1.11  0.11  1.96 
 322  0.81  0.26  1.96 
 323  0.55  0.18  1.96 
 324  1.33  0.16  1.96 
 325  1.80  0.12  1.96 
 326  1.01  0.28  1.96 
 327  1.05  0.24  1.96 
 328  0.85  0.09  1.96 
 329  1.36  0.16  1.96 
 330  1.34  0.16  1.96 
 331  0.85  0.25  1.96 
 332  0.84  0.19  1.96 
 333  0.85  0.08  1.96 
 334  1.45  0.04  1.96 
 335  1.12  0.06  1.96 
 336  1.19  0.05  1.96 
 337  0.68  0.09  1.96 
 338  1.03  0.14  1.96 
 339  1.22  0.17  1.96 
 340  0.53  0.08  1.96 
 341  0.90  0.11  1.96 
 342  1.03  0.11  1.96 
 343  0.66  0.17  1.96 
 344  1.57  0.30  1.96 
 345  1.37  0.28  1.96 
 346  1.35  0.24  1.96 
 347  1.16  0.25  1.96 
 348  1.11  0.32  1.96 
 349  0.60  0.20  1.96 
 350  1.04  0.31  1.96 
 351  0.75  0.29  1.96 
 352  1.28  0.31  1.96 
 353  1.06  0.23  1.96 
 354  1.50  0.22  1.96 
 355  1.56  0.17  1.96 
 356  1.46  0.24  1.96 
 357  1.14  0.33  1.96 
 358  0.87  0.81  1.96 
 359  1.15  0.66  1.96 
 360  1.19  1.20  1.96 
 361  0.87  0.74  1.96 
 362  1.10  0.43  1.96 
 363  0.77  0.32  1.96 
 364  1.27  0.41  1.96 
 365  0.97  0.28  1.96 
 366  1.02  0.22  1.96 
 367  1.29  0.15  1.96 
 368  0.87  0.17  1.96 
 369  1.38  0.22  1.96 
 370  0.92  0.19  1.96 
 371  2.09  0.22  1.96 
 372  1.32  0.26  2.09 
 373  0.80  0.25  2.09 
 374  1.49  0.21  2.09 
 375  1.70  0.12  2.09 
 376  1.08  0.25  2.09 
 377  1.43  0.23  2.09 
 378  0.99  0.16  2.09 
 379  0.54  0.18  2.09 
 380  1.20  0.14  2.09 
 381  0.97  0.11  2.09 
 382  1.58  0.15  2.09 
 383  1.05  0.23  2.09 
 384  1.72  0.32  2.09 
 385  0.73  0.52  2.09 
 386  1.61  0.33  2.09 
 387  0.61  0.30  2.09 
 388  0.62  0.31  2.09 
 389  1.27  0.23  2.09 
 390  0.50  0.28  2.09 
 391  0.97  0.27  2.09 
 392  1.03  0.30  2.09 
 393  0.91  0.29  2.09 
 394  0.85  0.26  2.09 
 395  1.05  0.30  2.09 
 396  1.05  0.37  2.09 
 397  1.18  0.96  2.09 
 398  0.87  1.21  2.09 
 399  1.04  1.54  2.09 
 400  0.81  1.36  2.09 
 401  0.77  0.90  2.09 
 402  1.30  0.40  2.09 
 403  0.90  0.98  2.09 
 404  0.67  0.34  2.09 
 405  1.33  0.40  2.09 
 406  0.98  0.40  2.09 
 407  1.37  0.31  2.09 
 408  1.49  0.27  2.09 
 409  1.33  0.34  2.09 
 410  1.23  0.24  2.09 
 411  0.74  0.20  2.09 
 412  0.50  0.17  2.09 
 413  1.17  0.15  2.09 
 414  1.72  0.14  2.09 
 415  1.00  0.17  2.09 
 416  1.35  0.20  2.09 
 417  1.51  0.17  2.09 
 418  0.98  0.20  2.09 
 419  1.34  0.24  2.09 
 420  1.00  0.26  2.09 
 421  1.46  0.26  2.09 
 422  0.77  0.28  2.09 
 423  1.48  0.27  2.09 
 424  1.13  0.29  2.09 
 425  1.08  0.31  2.09 
 426  1.25  0.51  2.09 
 427  1.24  1.03  2.09 
 428  0.52  0.38  2.09 
 429  0.90  1.12  2.09 
 430  1.06  1.29  2.09 
 431  1.61  1.44  2.09 
 432  0.62  1.65  2.09 
 433  1.36  2.01  2.09 
 434  1.10  1.80  2.09 
 435  1.00  1.77  2.09 
 436  1.13  1.84  2.09 
 437  1.02  2.12  2.09 
 438  0.59  1.72  2.09 
 439  1.85  1.16  2.09 
 440  1.11  0.98  2.09 
 441  1.12  1.84  2.09 
 442  1.98  1.40  2.09 
 443  1.07  1.09  2.09 
 444  1.08  1.15  2.09 
 445  1.16  1.68  2.09 
 446  1.42  1.66  2.09 
 447  1.49  1.75  2.09 
 448  0.87  1.24  2.09 
 449  0.51  2.14  2.09 
 450  0.91  1.81  2.09 
 451  0.93  1.87  2.09 
 452  1.06  0.73  2.09 
 453  1.23  1.32  2.09 
 454  0.99  0.90  2.09 
 455  1.63  1.52  2.09 
 456  1.02  1.39  2.09 
 457  1.36  0.74  2.09 
 458  1.02  1.42  2.09 
 459  1.13  0.78  2.09 
 460  1.35  1.19  2.09 
 461  0.97  1.09  2.09 
 462  1.35  1.26  2.09 
 463  1.42  0.97  2.09 
 464  1.28  1.65  2.09 
 465  1.18  1.18  2.09 
 466  0.79  0.93  2.09 
 467  1.01  2.78  2.09 
 468  1.03  0.79  2.09 
 469  1.75  0.78  2.09 
 470  0.82  2.59  2.09 
 471  1.09  1.73  2.09 
 472  0.72  2.62  2.09 
 473  0.82  0.45  2.09 
 474  2.00  0.92  2.09 
 475  1.31  0.40  2.09 
 476  0.93  0.56  2.09 
 477  2.01  1.15  2.09 
 478  0.66  1.44  2.09 
 479  0.85  1.27  2.09 
 480  1.72  1.37  2.09 
 481  1.16  1.04  2.09 
 482  1.24  1.47  2.09 
 483  1.33  0.71  2.09 
 484  1.56  1.34  2.09 
 485  1.27  1.16  2.09 
 486  1.68  1.13  2.09 
 487  1.34  1.45  2.09 
 488  1.28  1.23  2.09 
 489  1.58  1.27  2.09 
 490  1.44  1.35  2.09 
 491  0.53  1.55  2.09 
 492  0.92  0.42  2.09 
 493  1.32  1.89  2.09 
 494  1.28  0.57  2.09 
 495  1.54  1.95  2.09 
 496  1.38  0.69  2.09 
 497  1.59  0.34  2.09 
 498  1.55  0.37  2.09 
 499  1.25  0.41  2.09 
 500  0.95  0.52  2.09 
 501  1.02  0.30  2.09 
 502  1.25  0.36  2.09 
 503  1.89  0.45  2.09 
 504  1.02  0.37  2.09 
 505  1.55  1.48  2.09 
 506  1.37  1.24  2.09 
 507  0.95  0.88  2.09 
 508  1.55  1.74  2.09 
 509  0.81  1.06  2.09 
 510  1.37  0.90  2.09 
 511  1.11  0.81  2.09 
 512  1.27  1.11  2.09 
 513  1.14  0.93  2.09 
 514  0.62  0.93  2.09 
 515  0.89  0.88  2.09 
 516  0.73  1.64  2.09 
 517  1.51  2.10  2.09 
 518  0.76  1.17  2.09 
 519  1.02  0.99  2.09 
 520  1.77  1.04  2.09 
 521  1.40  2.58  2.09 
 522  0.94  3.69  2.09 
 523  1.29  2.76  2.09 
 524  1.49  2.51  2.09 
 525  1.62  2.20  2.09 
 526  1.25  2.71  2.09 
 527  1.46  2.40  2.09 
 528  1.28  2.00  2.09 
 529  1.59  1.13  2.09 
 530  1.37  3.17  2.09 
 531  1.85  1.01  2.09 
 532  0.94  1.22  2.09 
 533  0.60  0.77  2.09 
 534  1.43  0.93  2.09 
 535  1.58  0.78  2.09 
 536  0.84  0.84  2.09 
 537  0.55  0.58  2.09 
 538  1.37  0.50  2.09 
 539  0.65  0.82  2.09 
 540  1.13  0.67  2.09 
 541  0.68  0.63  2.09 
 542  0.84  0.74  2.09 
 543  1.02  0.58  2.09 
 544  1.76  0.69  2.09 
 545  1.07  0.55  2.09 
 546  1.19  0.39  2.09 
 547  1.78  0.54  2.09 
 548  1.22  0.61  2.09 
 549  1.19  0.57  2.09 
 550  1.62  0.94  2.09 
 551  1.25  0.88  2.09 
 552  1.20  0.85  2.09 
 553  1.86  0.51  2.09 
 554  1.22  0.75  2.09 
 555  1.60  0.89  2.09 
 556  1.45  0.53  2.09 
 557  1.21  0.82  2.09 
 558  1.48  0.68  2.09 
 559  1.74  0.47  2.09 
 560  1.95  0.70  2.09 
 561  1.09  0.44  2.09 
 562  1.04  0.46  2.09 
 563  1.40  0.52  2.09 
 564  1.61  0.74  2.09 
 565  1.53  0.63  2.09 
 566  1.53  0.61  2.09 
 567  1.71  0.32  2.09 
 568  1.57  0.46  2.09 
 569  1.44  0.39  2.09 
 570  1.38  0.38  2.09 
 571  1.36  0.80  2.09 
 572  1.15  0.88  2.09 
 573  1.88  0.59  2.09 
 574  1.38  0.71  2.09 
 575  1.84  0.39  2.09 
 576  1.39  0.69  2.09 
 577  1.63  0.78  2.09 
 578  0.96  0.82  2.09 
 579  1.38  0.88  2.09 
 580  2.05  0.90  2.09 
 581  1.18  0.59  2.09 
 582  1.66  0.76  2.09 
 583  1.19  0.49  2.09 
 584  1.43  0.74  2.09 
 585  1.10  0.72  2.09 
 586  1.85  0.82  2.09 
 587  1.35  0.81  2.09 
 588  0.78  0.61  2.09 
 589  1.70  0.54  2.09 
 590  1.26  0.43  2.09 
 591  1.46  0.70  2.09 
 592  1.63  0.71  2.09 
 593  1.91  1.56  2.09 
 594  1.72  0.70  2.09 
 595  1.15  0.82  2.09 
 596  1.65  0.54  2.09 
 597  1.28  0.46  2.09 
 598  1.05  2.46  2.09 
 599  1.46  2.41  2.09 
 600  1.48  2.50  2.09 
 601  0.81  2.60  2.09 
 602  1.04  0.55  2.09 
 603  1.73  0.91  2.09 
 604  1.39  0.55  2.09 
 605  1.43  0.48  2.09 
 606  1.39  0.51  2.09 
 607  1.39  0.67  2.09 
 608  1.52  0.72  2.09 
 609  1.43  0.84  2.09 
 610  1.70  1.79  2.09 
 611  0.89  0.43  2.09 
 612  1.92  0.72  2.09 
 613  1.21  0.80  2.09 
 614  1.64  0.70  2.09 
 615  1.72  1.69  2.09 
 616  1.27  0.92  2.09 
 617  1.73  1.69  2.09 
 618  1.90  0.62  2.09 
 619  1.88  1.73  2.09 
 620  1.70  0.66  2.09 
 621  1.11  2.26  2.09 
 622  1.32  2.29  2.09 
 623  1.17  0.79  2.09 
 624  1.59  2.04  2.09 
 625  1.40  1.16  2.09 
 626  1.88  1.74  2.09 
 627  1.17  1.68  2.09 
 628  1.06  1.42  2.09 
 629  1.42  2.73  2.09 
 630  1.05  2.41  2.09 
 631  0.97  2.48  2.09 
 632  0.83  1.47  2.09 
 633  1.32  1.93  2.09 
 634  2.28  2.31  2.09 
 635  1.35  2.75  2.28 
 636  1.50  0.79  2.28 
 637  1.12  2.31  2.28 
 638  0.94  2.09  2.28 
 639  1.75  0.75  2.28 
 640  1.02  1.32  2.28 
 641  1.72  2.23  2.28 
 642  1.28  2.42  2.28 
 643  1.18  2.85  2.28 
 644  1.25  2.18  2.28 
 645  1.21  2.37  2.28 
 646  1.37  2.03  2.28 
 647  1.83  2.59  2.28 
 648  1.57  2.28  2.28 
 649  1.73  2.10  2.28 
 650  1.44  3.18  2.28 
 651  1.60  0.54  2.28 
 652  1.58  0.76  2.28 
 653  0.82  0.90  2.28 
 654  1.04  2.09  2.28 
 655  0.97  2.62  2.28 
 656  1.08  0.88  2.28 
 657  1.14  0.78  2.28 
 658  1.34  2.07  2.28 
 659  1.17  1.41  2.28 
 660  1.72  2.31  2.28 
 661  1.88  1.49  2.28 
 662  1.68  2.52  2.28 
 663  1.44  2.27  2.28 
 664  1.05  1.05  2.28 
 665  1.64  0.66  2.28 
 666  0.98  1.70  2.28 
 667  0.83  0.80  2.28 
 668  1.61  1.37  2.28 
 669  1.61  0.68  2.28 
 670  0.90  1.68  2.28 
 671  1.62  1.15  2.28 
 672  1.75  2.21  2.28 
 673  1.19  0.55  2.28 
 674  1.73  1.47  2.28 
 675  0.82  1.25  2.28 
 676  1.54  1.32  2.28 
 677  1.40  1.13  2.28 
 678  0.96  1.29  2.28 
 679  1.64  1.27  2.28 
 680  1.79  1.43  2.28 
 681  1.44  1.08  2.28 
 682  1.70  1.63  2.28 
 683  1.60  1.27  2.28 
 684  1.90  1.81  2.28 
 685  1.19  1.31  2.28 
 686  1.33  2.30  2.28 
 687  1.51  1.76  2.28 
 688  1.24  1.79  2.28 
 689  1.09  0.56  2.28 
 690  1.53  1.89  2.28 
 691  1.55  2.05  2.28 
 692  0.67  0.81  2.28 
 693  1.40  0.66  2.28 
 694  2.30  0.68  2.28 
 695  1.90  0.76  2.30 
 696  0.81  2.65  2.30 
 697  1.02  1.98  2.30 
 698  1.23  2.27  2.30 
 699  1.57  1.07  2.30 
 700  1.54  1.18  2.30 
 701  1.70  3.36  2.30 
 702  1.49  1.21  2.30 
 703  1.52  2.04  2.30 
 704  1.67  2.14  2.30 
 705  1.51  2.38  2.30 
 706  0.59  1.99  2.30 
 707  1.42  2.13  2.30 
 708  1.22  2.35  2.30 
 709  2.23  2.34  2.30 
 710  1.22  2.53  2.30 
 711  1.37  2.12  2.30 
 712  1.42  1.18  2.30 
 713  1.67  2.58  2.30 
 714  1.07  0.99  2.30 
 715  1.82  1.70  2.30 
 716  1.83  0.75  2.30 
 717  1.72  1.36  2.30 
 718  2.06  1.40  2.30 
 719  1.31  2.31  2.30 
 720  2.18  2.41  2.30 
 721  1.61  1.48  2.30 
 722  2.15  1.97  2.30 
 723  1.81  1.90  2.30 
 724  2.27  1.81  2.30 
 725  1.17  1.98  2.30 
 726  2.23  2.55  2.30 
 727  0.91  2.11  2.30 
 728  1.57  1.16  2.30 
 729  1.37  0.99  2.30 
 730  0.96  1.70  2.30 
 731  2.15  1.54  2.30 
 732  1.56  1.26  2.30 
 733  1.16  1.80  2.30 
 734  1.22  1.21  2.30 
 735  1.59  2.53  2.30 
 736  1.63  1.53  2.30 
 737  1.17  1.34  2.30 
 738  1.06  1.89  2.30 
 739  1.65  0.82  2.30 
 740  1.11  1.26  2.30 
 741  1.84  0.90  2.30 
 742  1.21  1.02  2.30 
 743  1.25  1.31  2.30 
 744  1.17  1.33  2.30 
 745  2.19  1.76  2.30 
 746  1.82  1.19  2.30 
 747  1.28  1.84  2.30 
 748  1.77  1.31  2.30 
 749  1.01  1.46  2.30 
 750  1.61  1.18  2.30 
 751  1.51  1.46  2.30 
 752  1.63  1.30  2.30 
 753  1.83  1.54  2.30 
 754  1.19  1.43  2.30 
 755  1.08  1.44  2.30 
 756  2.02  1.61  2.30 
 757  2.06  1.46  2.30 
 758  1.52  2.37  2.30 
 759  1.00  1.51  2.30 
 760  1.96  1.62  2.30 
 761  1.36  2.57  2.30 
 762  1.11  1.78  2.30 
 763  1.82  1.63  2.30 
 764  0.98  2.25  2.30 
 765  1.66  2.55  2.30 
 766  2.49  2.27  2.30 
 767  2.35  1.20  2.49 
 768  2.08  2.56  2.49 
 769  1.66  2.33  2.49 
 770  1.58  1.44  2.49 
 771  2.38  1.45  2.49 
 772  1.42  1.51  2.49 
 773  1.70  1.91  2.49 
 774  1.39  1.39  2.49 
 775  2.31  2.04  2.49 
 776  1.94  1.73  2.49 
 777  2.23  2.20  2.49 
 778  1.67  1.55  2.49 
 779  1.09  2.25  2.49 
 780  1.27  1.27  2.49 
 781  1.54  1.06  2.49 
 782  1.98  0.73  2.49 
 783  1.50  1.43  2.49 
 784  1.98  1.81  2.49 
 785  1.60  1.17  2.49 
 786  1.39  1.63  2.49 
 787  2.26  1.51  2.49 
 788  1.94  1.95  2.49 
 789  1.92  2.10  2.49 
 790  1.87  1.14  2.49 
 791  1.77  0.93  2.49 
 792  1.76  1.09  2.49 
 793  1.72  1.32  2.49 
 794  1.66  1.54  2.49 
 795  1.44  0.79  2.49 
 796  1.56  0.82  2.49 
 797  1.80  1.30  2.49 
 798  1.65  0.60  2.49 
 799  2.52  0.27  2.49 
 800  2.36  0.32  2.52 
 801  1.43  1.06  2.52 
 802  1.17  1.25  2.52 
 803  1.78  1.41  2.52 
 804  1.89  1.95  2.52 
 805  2.20  1.74  2.52 
 806  1.20  1.74  2.52 
 807  1.94  1.42  2.52 
 808  2.10  1.99  2.52 
 809  2.52  1.85  2.52 
 810  1.49  2.20  2.52 
 811  1.75  1.89  2.52 
 812  1.99  1.91  2.52 
 813  2.23  1.94  2.52 
 814  0.64  0.92  2.52 
 815  1.88  1.67  2.52 
 816  1.52  2.69  2.52 
 817  2.06  1.94  2.52 
 818  2.13  2.14  2.52 
 819  1.43  1.63  2.52 
 820  2.30  1.31  2.52 
 821  1.85  1.19  2.52 
 822  1.26  0.33  2.52 
 823  1.92  1.22  2.52 
 824  2.03  1.59  2.52 
 825  2.13  1.56  2.52 
 826  1.57  1.91  2.52 
 827  1.64  1.72  2.52 
 828  1.92  1.75  2.52 
 829  1.61  2.13  2.52 
 830  1.65  1.99  2.52 
 831  1.97  1.70  2.52 
 832  1.75  1.95  2.52 
 833  2.15  1.89  2.52 
 834  2.26  1.74  2.52 
 835  1.99  2.15  2.52 
 836  1.67  2.25  2.52 
 837  1.90  2.55  2.52 
 838  1.83  1.70  2.52 
 839  1.98  1.90  2.52 
 840  1.74  2.15  2.52 
 841  1.84  2.11  2.52 
 842  1.97  1.54  2.52 
 843  1.96  1.87  2.52 
 844  1.40  2.36  2.52 
 845  1.76  1.38  2.52 
 846  2.33  2.43  2.52 
 847  1.75  2.90  2.52 
 848  1.77  2.37  2.52 
 849  2.41  0.96  2.52 
 850  2.30  1.16  2.52 
 851  2.25  1.28  2.52 
 852  2.35  1.09  2.52 
 853  1.75  0.98  2.52 
 854  2.40  2.13  2.52 
 855  1.86  3.46  2.52 
 856  2.01  3.10  2.52 
 857  1.75  2.79  2.52 
 858  2.32  2.04  2.52 
 859  1.98  1.63  2.52 
 860  1.86  2.84  2.52 
 861  1.26  1.54  2.52 
 862  2.36  1.64  2.52 
 863  1.45  2.24  2.52 
 864  1.66  1.66  2.52 
 865  1.96  2.00  2.52 
 866  1.93  1.70  2.52 
 867  1.77  1.77  2.52 
 868  1.60  1.21  2.52 
 869  1.98  2.07  2.52 
 870  2.13  2.27  2.52 
 871  1.56  1.37  2.52 
 872  2.06  2.60  2.52 
 873  1.26  2.67  2.52 
 874  2.45  1.67  2.52 
 875  2.38  2.89  2.52 
 876  1.35  1.87  2.52 
 877  1.99  1.76  2.52 
 878  2.70  1.57  2.52 
 879  2.12  1.77  2.70 
 880  2.64  3.01  2.70 
 881  1.90  2.36  2.70 
 882  2.65  2.08  2.70 
 883  1.76  2.43  2.70 
 884  2.16  2.93  2.70 
 885  2.38  2.00  2.70 
 886  2.10  2.60  2.70 
 887  1.90  3.07  2.70 
 888  1.91  2.95  2.70 
 889  1.57  1.77  2.70 
 890  2.13  2.31  2.70 
 891  2.15  2.94  2.70 
 892  2.62  2.86  2.70 
 893  2.28  3.28  2.70 
 894  1.70  2.71  2.70 
 895  2.28  3.03  2.70 
 896  2.17  2.90  2.70 
 897  2.35  3.41  2.70 
 898  2.84  2.53  2.70 
 899  1.94  3.62  2.84 
 900  1.02  2.87  2.84 
 901  2.77  4.49  2.84 
 902  2.49  4.34  2.84 
 903  2.05  4.43  2.84 
 904  2.54  2.67  2.84 
 905  2.99  4.21  2.84 
 906  2.31  4.23  2.99 
 907  2.27  2.46  2.99 
 908  1.94  0.88  2.99 
 909  1.03  1.92  2.99 
 910  2.22  3.54  2.99 
 911  1.33  1.48  2.99 
 912  1.18  2.41  2.99 
 913  2.52  0.73  2.99 
 914  2.41  1.37  2.99 
 915  2.15  0.79  2.99 
 916  2.83  2.37  2.99 
 917  2.56  2.00  2.99 
 918  2.19  0.89  2.99 
 919  1.83  2.50  2.99 
 920  1.20  2.94  2.99 
 921  1.72  3.23  2.99 
 922  1.99  2.84  2.99 
 923  1.85  2.37  2.99 
 924  2.47  2.25  2.99 
 925  1.87  1.02  2.99 
 926  3.02  2.89  2.99 
 927  2.19  1.39  3.02 
 928  1.60  3.17  3.02 
 929  2.19  2.83  3.02 
 930  2.32  1.45  3.02 
 931  2.73  1.74  3.02 
 932  1.82  1.46  3.02 
 933  1.52  3.83  3.02 
 934  2.05  2.39  3.02 
 935  2.16  3.63  3.02 
 936  2.48  3.10  3.02 
 937  2.26  2.35  3.02 
 938  2.76  3.81  3.02 
 939  2.43  2.38  3.02 
 940  2.56  2.91  3.02 
 941  2.68  3.67  3.02 
 942  1.46  2.43  3.02 
 943  1.69  2.07  3.02 
 944  2.06  4.16  3.02 
 945  2.34  1.96  3.02 
 946  1.79  2.96  3.02 
 947  2.44  2.08  3.02 
 948  2.02  1.64  3.02 
 949  1.99  1.51  3.02 
 950  1.66  3.53  3.02 
 951  2.20  1.82  3.02 
 952  2.33  3.09  3.02 
 953  1.73  2.93  3.02 
 954  2.12  2.00  3.02 
 955  3.01  2.30  3.02 
 956  2.15  1.83  3.02 
 957  2.49  1.21  3.02 
 958  2.03  1.48  3.02 
 959  1.87  2.38  3.02 
 960  2.18  1.69  3.02 
 961  2.41  1.52  3.02 
 962  2.84  1.54  3.02 
 963  2.35  1.44  3.02 
 964  2.06  3.85  3.02 
 965  2.52  2.39  3.02 
 966  2.04  2.69  3.02 
 967  2.13  2.09  3.02 
 968  1.80  3.38  3.02 
 969  2.54  3.49  3.02 
 970  1.45  3.13  3.02 
 971  2.74  1.48  3.02 
 972  2.09  1.78  3.02 
 973  2.43  2.72  3.02 
 974  2.65  2.43  3.02 
 975  1.94  2.49  3.02 
 976  2.02  2.27  3.02 
 977  2.68  2.73  3.02 
 978  2.86  2.57  3.02 
 979  2.39  2.93  3.02 
 980  2.51  3.01  3.02 
 981  1.67  1.87  3.02 
 982  1.59  1.72  3.02 
 983  2.40  2.37  3.02 
 984  2.32  4.06  3.02 
 985  2.67  1.61  3.02 
 986  2.55  3.13  3.02 
 987  1.94  3.58  3.02 
 988  2.80  3.51  3.02 
 989  2.00  2.55  3.02 
 990  2.76  2.98  3.02 
 991  2.10  2.89  3.02 
 992  2.38  2.39  3.02 
 993  1.98  3.79  3.02 
 994  2.64  1.16  3.02 
 995  2.25  3.75  3.02 
 996  2.64  4.04  3.02 
 997  2.73  2.57  3.02 
 998  2.43  1.61  3.02 
 999  2.23  1.08  3.02 
1000  2.34  1.21  3.02 
1001  3.00  1.23  3.02 
1002  1.68  1.31  3.02 
1003  2.41  1.25  3.02 
1004  1.77  2.92  3.02 
1005  1.90  1.88  3.02 
1006  1.84  0.68  3.02 
1007  2.29  0.38  3.02 
1008  3.05  2.39  3.02 
1009  2.90  0.95  3.05 
1010  2.24  0.99  3.05 
1011  2.21  3.32  3.05 
1012  2.51  1.03  3.05 
1013  1.56  1.29  3.05 
1014  1.84  3.77  3.05 
1015  1.53  3.12  3.05 
1016  2.00  2.92  3.05 
1017  2.84  3.11  3.05 
1018  1.93  2.47  3.05 
1019  2.07  2.41  3.05 
1020  2.24  2.16  3.05 
1021  2.55  1.86  3.05 
1022  2.43  1.65  3.05 
1023  2.41  1.64  3.05 
1024  2.33  1.34  3.05 
1025  2.05  3.09  3.05 
1026  1.50  1.14  3.05 
1027  2.36  2.89  3.05 
1028  2.36  2.98  3.05 
1029  2.34  2.86  3.05 
1030  1.62  2.78  3.05 
1031  1.36  2.32  3.05 
1032  1.89  2.99  3.05 
1033  2.61  3.23  3.05 
1034  2.73  2.45  3.05 
1035  1.65  4.25  3.05 
1036  2.39  3.81  3.05 
1037  1.58  3.94  3.05 
1038  2.67  4.02  3.05 
1039  2.61  3.24  3.05 
1040  2.81  2.05  3.05 
1041  3.05  1.83  3.05 
1042  2.77  1.84  3.05 
1043  2.50  3.00  3.05 
1044  2.55  2.40  3.05 
1045  2.61  3.49  3.05 
1046  2.34  1.95  3.05 
1047  0.95  2.98  3.05 
1048  2.27  1.65  3.05 
1049  2.52  3.14  3.05 
1050  1.78  1.67  3.05 
1051  1.97  2.25  3.05 
1052  2.00  3.84  3.05 
1053  3.08  2.97  3.05 
1054  1.71  4.19  3.08 
1055  2.98  4.06  3.08 
1056  2.57  1.42  3.08 
1057  1.40  2.08  3.08 
1058  1.39  3.43  3.08 
1059  2.63  3.08  3.08 
1060  2.67  2.42  3.08 
1061  2.31  3.02  3.08 
1062  1.94  1.98  3.08 
1063  2.20  0.92  3.08 
1064  1.52  1.68  3.08 
1065  1.45  3.85  3.08 
1066  2.19  2.36  3.08 
1067  1.98  1.17  3.08 
1068  2.01  2.40  3.08 
1069  1.13  3.78  3.08 
1070  1.54  1.50  3.08 
1071  2.26  2.44  3.08 
1072  2.31  1.53  3.08 
1073  2.30  3.31  3.08 
1074  3.13  3.67  3.08 
1075  2.20  1.92  3.13 
1076  1.52  2.96  3.13 
1077  2.59  2.77  3.13 
1078  2.29  3.47  3.13 
1079  2.48  2.87  3.13 
1080  1.81  3.03  3.13 
1081  2.47  2.27  3.13 
1082  2.03  0.86  3.13 
1083  2.48  1.17  3.13 
1084  1.16  2.71  3.13 
1085  2.09  1.71  3.13 
1086  2.09  2.15  3.13 
1087  1.24  1.01  3.13 
1088  1.43  0.91  3.13 
1089  2.01  0.82  3.13 
1090  2.32  0.81  3.13 
1091  2.26  0.97  3.13 
1092  2.22  1.31  3.13 
1093  1.80  0.88  3.13 
1094  1.92  0.65  3.13 
1095  1.94  1.19  3.13 
1096  2.18  1.30  3.13 
1097  2.54  2.54  3.13 
1098  1.84  4.24  3.13 
1099  2.21  3.02  3.13 
1100  1.37  2.13  3.13 
1101  1.73  1.61  3.13 
1102  2.03  3.11  3.13 
1103  1.94  3.06  3.13 
1104  2.79  3.19  3.13 
1105  2.33  1.44  3.13 
1106  2.04  1.55  3.13 
1107  2.25  1.20  3.13 
1108  1.97  1.82  3.13 
1109  2.38  3.55  3.13 
1110  1.99  2.74  3.13 
1111  2.07  2.56  3.13 
1112  2.43  2.64  3.13 
1113  2.11  2.43  3.13 
1114  1.65  2.59  3.13 
1115  2.12  2.54  3.13 
1116  2.11  1.59  3.13 
1117  1.83  2.68  3.13 
1118  1.29  1.11  3.13 
1119  2.54  0.89  3.13 
1120  2.42  0.93  3.13 
1121  1.94  0.82  3.13 
1122  1.48  2.13  3.13 
1123  1.38  2.49  3.13 
1124  1.88  1.67  3.13 
1125  2.63  2.30  3.13 
1126  1.28  3.39  3.13 
1127  1.73  2.03  3.13 
1128  1.77  2.74  3.13 
1129  2.49  2.02  3.13 
1130  2.08  2.55  3.13 
1131  3.08  2.22  3.13 
1132  2.17  2.21  3.13 
1133  1.48  2.36  3.13 
1134  2.47  2.60  3.13 
1135  2.80  3.59  3.13 
1136  2.78  1.23  3.13 
1137  2.34  1.28  3.13 
1138  2.66  3.32  3.13 
1139  1.93  2.32  3.13 
1140  2.37  2.65  3.13 
1141  2.94  3.25  3.13 
1142  2.05  2.47  3.13 
1143  1.17  1.47  3.13 
1144  2.29  1.52  3.13 
1145  2.19  0.80  3.13 
1146  1.85  0.73  3.13 
1147  2.05  0.93  3.13 
1148  2.56  1.24  3.13 
1149  1.82  0.78  3.13 
1150  2.68  1.01  3.13 
1151  2.51  0.84  3.13 
1152  3.31  1.25  3.13 
1153  2.70  0.98  3.31 
1154  1.98  1.02  3.31 
1155  1.21  1.13  3.31 
1156  2.29  1.19  3.31 
1157  1.95  1.30  3.31 
1158  2.26  1.18  3.31 
1159  2.37  1.15  3.31 
1160  2.52  1.27  3.31 
1161  1.80  1.10  3.31 
1162  2.08  2.12  3.31 
1163  2.06  2.31  3.31 
1164  2.47  1.38  3.31 
1165  1.79  1.14  3.31 
1166  1.91  1.05  3.31 
1167  2.37  0.83  3.31 
1168  1.89  0.78  3.31 
1169  2.11  0.90  3.31 
1170  1.46  3.12  3.31 
1171  2.73  1.04  3.31 
1172  2.52  1.08  3.31 
1173  2.68  1.58  3.31 
1174  2.26  1.06  3.31 
1175  2.86  1.36  3.31 
1176  1.57  1.02  3.31 
1177  2.59  2.45  3.31 
1178  2.14  1.36  3.31 
1179  2.25  1.15  3.31 
1180  1.92  1.54  3.31 
1181  1.73  1.37  3.31 
1182  2.21  1.65  3.31 
1183  1.45  1.52  3.31 
1184  2.60  1.35  3.31 
1185  1.40  2.52  3.31 
1186  2.47  3.54  3.31 
1187  1.83  3.01  3.31 
1188  3.08  3.91  3.31 
1189  1.75  3.61  3.31 
1190  1.95  0.95  3.31 
1191  2.23  1.66  3.31 
1192  1.90  3.85  3.31 
1193  1.32  1.00  3.31 
1194  2.02  1.89  3.31 
1195  2.07  3.18  3.31 
1196  1.95  2.56  3.31 
1197  1.40  1.31  3.31 
1198  2.47  3.22  3.31 
1199  2.16  3.19  3.31 
1200  2.03  0.91  3.31 
1201  1.72  1.23  3.31 
1202  1.50  0.87  3.31 
1203  2.82  2.01  3.31 
1204  2.25  1.90  3.31 
1205  1.54  1.05  3.31 
1206  1.81  0.87  3.31 
1207  2.42  1.09  3.31 
1208  2.00  0.45  3.31 
1209  2.25  1.98  3.31 
1210  1.89  1.15  3.31 
1211  2.33  1.14  3.31 
1212  2.24  1.18  3.31 
1213  2.27  0.97  3.31 
1214  2.31  1.38  3.31 
1215  1.64  1.06  3.31 
1216  1.80  1.02  3.31 
1217  1.51  0.60  3.31 
1218  1.69  1.01  3.31 
1219  2.01  1.02  3.31 
1220  2.18  3.66  3.31 
1221  1.13  1.47  3.31 
1222  2.70  1.64  3.31 
1223  2.65  1.54  3.31 
1224  2.46  2.36  3.31 
1225  1.77  3.63  3.31 
1226  1.29  3.35  3.31 
1227  2.56  3.67  3.31 
1228  1.72  3.17  3.31 
1229  2.21  3.55  3.31 
1230  2.50  3.28  3.31 
1231  1.00  1.15  3.31 
1232  2.33  1.50  3.31 
1233  2.40  3.17  3.31 
1234  2.03  3.88  3.31 
1235  2.10  3.07  3.31 
1236  1.68  3.04  3.31 
1237  2.46  2.91  3.31 
1238  1.80  3.65  3.31 
1239  2.04  3.82  3.31 
1240  1.18  3.39  3.31 
1241  1.71  2.73  3.31 
1242  2.54  1.70  3.31 
1243  2.56  3.70  3.31 
1244  2.51  3.03  3.31 
1245  1.52  4.18  3.31 
1246  1.58  1.89  3.31 
1247  3.10  3.35  3.31 
1248  2.36  4.23  3.31 
1249  3.06  2.05  3.31 
1250  1.96  3.71  3.31 
1251  2.18  1.38  3.31 
1252  2.60  2.41  3.31 
1253  2.48  2.42  3.31 
1254  1.20  3.93  3.31 
1255  2.38  3.17  3.31 
1256  2.10  3.95  3.31 
1257  2.19  2.07  3.31 
1258  2.19  2.61  3.31 
1259  2.90  2.39  3.31 
1260  2.43  3.49  3.31 
1261  2.94  2.96  3.31 
1262  2.31  3.47  3.31 
1263  2.32  3.49  3.31 
1264  1.58  3.40  3.31 
1265  3.06  2.90  3.31 
1266  2.83  3.99  3.31 
1267  1.30  3.02  3.31 
1268  2.11  1.66  3.31 
1269  2.57  3.51  3.31 
1270  1.23  3.17  3.31 
1271  1.79  2.95  3.31 
1272  2.76  3.60  3.31 
1273  1.50  3.74  3.31 
1274  1.41  1.63  3.31 
1275  1.75  2.15  3.31 
1276  1.95  3.22  3.31 
1277  2.83  1.96  3.31 
1278  2.23  3.43  3.31 
1279  1.56  1.96  3.31 
1280  1.87  3.78  3.31 
1281  2.09  3.38  3.31 
1282  3.25  3.32  3.31 
1283  2.73  0.69  3.31 
1284  1.34  0.51  3.31 
1285  2.32  2.31  3.31 
1286  2.03  2.19  3.31 
1287  2.03  1.51  3.31 
1288  1.02  3.03  3.31 
1289  2.32  3.44  3.31 
1290  2.18  0.83  3.31 
1291  1.67  3.99  3.31 
1292  2.08  3.38  3.31 
1293  2.57  3.68  3.31 
1294  1.37  4.26  3.31 
1295  1.75  2.95  3.31 
1296  2.37  2.51  3.31 
1297  2.21  4.16  3.31 
1298  1.62  3.09  3.31 
1299  1.32  4.80  3.31 
1300  2.69  4.75  3.31 
1301  2.12  4.65  3.31 
1302  2.16  4.45  3.31 
1303  2.17  3.19  3.31 
1304  1.75  2.36  3.31 
1305  2.66  1.48  3.31 
1306  2.56  3.69  3.31 
1307  1.98  4.40  3.31 
1308  2.22  2.15  3.31 
1309  1.97  3.70  3.31 
1310  2.39  2.97  3.31 
1311  2.01  3.58  3.31 
1312  2.94  3.82  3.31 
1313  2.63  3.88  3.31 
1314  1.55  3.25  3.31 
1315  3.01  4.54  3.31 
1316  1.46  3.06  3.31 
1317  1.14  2.33  3.31 
1318  1.45  3.42  3.31 
1319  1.30  1.98  3.31 
1320  2.24  3.01  3.31 
1321  1.80  3.22  3.31 
1322  2.85  1.94  3.31 
1323  2.14  3.70  3.31 
1324  2.56  3.03  3.31 
1325  1.44  3.48  3.31 
1326  1.92  2.80  3.31 
1327  3.19  2.71  3.31 
1328  2.04  3.08  3.31 
1329  2.41  1.51  3.31 
1330  1.76  2.42  3.31 
1331  1.90  2.24  3.31 
1332  2.56  0.85  3.31 
1333  2.07  0.75  3.31 
1334  2.42  1.07  3.31 
1335  2.05  0.93  3.31 
1336  1.21  0.78  3.31 
1337  2.54  1.84  3.31 
1338  2.01  1.14  3.31 
1339  1.59  3.03  3.31 
1340  2.72  3.27  3.31 
1341  1.23  1.70  3.31 
1342  1.77  1.13  3.31 
1343  1.23  0.65  3.31 
1344  2.61  1.25  3.31 
1345  2.97  1.45  3.31 
1346  2.65  1.57  3.31 
1347  2.95  0.96  3.31 
1348  1.61  3.22  3.31 
1349  2.81  1.95  3.31 
1350  2.75  2.59  3.31 
1351  2.37  1.36  3.31 
1352  2.59  3.07  3.31 
1353  1.50  3.85  3.31 
1354  2.12  2.05  3.31 
1355  2.02  1.14  3.31 
1356  2.86  0.77  3.31 
1357  2.17  3.38  3.31 
1358  2.11  1.46  3.31 
1359  1.77  0.87  3.31 
1360  1.37  0.84  3.31 
1361  1.70  1.23  3.31 
1362  2.04  1.19  3.31 
1363  1.83  0.73  3.31 
1364  1.83  3.48  3.31 
1365  1.74  2.30  3.31 
1366  2.56  0.99  3.31 
1367  1.60  3.58  3.31 
1368  2.20  3.70  3.31 
1369  2.46  1.88  3.31 
1370  2.05  1.13  3.31 
1371  1.89  1.01  3.31 
1372  2.36  1.00  3.31 
1373  3.33  1.21  3.31 
1374  2.20  1.24  3.33 
1375  1.85  0.55  3.33 
1376  2.12  1.86  3.33 
1377  1.92  0.84  3.33 
1378  0.72  0.73  3.33 
1379  1.64  2.02  3.33 
1380  2.17  1.17  3.33 
1381  1.62  0.83  3.33 
1382  1.68  0.70  3.33 
1383  1.97  3.01  3.33 
1384  0.91  2.41  3.33 
1385  2.23  0.83  3.33 
1386  1.64  0.60  3.33 
1387  1.96  0.81  3.33 
1388  2.02  2.59  3.33 
1389  2.69  2.22  3.33 
1390  2.07  1.90  3.33 
1391  1.44  1.35  3.33 
1392  2.73  1.16  3.33 
1393  1.72  0.75  3.33 
1394  1.93  1.76  3.33 
1395  0.82  0.82  3.33 
1396  2.00  0.85  3.33 
1397  1.66  0.80  3.33 
1398  1.47  1.49  3.33 
1399  2.33  1.49  3.33 
1400  1.98  0.26  3.33 
1401  0.97  0.25  3.33 
1402  2.05  0.56  3.33 
1403  1.47  0.54  3.33 
1404  1.61  0.25  3.33 
1405  2.72  0.22  3.33 
1406  1.57  0.45  3.33 
1407  2.48  0.22  3.33 
1408  2.41  1.17  3.33 
1409  2.28  1.73  3.33 
1410  2.55  1.19  3.33 
1411  1.83  1.26  3.33 
1412  2.36  2.14  3.33 
1413  3.13  1.48  3.33 
1414  1.91  0.44  3.33 
1415  2.36  0.75  3.33 
1416  2.16  0.19  3.33 
1417  2.37  2.18  3.33 
1418  2.96  2.02  3.33 
1419  1.97  0.33  3.33 
1420  1.01  0.61  3.33 
1421  2.51  0.61  3.33 
1422  1.54  0.22  3.33 
1423  2.48  0.65  3.33 
1424  3.30  0.81  3.33 
1425  1.91  0.88  3.33 
1426  2.58  0.50  3.33 
1427  2.90  2.20  3.33 
1428  2.47  0.25  3.33 
1429  2.44  0.74  3.33 
1430  2.72  0.35  3.33 
1431  1.61  1.19  3.33 
1432  1.57  0.74  3.33 
1433  2.08  1.27  3.33 
1434  2.54  1.05  3.33 
1435  2.13  0.30  3.33 
1436  2.74  1.65  3.33 
1437  1.03  0.86  3.33 
1438  2.87  0.26  3.33 
1439  3.11  2.42  3.33 
1440  2.75  0.95  3.33 
1441  2.48  2.53  3.33 
1442  1.67  2.31  3.33 
1443  2.59  0.41  3.33 
1444  2.78  1.09  3.33 
1445  1.91  2.80  3.33 
1446  2.53  2.25  3.33 
1447  2.77  1.11  3.33 
1448  2.14  0.90  3.33 
1449  2.55  0.67  3.33 
1450  2.93  0.62  3.33 
1451  2.26  2.90  3.33 
1452  2.96  1.04  3.33 
1453  1.34  1.36  3.33 
1454  2.67  1.91  3.33 
1455  2.24  1.76  3.33 
1456  2.55  0.92  3.33 
1457  2.19  0.76  3.33 
1458  2.20  0.42  3.33 
1459  3.05  0.86  3.33 
1460  2.70  0.95  3.33 
1461  1.99  0.70  3.33 
1462  1.63  0.67  3.33 
1463  3.13  1.03  3.33 
1464  2.86  0.88  3.33 
1465  2.15  1.05  3.33 
1466  2.14  0.63  3.33 
1467  2.57  1.53  3.33 
1468  3.46  1.55  3.33 
1469  2.66  1.25  3.46 
1470  2.55  1.28  3.46 
1471  2.20  1.71  3.46 
1472  3.14  3.59  3.46 
1473  2.31  1.15  3.46 
1474  2.24  2.17  3.46 
1475  1.92  1.42  3.46 
1476  3.45  1.40  3.46 
1477  2.13  3.95  3.46 
1478  1.45  2.81  3.46 
1479  2.59  1.74  3.46 
1480  2.33  1.03  3.46 
1481  1.99  2.18  3.46 
1482  3.44  1.55  3.46 
1483  3.36  0.53  3.46 
1484  1.09  2.21  3.46 
1485  2.34  2.30  3.46 
1486  2.61  0.42  3.46 
1487  1.68  1.98  3.46 
1488  1.01  2.34  3.46 
1489  2.00  2.01  3.46 
1490  2.67  0.50  3.46 
1491  3.22  0.73  3.46 
1492  2.58  0.49  3.46 
1493  1.79  3.49  3.46 
1494  1.92  4.49  3.46 
1495  1.60  2.56  3.46 
1496  2.50  2.21  3.46 
1497  1.70  1.95  3.46 
1498  2.95  2.29  3.46 
1499  2.07  0.49  3.46 
1500  3.07  0.77  3.46 
1501  2.67  0.18  3.46 
1502  1.60  0.48  3.46 
1503  2.02  0.71  3.46 
1504  2.35  0.46  3.46 
1505  2.46  0.60  3.46 
1506  2.44  0.90  3.46 
1507  2.29  0.37  3.46 
1508  2.53  0.57  3.46 
1509  1.49  1.09  3.46 
1510  2.57  1.98  3.46 
1511  1.11  0.48  3.46 
1512  1.80  0.58  3.46 
1513  2.93  3.48  3.46 
1514  2.56  1.32  3.46 
1515  1.74  2.64  3.46 
1516  2.66  2.72  3.46 
1517  1.59  1.48  3.46 
1518  2.06  1.96  3.46 
1519  2.19  3.47  3.46 
1520  2.60  0.93  3.46 
1521  2.29  1.44  3.46 
1522  2.10  2.36  3.46 
1523  1.80  1.00  3.46 
1524  1.95  3.60  3.46 
1525  3.19  2.89  3.46 
1526  2.72  1.03  3.46 
1527  2.51  3.02  3.46 
1528  3.28  2.87  3.46 
1529  2.50  3.84  3.46 
1530  2.89  3.06  3.46 
1531  2.30  2.29  3.46 
1532  2.73  4.13  3.46 
1533  1.93  1.91  3.46 
1534  1.95  0.62  3.46 
1535  2.55  2.06  3.46 
1536  1.86  1.27  3.46 
1537  2.57  3.57  3.46 
1538  2.32  1.70  3.46 
1539  1.35  2.28  3.46 
1540  1.80  1.65  3.46 
1541  1.76  1.00  3.46 
1542  3.09  1.44  3.46 
1543  2.77  2.54  3.46 
1544  1.85  0.93  3.46 
1545  1.35  2.98  3.46 
1546  2.11  3.53  3.46 
1547  2.40  2.90  3.46 
1548  2.51  4.61  3.46 
1549  3.10  3.71  3.46 
1550  2.55  1.38  3.46 
1551  2.17  0.91  3.46 
1552  2.60  3.00  3.46 
1553  2.10  3.31  3.46 
1554  2.17  3.43  3.46 
1555  1.00  2.69  3.46 
1556  2.28  2.00  3.46 
1557  1.94  2.00  3.46 
1558  1.29  2.04  3.46 
1559  2.97  0.72  3.46 
1560  2.20  1.73  3.46 
1561  1.48  2.29  3.46 
1562  2.31  0.54  3.46 
1563  1.63  0.31  3.46 
1564  1.16  0.27  3.46 
1565  2.74  2.92  3.46 
1566  2.34  2.15  3.46 
1567  2.35  2.14  3.46 
1568  2.70  0.89  3.46 
1569  2.05  2.39  3.46 
1570  2.05  1.82  3.46 
1571  1.69  2.15  3.46 
1572  2.13  2.68  3.46 
1573  2.76  0.95  3.46 
1574  3.21  2.70  3.46 
1575  1.97  1.00  3.46 
1576  1.78  0.55  3.46 
1577  2.42  0.23  3.46 
1578  1.19  1.24  3.46 
1579  2.67  0.29  3.46 
1580  2.70  0.61  3.46 
1581  3.41  0.77  3.46 
1582  2.15  0.40  3.46 
1583  2.15  1.02  3.46 
1584  1.48  0.39  3.46 
1585  1.52  0.28  3.46 
1586  1.54  0.39  3.46 
1587  2.86  0.52  3.46 
1588  1.64  2.33  3.46 
1589  2.90  0.85  3.46 
1590  1.70  0.25  3.46 
1591  2.11  0.38  3.46 
1592  2.54  0.45  3.46 
1593  2.76  0.53  3.46 
1594  2.41  0.25  3.46 
1595  2.71  0.54  3.46 
1596  1.90  0.19  3.46 
1597  2.42  0.20  3.46 
1598  2.53  0.37  3.46 
1599  1.67  0.83  3.46 
1600  3.50  0.62  3.46 
1601  3.13  0.90  3.50 
1602  2.13  2.53  3.50 
1603  1.60  0.85  3.50 
1604  1.62  0.84  3.50 
1605  2.35  1.50  3.50 
1606  2.93  2.76  3.50 
1607  2.47  0.90  3.50 
1608  2.39  3.39  3.50 
1609  2.16  2.93  3.50 
1610  2.23  4.16  3.50 
1611  1.73  2.01  3.50 
1612  1.41  3.03  3.50 
1613  1.62  4.07  3.50 
1614  1.66  3.07  3.50 
1615  2.70  3.63  3.50 
1616  2.93  3.64  3.50 
1617  2.13  1.48  3.50 
1618  1.95  3.20  3.50 
1619  2.29  1.90  3.50 
1620  2.10  0.33  3.50 
1621  2.90  3.07  3.50 
1622  2.82  0.95  3.50 
1623  2.91  1.14  3.50 
1624  2.14  0.72  3.50 
1625  1.71  0.82  3.50 
1626  2.82  0.86  3.50 
1627  2.96  3.60  3.50 
1628  2.24  2.77  3.50 
1629  2.66  0.99  3.50 
1630  1.73  3.63  3.50 
1631  3.19  3.76  3.50 
1632  1.85  0.56  3.50 
1633  1.54  2.20  3.50 
1634  1.45  0.62  3.50 
1635  3.29  1.31  3.50 
1636  2.58  1.10  3.50 
1637  2.47  0.86  3.50 
1638  2.52  1.02  3.50 
1639  2.79  3.35  3.50 
1640  2.54  1.06  3.50 
1641  1.93  0.98  3.50 
1642  2.58  1.02  3.50 
1643  2.53  0.87  3.50 
1644  2.70  1.56  3.50 
1645  1.86  1.04  3.50 
1646  2.26  1.08  3.50 
1647  2.47  2.00  3.50 
1648  2.74  0.78  3.50 
1649  3.18  2.75  3.50 
1650  1.48  2.87  3.50 
1651  3.54  2.44  3.50 
1652  2.50  2.14  3.54 
1653  2.01  3.65  3.54 
1654  1.92  0.93  3.54 
1655  0.95  1.85  3.54 
1656  2.91  2.11  3.54 
1657  2.60  2.51  3.54 
1658  2.04  1.73  3.54 
1659  1.85  0.74  3.54 
1660  2.97  3.57  3.54 
1661  1.97  2.35  3.54 
1662  3.00  2.56  3.54 
1663  2.50  3.85  3.54 
1664  1.82  0.86  3.54 
1665  1.98  1.40  3.54 
1666  2.74  1.13  3.54 
1667  3.34  3.29  3.54 
1668  2.90  2.34  3.54 
1669  2.37  1.06  3.54 
1670  2.28  1.14  3.54 
1671  2.20  1.81  3.54 
1672  3.32  2.11  3.54 
1673  3.48  2.04  3.54 
1674  1.98  3.52  3.54 
1675  1.31  2.01  3.54 
1676  2.53  1.62  3.54 
1677  2.01  1.51  3.54 
1678  1.86  1.36  3.54 
1679  2.39  1.51  3.54 
1680  2.00  2.00  3.54 
1681  2.14  1.55  3.54 
1682  2.80  1.55  3.54 
1683  3.09  1.13  3.54 
1684  2.36  0.96  3.54 
1685  2.90  1.91  3.54 
1686  1.46  1.00  3.54 
1687  2.48  0.75  3.54 
1688  2.48  1.07  3.54 
1689  2.85  3.14  3.54 
1690  2.97  3.97  3.54 
1691  2.27  0.99  3.54 
1692  1.69  1.17  3.54 
1693  3.32  3.87  3.54 
1694  2.05  1.44  3.54 
1695  1.77  2.20  3.54 
1696  2.85  1.85  3.54 
1697  1.65  2.18  3.54 
1698  2.55  2.17  3.54 
1699  1.63  2.60  3.54 
1700  2.40  1.19  3.54 
1701  2.63  1.24  3.54 
1702  2.84  1.05  3.54 
1703  2.22  1.88  3.54 
1704  2.49  3.61  3.54 
1705  1.57  2.07  3.54 
1706  2.51  2.20  3.54 
1707  0.92  3.93  3.54 
1708  2.18  2.71  3.54 
1709  2.13  2.54  3.54 
1710  2.19  1.97  3.54 
1711  2.46  3.45  3.54 
1712  1.29  1.25  3.54 
1713  2.58  2.44  3.54 
1714  1.25  2.34  3.54 
1715  1.73  2.81  3.54 
1716  1.77  3.38  3.54 
1717  1.50  2.37  3.54 
1718  2.14  3.76  3.54 
1719  2.55  3.44  3.54 
1720  2.14  3.03  3.54 
1721  2.31  3.01  3.54 
1722  3.08  3.04  3.54 
1723  1.28  1.30  3.54 
1724  3.02  1.81  3.54 
1725  2.05  3.20  3.54 
1726  1.71  3.21  3.54 
1727  2.77  4.23  3.54 
1728  2.12  2.66  3.54 
1729  1.73  2.59  3.54 
1730  2.67  1.69  3.54 
1731  2.44  2.20  3.54 
1732  2.69  1.64  3.54 
1733  2.24  3.55  3.54 
1734  2.17  1.42  3.54 
1735  2.07  2.25  3.54 
1736  1.84  1.78  3.54 
1737  3.33  1.08  3.54 
1738  2.50  1.50  3.54 
1739  2.90  2.69  3.54 
1740  3.17  2.77  3.54 
1741  2.23  2.78  3.54 
1742  2.42  2.69  3.54 
1743  1.82  1.53  3.54 
1744  2.67  1.43  3.54 
1745  2.63  1.42  3.54 
1746  2.12  3.53  3.54 
1747  2.92  1.16  3.54 
1748  2.91  2.73  3.54 
1749  2.39  2.48  3.54 
1750  1.79  3.69  3.54 
1751  2.63  3.49  3.54 
1752  3.18  2.74  3.54 
1753  2.53  3.02  3.54 
1754  1.25  2.21  3.54 
1755  2.43  2.27  3.54 
1756  2.30  2.16  3.54 
1757  1.90  3.52  3.54 
1758  1.23  0.77  3.54 
1759  2.45  3.54  3.54 
1760  3.12  3.29  3.54 
1761  2.41  1.58  3.54 
1762  2.47  1.96  3.54 
1763  2.12  1.47  3.54 
1764  2.40  0.74  3.54 
1765  2.27  2.76  3.54 
1766  1.63  2.19  3.54 
1767  2.41  0.62  3.54 
1768  2.99  1.93  3.54 
1769  2.75  2.11  3.54 
1770  3.33  3.45  3.54 
1771  0.91  2.49  3.54 
1772  2.87  2.06  3.54 
1773  1.56  0.84  3.54 
1774  1.93  0.62  3.54 
1775  2.60  0.85  3.54 
1776  3.90  0.99  3.54 
1777  2.76  1.68  3.90 
1778  3.47  0.93  3.90 
1779  1.50  0.69  3.90 
1780  2.34  0.56  3.90 
1781  2.00  0.31  3.90 
1782  2.22  0.59  3.90 
1783  2.29  0.79  3.90 
1784  1.54  2.56  3.90 
1785  3.48  0.99  3.90 
1786  2.65  2.50  3.90 
1787  1.60  3.05  3.90 
1788  1.73  2.62  3.90 
1789  2.21  1.80  3.90 
1790  2.94  1.50  3.90 
1791  2.27  1.84  3.90 
1792  2.86  2.02  3.90 
1793  2.51  1.57  3.90 
1794  2.90  0.86  3.90 
1795  2.46  0.43  3.90 
1796  2.47  0.83  3.90 
1797  2.48  2.70  3.90 
1798  2.66  2.78  3.90 
1799  3.25  1.56  3.90 
1800  2.14  2.31  3.90 
1801  2.06  1.22  3.90 
1802  2.82  2.73  3.90 
1803  2.92  3.15  3.90 
1804  1.61  2.00  3.90 
1805  2.23  1.92  3.90 
1806  2.97  1.69  3.90 
1807  2.25  2.01  3.90 
1808  2.37  1.96  3.90 
1809  2.99  2.06  3.90 
1810  3.18  1.35  3.90 
1811  2.08  1.17  3.90 
1812  2.50  0.81  3.90 
1813  2.38  1.84  3.90 
1814  2.96  0.82  3.90 
1815  2.17  1.30  3.90 
1816  3.04  1.84  3.90 
1817  1.59  0.54  3.90 
1818  2.22  0.68  3.90 
1819  2.32  1.62  3.90 
1820  2.66  1.59  3.90 
1821  2.31  0.48  3.90 
1822  2.28  0.78  3.90 
1823  2.20  1.20  3.90 
1824  3.24  1.55  3.90 
1825  2.52  0.59  3.90 
1826  2.34  1.74  3.90 
1827  1.42  0.80  3.90 
1828  2.66  1.67  3.90 
1829  1.51  0.50  3.90 
1830  1.63  1.50  3.90 
1831  2.23  0.80  3.90 
1832  2.49  0.98  3.90 
1833  3.03  1.81  3.90 
1834  2.58  2.90  3.90 
1835  2.72  0.79  3.90 
1836  2.51  0.52  3.90 
1837  2.32  2.32  3.90 
1838  1.74  2.09  3.90 
1839  2.88  1.33  3.90 
1840  2.69  3.60  3.90 
1841  2.95  1.33  3.90 
1842  1.26  1.00  3.90 
1843  1.84  1.99  3.90 
1844  1.92  2.42  3.90 
1845  1.55  0.97  3.90 
1846  1.71  1.45  3.90 
1847  2.28  2.50  3.90 
1848  2.52  2.85  3.90 
1849  2.68  3.59  3.90 
1850  2.41  1.83  3.90 
1851  3.03  1.88  3.90 
1852  2.13  3.75  3.90 
1853  2.67  2.21  3.90 
1854  1.57  2.60  3.90 
1855  1.70  3.05  3.90 
1856  2.35  1.57  3.90 
1857  1.39  2.07  3.90 
1858  2.38  1.50  3.90 
1859  2.36  3.32  3.90 
1860  1.98  2.86  3.90 
1861  2.60  2.59  3.90 
1862  1.25  4.13  3.90 
1863  2.74  2.73  3.90 
1864  2.04  2.52  3.90 
1865  3.52  3.91  3.90 
1866  2.53  3.10  3.90 
1867  2.39  2.53  3.90 
1868  2.18  2.09  3.90 
1869  1.89  1.66  3.90 
1870  3.15  1.91  3.90 
1871  2.02  2.82  3.90 
1872  2.31  3.16  3.90 
1873  1.95  3.43  3.90 
1874  2.79  2.25  3.90 
1875  2.13  4.07  3.90 
1876  2.45  3.76  3.90 
1877  2.15  2.31  3.90 
1878  2.20  2.56  3.90 
1879  2.73  2.37  3.90 
1880  1.99  0.87  3.90 
1881  2.41  3.58  3.90 
1882  2.64  2.60  3.90 
1883  2.56  3.30  3.90 
1884  2.55  2.02  3.90 
1885  1.99  2.91  3.90 
1886  2.21  1.56  3.90 
1887  1.51  1.24  3.90 
1888  2.25  1.75  3.90 
1889  2.66  1.05  3.90 
1890  2.41  1.29  3.90 
1891  2.65  1.02  3.90 
1892  1.81  1.08  3.90 
1893  2.86  3.32  3.90 
1894  2.60  1.47  3.90 
1895  3.38  1.56  3.90 
1896  2.44  3.28  3.90 
1897  2.60  2.48  3.90 
1898  3.01  2.99  3.90 
1899  1.18  3.38  3.90 
1900  2.41  2.57  3.90 
1901  2.68  3.23  3.90 
1902  2.23  2.12  3.90 
1903  2.64  2.95  3.90 
1904  3.10  2.00  3.90 
1905  1.96  3.37  3.90 
1906  2.82  2.35  3.90 
1907  2.61  1.03  3.90 
1908  2.09  1.82  3.90 
1909  3.54  2.97  3.90 
1910  1.43  1.60  3.90 
1911  2.18  2.11  3.90 
1912  1.85  2.64  3.90 
1913  2.14  1.42  3.90 
1914  2.80  2.44  3.90 
1915  1.41  1.56  3.90 
1916  1.11  3.10  3.90 
1917  2.68  3.03  3.90 
1918  2.32  2.01  3.90 
1919  2.81  2.58  3.90 
1920  2.50  1.88  3.90 
1921  1.71  2.46  3.90 
1922  0.72  2.94  3.90 
1923  2.08  2.76  3.90 
1924  2.44  1.80  3.90 
1925  1.76  3.01  3.90 
1926  1.90  3.88  3.90 
1927  2.09  3.82  3.90 
1928  1.93  1.63  3.90 
1929  2.43  1.87  3.90 
1930  3.17  1.08  3.90 
1931  3.31  2.73  3.90 
1932  1.92  1.47  3.90 
1933  3.29  1.69  3.90 
1934  2.56  2.58  3.90 
1935  2.53  1.41  3.90 
1936  2.29  1.05  3.90 
1937  1.58  2.48  3.90 
1938  2.89  3.14  3.90 
1939  2.38  2.10  3.90 
1940  1.30  0.86  3.90 
1941  3.41  0.63  3.90 
1942  2.35  2.28  3.90 
1943  2.62  3.45  3.90 
1944  2.09  3.26  3.90 
1945  2.65  0.55  3.90 
1946  2.20  1.07  3.90 
1947  2.08  1.61  3.90 
1948  3.21  1.39  3.90 
1949  3.06  1.57  3.90 
1950  2.43  2.69  3.90 
1951  1.99  3.08  3.90 
1952  1.28  1.38  3.90 
1953  1.94  3.23  3.90 
1954  2.09  1.78  3.90 
1955  2.68  1.51  3.90 
1956  1.76  2.80  3.90 
1957  2.52  2.38  3.90 
1958  1.86  3.29  3.90 
1959  2.27  2.56  3.90 
1960  2.25  3.16  3.90 
1961  1.58  3.61  3.90 
1962  2.65  3.78  3.90 
1963  1.61  3.20  3.90 
1964  3.05  2.19  3.90 
1965  2.15  3.85  3.90 
1966  2.19  3.01  3.90 
1967  3.00  3.68  3.90 
1968  2.35  4.10  3.90 
1969  2.71  3.13  3.90 
1970  2.74  3.36  3.90 
1971  2.77  3.72  3.90 
1972  3.00  3.45  3.90 
1973  1.39  3.45  3.90 
1974  2.50  3.85  3.90 
1975  2.99  3.71  3.90 
1976  2.53  3.97  3.90 
1977  1.87  3.59  3.90 
1978  3.11  3.27  3.90 
1979  2.33  3.52  3.90 
1980  2.46  3.66  3.90 
1981  2.45  2.50  3.90 
1982  2.37  3.28  3.90 
1983  1.39  4.08  3.90 
1984  2.93  4.20  3.90 
1985  2.93  3.93  3.90 
1986  2.15  3.92  3.90 
1987  1.75  3.01  3.90 
1988  2.46  3.81  3.90 
1989  2.41  4.17  3.90 
1990  2.52  3.62  3.90 
1991  2.75  3.74  3.90 
1992  2.10  3.78  3.90 
1993  2.16  4.11  3.90 
1994  1.69  3.30  3.90 
1995  2.81  3.47  3.90 
1996  1.82  3.80  3.90 
1997  2.63  2.92  3.90 
1998  1.75  2.35  3.90 
1999  1.76  3.86  3.90 
2000  2.13  3.68  3.90 
2001  2.93  4.18  3.90 
2002  2.79  4.27  3.90 
2003  2.38  3.41  3.90 
2004  1.78  3.97  3.90 
2005  2.57  2.75  3.90 
2006  3.33  4.16  3.90 
2007  2.23  3.04  3.90 
2008  2.86  3.21  3.90 
2009  2.17  4.23  3.90 
2010  2.39  3.93  3.90 
2011  2.51  3.03  3.90 
2012  2.75  2.05  3.90 
2013  2.37  3.29  3.90 
2014  2.25  3.40  3.90 
2015  2.62  3.11  3.90 
2016  2.98  1.69  3.90 
2017  2.98  3.41  3.90 
2018  2.37  3.34  3.90 
2019  1.75  3.96  3.90 
2020  1.50  0.98  3.90 
2021  2.75  2.96  3.90 
2022  2.92  2.08  3.90 
2023  3.21  2.82  3.90 
2024  2.12  3.21  3.90 
2025  3.05  3.66  3.90 
2026  1.89  1.72  3.90 
2027  3.22  3.22  3.90 
2028  1.92  2.08  3.90 
2029  3.45  3.12  3.90 
2030  1.99  2.71  3.90 
2031  2.11  2.37  3.90 
2032  2.18  1.00  3.90 
2033  2.38  0.91  3.90 
2034  2.58  2.95  3.90 
2035  2.15  3.76  3.90 
2036  3.12  3.63  3.90 
2037  2.79  4.38  3.90 
2038  2.07  3.85  3.90 
2039  2.37  3.17  3.90 
2040  2.72  1.48  3.90 
2041  3.31  1.28  3.90 
2042  1.46  2.69  3.90 
2043  2.38  2.95  3.90 
2044  2.25  3.24  3.90 
2045  2.98  3.56  3.90 
2046  2.28  4.11  3.90 
2047  2.93  1.70  3.90 
2048  2.77  3.24  3.90 
2049  2.57  3.71  3.90 
2050  2.96  3.47  3.90 
2051  1.42  2.48  3.90 
2052  2.37  3.28  3.90 
2053  2.09  1.74  3.90 
2054  2.26  3.39  3.90 
2055  2.73  3.58  3.90 
2056  2.13  3.66  3.90 
2057  2.40  2.71  3.90 
2058  3.43  0.88  3.90 
2059  1.75  2.86  3.90 
2060  3.03  2.44  3.90 
2061  2.42  3.25  3.90 
2062  2.31  1.47  3.90 
2063  2.57  1.35  3.90 
2064  2.39  1.30  3.90 
2065  2.61  1.50  3.90 
2066  2.14  1.19  3.90 
2067  2.46  2.97  3.90 
2068  2.66  3.38  3.90 
2069  3.21  3.48  3.90 
2070  2.95  2.99  3.90 
2071  2.04  4.13  3.90 
2072  3.00  4.25  3.90 
2073  2.43  3.48  3.90 
2074  2.30  2.68  3.90 
2075  2.61  3.63  3.90 
2076  3.39  3.30  3.90 
2077  2.90  3.62  3.90 
2078  2.63  2.66  3.90 
2079  2.09  3.18  3.90 
2080  1.25  3.01  3.90 
2081  1.73  3.00  3.90 
2082  2.45  3.50  3.90 
2083  2.20  2.51  3.90 
2084  2.34  2.86  3.90 
2085  2.43  2.08  3.90 
2086  1.36  2.66  3.90 
2087  2.14  2.96  3.90 
2088  2.65  2.12  3.90 
2089  2.77  2.18  3.90 
2090  2.19  3.58  3.90 
2091  2.98  3.57  3.90 
2092  2.04  3.74  3.90 
2093  1.87  2.70  3.90 
2094  1.99  2.88  3.90 
2095  3.08  3.41  3.90 
2096  2.48  2.98  3.90 
2097  1.58  3.08  3.90 
2098  2.37  3.77  3.90 
2099  2.51  3.36  3.90 
2100  3.06  3.79  3.90 
2101  2.34  3.78  3.90 
2102  2.90  1.29  3.90 
2103  3.58  3.23  3.90 
2104  2.58  2.33  3.90 
2105  3.37  3.42  3.90 
2106  2.28  3.51  3.90 
2107  2.57  3.73  3.90 
2108  2.82  3.40  3.90 
2109  2.87  2.26  3.90 
2110  2.50  1.62  3.90 
2111  2.29  2.22  3.90 
2112  1.78  4.03  3.90 
2113  3.19  3.03  3.90 
2114  2.60  3.61  3.90 
2115  2.89  2.37  3.90 
2116  1.78  2.32  3.90 
2117  2.45  3.51  3.90 
2118  2.99  1.66  3.90 
2119  1.86  2.62  3.90 
2120  2.03  2.32  3.90 
2121  2.12  2.66  3.90 
2122  2.02  3.28  3.90 
2123  3.51  3.88  3.90 
2124  2.59  3.82  3.90 
2125  1.93  3.08  3.90 
2126  1.89  3.12  3.90 
2127  2.19  3.33  3.90 
2128  2.71  3.68  3.90 
2129  2.69  4.06  3.90 
2130  3.30  2.74  3.90 
2131  3.16  1.62  3.90 
2132  3.07  3.22  3.90 
2133  2.38  2.65  3.90 
2134  3.72  2.69  3.90 
2135  2.40  4.00  3.90 
2136  2.37  2.82  3.90 
2137  2.07  3.25  3.90 
2138  2.33  3.43  3.90 
2139  2.79  4.45  3.90 
2140  2.31  4.19  3.90 
2141  2.55  3.76  3.90 
2142  2.14  3.90  3.90 
2143  1.73  3.44  3.90 
2144  1.81  3.47  3.90 
2145  2.71  4.22  3.90 
2146  2.45  3.94  3.90 
2147  2.02  2.78  3.90 
2148  2.06  4.23  3.90 
2149  3.08  3.77  3.90 
2150  2.69  3.57  3.90 
2151  1.96  2.65  3.90 
2152  3.20  3.80  3.90 
2153  2.16  3.55  3.90 
2154  1.74  4.09  3.90 
2155  2.13  2.68  3.90 
2156  2.36  3.47  3.90 
2157  1.02  2.93  3.90 
2158  2.90  4.20  3.90 
2159  2.80  1.91  3.90 
2160  2.73  3.58  3.90 
2161  2.98  3.75  3.90 
2162  2.85  4.35  3.90 
2163  2.83  3.10  3.90 
2164  2.83  3.94  3.90 
2165  2.06  3.96  3.90 
2166  2.16  4.11  3.90 
2167  2.65  4.04  3.90 
2168  3.01  4.46  3.90 
2169  3.62  3.83  3.90 
2170  1.61  3.58  3.90 
2171  3.36  1.50  3.90 
2172  1.34  3.45  3.90 
2173  2.77  3.32  3.90 
2174  2.05  3.10  3.90 
2175  1.53  3.78  3.90 
2176  3.79  2.37  3.90 
2177  3.22  3.00  3.90 
2178  1.93  3.06  3.90 
2179  2.35  3.98  3.90 
2180  3.13  3.93  3.90 
2181  1.84  4.12  3.90 
2182  3.29  3.61  3.90 
2183  2.29  3.93  3.90 
2184  1.78  4.23  3.90 
2185  2.80  3.30  3.90 
2186  2.58  2.11  3.90 
2187  3.12  3.46  3.90 
2188  1.78  3.50  3.90 
2189  1.77  3.46  3.90 
2190  2.59  4.29  3.90 
2191  2.60  1.64  3.90 
2192  2.62  3.06  3.90 
2193  2.84  3.56  3.90 
2194  3.61  4.04  3.90 
2195  2.30  4.30  3.90 
2196  2.41  3.22  3.90 
2197  3.47  3.88  3.90 
2198  3.21  3.05  3.90 
2199  2.18  3.87  3.90 
2200  2.78  3.80  3.90 
2201  2.91  4.14  3.90 
2202  3.20  3.19  3.90 
2203  2.89  4.11  3.90 
2204  3.56  3.65  3.90 
2205  2.12  4.35  3.90 
2206  2.82  2.99  3.90 
2207  3.01  3.32  3.90 
2208  2.96  2.93  3.90 
2209  3.22  3.83  3.90 
2210  3.18  3.81  3.90 
2211  3.71  3.20  3.90 
2212  3.54  3.14  3.90 
2213  2.67  2.97  3.90 
2214  3.21  4.11  3.90 
2215  2.57  4.08  3.90 
2216  2.08  3.15  3.90 
2217  2.81  2.61  3.90 
2218  2.24  0.98  3.90 
2219  2.92  4.13  3.90 
2220  3.62  2.64  3.90 
2221  3.20  3.86  3.90 
2222  2.78  3.31  3.90 
2223  2.65  3.40  3.90 
2224  3.07  3.65  3.90 
2225  1.87  1.92  3.90 
2226  1.74  3.78  3.90 
2227  3.07  2.66  3.90 
2228  2.14  2.91  3.90 
2229  2.45  3.60  3.90 
2230  3.17  1.66  3.90 
2231  2.74  2.91  3.90 
2232  3.07  2.54  3.90 
2233  3.12  4.46  3.90 
2234  2.16  4.09  3.90 
2235  2.87  3.65  3.90 
2236  3.08  2.99  3.90 
2237  2.74  1.07  3.90 
2238  2.85  3.70  3.90 
2239  3.61  4.57  3.90 
2240  3.45  3.58  3.90 
2241  3.14  4.22  3.90 
2242  2.84  3.05  3.90 
2243  3.45  3.91  3.90 
2244  3.06  4.03  3.90 
2245  3.16  3.79  3.90 
2246  2.95  3.23  3.90 
2247  2.83  3.79  3.90 
2248  2.43  2.36  3.90 
2249  3.09  2.95  3.90 
2250  3.40  3.79  3.90 
2251  2.45  2.72  3.90 
2252  2.83  3.46  3.90 
2253  2.66  2.60  3.90 
2254  2.41  3.08  3.90 
2255  1.54  2.13  3.90 
2256  3.11  4.30  3.90 
2257  2.29  3.81  3.90 
2258  3.08  4.21  3.90 
2259  2.64  3.33  3.90 
2260  2.60  4.27  3.90 
2261  1.48  2.81  3.90 
2262  3.69  4.17  3.90 
2263  3.34  3.44  3.90 
2264  3.25  4.16  3.90 
2265  1.16  3.38  3.90 
2266  3.65  1.68  3.90 
2267  2.80  2.15  3.90 
2268  3.78  4.27  3.90 
2269  3.09  3.05  3.90 
2270  2.65  4.25  3.90 
2271  3.67  4.28  3.90 
2272  2.68  3.06  3.90 
2273  2.48  4.24  3.90 
2274  3.37  3.99  3.90 
2275  3.92  3.54  3.90 
2276  3.33  4.00  3.92 
2277  2.17  0.47  3.92 
2278  2.11  3.47  3.92 
2279  2.42  2.83  3.92 
2280  2.27  3.35  3.92 
2281  2.40  3.77  3.92 
2282  3.74  4.13  3.92 
2283  3.41  3.87  3.92 
2284  3.66  3.66  3.92 
2285  2.23  3.07  3.92 
2286  2.96  0.62  3.92 
2287  3.18  2.81  3.92 
2288  2.62  3.89  3.92 
2289  3.18  4.37  3.92 
2290  2.22  4.33  3.92 
2291  2.89  3.02  3.92 
2292  2.46  4.40  3.92 
2293  3.70  2.69  3.92 
2294  1.73  0.54  3.92 
2295  2.45  3.47  3.92 
2296  3.31  3.70  3.92 
2297  3.50  2.16  3.92 
2298  2.91  0.40  3.92 
2299  3.47  3.87  3.92 
2300  3.14  4.16  3.92 
2301  2.54  4.38  3.92 
2302  3.62  3.64  3.92 
2303  2.26  3.94  3.92 
2304  2.54  4.24  3.92 
2305  3.05  3.56  3.92 
2306  2.26  1.92  3.92 
2307  3.40  2.37  3.92 
2308  1.74  3.28  3.92 
2309  2.79  3.66  3.92 
2310  2.83  3.50  3.92 
2311  2.75  4.13  3.92 
2312  3.44  3.72  3.92 
2313  2.29  4.32  3.92 
2314  2.34  4.04  3.92 
2315  2.49  3.85  3.92 
2316  2.20  3.81  3.92 
2317  3.05  4.47  3.92 
2318  2.73  2.02  3.92 
2319  3.80  1.81  3.92 
2320  2.82  4.56  3.92 
2321  2.89  4.20  3.92 
2322  3.59  3.63  3.92 
2323  2.48  4.04  3.92 
2324  3.40  3.82  3.92 
2325  2.86  3.64  3.92 
2326  2.49  2.68  3.92 
2327  2.83  4.01  3.92 
2328  3.50  3.97  3.92 
2329  2.62  3.67  3.92 
2330  2.15  3.49  3.92 
2331  3.23  3.88  3.92 
2332  3.38  3.52  3.92 
2333  2.22  4.13  3.92 
2334  2.76  1.80  3.92 
2335  3.08  2.76  3.92 
2336  3.24  4.25  3.92 
2337  3.74  4.37  3.92 
2338  3.09  2.77  3.92 
2339  3.76  3.45  3.92 
2340  3.15  3.92  3.92 
2341  2.46  1.76  3.92 
2342  2.30  3.83  3.92 
2343  2.16  3.21  3.92 
2344  3.75  3.41  3.92 
2345  2.22  3.90  3.92 
2346  3.26  2.11  3.92 
2347  3.65  3.63  3.92 
2348  2.39  1.54  3.92 
2349  3.38  3.00  3.92 
2350  3.25  3.48  3.92 
2351  3.22  1.13  3.92 
2352  2.56  3.51  3.92 
2353  3.75  3.51  3.92 
2354  2.83  3.61  3.92 
2355  3.21  1.40  3.92 
2356  2.75  3.97  3.92 
2357  3.31  3.30  3.92 
2358  4.16  2.57  3.92 
2359  2.35  3.41  4.16 
2360  3.27  4.18  4.16 
2361  3.21  3.90  4.16 
2362  3.18  2.89  4.16 
2363  2.09  1.45  4.16 
2364  2.27  3.33  4.16 
2365  3.04  1.02  4.16 
2366  3.50  3.68  4.16 
2367  2.68  3.44  4.16 
2368  3.26  3.96  4.16 
2369  1.63  3.12  4.16 
2370  2.72  2.29  4.16 
2371  1.68  0.82  4.16 
2372  3.12  2.37  4.16 
2373  2.56  1.53  4.16 
2374  3.24  3.38  4.16 
2375  2.19  2.38  4.16 
2376  2.38  1.48  4.16 
2377  2.23  2.88  4.16 
2378  3.40  3.23  4.16 
2379  2.89  2.88  4.16 
2380  2.85  3.40  4.16 
2381  1.84  3.24  4.16 
2382  2.72  2.22  4.16 
2383  3.66  2.67  4.16 
2384  2.57  2.51  4.16 
2385  4.05  3.09  4.16 
2386  2.95  3.03  4.16 
2387  3.53  3.07  4.16 
2388  2.22  3.54  4.16 
2389  2.76  4.13  4.16 
2390  3.39  3.41  4.16 
2391  2.08  2.01  4.16 
2392  2.34  1.96  4.16 
2393  3.24  3.55  4.16 
2394  3.46  3.87  4.16 
2395  3.41  4.13  4.16 
2396  2.67  3.60  4.16 
2397  3.21  3.17  4.16 
2398  2.51  4.17  4.16 
2399  3.67  3.20  4.16 
2400  2.28  3.63  4.16 
2401  3.75  3.85  4.16 
2402  2.70  3.80  4.16 
2403  3.17  2.48  4.16 
2404  1.28  3.29  4.16 
2405  3.37  2.81  4.16 
2406  2.30  2.76  4.16 
2407  3.41  3.31  4.16 
2408  2.93  3.84  4.16 
2409  2.21  3.02  4.16 
2410  2.95  3.81  4.16 
2411  2.13  3.46  4.16 
2412  3.14  3.84  4.16 
2413  3.36  2.76  4.16 
2414  3.14  4.10  4.16 
2415  1.68  2.80  4.16 
2416  3.42  3.74  4.16 
2417  3.70  3.80  4.16 
2418  2.75  3.98  4.16 
2419  3.36  4.48  4.16 
2420  3.21  3.25  4.16 
2421  2.66  4.41  4.16 
2422  3.96  4.13  4.16 
2423  4.03  3.64  4.16 
2424  2.52  2.49  4.16 
2425  2.51  3.66  4.16 
2426  3.25  3.99  4.16 
2427  3.21  4.28  4.16 
2428  3.80  3.24  4.16 
2429  2.38  3.58  4.16 
2430  2.60  4.12  4.16 
2431  2.34  3.22  4.16 
2432  2.98  3.94  4.16 
2433  4.20  2.17  4.16 
2434  2.56  3.79  4.20 
2435  3.17  4.19  4.20 
2436  2.47  3.48  4.20 
2437  2.44  4.13  4.20 
2438  3.04  4.05  4.20 
2439  3.51  2.65  4.20 
2440  2.46  3.07  4.20 
2441  3.94  3.78  4.20 
2442  3.78  2.49  4.20 
2443  3.24  3.55  4.20 
2444  3.40  3.29  4.20 
2445  2.58  3.68  4.20 
2446  3.25  4.33  4.20 
2447  3.36  3.17  4.20 
2448  2.77  4.05  4.20 
2449  4.10  4.48  4.20 
2450  3.62  4.39  4.20 
2451  3.34  4.46  4.20 
2452  2.12  4.12  4.20 
2453  3.70  4.24  4.20 
2454  3.55  3.66  4.20 
2455  3.11  3.56  4.20 
2456  3.02  4.56  4.20 
2457  2.32  3.14  4.20 
2458  2.51  3.03  4.20 
2459  2.52  4.42  4.20 
2460  2.48  3.64  4.20 
2461  2.61  3.58  4.20 
2462  2.07  4.16  4.20 
2463  2.73  3.21  4.20 
2464  3.07  2.66  4.20 
2465  3.46  3.67  4.20 
2466  3.22  3.50  4.20 
2467  3.87  4.35  4.20 
2468  3.14  4.71  4.20 
2469  3.43  4.24  4.20 
2470  3.50  4.44  4.20 
2471  3.56  4.46  4.20 
2472  1.75  4.36  4.20 
2473  3.02  3.91  4.20 
2474  3.62  2.94  4.20 
2475  3.16  1.08  4.20 
2476  3.29  0.44  4.20 
2477  1.95  2.35  4.20 
2478  2.70  2.71  4.20 
2479  3.33  3.18  4.20 
2480  2.99  2.42  4.20 
2481  3.69  1.80  4.20 
2482  4.19  3.43  4.20 
2483  3.04  3.51  4.20 
2484  3.91  2.79  4.20 
2485  2.75  4.05  4.20 
2486  2.86  3.38  4.20 
2487  2.99  4.04  4.20 
2488  2.87  3.25  4.20 
2489  3.12  1.85  4.20 
2490  2.83  2.61  4.20 
2491  3.70  2.97  4.20 
2492  3.30  4.25  4.20 
2493  2.88  4.18  4.20 
2494  3.53  4.15  4.20 
2495  2.28  3.30  4.20 
2496  3.85  3.70  4.20 
2497  3.42  4.02  4.20 
2498  2.11  3.85  4.20 
2499  4.05  3.80  4.20 
2500  3.84  4.23  4.20 
2501  3.57  3.54  4.20 
2502  3.33  4.28  4.20 
2503  3.73  2.94  4.20 
2504  2.03  3.99  4.20 
2505  3.41  3.94  4.20 
2506  2.91  3.88  4.20 
2507  2.28  4.00  4.20 
2508  3.31  3.59  4.20 
2509  3.50  4.20  4.20 
2510  3.30  2.81  4.20 
2511  3.30  3.62  4.20 
2512  2.87  2.36  4.20 
2513  3.15  1.93  4.20 
2514  3.15  2.83  4.20 
2515  3.53  4.20  4.20 
2516  3.21  3.56  4.20 
2517  2.66  2.62  4.20 
2518  3.29  3.28  4.20 
2519  3.24  2.28  4.20 
2520  3.03  4.13  4.20 
2521  3.15  2.98  4.20 
2522  2.99  4.17  4.20 
2523  2.47  3.86  4.20 
2524  3.53  3.53  4.20 
2525  3.28  3.15  4.20 
2526  2.81  2.79  4.20 
2527  2.94  3.35  4.20 
2528  3.49  4.06  4.20 
2529  2.83  3.42  4.20 
2530  3.28  3.59  4.20 
2531  3.31  2.39  4.20 
2532  2.93  2.88  4.20 
2533  2.59  2.98  4.20 
2534  2.12  3.19  4.20 
2535  1.78  3.09  4.20 
2536  3.57  3.67  4.20 
2537  3.18  3.90  4.20 
2538  2.59  3.74  4.20 
2539  3.16  3.65  4.20 
2540  3.27  4.10  4.20 
2541  3.04  4.53  4.20 
2542  2.59  4.22  4.20 
2543  3.87  4.29  4.20 
2544  3.02  3.23  4.20 
2545  2.69  4.31  4.20 
2546  3.01  2.63  4.20 
2547  3.26  3.45  4.20 
2548  3.81  4.34  4.20 
2549  3.31  3.88  4.20 
2550  2.92  3.85  4.20 
2551  3.43  3.12  4.20 
2552  3.94  3.55  4.20 
2553  3.45  2.78  4.20 
2554  4.14  4.47  4.20 
2555  2.56  3.48  4.20 
2556  2.99  3.69  4.20 
2557  4.05  3.63  4.20 
2558  1.41  4.23  4.20 
2559  3.28  3.37  4.20 
2560  3.93  3.47  4.20 
2561  3.17  3.25  4.20 
2562  2.64  3.26  4.20 
2563  3.22  4.59  4.20 
2564  3.33  2.89  4.20 
2565  3.40  4.47  4.20 
2566  3.12  2.99  4.20 
2567  3.15  2.52  4.20 
2568  2.74  3.20  4.20 
2569  2.13  4.64  4.20 
2570  2.94  3.95  4.20 
2571  3.02  4.50  4.20 
2572  3.28  3.74  4.20 
2573  2.31  3.32  4.20 
2574  3.13  3.92  4.20 
2575  3.07  1.88  4.20 
2576  3.47  2.93  4.20 
2577  3.70  3.30  4.20 
2578  2.79  3.35  4.20 
2579  3.39  4.06  4.20 
2580  4.14  3.51  4.20 
2581  3.30  4.36  4.20 
2582  3.37  3.79  4.20 
2583  3.79  3.61  4.20 
2584  3.29  3.53  4.20 
2585  3.02  2.40  4.20 
2586  3.04  1.69  4.20 
2587  3.09  4.63  4.20 
2588  3.93  3.10  4.20 
2589  3.07  2.39  4.20 
2590  3.58  3.75  4.20 
2591  3.67  3.51  4.20 
2592  3.86  3.81  4.20 
2593  2.76  2.71  4.20 
2594  2.90  3.62  4.20 
2595  2.68  2.95  4.20 
2596  2.87  3.84  4.20 
2597  4.17  3.40  4.20 
2598  2.72  3.99  4.20 
2599  3.67  4.64  4.20 
2600  3.34  3.81  4.20 
2601  2.40  3.57  4.20 
2602  3.60  3.24  4.20 
2603  2.85  3.69  4.20 
2604  3.42  2.77  4.20 
2605  2.70  2.99  4.20 
2606  3.57  3.50  4.20 
2607  3.17  4.02  4.20 
2608  3.90  3.90  4.20 
2609  3.64  2.69  4.20 
2610  3.74  4.69  4.20 
2611  3.37  2.49  4.20 
2612  3.19  4.59  4.20 
2613  3.41  3.47  4.20 
2614  2.28  4.70  4.20 
2615  2.69  4.33  4.20 
2616  3.73  4.35  4.20 
2617  3.47  4.45  4.20 
2618  3.02  2.86  4.20 
2619  4.25  3.79  4.20 
2620  3.48  4.08  4.25 
2621  3.06  2.65  4.25 
2622  3.18  3.66  4.25 
2623  2.41  3.91  4.25 
2624  3.86  4.64  4.25 
2625  3.36  3.82  4.25 
2626  3.86  3.81  4.25 
2627  2.75  3.92  4.25 
2628  2.14  4.35  4.25 
2629  3.03  4.70  4.25 
2630  3.63  3.60  4.25 
2631  3.50  4.68  4.25 
2632  3.78  4.10  4.25 
2633  3.50  3.99  4.25 
2634  3.52  4.57  4.25 
2635  2.90  3.63  4.25 
2636  3.63  3.55  4.25 
2637  3.53  2.61  4.25 
2638  4.09  2.27  4.25 
2639  2.77  3.38  4.25 
2640  2.01  2.86  4.25 
2641  2.21  4.00  4.25 
2642  3.83  4.62  4.25 
2643  3.94  4.03  4.25 
2644  4.20  2.57  4.25 
2645  2.82  3.37  4.25 
2646  2.44  4.25  4.25 
2647  1.50  3.75  4.25 
2648  4.10  4.32  4.25 
2649  3.23  3.29  4.25 
2650  3.66  3.82  4.25 
2651  3.99  3.04  4.25 
2652  3.93  3.22  4.25 
2653  3.52  3.06  4.25 
2654  3.56  4.52  4.25 
2655  3.10  2.56  4.25 
2656  3.80  4.83  4.25 
2657  2.07  4.66  4.25 
2658  3.75  4.22  4.25 
2659  2.40  3.90  4.25 
2660  3.27  4.34  4.25 
2661  3.59  4.58  4.25 
2662  3.84  3.79  4.25 
2663  2.72  4.16  4.25 
2664  3.44  4.13  4.25 
2665  3.11  4.85  4.25 
2666  3.42  4.81  4.25 
2667  3.40  2.57  4.25 
2668  2.73  3.77  4.25 
2669  3.04  3.85  4.25 
2670  3.14  3.82  4.25 
2671  3.54  4.91  4.25 
2672  3.29  4.29  4.25 
2673  2.95  4.65  4.25 
2674  3.14  4.92  4.25 
2675  3.05  4.66  4.25 
2676  3.84  3.81  4.25 
2677  2.82  4.65  4.25 
2678  3.85  3.78  4.25 
2679  3.51  4.60  4.25 
2680  2.97  4.37  4.25 
2681  2.78  3.29  4.25 
2682  2.54  2.97  4.25 
2683  2.53  3.83  4.25 
2684  2.21  4.29  4.25 
2685  2.23  1.57  4.25 
2686  2.79  3.56  4.25 
2687  3.35  2.72  4.25 
2688  2.79  2.81  4.25 
2689  2.88  3.47  4.25 
2690  3.75  2.52  4.25 
2691  3.38  4.37  4.25 
2692  3.00  4.07  4.25 
2693  3.43  3.17  4.25 
2694  1.97  4.06  4.25 
2695  3.49  4.30  4.25 
2696  3.33  4.31  4.25 
2697  2.01  2.79  4.25 
2698  2.74  2.42  4.25 
2699  3.73  3.84  4.25 
2700  3.81  3.68  4.25 
2701  2.49  2.70  4.25 
2702  3.04  2.10  4.25 
2703  3.35  4.51  4.25 
2704  3.96  4.45  4.25 
2705  3.10  2.26  4.25 
2706  3.38  4.37  4.25 
2707  2.62  3.73  4.25 
2708  1.95  0.76  4.25 
2709  3.01  3.02  4.25 
2710  2.69  4.52  4.25 
2711  3.96  4.55  4.25 
2712  3.73  4.25  4.25 
2713  3.27  3.00  4.25 
2714  3.25  4.65  4.25 
2715  2.97  3.31  4.25 
2716  3.41  2.95  4.25 
2717  3.28  1.67  4.25 
2718  2.75  4.90  4.25 
2719  3.48  2.62  4.25 
2720  3.49  0.93  4.25 
2721  2.18  4.21  4.25 
2722  3.11  3.63  4.25 
2723  3.16  4.88  4.25 
2724  3.15  4.60  4.25 
2725  3.64  2.68  4.25 
2726  1.56  1.47  4.25 
2727  3.85  1.24  4.25 
2728  2.98  4.27  4.25 
2729  3.60  4.53  4.25 
2730  4.07  2.44  4.25 
2731  1.99  2.71  4.25 
2732  3.23  4.58  4.25 
2733  2.89  4.63  4.25 
2734  3.51  4.34  4.25 
2735  2.56  4.33  4.25 
2736  3.23  2.93  4.25 
2737  3.43  3.54  4.25 
2738  3.80  2.60  4.25 
2739  3.26  4.54  4.25 
2740  2.90  3.42  4.25 
2741  3.21  4.22  4.25 
2742  3.60  3.14  4.25 
2743  3.42  1.32  4.25 
2744  3.26  2.96  4.25 
