iteration,time_sampling,stoc_pol_mean,stoc_pol_std,stoc_pol_max,stoc_pol_min,rollout_success,alpha,delta,time_vpg,time_npg,kl_dist,surr_improvement,running_score,rwd_sparse,rwd_dense,success_percentage,num_samples,time_VF,VF_error_before,VF_error_after,env_samples,eval_score,eval_success
0,1.2012267112731934,-48.50998399316931,4.9045952762345655,-27.669347068302848,-51.984941169891634,0.0,0.24778762231553736,0.1,0.04333758354187012,0.09356164932250977,0.05821009,0.55276394,-48.50998399316931,-0.3556594683731588,-0.4072772156970232,0.0,479,0.0402369499206543,1.0009036858366596,0.9922672658615612,479,-48.32651635263326,0.0
1,1.0678987503051758,-49.291952243002164,3.7717263032318296,-31.507854195577366,-51.85820450396599,0.0,0.37316710359266814,0.1,0.00449371337890625,0.09309554100036621,0.052632477,0.33617467,-48.588180818152594,-0.37414876035145755,-0.41510245753382113,0.0,471,0.038987159729003906,0.9923986269505042,0.9762754139678311,950,-48.186948457672216,0.0
2,1.1960711479187012,-48.19561760213386,4.905660494181958,-31.366464690398754,-51.6816485101797,0.0,0.4028312738073924,0.1,0.004782199859619141,0.10266828536987305,0.0519961,0.29419458,-48.548924496550725,-0.29901074194252764,-0.40414911126296066,0.0,556,0.04645395278930664,0.9756992460091813,0.9295251491828956,1506,-48.05778374827203,0.0
3,1.1515748500823975,-49.45665668452657,3.5991103028979845,-35.221334174405804,-51.78790198924939,0.0,0.4140489253636657,0.1,0.005295753479003906,0.10395216941833496,0.054838296,0.2866481,-48.63969771534831,-0.3551502472944123,-0.4167600472748449,0.0,551,0.047266244888305664,0.9309558809820473,0.8328115386656239,2057,-44.96185670958304,0.0
4,1.1397554874420166,-49.44739988878714,3.272426600320242,-35.53551093450266,-51.81004040261387,0.0,0.4091937903510584,0.1,0.004690408706665039,0.11761665344238281,0.052121114,0.28038812,-48.720467932692195,-0.3684025991287388,-0.41666712976472,0.0,521,0.0510859489440918,0.8328220052349635,0.6567411869235726,2578,-44.71784731173179,0.0
5,1.1762018203735352,-48.74578579943127,4.5990910013065465,-35.223898655098374,-52.10945544884629,0.0,0.4238158200662056,0.1,0.004474639892578125,0.10389065742492676,0.051379915,0.29262993,-48.7229997193661,-0.3002835130773747,-0.40964685601247197,0.0,614,0.05157065391540527,0.6483565262391023,0.35477200990487456,3192,-44.96108803383154,0.0
6,1.1868672370910645,-48.06639832734957,5.288497485971614,-31.67059923814911,-52.29659725676697,0.0,0.44585481249977715,0.1,0.0047321319580078125,0.10114264488220215,0.052435353,0.26633194,-48.657339580164454,-0.277152648429863,-0.4028607962656367,0.0,638,0.05082130432128906,0.350979937849089,0.09145831424914513,3830,-43.35297491412432,0.0
7,1.266305685043335,-47.41407050054992,6.228588560501408,-24.198688994201845,-51.97942575439945,0.0,0.4553384717149963,0.1,0.004871368408203125,0.10022854804992676,0.05000948,0.25236535,-48.533012672203,-0.30403690941862077,-0.396332251883698,0.0,675,0.05632948875427246,0.0872010948245551,0.03557044653863405,4505,-43.53065817048413,0.0
8,1.194059133529663,-47.89979289726549,5.856761918104494,-27.387102134700264,-51.86760357627544,0.0,0.49942548651936974,0.1,0.0049135684967041016,0.09862041473388672,0.049938694,0.20741497,-48.46969069470926,-0.30740487833786995,-0.40119736637002784,0.0,639,0.050994873046875,0.03366289913748448,0.031705466605807725,5144,-43.04958572552301,0.0
9,1.2568306922912598,-48.66548593917898,4.815231566736522,-31.69753730239506,-51.90585267012827,0.0,0.47501434821452265,0.1,0.005283355712890625,0.10730981826782227,0.04985762,0.1819868,-48.48927021915623,-0.2908721257955335,-0.40884720510534206,0.0,701,0.05902886390686035,0.024049715068897616,0.022167039218608815,5845,-43.765469856236564,0.0
10,1.167374849319458,-48.72648940592279,4.47128928153448,-31.557594877897504,-51.94080206954268,0.0,0.4952486969603965,0.1,0.0049932003021240234,0.10682082176208496,0.049595863,0.18143153,-48.51299213783289,-0.32129526876588893,-0.4094541122950049,0.0,629,0.0643911361694336,0.023994727622069494,0.021937820381231335,6474,-43.54783121475245,0.0
11,1.1932613849639893,-46.95719019704419,6.3362772582364215,-23.913993955775222,-51.969897892939464,0.0,0.46952299019908106,0.1,0.005021572113037109,0.10592055320739746,0.05167073,0.2179358,-48.35741194375402,-0.23861751601365622,-0.3917665818371452,0.0,681,0.058028221130371094,0.027542197196551137,0.02512938911406952,7155,-43.2755674501655,0.0
12,1.1741347312927246,-48.70076015984978,4.7542134307974795,-27.60141126734414,-51.71563300103726,0.0,0.47010499163753994,0.1,0.005176067352294922,0.10411882400512695,0.05267195,0.19140013,-48.3917467653636,-0.29837875633767946,-0.40920250545634157,0.0,664,0.05916571617126465,0.021068170376475962,0.018936313120833024,7819,-43.676032866991335,0.0
13,1.1657514572143555,-48.17390817846378,5.313372636837597,-27.82917378197422,-51.90913632187896,0.0,0.47314165017728027,0.1,0.005048036575317383,0.1035306453704834,0.049850687,0.21208127,-48.36996290667362,-0.320347800486376,-0.40393159776665505,0.0,624,0.052437543869018555,0.020793614884615754,0.01887808418315816,8443,-43.15350731726305,0.0
14,1.2081820964813232,-47.54238343053381,6.117425921635897,-24.960659354201784,-52.34640296916549,0.0,0.476197145923658,0.1,0.005021095275878906,0.10174059867858887,0.05059425,0.21803407,-48.28720495905964,-0.29467719774453366,-0.39761616718207865,0.0,681,0.05639338493347168,0.022060856865837246,0.01983101238164885,9124,-42.931037951506966,0.0
15,1.1984732151031494,-47.76406637273694,6.051710919922251,-27.612295957114494,-52.08617855176782,0.0,0.487113487901296,0.1,0.004919290542602539,0.10168933868408203,0.04903154,0.22638243,-48.234891100427376,-0.27597020564752434,-0.399836685621368,0.0,719,0.06174278259277344,0.016729869935240844,0.01497386556900843,9843,-42.68080863817123,0.0
16,1.208564043045044,-47.45655996269281,5.805701896288785,-28.115181656508966,-51.83446701736462,0.0,0.5403777636596544,0.1,0.0052759647369384766,0.1067502498626709,0.049735628,0.20424275,-48.15705798665392,-0.27869766449207006,-0.3967607132305743,0.0,707,0.0645143985748291,0.016382999415027806,0.014937581931331857,10550,-42.48690018746735,0.0
17,1.2488501071929932,-46.484748816942954,7.058524508391245,-20.57475601355192,-51.83987098447562,0.0,0.46585454960597916,0.1,0.005623817443847656,0.1105964183807373,0.05020899,0.2865219,-47.989827069682825,-0.25532977753082525,-0.38704233134768495,0.0,759,0.06267237663269043,0.020626754045444895,0.01939868450786778,11309,-42.49419034746744,0.0
18,1.2465596199035645,-47.65132279700318,5.760666215146082,-31.446415495805834,-52.05530315565258,0.0,0.46894560370983684,0.1,0.00506281852722168,0.10505247116088867,0.051733214,0.24048972,-47.95597664241486,-0.290255007953535,-0.3987057637627898,0.0,699,0.06105160713195801,0.012374791239612213,0.011128725758228465,12008,-43.00567310256823,0.0
19,1.2719249725341797,-47.868390726095924,5.95168926017208,-23.715065886693605,-52.013929804984144,0.0,0.4754518628484973,0.1,0.0050737857818603516,0.10573887825012207,0.051088918,0.24930875,-47.94721805078297,-0.26612127771996175,-0.4008762443517657,0.0,733,0.06364226341247559,0.011847442915907962,0.0112391675994417,12741,-43.01833017700139,0.0
20,1.2177486419677734,-47.778302279696696,6.047295939898239,-19.783958599748416,-52.015853186894624,0.0,0.4529904868896931,0.1,0.004990577697753906,0.10615372657775879,0.05016179,0.29485235,-47.93032647367434,-0.26542027588821016,-0.39997909492229633,0.0,697,0.061704397201538086,0.013394186605913029,0.012989067914763648,13438,-43.52043978166306,0.0
21,1.2485382556915283,-46.72249405898916,7.05607614885409,-12.164551345707359,-52.044469108001906,0.0,0.43596577886764376,0.1,0.005212545394897461,0.10427212715148926,0.049441542,0.30679762,-47.809543232205826,-0.2416719419030454,-0.38942295206895405,0.0,781,0.06807541847229004,0.017797065595571402,0.017038193154788387,14219,-42.35384890155493,0.0
22,1.2719292640686035,-47.1193191500881,7.3146118489117535,-19.729665929080234,-52.736840312194175,0.0,0.47437821373121947,0.1,0.005190849304199219,0.10590291023254395,0.049767543,0.27693954,-47.74052082399405,-0.271721417797764,-0.3933902353861088,0.0,766,0.06245923042297363,0.015752720032761156,0.015518998350344709,14985,-41.1481347167428,0.0
23,1.2579994201660156,-47.028485113590136,6.107894853789621,-27.821957227980217,-52.33143620605873,0.0,0.4777689785378974,0.1,0.005211830139160156,0.10463070869445801,0.050374333,0.26421344,-47.66931725295366,-0.2459211330883649,-0.3924811284623486,0.0,785,0.0712735652923584,0.010938416315188779,0.010612567813924023,15770,-41.15398734358317,0.0
24,1.2651278972625732,-46.268031440757234,6.84609665024185,-23.547656055104458,-51.97322223762214,0.0,0.45945776429252744,0.1,0.02992868423461914,0.1092686653137207,0.050056558,0.27261862,-47.52918867173402,-0.22803880664622844,-0.3848733043868999,0.0,788,0.07139348983764648,0.013480560624417052,0.013147724761601646,16558,-40.6699064731699,0.0
25,1.2767291069030762,-44.69155325854951,7.370809238144279,-24.094161333889193,-51.68007626428835,0.0,0.4661953636833619,0.1,0.005040168762207031,0.10476565361022949,0.050440375,0.23881736,-47.24542513041557,-0.26370961416974,-0.36910870829877673,0.0,770,0.06806302070617676,0.0182490197606368,0.017169536382768462,17328,-40.935426917261495,0.0
26,1.3326897621154785,-45.39530686506472,8.14243940060565,-19.967317976287426,-52.09943332569479,0.0,0.48090728271015465,0.1,0.005491733551025391,0.11081147193908691,0.05071416,0.23666139,-47.06041330388049,-0.25341475780230366,-0.3761475258562015,0.0,821,0.07566022872924805,0.020207396595679782,0.019965299479129978,18149,-40.2829448070124,0.0
27,1.2484548091888428,-45.402945850346235,7.188792381391162,-27.383323582548613,-52.13803897967435,0.0,0.5147106350514162,0.1,0.005079984664916992,0.10822868347167969,0.049256526,0.22821069,-46.894666558527064,-0.2432377575657055,-0.37622187956985914,0.0,825,0.07048749923706055,0.015099062355556987,0.014934124175474617,18974,-40.156302361885295,0.0
28,1.2959606647491455,-45.93909127609252,7.809473788308909,-23.84910903845374,-52.43017692258967,0.0,0.5007927942477061,0.1,0.004865169525146484,0.1032109260559082,0.05144405,0.22591507,-46.79910903028361,-0.22429976099190843,-0.3815867584911324,0.0,906,0.07935595512390137,0.014885449820616745,0.014688015464894347,19880,-38.42577045794536,0.0
29,1.2938132286071777,-45.069545888508834,7.914929817119355,-12.55305121133734,-52.038595561554516,0.0,0.4497276401469346,0.1,0.0050313472747802734,0.11532187461853027,0.050525147,0.31812388,-46.626152716106134,-0.2548838491839238,-0.3728890516988825,0.0,772,0.06795597076416016,0.019191465113853345,0.01891463189786828,20652,-39.64849960771066,0.0
30,1.3307783603668213,-44.0390252139076,8.602624483411155,-19.848159137047915,-52.310892621250105,0.0,0.5448278674048138,0.1,0.0049664974212646484,0.105377197265625,0.05003322,0.21893634,-46.367439965886284,-0.22896827560329122,-0.36258759117828193,0.0,925,0.07923316955566406,0.019864854948488914,0.01937425126427732,21577,-39.368127045741176,0.0
31,1.3247318267822266,-45.12765754333438,8.175011316145046,-19.88086029673876,-52.64367104771236,0.0,0.4940498167289249,0.1,0.004979848861694336,0.10368561744689941,0.04967237,0.240675,-46.24346172363109,-0.22094140481642036,-0.3734741789904263,0.0,896,0.0800778865814209,0.019313353360569812,0.019014875770540136,22473,-40.60973592246452,0.0
32,1.3833355903625488,-44.2260249695583,8.012470890903263,-27.66893471103126,-52.04480080570141,0.0,0.4944066249279456,0.1,0.005187273025512695,0.10907220840454102,0.051163703,0.2294137,-46.041718048223814,-0.23543016315588286,-0.36445834949325073,0.0,884,0.07790565490722656,0.018173737677910404,0.01796546716326782,23357,-40.06569806166537,0.0
33,1.325927495956421,-44.60650649664581,8.89404465057917,-16.011326465455483,-52.25215571480789,0.0,0.4996747050022769,0.1,0.00484156608581543,0.10690546035766602,0.05087506,0.24180824,-45.898196893066014,-0.24833152522209992,-0.36826301082439294,0.0,912,0.08016848564147949,0.023688968074254572,0.023294666504390358,24269,-39.09242480741786,0.0
34,1.3495113849639893,-42.31484697549216,10.207653665532572,-12.065889733295947,-53.667319873312515,0.0,0.5222887672119547,0.1,0.0050013065338134766,0.10574817657470703,0.050946318,0.2364243,-45.539861901308626,-0.2563540125780035,-0.3453464691722101,0.0,977,0.09246182441711426,0.030190376812242264,0.028841904259428564,25246,-39.5976981566303,0.0
35,1.334366798400879,-43.589101383938875,8.841948093814187,-19.468656414115575,-53.31130628527776,0.0,0.5357612892878052,0.1,0.005103111267089844,0.10492634773254395,0.05049161,0.20263423,-45.34478584957165,-0.2592259724522728,-0.3580881817730875,0.0,938,0.07911324501037598,0.019560313739740435,0.01862257573185823,26184,-39.240806140155975,0.0
36,1.489699363708496,-42.20307499306938,9.901180315153708,-12.34701614764095,-52.638006790167836,0.0,0.5305653634999992,0.1,0.004968404769897461,0.11179232597351074,0.051260497,0.20430428,-45.03061476392143,-0.21660575258794845,-0.3442282169178679,0.0,1019,0.08497047424316406,0.026813739564979937,0.0262758910010862,27203,-38.27123425110737,0.0
37,1.4016022682189941,-40.95133561608038,10.057257637337853,-16.02153946141582,-52.58206707872933,0.0,0.5405216280814059,0.1,0.005059719085693359,0.1069493293762207,0.05049597,0.22177352,-44.622686849137324,-0.21971647663502977,-0.3317107766797408,0.0,1084,0.0908212661743164,0.024106248537443607,0.02340630708229382,28287,-37.49602205138804,0.0
38,1.5251703262329102,-41.227859984151884,10.615694039527947,-6.11955456873477,-52.34429330213015,0.0,0.5452158406797635,0.1,0.005065441131591797,0.11187529563903809,0.05003407,0.204906,-44.28320416263878,-0.22016764537713618,-0.33447742226190263,0.0,1103,0.09655451774597168,0.03182640168927434,0.03093570612138371,29390,-35.21631440755823,0.0
39,1.5198299884796143,-39.09414132093061,11.061695500679335,-12.924939598224718,-52.96269214921629,0.0,0.5547637485839122,0.1,0.004965543746948242,0.10863614082336426,0.051148634,0.19304842,-43.764297878467964,-0.23704895112503724,-0.31314087217438424,0.0,1102,0.09784102439880371,0.033815013424262186,0.03235880192039494,30492,-33.35510179619328,0.0
40,1.5293948650360107,-39.66826958979194,10.924765993878303,-12.289764896640051,-52.660443429156004,0.0,0.5491989998441913,0.1,0.005124330520629883,0.12560629844665527,0.050755076,0.19372757,-43.354695049600366,-0.2509836327908721,-0.31888274985073145,0.0,1096,0.10044264793395996,0.030011087069192723,0.029554663986151343,31588,-34.06534290794514,0.0
41,1.5569236278533936,-37.349402094875735,10.916300639203998,-8.710353938266586,-52.52658360526382,0.0,0.5693196657536835,0.1,0.00510406494140625,0.10982203483581543,0.050035875,0.21131729,-42.754165754127904,-0.24751392666440994,-0.29569417076273846,0.0,1177,0.10223817825317383,0.03269599233268786,0.032138545161103795,32765,-30.82757728930234,0.0
42,1.5637474060058594,-37.40258240625823,11.497487850745818,-12.361369637685797,-52.92626132707162,0.0,0.5786934433426404,0.1,0.00516963005065918,0.11147880554199219,0.050628368,0.17351691,-42.21900741934093,-0.19733506513060087,-0.29622801635631263,0.0,1269,0.10844182968139648,0.03142497978650364,0.03155683847013778,34034,-30.17277265793318,0.0
43,1.5628893375396729,-38.41409166971447,11.457188652583483,-8.25719442763333,-53.72747073838352,0.0,0.56935896333877,0.1,0.005303621292114258,0.1121673583984375,0.051372044,0.18484223,-41.838515844378286,-0.20426760991436957,-0.306341637221523,0.0,1233,0.10952353477478027,0.031587152163685774,0.030104637848968285,35267,-27.041127025887867,0.0
44,1.5616455078125,-34.551471066602424,13.432215371468502,-1.4989162227534436,-53.61683721819327,0.0,0.5752576652197371,0.1,0.005150794982910156,0.11139988899230957,0.05050205,0.17774865,-41.1098113666007,-0.23248174581541145,-0.267712185098626,0.0,1275,0.10784077644348145,0.04985470743531097,0.04499359247150601,36542,-24.315340620556228,0.0
45,1.5948314666748047,-34.227245735115005,11.66798018338394,-4.720810377867245,-53.09296156822038,0.0,0.5576435416293004,0.1,0.005269765853881836,0.10977411270141602,0.049979124,0.19969875,-40.42155480345213,-0.1989639744276213,-0.26447020583789815,0.0,1224,0.10741281509399414,0.03654895524428947,0.03540655700440537,37766,-21.251735069035018,0.0
46,1.8204221725463867,-30.400596346043766,13.636827122216042,10.968146171654759,-52.99784008989012,0.0,0.6809693378746893,0.1,0.005495548248291016,0.11898660659790039,0.0496645,0.16379376,-39.41945895771129,-0.1906026586303112,-0.22620600281830447,0.0,1498,0.13106203079223633,0.05005409653699475,0.0464270427476668,39264,-15.989693975784963,0.0
47,1.4916534423828125,-32.4639959479416,14.620062204144075,10.521010519788724,-52.6550904788119,0.0,0.6457742066875772,0.1,0.005315303802490234,0.11769986152648926,0.05080347,0.16744596,-38.72391265673433,-0.19439432491547162,-0.24684148251030294,0.0,1500,0.1304934024810791,0.05860303336996131,0.05635491432775492,40764,-11.288029389772028,0.0
48,1.5664043426513672,-29.78682537613669,14.869400740850537,-1.6540127889071243,-52.65482179595575,0.0,0.6327192763535094,0.1,0.0067632198333740234,0.12270522117614746,0.05194451,0.15357405,-37.83020392867457,-0.20244557485426692,-0.22007020265789565,0.0,1521,0.1329665184020996,0.06009120988291551,0.05600334321703387,42285,-7.054652975240842,0.0
49,1.6228382587432861,-30.805404154963203,15.627871798623518,7.805372784344733,-53.355121121607034,0.0,0.6789056689598363,0.1,0.005555629730224609,0.12133240699768066,0.051419467,0.14188436,-37.12772395130344,-0.22415694467133238,-0.23025495610401472,0.0,1519,0.13385248184204102,0.05890501542243747,0.05875536947847343,43804,-7.539222057870259,0.0
50,1.7051560878753662,-28.212109142348435,16.987964750430926,11.144224117998235,-53.20036174090495,0.0,0.6556243170848841,0.1,0.005283832550048828,0.11551451683044434,0.05098959,0.15737768,-36.23616247040794,-0.2028058813717383,-0.20432485783396048,0.0,1696,0.14879751205444336,0.06983589215970465,0.06434407692933922,45500,-9.828292210434164,0.0
51,1.681138515472412,-24.435585760149802,15.492725987925635,7.172653926862132,-54.12731973252913,0.0,0.7017837328350475,0.1,0.005661964416503906,0.12328648567199707,0.049685016,0.13560236,-35.056104799382126,-0.2158486547667657,-0.1665560797937626,0.0,1680,0.1581251621246338,0.061651385062808484,0.05590508797401519,47180,-6.534743369654441,0.0
52,1.696955919265747,-22.821819492391835,15.612905117960102,10.64405621267391,-53.26954393998803,0.0,0.6834164155504279,0.1,0.005579471588134766,0.12029361724853516,0.04976473,0.14870347,-33.832676268683095,-0.18085304583509018,-0.15041622371041374,0.0,1840,0.20001626014709473,0.06165736604325858,0.059444628474934,49020,-6.802555382804013,0.0
53,1.7291817665100098,-22.04078405793837,16.284362520620178,22.12229663715987,-54.345885576621136,0.0,0.7370953269467834,0.1,0.005561113357543945,0.11896538734436035,0.05134568,0.13050628,-32.65348704760862,-0.16455137822040825,-0.1426083732139166,0.0,1846,0.21496176719665527,0.0667329059155146,0.06449852806161949,50866,-7.534853825440912,0.0
54,1.8767173290252686,-11.814887152465568,19.724705344438465,56.889765943993645,-52.904386647239065,0.0,0.7453254979243609,0.1,0.005377054214477539,0.13193297386169434,0.04886672,0.14276385,-30.569627058094316,-0.15928479535897083,-0.04034854321336683,0.0,2159,0.2616305351257324,0.14447297589282912,0.1136410470105253,53025,-6.362433839745355,0.0
55,1.8612401485443115,-11.847549461475687,21.387481081870433,61.90186980554235,-53.88838631748277,1.0416666666666667,0.7595194986399316,0.1,0.005433797836303711,0.12047624588012695,0.050538152,0.14062947,-28.69741929843245,-0.2049590049294907,-0.04067692582355056,1.0416666666666667,2090,0.26715707778930664,0.13133556366468396,0.12832459935077845,55115,-6.108343319338202,0.0
56,1.9842352867126465,-7.811180401617588,22.64415422668333,77.4591728236432,-56.2722525438412,0.0,0.7734403844594122,0.1,0.005525827407836914,0.12356042861938477,0.05172705,0.13022447,-26.608795408750964,-0.18781898911194084,-0.00031307579271885416,0.0,2307,0.31805872917175293,0.15263730189662691,0.14290546133944215,57422,-4.034953757390361,0.0
57,2.1247406005859375,-1.2783632303833627,21.503350414948212,46.2890128940205,-55.254499586065954,0.0,0.9056281129810315,0.1,0.0055522918701171875,0.12135434150695801,0.051118642,0.114809,-24.075752190914205,-0.14987758185351815,0.0650131299567352,0.0,2643,0.3842616081237793,0.13860317886048584,0.13058759813593576,60065,-1.8882881150018793,0.0
58,2.150388240814209,5.163898572864383,25.852459349260357,77.21555801168527,-53.20094615980461,0.0,0.8794195902279284,0.1,0.005767107009887695,0.12752819061279297,0.04976945,0.10948714,-21.151787114536347,-0.18072410944315878,0.12943661293127687,0.0,2726,0.41146206855773926,0.2301832728107464,0.19557573595037592,62791,-11.98950942363289,0.0
59,2.392580270767212,12.262355830952446,29.422609361988695,75.10776150083997,-50.92213561882708,0.0,0.9540365518169893,0.1,0.00588536262512207,0.12845325469970703,0.04982619,0.1084125,-17.810372819987467,-0.14390768232492782,0.200420160404473,0.0,3108,0.47077465057373047,0.2556675905313237,0.2438005804954714,65899,-13.203047164575208,0.0
60,2.4568190574645996,15.560119207821364,34.457520542102685,88.71882188200706,-53.96393282809073,0.0,0.93911888165041,0.1,0.005834341049194336,0.1285240650177002,0.048549924,0.101240866,-14.473323617206585,-0.16281775507839233,0.23339753132990218,0.0,3290,0.4948256015777588,0.28607261751432306,0.2811695736448241,69189,-9.655795141760105,0.0
61,2.641906261444092,18.035950993214673,36.096576360179476,119.6448002236375,-59.2689603113912,0.0,0.9925370487580846,0.1,0.005972146987915039,0.13319611549377441,0.051080003,0.097731665,-11.222396156164459,-0.17786729243504076,0.2581554634944054,0.0,3667,0.5567858219146729,0.3045228386565642,0.2908293350141276,72856,-8.668474093678253,0.0
62,2.897691011428833,31.770550963484084,41.89400413934543,161.7043395575231,-58.805337029994725,1.0416666666666667,1.120382737298448,0.1,0.006028175354003906,0.13646697998046875,0.048708763,0.089050815,-6.923101444199605,-0.1403821137088183,0.3955044907316134,1.0416666666666667,4224,0.6442413330078125,0.43997903949450706,0.38512634892024955,77080,-7.070107100312184,0.0
63,3.0595407485961914,32.917053016620876,47.33034708910093,195.55912106974435,-50.39264136933447,0.0,1.0530795710027032,0.1,0.0059642791748046875,0.13941478729248047,0.050780863,0.09303846,-2.939085998117557,-0.14454856496255652,0.4069666120158029,0.0,4289,0.6527414321899414,0.4055654759101342,0.3793477617302769,81369,-13.416375691368751,0.0
64,3.5501904487609863,62.5774328198926,73.86551976266237,332.70095098682634,-52.43059416980106,0.0,1.2313321291463506,0.1,0.006969451904296875,0.1710665225982666,0.05017883,0.078879595,3.6125658836834584,-0.1395017778199095,0.6983590565453285,0.0,5486,0.8527724742889404,0.67603935296902,0.5357733064254786,86855,-16.158895494326373,0.0
65,4.025999546051025,98.01658649823294,99.44818552837,390.6430104889678,-50.4162262302296,1.0416666666666667,1.3996136858248571,0.1,0.007317304611206055,0.2130579948425293,0.050049674,0.06998369,13.052967945138409,-0.13525587771734182,1.0475392201127456,1.0416666666666667,6352,0.9788341522216797,0.6123504306693155,0.5189225482241727,93207,-14.877720992128317,0.0
66,4.291726589202881,111.28440950420286,110.33471791550224,376.9308698288549,-50.374087490643134,0.0,1.4370945698387934,0.1,0.0070209503173828125,0.19242548942565918,0.049063683,0.066111505,22.876112101044853,-0.13584047776583122,1.1589545887440478,0.0,7137,1.0996932983398438,0.613792633109122,0.5702408034590442,100344,-9.676127166352703,0.0
67,4.947433233261108,170.25706525052496,125.66912231890379,387.43391370075426,-49.426514818057534,0.0,1.5876270115694777,0.1,0.007635354995727539,0.19367003440856934,0.05016804,0.06432707,37.614207415992865,-0.12773671442743836,1.7334650895675345,0.0,8120,1.265467882156372,0.48712529634862717,0.4223491298609763,108464,-7.397441676700067,0.0
68,4.992910146713257,159.8119318626893,122.9436911675965,386.2781787596117,-59.93915684337236,1.0416666666666667,1.6777579434761682,0.1,0.007964849472045898,0.1703331470489502,0.049049683,0.058857933,49.83397986066251,-0.1514867789858028,1.6225447926406258,1.0416666666666667,8419,1.3287873268127441,0.49440450869856234,0.4570005216831212,116883,1.2717914309415543,0.0
69,5.252386093139648,191.87349507987133,128.4604566964167,483.83885486665463,-58.5280586235869,1.0416666666666667,1.673183803150458,0.1,0.012796163558959961,0.18123865127563477,0.04997454,0.056377288,64.0379313825834,-0.1496223003570469,1.9210481073302272,1.0416666666666667,8760,1.3670859336853027,0.42894187542488466,0.3732376551808054,125643,45.0440586239875,0.0
70,5.608240365982056,239.03009114163237,117.24826756315572,386.0535153170484,-50.37948641242956,0.0,1.770502813166317,0.1,0.00811314582824707,0.2997467517852783,0.047447238,0.055615827,81.5371473584883,-0.12454974909161409,2.397824991963559,0.0,9328,1.4603643417358398,0.28127225708030135,0.24846360814507906,134971,7.5043075175411165,0.0
71,5.5571699142456055,219.73158686037252,130.93650295823392,399.05056795507926,-58.74046738883606,1.0416666666666667,1.6784433595457282,0.1,0.008684873580932617,0.24439454078674316,0.050141845,0.05596491,95.35659130867673,-0.14331274039874173,2.205263256864527,1.0416666666666667,9161,1.448960304260254,0.30356339698919865,0.26777918372437637,144132,17.413951399039973,0.0
72,5.312234401702881,235.1255146413749,124.7996671573035,410.8410479947107,-50.38676839193721,2.0833333333333335,1.7323290888612035,0.1,0.00783395767211914,0.1922287940979004,0.04916635,0.054464716,109.33348364194654,-0.12364435107314997,2.347938993594067,2.0833333333333335,9250,1.4664077758789062,0.25418739909767474,0.21762636270280958,153382,16.282265611055145,0.0
73,5.585583925247192,234.32963456555186,117.14593526370489,414.5747377294124,-50.38715844212685,5.208333333333333,1.5281120945186861,0.1,0.007779598236083984,0.18037939071655273,0.048358075,0.05729181,121.83309873430707,-0.14080019956438852,2.3387208269470894,5.208333333333333,9172,1.4428942203521729,0.22670758783371564,0.19331690275676422,162554,38.524300428012026,0.0
74,5.642543077468872,291.62650394273487,114.25811051938878,548.1466093084099,-41.09032082166992,8.333333333333334,1.7782890944618837,0.1,0.007821321487426758,0.20787453651428223,0.04992562,0.05434513,138.81243925514985,-0.11519445725722748,2.9116867111515057,8.333333333333334,9516,1.48445463180542,0.16980085592197877,0.12658531655715316,172070,44.708385032981745,6.25
75,5.620106935501099,287.1422721640981,118.32195729631442,407.80173996932365,-50.395069895478535,1.0416666666666667,1.5981906348590191,0.1,0.008045673370361328,0.2075037956237793,0.047014073,0.055390153,153.6454225460447,-0.13441863557321476,2.8659942186846776,1.0416666666666667,9194,1.3827900886535645,0.12039191348575165,0.10767072540524233,181264,47.302725640982814,6.25
76,5.6027843952178955,293.98923591497555,117.71577075437565,633.3870729379391,-52.779313267455954,3.125,1.7577169314682985,0.1,0.007892608642578125,0.19765543937683105,0.041765828,0.04806656,167.6798038829378,-0.11629066258038372,2.9353133590129747,3.125,9457,1.3849377632141113,0.14870208237048727,0.13599552840969092,190721,40.58171220855373,0.0
77,5.24809718132019,306.0724553784042,117.85932806260692,516.2710837364497,-61.771593511612885,5.208333333333333,1.5884657768790613,0.1,0.0077822208404541016,0.19212961196899414,0.047474165,0.045171652,181.51906903248442,-0.13126212070580578,3.055294745849404,5.208333333333333,9189,1.3385858535766602,0.09417342953170951,0.08198679538083908,199910,24.981490580688465,0.0
78,5.657123804092407,328.23892479444277,93.78942589357602,451.96662457121397,-50.3929997964924,4.166666666666667,1.7395520153497641,0.1,0.007807731628417969,0.1790485382080078,0.047663327,0.053884123,196.19105460868028,-0.11102605861770698,3.282591986412443,4.166666666666667,9458,1.3681879043579102,0.0769165617687693,0.07064248284430742,209368,34.00145380528434,0.0
79,5.633433103561401,330.30544523054573,85.28681812027077,427.0045454717397,-50.39370415668294,4.166666666666667,1.7527736990655336,0.1,0.014928817749023438,0.245375394821167,0.049008135,0.051206633,209.60249367086683,-0.128414569765135,3.2924188858995094,4.166666666666667,9502,1.3508727550506592,0.06254677538357874,0.05601217636316496,218870,44.9479075938538,0.0
80,5.598063945770264,326.5562456883785,104.12444607208974,496.70240809128484,-50.39016132738457,5.208333333333333,1.5804944121626674,0.1,0.007765531539916992,0.1989603042602539,0.051652383,0.04868221,221.297868872618,-0.11190916724503759,3.254500644801864,5.208333333333333,9306,1.3282511234283447,0.07039608439466755,0.060586181722561874,228176,37.75043262642374,0.0
81,5.510674953460693,339.40064838600773,90.21490014192318,480.9688676789158,-50.38691012925257,5.208333333333333,1.539202724257478,0.1,0.007790565490722656,0.18253612518310547,0.050485253,0.052278757,233.108146823957,-0.12711619051485748,3.3825272173784704,5.208333333333333,9404,1.3585171699523926,0.05389709733551488,0.04853972526150009,237580,59.78745680357588,0.0
82,5.473433256149292,330.84251507823257,108.12527637391179,525.1193882232594,-50.40475293266495,3.125,1.3478279978235506,0.1,0.007986307144165039,0.1819455623626709,0.050056543,0.04011642,242.88158364938457,-0.11117570172346969,3.302575811464441,3.125,9208,1.3632519245147705,0.05926493111699619,0.052431029702889084,246788,118.2009953852785,0.0
83,5.445027589797974,327.52050369395283,115.03582540015242,593.4828416640611,-52.13323814979287,6.25,1.5782807386046775,0.1,0.00748753547668457,0.20832347869873047,0.047049504,0.047399845,251.3454756538414,-0.12694518003454788,3.2706114082659767,6.25,9304,1.350848913192749,0.08494824907507796,0.08300187499301419,256092,94.11218546211373,0.0
84,5.673221111297607,346.7745622329182,90.31562781834715,556.4138815196796,-50.385751493854116,6.25,1.675442361931285,0.1,0.00860738754272461,0.24244117736816406,0.050029427,0.05017609,260.88838431174906,-0.10866915107035213,3.4562640972197514,6.25,9404,1.3263769149780273,0.05360544610777674,0.04426697061217991,265496,74.94070175296122,0.0
85,5.616192102432251,357.0873881679563,59.46847188696903,412.37344563415627,-50.383210960338864,1.0416666666666667,1.5084723443557015,0.1,0.007875919342041016,0.24730706214904785,0.05044886,0.05234159,270.5082846973698,-0.10746153896482596,3.5589632630064165,1.0416666666666667,9502,1.3278558254241943,0.024493535942825117,0.021050151620922657,274998,180.7531752785282,0.0
86,5.7125403881073,344.7844229266031,81.92221431733678,597.4409232718508,-50.37903631206984,2.0833333333333335,1.5628932403801346,0.1,0.008011817932128906,0.18553543090820312,0.049499772,0.049366765,277.9358985202931,-0.1447757065499054,3.4359365126418315,2.0833333333333335,9404,1.274977445602417,0.040351828594668154,0.038363200128469485,284402,267.8212685346017,0.0
87,5.664724826812744,353.87837288728275,92.1291937675809,520.8381485760566,-50.37742861565572,7.291666666666667,1.5114334548355566,0.1,0.007780313491821289,0.18217921257019043,0.050407648,0.049462445,285.5301459569921,-0.10658696727937005,3.5333424418798915,7.291666666666667,9404,1.2771227359771729,0.04302815164897516,0.04071435972285366,293806,308.9132427857843,6.25
88,5.905083894729614,353.99697280395714,79.63333854126125,472.68033043568124,34.50782213950361,10.416666666666666,1.8425321405207007,0.1,0.00790548324584961,0.2752199172973633,0.048819877,0.051317796,292.3768286416886,-0.10694135686039526,3.5280586431396053,10.416666666666666,9600,1.3264899253845215,0.05587455579874881,0.0489305612811227,303406,331.8581392052874,6.25
89,5.443486452102661,338.8362368612777,85.17532278337033,424.3892817227592,-50.387314118022424,3.125,1.433606667406513,0.1,0.007972240447998047,0.18498754501342773,0.051060744,0.047108527,297.0227694636475,-0.11103373740468457,3.3764606054617445,3.125,9404,1.3312993049621582,0.04680279745149422,0.04451294519888215,312810,343.50376216202284,6.25
90,5.805840730667114,372.1666107704789,51.94969270958765,573.2551676036732,70.95192561415503,7.291666666666667,1.9190142021196586,0.1,0.007687568664550781,0.1930065155029297,0.05036983,0.050875418,304.5371535943306,-0.10232614882344686,3.7097571845098862,7.291666666666667,9600,1.3226213455200195,0.028482779043991678,0.021222505792613092,322410,362.30898561836705,6.25
91,5.816657781600952,359.032378822544,62.50837039024531,573.2279922753054,82.70686664067445,4.166666666666667,1.9670576109131763,0.1,0.008248567581176758,0.2455298900604248,0.05050155,0.04788996,309.986676117152,-0.10657502946178266,3.5780083038715507,4.166666666666667,9600,1.3373289108276367,0.03728284648786754,0.03432876483006343,332010,377.25216933449235,6.25
92,5.555999279022217,358.7698840377496,86.0540355674973,549.2892216928828,-50.39729472774246,8.333333333333334,1.4221971457249638,0.1,0.008189678192138672,0.18377327919006348,0.048337623,0.04848219,314.86499690921175,-0.10651068112440358,3.5762057655781327,8.333333333333334,9404,1.3255224227905273,0.03187049132825322,0.02850012207323639,341414,380.4732596860799,6.25
93,5.542973518371582,352.69647164096773,101.03003052459707,561.1682226463514,-50.380644827707044,9.375,1.4740653527576824,0.1,0.007750511169433594,0.18222522735595703,0.051008284,0.044872966,318.6481443823874,-0.10706302039436959,3.5263245493197704,9.375,9306,1.2835431098937988,0.039206567243137896,0.03698031810520617,350720,388.12219377345144,12.5
94,5.769415616989136,349.461374133098,100.10861602192905,629.4381248390619,-50.38221212935919,10.416666666666666,1.6478619992061425,0.1,0.008067131042480469,0.23795270919799805,0.048463125,0.053907774,321.7294673574585,-0.10666859182507198,3.4818635502098254,10.416666666666666,9502,1.3257567882537842,0.05486287581184647,0.0483157435367783,360222,379.5615405871509,12.5
95,5.61779522895813,349.9750396879305,92.46536631527772,439.8358080355813,-50.38424784530387,9.375,1.7145472115478635,0.1,0.007717132568359375,0.20744085311889648,0.050554845,0.0465738,324.5540245905057,-0.10721246730654961,3.4934787116742094,9.375,9502,1.2962772846221924,0.05024091888928024,0.04551115290079313,369724,371.39247714443195,6.25
96,5.84804892539978,360.4995476894281,77.77394735086445,714.0725683833019,18.42156014654608,6.25,1.7911423308142842,0.1,0.00927591323852539,0.21111488342285156,0.05075867,0.053955592,328.148576900398,-0.10689443466909825,3.594355565330902,6.25,9600,1.3473100662231445,0.039086351957898204,0.03611863641807463,379324,382.4421011965712,6.25
97,5.9665703773498535,342.2225355076542,92.65787788952214,484.9141597192963,-50.38909421021,7.291666666666667,1.5858790138017809,0.1,0.008745431900024414,0.19560813903808594,0.049599588,0.046816718,329.5559727611236,-0.10926138572357798,3.409899068206943,7.291666666666667,9392,1.2604854106903076,0.053210170340681366,0.04630683326111683,388716,375.2949493741372,6.25
98,5.7016472816467285,367.47596227654276,66.48238538444495,629.6215001455324,-50.378404777251404,5.208333333333333,1.6617405465758293,0.1,0.008441448211669922,0.249006986618042,0.049739797,0.05825272,333.3479717126655,-0.10633088684675762,3.6684906458963398,5.208333333333333,9502,1.2751009464263916,0.027730251733381832,0.02374403280824787,398218,307.30040666479016,0.0
99,5.702049970626831,352.89890020740495,80.43241346375044,549.0612443900426,50.51175248223274,5.208333333333333,1.8857207050682556,0.1,0.008115053176879883,0.24634599685668945,0.048658412,0.048544,335.30306456213947,-0.1070729660233178,3.516677033976682,5.208333333333333,9600,1.2777369022369385,0.05853068287921054,0.0539726190103054,407818,386.9368387641347,0.0
100,5.714653730392456,356.91242953300826,58.45559755424656,438.9160299570952,155.25269883229714,6.25,2.0896104761138603,0.1,0.008763790130615234,0.22176074981689453,0.050157763,0.045424394,337.46400105922635,-0.10611597847204864,3.558050688194618,6.25,9600,1.2918014526367188,0.029497321806324923,0.026993986848666975,417418,387.04426649278724,6.25
101,5.731161117553711,364.2796961496533,66.48228202037255,605.357040851777,-50.38698626726299,5.208333333333333,1.6971869788938916,0.1,0.007918834686279297,0.2457563877105713,0.050118,0.043665685,340.145570568269,-0.10499235277476619,3.631735083817557,5.208333333333333,9502,1.2739245891571045,0.02715136678314431,0.024885077588736378,426920,387.582430357775,6.25
102,5.7136430740356445,365.82551818224823,83.39945589474151,649.6852472340338,-50.38244390504457,10.416666666666666,1.7191642818642965,0.1,0.008679628372192383,0.24620485305786133,0.051491078,0.049637116,342.71356532966695,-0.10346956576195643,3.6515441601300282,10.416666666666666,9502,1.3107712268829346,0.03331684222786266,0.030572058054668946,436422,365.68923630971096,6.25
103,5.732578754425049,371.4541787200945,63.69789677134793,613.5273707900432,38.61798217786262,10.416666666666666,1.7527014864082697,0.1,0.00813746452331543,0.2572000026702881,0.049899004,0.060169578,345.5876266687097,-0.10278311003212555,3.703466889967874,10.416666666666666,9600,1.3107163906097412,0.025876088311291175,0.02430714306919515,446022,360.53409759895146,6.25
104,5.857434511184692,366.6999906527739,75.78293954378894,641.7306889099933,2.972798093646583,6.25,1.8230267564837004,0.1,0.007910490036010742,0.2753942012786865,0.050288346,0.048607044,347.6988630671161,-0.10282285229436705,3.6555104810389665,6.25,9600,1.319624662399292,0.0383469378854936,0.03549341098850022,455622,282.337514849913,0.0
105,5.7949748039245605,371.83245642419564,68.09851537546223,548.9054212405659,-50.39055034600923,11.458333333333334,1.6310458020843448,0.1,0.007985591888427734,0.19609332084655762,0.049976986,0.048054785,350.11222240282405,-0.10248761913089595,3.705990470078999,11.458333333333334,9502,1.3116683959960938,0.02623477941514156,0.02043642153183236,465124,191.55113020725224,0.0
106,5.941981554031372,371.7804290374958,52.61096315918469,549.1488963245312,90.87669682806545,6.25,1.8312893590969577,0.1,0.008542776107788086,0.27206921577453613,0.047933146,0.050417867,352.27904306629125,-0.10285342559583233,3.705896574404168,6.25,9600,1.3304831981658936,0.021472103003625398,0.01994593123347852,474724,311.9700743315268,0.0
107,5.882835149765015,383.3895916286183,42.75415750980347,533.221316923149,232.61841081136376,13.541666666666666,1.8976806029065354,0.1,0.0077478885650634766,0.22306537628173828,0.049143266,0.050399486,355.390097922524,-0.09967887647320472,3.821571123526796,13.541666666666666,9600,1.3338449001312256,0.019496565001003465,0.017473355927216456,484324,372.5268968166782,0.0
108,5.8507280349731445,368.482662655252,55.12979853377618,493.06978959852654,42.89549143867228,5.208333333333333,1.8028089778777303,0.1,0.008145570755004883,0.21150827407836914,0.047389127,0.04834787,356.6993543957968,-0.1041679625939214,3.672915370739412,5.208333333333333,9600,1.3226163387298584,0.024480726157162,0.021308338940801263,493924,377.95526138956154,0.0
109,5.759638547897339,364.9445062984667,84.9791064584348,544.9074341142834,-50.3935663835189,6.25,1.2028657917566994,0.1,0.00860738754272461,0.20146799087524414,0.05004385,0.033424556,357.52386958606377,-0.12211886026812797,3.6371120402066524,6.25,9306,1.3243651390075684,0.014719396316503281,0.013062081199546481,503230,375.12692264849363,0.0
110,5.746495962142944,372.3692598862485,61.05852430122495,593.4381978167869,86.92007310266538,9.375,1.7675672206380304,0.1,0.008516311645507812,0.27178525924682617,0.049776502,0.056825142,359.00840861608225,-0.10321253952260041,3.7122041271440662,9.375,9600,1.3917951583862305,0.02528753967065925,0.02064033494520383,512830,377.7467822452439,0.0
111,5.680427312850952,369.9539069537468,74.73067333611293,532.5181478025344,-50.38993545981047,10.416666666666666,1.43704183341941,0.1,0.0077512264251708984,0.18753981590270996,0.049145907,0.03913069,360.1029584498487,-0.12040819942128998,3.6867865290041486,10.416666666666666,9404,1.3499388694763184,0.015485329704833484,0.013684768027950956,522234,352.81338097966284,0.0
112,5.786926507949829,376.10693601873777,54.701632610911524,573.4046211076019,107.62962794824043,9.375,1.8347862326623494,0.1,0.008200883865356445,0.26144981384277344,0.05046527,0.06420067,361.7033562067376,-0.10126923619943407,3.7491474304672323,9.375,9600,1.3968327045440674,0.02245825369212481,0.020393524128930713,531834,373.2341658959569,0.0
113,5.734262704849243,372.0863275406355,88.44525722902604,597.6148064505414,-50.38097354550573,14.583333333333334,1.1729105251873009,0.1,0.008079290390014648,0.18923711776733398,0.050365373,0.04132732,362.7416533401274,-0.10071409579236694,3.7081072002716593,14.583333333333334,9306,1.3722574710845947,0.015793690313224116,0.01564496580030539,541140,379.8506111032108,0.0
114,5.563302755355835,363.7002810630963,98.52500882290026,573.2012464981548,-50.40138080217582,8.333333333333334,1.1432330035849159,0.1,0.007441997528076172,0.18087291717529297,0.04960775,0.0384837,362.83751611242434,-0.12018259952768902,3.6242455209737527,8.333333333333334,9208,1.3481276035308838,0.019920222503647132,0.01695654648683947,550348,385.5653614905882,0.0
115,5.912973880767822,383.4979349069312,83.67980056897454,698.3321712248544,-50.38743727548055,13.541666666666666,1.6736832661984489,0.1,0.0077402591705322266,0.24763250350952148,0.050607126,0.046877857,364.903557991875,-0.10014510704640607,3.8234948675206284,13.541666666666666,9502,1.4193365573883057,0.03311030233776457,0.031432708363105674,559850,377.3873839789235,0.0
116,5.6544029712677,372.3927124916642,79.0868558746602,609.4973575801337,-50.38192717755215,9.375,1.5535318351253773,0.1,0.008732080459594727,0.19252443313598633,0.048939437,0.044629894,365.6524734418539,-0.10309778092688597,3.7116027015574047,9.375,9404,1.4150991439819336,0.019871436896654916,0.0177999657987373,569254,383.4559866602558,6.25
117,5.768327713012695,373.3844983832652,69.19771607465309,573.3899923183191,-50.385864570786026,10.416666666666666,1.525977187849963,0.1,0.00844120979309082,0.25835084915161133,0.05013376,0.04534438,366.42567593599506,-0.10355938557590051,3.7215238269505284,10.416666666666666,9502,1.4428715705871582,0.02286298836095659,0.021116793355926065,578756,377.69762819224235,6.25
118,5.750038146972656,367.40825721719995,74.16035107087117,605.3068351968125,-50.38151730247358,8.333333333333334,1.5862150676445157,0.1,0.008499622344970703,0.22335433959960938,0.050939355,0.047890432,366.52393406411556,-0.10296105115605501,3.668220954296416,8.333333333333334,9502,1.4263901710510254,0.03426931548825806,0.029289842027202525,588258,380.7233563112675,6.25
119,5.659154176712036,376.86501877635993,70.77441954247867,565.153103335271,-50.393016731741255,8.333333333333334,1.353208310023872,0.1,0.007863044738769531,0.19059300422668457,0.049478523,0.05330347,367.55804253534,-0.10146900853601996,3.756741573296605,8.333333333333334,9404,1.4108448028564453,0.010337050701589993,0.008921303701342073,597662,383.1087037504045,6.25
120,5.651571750640869,375.3327486722566,79.04175359817027,605.4880502413589,-50.38581278180269,14.583333333333334,1.4393288073460178,0.1,0.008014440536499023,0.18379616737365723,0.049277775,0.04893875,368.33551314903167,-0.11965828547032593,3.746625857980739,14.583333333333334,9404,1.4171912670135498,0.017021668436175273,0.01642991989803771,607066,376.0023116482986,0.0
121,5.912502288818359,377.75669183897963,38.91323855343522,577.1958820835218,208.00188250468108,6.25,1.8957394619447612,0.1,0.01043248176574707,0.3051159381866455,0.049726043,0.04935896,369.27763101802645,-0.10101587003759437,3.7656507966290724,6.25,9600,1.4708726406097412,0.011460957884942348,0.01039111503162325,616666,382.7554113659031,0.0
122,5.844750642776489,380.61961221807434,66.76625380964961,621.812905638019,-50.3870699083469,12.5,1.673904073258152,0.1,0.007912397384643555,0.1895008087158203,0.050274257,0.042844057,370.4118291380313,-0.09958690212017866,3.7942897375473073,12.5,9502,1.4345111846923828,0.018447378708785482,0.017511300193320988,626168,378.6366062695379,0.0
123,5.836092233657837,371.7332304703538,86.04041142449232,673.8087572918712,-50.3923745736127,11.458333333333334,1.5271930428641896,0.1,0.013242721557617188,0.1849977970123291,0.04990117,0.039076023,370.54396927126356,-0.10291321981280284,3.7049999749945357,11.458333333333334,9404,1.429924726486206,0.024983606366860527,0.025256030402792652,635572,381.1156026247479,6.25
124,6.001837253570557,380.14735272327033,73.3859554134321,681.8404879616356,-50.380839381527075,14.583333333333334,1.7594140965640408,0.1,0.0075871944427490234,0.23979902267456055,0.04934058,0.046546303,371.50430761646425,-0.09807377786005693,3.794767566523983,14.583333333333334,9502,1.4583280086517334,0.025630718332792755,0.022038184161960853,645074,384.5175644328377,6.25
125,5.589418888092041,371.07082025110657,82.57956261822446,657.836669081414,-50.38056085101907,12.5,1.442223235221725,0.1,0.008218050003051758,0.22771692276000977,0.049398303,0.038630683,371.4609588799285,-0.10060510230059465,3.7044320572509455,12.5,9404,1.4254462718963623,0.024383930496999735,0.022172461519956436,654478,387.6971111148333,6.25
126,5.8018529415130615,399.51276512125884,59.82999091062233,649.6126896125551,264.630187729553,17.708333333333332,1.9090686656635345,0.1,0.00865936279296875,0.2780723571777344,0.050544057,0.056023356,374.2661395040616,-0.0959530940244168,3.9832135726422497,17.708333333333332,9600,1.4069082736968994,0.023634589618189206,0.022508965779407194,664078,392.3610511202989,18.75
127,5.9149041175842285,379.391670211197,46.69368793730996,537.483010350202,167.63148579593891,7.291666666666667,1.6462248299984086,0.1,0.008279800415039062,0.2615373134613037,0.051257677,0.06528489,374.77869257477516,-0.10007750429839972,3.7820058290349334,7.291666666666667,9600,1.4100985527038574,0.022469454261418276,0.014885217450414042,673678,387.0171878159367,12.5
128,5.851769208908081,391.3667241166566,91.97707184119615,746.6710362108545,-50.39435618257253,17.708333333333332,1.769716645266463,0.1,0.008755207061767578,0.22507905960083008,0.049474612,0.05581902,376.4374957289633,-0.11574517349139753,3.901328529578258,17.708333333333332,9502,1.3883473873138428,0.04012080824604607,0.03583153054936681,683180,376.9037711732185,6.25
129,5.956697463989258,387.5084836963254,73.97622649874182,694.0810257829911,103.26519956924426,15.625,1.916711747926043,0.1,0.009026288986206055,0.2844545841217041,0.04986021,0.055564556,377.54459452569955,-0.09974122486389354,3.863175441802774,15.625,9600,1.4085679054260254,0.03290072982188474,0.031247830331342617,692780,371.6901962373715,6.25
130,5.875921249389648,389.98772497184945,57.480832859033406,661.8957389779844,147.1576387810691,16.666666666666668,1.8419447868792114,0.1,0.008750438690185547,0.2634754180908203,0.04939853,0.058758095,378.78890757031456,-0.09911587401213073,3.8875507926545354,16.666666666666668,9600,1.3996036052703857,0.02087595390017721,0.02042797574541053,702380,341.7409018397186,0.0
131,5.803711891174316,385.21863764862127,62.93584507288632,653.8454021264102,-50.38465204712424,16.666666666666668,1.679286426930517,0.1,0.008855581283569336,0.2330949306488037,0.050370246,0.044295218,379.43188057814524,-0.0997722208203375,3.8459058796842016,16.666666666666668,9502,1.3587725162506104,0.014776666623275831,0.013171704155600133,711882,338.1775124477766,0.0
132,5.985025644302368,385.7046107473523,56.77665063645,617.3896243485283,179.44289791441543,16.666666666666668,1.7559774673690405,0.1,0.008286714553833008,0.306591272354126,0.049600594,0.05870658,380.059153595066,-0.09986070819937816,3.845139291800622,16.666666666666668,9600,1.3997490406036377,0.021807358263894037,0.02108036772160859,721482,328.185965485167,0.0
133,6.12202525138855,388.7068507182257,52.047646514564505,665.9881673702112,119.76964579688016,17.708333333333332,1.9772635521231767,0.1,0.009359598159790039,0.28780031204223633,0.04939579,0.06052241,380.923923307382,-0.09983626835470745,3.875580398311959,17.708333333333332,9600,1.4052772521972656,0.01802458842042011,0.014922170566937865,731082,338.805561878311,0.0
134,5.953382730484009,383.9863192712025,59.88716008543879,549.2637326531351,-50.37403353179212,11.458333333333334,1.5147054786155727,0.1,0.008543252944946289,0.2668745517730713,0.0506997,0.038852762,381.23016290376404,-0.11694857872097246,3.8279565917090466,11.458333333333334,9502,1.3634488582611084,0.013549790046042913,0.01188103890019281,740584,341.6136874567362,0.0
135,5.914182186126709,390.5081857263097,70.98877990655923,605.7386951524999,114.8684833387976,23.958333333333332,1.8734744480439065,0.1,0.008145809173583984,0.2318437099456787,0.049150158,0.055204805,382.15796518601866,-0.09766071809131416,3.8927559485753527,23.958333333333332,9600,1.3804941177368164,0.030233884333263534,0.02612812018108712,750184,338.0495206012462,0.0
136,5.785354852676392,388.28000663964485,76.41522154905392,665.9221971775318,-50.38638795020087,14.583333333333334,1.7469649515994088,0.1,0.008255243301391602,0.21971654891967773,0.04951718,0.049181808,382.7701693313813,-0.09897251015415731,3.8765200757377234,14.583333333333334,9502,1.365166425704956,0.02732181154172576,0.024630289356464233,759686,321.8591273787881,0.0
137,5.865658283233643,391.48586213099276,76.82904833244417,730.4199694302455,70.29836559163202,15.625,1.980289680098045,0.1,0.008028507232666016,0.28631019592285156,0.049132235,0.052225333,383.6417386113425,-0.09871890095368652,3.9029477657129803,15.625,9600,1.4325737953186035,0.03402446327700972,0.029515033781881073,769286,303.15124567792043,0.0
138,5.875484466552734,376.94832365815023,61.4363891873987,557.1373826675311,-50.37635979511119,12.5,1.6157321078008384,0.1,0.007756710052490234,0.2630476951599121,0.05034787,0.046895318,382.9723971160233,-0.10126161399161787,3.7575730490258885,12.5,9502,1.438082218170166,0.015053404850636158,0.011971357667252611,778788,317.05883672339166,0.0
139,5.932610511779785,397.0648489329187,103.95647613336862,730.1798469963189,-50.39686597893379,19.791666666666668,1.5486109379744253,0.1,0.007786750793457031,0.18944001197814941,0.049550507,0.04474691,384.3816422977128,-0.09869382618485188,3.958314092941329,19.791666666666668,9404,1.4154105186462402,0.03894551778659116,0.033172980651964896,788192,324.8193357729374,0.0
140,5.844267129898071,376.1083461693841,57.08602196084256,561.1406889404144,-50.383064022955324,7.291666666666667,1.5419358773835503,0.1,0.007630825042724609,0.2392432689666748,0.051558774,0.050831962,383.55431268487996,-0.10170935907107914,3.7474958368894185,7.291666666666667,9502,1.425872564315796,0.017445963757865314,0.010885996123089147,797694,332.5156324421541,0.0
141,6.056063652038574,380.49218942432464,67.11023905920693,686.0459844737176,-50.392685566174826,9.375,1.5772226198930765,0.1,0.00831294059753418,0.27651095390319824,0.050715122,0.049883876,383.24810035882444,-0.1005513303897997,3.792169125598486,9.375,9502,1.4089326858520508,0.015526430120948584,0.015316307926322471,807196,340.95328500878793,6.25
142,5.800450801849365,378.2466366302765,80.76868110149798,581.599120451602,-50.41120282357327,12.5,1.3190437021043262,0.1,0.007954597473144531,0.19333291053771973,0.050205395,0.04188581,382.7479539859697,-0.10030477569677775,3.7757632825987044,12.5,9404,1.3668272495269775,0.01892648140249782,0.016402014615264648,816600,334.37372743608955,0.0
143,5.835831642150879,390.3498685946718,51.546438538576815,625.8031915277622,272.60659618764464,13.541666666666666,1.79155407072454,0.1,0.008605718612670898,0.2740190029144287,0.050316203,0.06299841,383.5081454468399,-0.09800150266881995,3.8907484973311797,13.541666666666666,9600,1.4032649993896484,0.01679273917708579,0.016101169297224858,826200,350.26705295405225,0.0
144,5.757805109024048,385.37512038058804,84.71693233087417,702.0050062626212,-50.40046199190913,15.625,1.436136380952192,0.1,0.007708311080932617,0.2201857566833496,0.049882326,0.046926472,383.6948429402147,-0.11538673597769637,3.846632086355644,15.625,9404,1.3653950691223145,0.018886970500982477,0.017607640632428357,835604,350.1621360006386,6.25
145,5.9200427532196045,390.9508902425984,58.07342965040659,674.0096932972415,259.9191825738583,11.458333333333334,1.8300520766034076,0.1,0.008098363876342773,0.2761044502258301,0.050653998,0.062298037,384.4204476704531,-0.09907561027507829,3.897591056391588,11.458333333333334,9600,1.4084928035736084,0.01613999892229227,0.01702933078178668,845204,329.6612480404456,0.0
146,5.959069013595581,379.5454812858499,82.40838339162367,609.4914672120439,-50.37337642670274,11.458333333333334,1.6086825325288385,0.1,0.008367061614990234,0.2673971652984619,0.05055068,0.052085698,383.9329510319928,-0.09991675557754236,3.783117203638381,11.458333333333334,9502,1.3816850185394287,0.03121331037764127,0.027141392015798415,854706,359.5197695810451,12.5
147,5.899300813674927,378.53536790266224,66.54575055415775,629.6036684096442,74.9876630212393,15.625,1.947814188646344,0.1,0.00786137580871582,0.2504851818084717,0.049791224,0.047550995,383.39319271905975,-0.10072266017024593,3.7730273398297545,15.625,9600,1.4038515090942383,0.026567664210302787,0.025495976818576276,864306,359.0281484814853,12.5
148,5.92567777633667,401.74461736078047,62.12248523503514,706.0106700231312,187.79483592429565,21.875,1.908045478550273,0.1,0.00833439826965332,0.224470853805542,0.049829993,0.05534677,385.2283351832318,-0.0961392782426805,4.00511072175732,21.875,9600,1.4169087409973145,0.019973844745143153,0.01895369695844779,873906,368.65603575827936,25.0
149,5.918080806732178,396.93030833142006,60.94010876729553,674.0535510748615,259.9123762487522,14.583333333333334,1.8709284018228816,0.1,0.00840902328491211,0.24071264266967773,0.050041363,0.05968602,386.39853249805066,-0.09719958959891471,3.956967077067752,14.583333333333334,9600,1.4092068672180176,0.020430507501570768,0.019307152179866432,883506,366.36245760099985,18.75
150,6.169339895248413,382.61790355655944,59.9061945511699,561.4081022107014,22.591771337757883,18.75,1.8623397532732469,0.1,0.007887601852416992,0.23437738418579102,0.049569078,0.055441283,386.0204696039015,-0.09823255790506512,3.8142674420949345,18.75,9600,1.4119532108306885,0.02794729058960491,0.020174970907196152,893106,386.62571861370304,25.0
151,5.918475389480591,393.4783048943579,61.57911062914178,717.8348522875818,26.32961191799585,14.583333333333334,1.9147635898765343,0.1,0.008341789245605469,0.2849750518798828,0.05028422,0.0568571,386.76625313294716,-0.0958709647336136,3.922879035266386,14.583333333333334,9600,1.4248175621032715,0.021059264015477128,0.019359082066371835,902706,392.10587633582776,31.25
152,5.846226930618286,389.31265307948905,82.47842255333279,665.7633094570799,-50.36896310839336,20.833333333333332,1.743709434716774,0.1,0.009157657623291016,0.25096678733825684,0.04886026,0.047406506,387.0208931276013,-0.09723405425628501,3.886421680259898,20.833333333333332,9502,1.4280807971954346,0.026919834013983273,0.02473088292394721,912208,386.2400602746703,6.25
153,5.861801862716675,400.7363188903828,61.06060075150245,710.5039232687556,227.67070172718772,19.791666666666668,2.1015979244915153,0.1,0.00852513313293457,0.268848180770874,0.047338862,0.049987372,388.39243570387947,-0.09622048296051616,3.9950295170394834,19.791666666666668,9600,1.4412360191345215,0.0216045499562541,0.019555742822270197,921808,386.6984740295171,12.5
154,5.864347219467163,386.74330469694456,79.14165814825589,585.3613745617897,-50.38860391981816,21.875,1.4814719404698364,0.1,0.00826573371887207,0.3028268814086914,0.04972807,0.056790426,388.22752260318595,-0.097104550878081,3.8555150225194446,21.875,9502,1.4140818119049072,0.021443205631574386,0.016552780754019142,931310,394.03197814409555,25.0
155,5.918660640716553,382.10177175648386,71.94194462916435,573.2470324462149,-50.38532054256891,14.583333333333334,1.788289329233906,0.1,0.008085250854492188,0.27143192291259766,0.049486592,0.043458663,387.61494751851575,-0.09855711765326947,3.809105695037752,14.583333333333334,9502,1.3625767230987549,0.021159102850193498,0.017590077014730764,940812,389.849968350435,31.25
156,5.9859960079193115,395.92173685910166,54.47830335088045,722.200107011434,135.75894702788136,19.791666666666668,1.7707826151072275,0.1,0.00771641731262207,0.2254657745361328,0.04876702,0.05822818,388.44562645257434,-0.0968634062691226,3.9468865937308775,19.791666666666668,9600,1.3619332313537598,0.017021430680902557,0.015599875481115246,950412,387.35807045628223,18.75
157,6.0163397789001465,386.2303575036344,70.8754589562448,689.655219062131,-50.379455090395965,10.416666666666666,1.550184464263341,0.1,0.007987022399902344,0.2674543857574463,0.050593384,0.042023167,388.22409955768035,-0.09914257365841783,3.8499760694385508,10.416666666666666,9502,1.3621976375579834,0.021361579982007724,0.019843818733538337,959914,387.9687130402423,12.5
158,5.892674446105957,391.98329164895557,99.20635895576967,759.2703938128526,-50.39264185395379,14.583333333333334,1.6594674119626174,0.1,0.007742166519165039,0.18206381797790527,0.048958667,0.041519094,388.60001876680786,-0.09799271011701786,3.907507413907475,14.583333333333334,9404,1.3433308601379395,0.03437557618673022,0.03119903584129217,969318,387.96693166731325,12.5
159,5.932745933532715,388.44439074010984,89.85876536161022,730.5692129512033,-50.38625144233878,13.541666666666666,1.3939596932034242,0.1,0.008309125900268555,0.22468996047973633,0.04902717,0.03727822,388.5844559641381,-0.09762784203769197,3.872528350721591,13.541666666666666,9404,1.3517522811889648,0.027055687220963492,0.023206352292072192,978722,392.53007633505945,18.75
160,5.980955123901367,395.94999840931195,71.1084609397979,637.586699662175,-50.38963254843033,20.833333333333332,1.5751107132332642,0.1,0.007894515991210938,0.2057507038116455,0.04963631,0.05054187,389.3210102086555,-0.09583252894108323,3.9463224912006574,20.833333333333332,9502,1.337782382965088,0.018034420781122558,0.018016739346290157,988224,396.184007147143,25.0
161,5.851703405380249,398.25346219598595,60.57012091497082,694.0134074882359,296.8238040605375,15.625,2.083548429503481,0.1,0.008048057556152344,0.27088260650634766,0.048936293,0.05239895,390.2142554073885,-0.09439042581694164,3.9697762408497255,15.625,9600,1.3317821025848389,0.021129702504007544,0.020567056791232757,997824,395.5939863291127,25.0
162,5.913081645965576,392.27373512756486,86.20160665877792,718.2688509166194,119.40412643957684,17.708333333333332,2.049479842411327,0.1,0.00903177261352539,0.2753729820251465,0.04837514,0.04802304,390.4202033794062,-0.09668778714541269,3.9108122128545877,17.708333333333332,9600,1.3172340393066406,0.04175398934641615,0.03784779726421018,1007424,392.7698142540953,12.5
163,5.900872707366943,403.7870902674459,68.37454441242912,718.3305211017378,284.3177910732368,18.75,1.911600184654925,0.1,0.008368253707885742,0.26337480545043945,0.050460175,0.057624113,391.75689206821016,-0.09405254691583831,4.025947453084162,18.75,9600,1.3124995231628418,0.028154299182702267,0.026307737514955555,1017024,391.914914950637,12.5
164,5.900880336761475,390.0011409363563,77.91306789314436,714.7690140882728,-50.40318459114661,18.75,1.8716458341787736,0.1,0.00795602798461914,0.2381882667541504,0.049943753,0.043927353,391.5813169550248,-0.09653565777508429,3.8928884631296286,18.75,9502,1.2676687240600586,0.02480965038289188,0.022944994472458492,1026526,390.4508192781345,6.25
165,5.798311471939087,394.5406349338891,107.9821870353319,746.5258959564721,-50.39482371205826,16.666666666666668,1.7285189411150947,0.1,0.008317947387695312,0.1923365592956543,0.048840344,0.04187134,391.87724875291127,-0.09628240798906608,3.933074531106161,16.666666666666668,9306,1.3174762725830078,0.031404758064890126,0.02884659246008793,1035832,390.38453360734354,6.25
166,5.973921298980713,411.27224500955134,89.2119313379452,754.371343296101,143.1636667777502,21.875,1.9244711999886874,0.1,0.00878286361694336,0.29644227027893066,0.047128383,0.054121576,393.8167483785753,-0.09419283271375056,4.100390500619583,21.875,9600,1.3616878986358643,0.041635317300244064,0.03971876601672812,1045432,388.7698214965754,6.25
167,5.985367298126221,415.05204716713666,89.74546617416318,742.0274797576008,143.56880863576,30.208333333333332,1.9253624332848993,0.1,0.007767915725708008,0.21031880378723145,0.048052642,0.05247034,395.94027825743143,-0.09390599127550654,4.136927342057827,30.208333333333332,9600,1.3674709796905518,0.04022538318837583,0.038274140480717436,1055032,388.2757209610785,0.0
168,5.635798931121826,392.90989683516455,88.16363465850398,641.5515856101908,-50.401816760359914,20.833333333333332,1.5995223087388857,0.1,0.009721994400024414,0.2030773162841797,0.04953038,0.04151107,395.63724011520475,-0.09539323298293535,3.9219815604689803,20.833333333333332,9404,1.3654224872589111,0.030395355993923276,0.020691711370482854,1064436,387.2234373674892,0.0
169,6.11539888381958,398.14236818824594,104.10469929400571,709.8867961874226,-50.39355419873716,21.875,1.5360951688441022,0.1,0.007785320281982422,0.1838228702545166,0.050870333,0.060351495,395.88775292250887,-0.11322948251023128,3.9695051521975038,21.875,9409,1.3493900299072266,0.03972824539928398,0.0371989219658873,1073845,386.69164566400553,0.0
170,6.070865154266357,403.4197918862631,78.77300445042839,759.1431527233798,228.0506408756543,17.708333333333332,1.9479085538147787,0.1,0.008659124374389648,0.28191542625427246,0.051132027,0.056905277,396.6409568188843,-0.09522533578941188,4.021441330877255,17.708333333333332,9600,1.3687331676483154,0.032630165633979996,0.02962528898022091,1083445,386.40674987919357,0.0
171,5.843608379364014,403.58293224612333,106.08108940276348,751.1107388893752,-50.377493290295114,19.791666666666668,1.5976657929926064,0.1,0.008010625839233398,0.228834867477417,0.049031794,0.047900368,397.33515436160826,-0.09436696200358675,4.023491927550153,19.791666666666668,9404,1.3834655284881592,0.03767173916522864,0.0367578139487856,1092849,388.68491401528985,6.25
172,6.101027488708496,410.606558069763,81.58568894911396,738.8735707536786,58.68565101240023,26.041666666666668,1.969260071204754,0.1,0.009505033493041992,0.2942321300506592,0.049881876,0.054698817,398.66229473242373,-0.0937830999104894,4.093300233422844,26.041666666666668,9600,1.417283058166504,0.030942782152047963,0.02693720566450493,1102449,388.149498371516,6.25
173,5.877262115478516,401.13158800468665,105.26952606317023,742.705716832476,-50.38338927588299,16.666666666666668,1.6074429726324948,0.1,0.00786733627319336,0.18404555320739746,0.04856805,0.056920618,398.90922405965006,-0.11234288837272362,3.99855683164205,16.666666666666668,9404,1.343163013458252,0.03391142265228455,0.032143405216901295,1111853,390.5498180055697,12.5
174,5.983236074447632,406.6778625931117,69.30076223304819,730.1307917050328,304.4516271902775,15.625,2.0708902832754297,0.1,0.008761167526245117,0.2619812488555908,0.049614258,0.04794999,399.68608791299624,-0.09265002118835046,4.054433312144983,15.625,9600,1.4104492664337158,0.031451859129877774,0.02943741862473767,1121453,391.38616501583,12.5
175,5.717145204544067,411.55677777141267,143.01641070899467,746.8211300871919,-50.39958593092911,30.208333333333332,1.299536303463627,0.1,0.008392095565795898,0.18299317359924316,0.048825618,0.048036575,400.87315689883786,-0.11225697454144364,4.101961291201777,30.208333333333332,9208,1.3791511058807373,0.05612233577220156,0.04557300576990134,1130661,395.0691042156616,18.75
176,5.969884395599365,399.3872857188738,69.11047241700909,722.1574282163025,103.18269509408948,20.833333333333332,1.8187351874821678,0.1,0.007684946060180664,0.20302319526672363,0.0502701,0.057731494,400.7245697808415,-0.09430073751596384,3.981532595817369,20.833333333333332,9600,1.3976514339447021,0.033166668714245534,0.02427309635762282,1140261,394.5336620167876,18.75
177,5.767861604690552,403.274290421127,90.23674473733328,750.4587747630623,-50.38856003812313,22.916666666666668,1.486298467999205,0.1,0.007688999176025391,0.24933362007141113,0.05103118,0.048036948,400.97954184487,-0.11123406751480196,4.020397284963679,22.916666666666668,9502,1.348073959350586,0.03398129477640369,0.031779352139262355,1149763,396.39081491357877,18.75
178,5.793804168701172,404.3582618417569,105.33083591020366,758.8945353070984,-50.376971390331434,21.875,1.7134352391481549,0.1,0.00807809829711914,0.18024659156799316,0.0496673,0.04494639,401.31741384455876,-0.11166207506685193,4.0312503889806335,21.875,9404,1.3243966102600098,0.04128184987094337,0.03718854609844151,1159167,395.9447673436399,18.75
179,5.939034938812256,401.22504183763886,80.19483126451189,669.9118941096306,-50.38412197840798,17.708333333333332,1.516525049224577,0.1,0.0076944828033447266,0.23133301734924316,0.05048178,0.05214947,401.3081766438668,-0.09439118665910014,4.0046974166187255,17.708333333333332,9502,1.3295352458953857,0.025432520782378704,0.02073688770404613,1168669,395.53399497131386,6.25
180,5.952803373336792,394.4642295551259,57.93092378815513,645.5786551296809,191.6205471034624,13.541666666666666,1.9560822479221904,0.1,0.007915258407592773,0.2038266658782959,0.05013028,0.05456516,400.62378193499273,-0.09602922340022069,3.932304109933112,13.541666666666666,9600,1.3634426593780518,0.020169118932649666,0.018758994272833708,1178269,408.0100494252322,25.0
181,5.820948123931885,392.84440782162136,100.96106049992186,738.9971766624607,-50.39701161583645,19.791666666666668,1.5491425544649522,0.1,0.008079767227172852,0.18886041641235352,0.050703987,0.044409588,399.8458445236556,-0.0934443201840262,3.9213118762068557,19.791666666666668,9404,1.3357927799224854,0.03382687178119755,0.029751783022158373,1187673,417.69811494972487,37.5
182,6.178537130355835,412.0476404798751,85.0483611012118,710.1806925200391,119.45792223099447,21.875,1.873726383770274,0.1,0.008174896240234375,0.22692465782165527,0.049193177,0.05501695,401.0660241192776,-0.09270326549899437,4.106880067834339,21.875,9600,1.3998336791992188,0.036936026903200234,0.03225836437125236,1197273,416.63848010306583,43.75
183,5.976673603057861,402.18094152675184,46.560556090643736,645.4928651036662,349.44271123161826,19.791666666666668,1.7968037944381887,0.1,0.007926225662231445,0.20270681381225586,0.048154414,0.05691251,401.17751586002504,-0.09345023695932597,4.009049763040674,19.791666666666668,9600,1.4281749725341797,0.017069041021780553,0.014134067546134846,1206873,407.8298726889468,31.25
184,5.848426342010498,391.87159309440773,87.92270048882307,726.3279901282785,-50.384052526211946,15.625,1.5389731954800507,0.1,0.007939577102661133,0.1981489658355713,0.05044906,0.038054284,400.2469235834633,-0.11247666826513629,3.9059658946201097,15.625,9404,1.3767688274383545,0.023770851416825268,0.02205758765791566,1216277,431.0922850945425,37.5
185,5.954336643218994,408.17646414143974,74.37910452178077,706.1921177259034,256.0801240940161,18.75,1.7277475889680902,0.1,0.008616924285888672,0.23041677474975586,0.048831873,0.06442857,401.0398776392609,-0.09390626217858096,4.069427071154752,18.75,9600,1.4044315814971924,0.027417017171116827,0.02504096021641831,1225877,424.63713102459565,37.5
186,5.984057903289795,411.44335394377293,80.47042147289383,755.0649459479896,320.1455144995751,21.875,1.8593644984567927,0.1,0.007709503173828125,0.24577617645263672,0.050072446,0.054781634,402.0802252697122,-0.09374446299723697,4.101255537002763,21.875,9600,1.4323477745056152,0.032361241814152134,0.02976804741131229,1235477,414.2666703476412,31.25
187,6.028189659118652,404.7824160414081,90.84477545896257,737.9842185042995,-50.39017240855948,17.708333333333332,1.5645147458220878,0.1,0.008555889129638672,0.2524392604827881,0.050117016,0.05413954,402.3504443468818,-0.11117668154272488,4.035484118555192,17.708333333333332,9502,1.3803718090057373,0.030799767884124113,0.03025495914234832,1244979,408.72795433399665,25.0
188,6.108639240264893,408.8319152537233,111.40898230445902,747.0234524417535,-50.408226320146056,28.125,1.5689616254983239,0.1,0.00810384750366211,0.2348473072052002,0.04919563,0.04780356,402.99859143756595,-0.09202144392560174,4.0803540231712505,28.125,9404,1.3595495223999023,0.03955319681971287,0.034776809918714915,1254383,422.38309511292294,37.5
189,6.104150056838989,424.46385460203805,82.63621958614988,734.862914041447,348.62129337471646,28.125,2.0198213838765855,0.1,0.008181095123291016,0.2604854106903076,0.049755517,0.05463872,405.1451177540132,-0.09062772885069507,4.231872271149305,28.125,9600,1.4321231842041016,0.03505933095656092,0.03196862475753286,1263983,412.24931229516505,43.75
190,5.9898786544799805,423.6292625607543,84.86108113010813,714.4067231677707,352.6724497192295,27.083333333333332,1.9819904128101014,0.1,0.00805807113647461,0.21180105209350586,0.05009298,0.05332892,406.9935322346873,-0.09105915793983099,4.223940842060169,27.083333333333332,9600,1.451385736465454,0.03368331642158494,0.03150831642518548,1273583,396.3381277438865,31.25
191,5.94476318359375,404.2240406710918,81.60969922128265,726.134662730576,243.69912052530944,14.583333333333334,2.0031672093815445,0.1,0.00870203971862793,0.30047106742858887,0.050601657,0.052941374,406.71658307832774,-0.09426261986683244,4.029904046799834,14.583333333333334,9600,1.46042799949646,0.04023357424010891,0.0361829090518477,1283183,392.4914608962734,18.75
192,5.896936893463135,402.81670075200486,87.81083641300042,710.2114343456482,-50.379961858178774,21.875,1.780075711532882,0.1,0.00837087631225586,0.24323511123657227,0.049484983,0.06095883,406.32659484569547,-0.10995268009713978,4.015416392541733,21.875,9502,1.419908046722412,0.029868963060274766,0.027780210760271325,1292685,394.73620278721074,25.0
193,5.763601779937744,414.5540913123573,107.12198277617709,694.1305809125072,-50.38016462428976,28.125,1.623739037229425,0.1,0.00841212272644043,0.20136404037475586,0.050084833,0.043515235,407.14934449236165,-0.10900932073086612,4.132765676283005,28.125,9404,1.3793048858642578,0.03420143736623301,0.02866982009339009,1302089,404.3438885279982,37.5
194,5.90165376663208,402.6197421311942,85.20245328173506,677.9288802321252,-50.402398328491095,21.875,1.6603214932152628,0.1,0.007662534713745117,0.2691915035247803,0.05014517,0.0465048,406.69638425624487,-0.09255905092753114,4.012167034205468,21.875,9502,1.3865857124328613,0.03472915902641895,0.029531995675159177,1311591,404.58184070345544,37.5
195,6.037996530532837,411.8065440089303,74.11845090132597,758.9136412216275,308.2436672488439,25.0,1.9745878082207928,0.1,0.008419513702392578,0.22675347328186035,0.049041178,0.052082162,407.2074002315134,-0.09302281910303663,4.105310514230297,25.0,9600,1.3874762058258057,0.028820194750021132,0.026781384368428907,1321191,395.8509389701213,25.0
196,5.839064121246338,405.9687130270636,109.43283717393581,710.4195499662276,-50.3857119613687,21.875,1.7553572502943064,0.1,0.010244607925415039,0.22014427185058594,0.0493833,0.047859583,407.08353151106843,-0.11159151600804244,4.046494990502397,21.875,9404,1.3680832386016846,0.04264208410806391,0.04131718146812972,1330595,396.8348199666465,25.0
197,6.171613454818726,417.11327249845743,87.4085599859566,762.9249479743836,366.53519276704066,21.875,1.9114698245767145,0.1,0.00813746452331543,0.25899839401245117,0.050234977,0.055757705,408.0865056098073,-0.09121758453777569,4.157532415462224,21.875,9600,1.433372974395752,0.03847746950966687,0.03442693555862911,1340195,391.57560249622264,25.0
198,6.066316604614258,418.85143822091567,93.51247216124413,726.1671401472984,228.20401552683217,21.875,1.9045252623707962,0.1,0.00860905647277832,0.26497983932495117,0.04909422,0.05509891,409.16299887091816,-0.09383134226797436,4.175335324398692,21.875,9600,1.4406893253326416,0.04069527825886605,0.038660455172990216,1349795,353.7807975351043,18.75
199,5.977753162384033,417.85916204050744,87.40285979356817,766.4846668729921,276.3052089580875,23.958333333333332,1.8661716760058478,0.1,0.00883793830871582,0.2681741714477539,0.04894972,0.056501705,410.0326151878771,-0.0904144241932114,4.165835575806789,23.958333333333332,9600,1.449906349182129,0.04168237419432,0.03706520360482112,1359395,362.8420471656425,12.5
200,6.00954270362854,421.31173715254346,87.52086392204711,754.9553274631215,362.2526103843948,22.916666666666668,2.026025363839016,0.1,0.008190393447875977,0.2592778205871582,0.0496294,0.056367848,411.16052738434377,-0.09089697316781149,4.200353026832189,22.916666666666668,9600,1.4339563846588135,0.03689850042190139,0.03693801034486735,1368995,363.82349868094894,12.5
201,5.990087509155273,386.41934385686795,87.03757923803158,738.349366358247,-50.39273139447806,13.541666666666666,1.3494896174351116,0.1,0.007810115814208984,0.18301033973693848,0.049713254,0.04766237,408.6864090315962,-0.11188584632908578,3.8518449683797655,13.541666666666666,9404,1.366652488708496,0.03607931038704833,0.023366331667574586,1378399,404.6698673372091,31.25
202,6.1602184772491455,405.79503018781134,88.56170793525457,727.2337264239303,-50.371102864714324,15.625,1.7613964476767339,0.1,0.013115644454956055,0.27564406394958496,0.050946265,0.056493968,408.3972711472178,-0.0926309370187941,4.050820503528247,15.625,9502,1.3627145290374756,0.034712754199883004,0.029527946836790834,1387901,413.034839889738,31.25
203,5.985119104385376,405.3162360564677,79.63223153529141,669.748755502988,-50.38130423237375,23.958333333333332,1.7751295983203421,0.1,0.009565353393554688,0.29994702339172363,0.05058025,0.043570183,408.0891676381428,-0.10955299587828247,4.040404855233414,23.958333333333332,9502,1.3889648914337158,0.026497475973842763,0.025446292581042244,1397403,413.2035956576752,31.25
204,6.085293292999268,412.43405644264567,120.19891421575944,750.7700387930182,-50.41261426867641,21.875,1.7533860599171758,0.1,0.008420467376708984,0.18465065956115723,0.049889594,0.04942187,408.52365651859304,-0.10968525664455553,4.111573721474106,21.875,9404,1.3951661586761475,0.05508719335062704,0.04992454666910742,1406807,409.5955301164746,31.25
205,6.202993392944336,419.8689549323038,85.42819714787511,730.7385964716532,340.3442448183698,21.875,1.8310178495131495,0.1,0.008168458938598633,0.2864866256713867,0.04800405,0.057049643,409.65818635996413,-0.09115516060120117,4.1863448393987985,21.875,9600,1.435298204421997,0.03878695008290249,0.03638996036105114,1416407,412.0255450491668,37.5
206,6.044858694076538,410.16157521762057,108.51121892316831,718.1586318918288,-50.385067424353196,25.0,1.5110294754086449,0.1,0.008419513702392578,0.2058577537536621,0.04892076,0.060261045,409.7085252457298,-0.10965358935369203,4.088853073015536,25.0,9408,1.3631818294525146,0.04575424732107809,0.038530736316923324,1425815,399.66517478701707,18.75
207,6.272534370422363,411.7344741631184,71.41901339286272,721.8518828841922,357.7789460666475,21.875,1.860688872054183,0.1,0.009067773818969727,0.2285315990447998,0.05016817,0.057405066,409.91112013746863,-0.09084327961689258,4.104156720383108,21.875,9600,1.4104945659637451,0.029513457507239885,0.027260606609549615,1435415,407.07887603655433,43.75
208,5.857079744338989,408.3977509658703,104.0368700341746,689.7700697573764,-50.38724320284972,22.916666666666668,1.6187692367490607,0.1,0.010952234268188477,0.22368645668029785,0.05023978,0.049251903,409.7597832203088,-0.10916639083751749,4.071215407479745,22.916666666666668,9404,1.3981115818023682,0.034290348541884584,0.03239000867070541,1444819,410.4266532609281,37.5
209,6.058646202087402,400.1298706276138,75.52561946140969,717.9670836507019,-50.372981401253625,17.708333333333332,1.5923423153597547,0.1,0.007944822311401367,0.22464919090270996,0.05028569,0.039732996,408.79679196103933,-0.0927994978748445,3.9889496164015115,17.708333333333332,9502,1.394029140472412,0.022640587852011118,0.02140128822980052,1454321,414.72247504566235,50.0
210,6.119599103927612,414.83340464863886,96.73504156587634,735.0045344339394,-50.39440045521464,25.0,1.6644894393722838,0.1,0.008332967758178711,0.24204301834106445,0.049792726,0.049226083,409.40045322979927,-0.09214238264149988,4.135154187826538,25.0,9502,1.4544405937194824,0.0358849543935296,0.03206690649849167,1463823,418.0542090809424,37.5
211,5.898698568344116,409.1379739935432,94.21735158034905,701.9233376424517,-50.77897117168127,20.833333333333332,1.5339616347430987,0.1,0.00877070426940918,0.1966876983642578,0.049083717,0.047757506,409.3742053061737,-0.09211432755557065,4.078611387940248,20.833333333333332,9505,1.459592342376709,0.04115593207321296,0.03627209977858488,1473328,424.1532092309891,43.75
212,6.0587241649627686,413.65691475599414,90.37473227964053,743.1061879075439,127.17291476298665,21.875,1.7618219786759257,0.1,0.008040904998779297,0.26193714141845703,0.048528697,0.06131056,409.8024762511557,-0.09119759055805399,4.124219076108613,21.875,9600,1.4820911884307861,0.038209321549919344,0.03631287598322348,1482928,415.9690588079594,50.0
213,6.001161098480225,409.48496377119164,75.26435587076064,738.3935654382351,228.24644579989427,25.0,1.8696872345051037,0.1,0.008275508880615234,0.24922776222229004,0.048513904,0.055879135,409.7707250031593,-0.09083072152100598,4.082502611812328,25.0,9600,1.445974588394165,0.03233005563740172,0.029630351309350447,1492528,409.89578916953405,43.75
214,5.962049722671509,407.8683542214491,106.54643781765942,758.8243118398493,-50.38166700412261,19.791666666666668,1.4933668609381126,0.1,0.008615255355834961,0.18905425071716309,0.050192215,0.04358843,409.58048792498835,-0.09113369116132451,4.066332705728505,19.791666666666668,9404,1.3747296333312988,0.035955236181336406,0.03482390686485085,1501932,400.2543226377207,50.0
215,6.1482508182525635,432.59280204592324,111.42077518069794,742.5747752796691,-50.38681631292867,31.25,1.6052548087284877,0.1,0.008348226547241211,0.2562370300292969,0.050007407,0.056465704,411.8817193370819,-0.08900907702115762,4.312321336908011,31.25,9502,1.4112155437469482,0.04444409691118087,0.04111508376127816,1511434,403.0119285687816,50.0
216,6.017206907272339,426.48691640447606,92.42703386419744,743.0025788108276,361.89339280012643,29.166666666666668,1.9372840293152274,0.1,0.008874177932739258,0.26210713386535645,0.04849369,0.054161493,413.34223904382134,-0.08956857471128683,4.25084809195538,29.166666666666668,9600,1.4561164379119873,0.041458638562798876,0.04103779187545828,1521034,387.22542008788787,43.75
217,6.017485857009888,423.5252182380018,104.60110255116042,742.476520918968,-50.398039543114706,25.0,1.6956605372464328,0.1,0.008703947067260742,0.21426820755004883,0.049525376,0.05116693,414.36053696323944,-0.08881331150658296,4.222478282498414,25.0,9502,1.4120981693267822,0.04501942946026992,0.03807840860048623,1530536,411.97961438375023,50.0
218,5.712582111358643,412.7474586963235,127.25714456256667,734.3882010946875,-50.395614185564654,29.166666666666668,1.44861061927355,0.1,0.008433818817138672,0.22192788124084473,0.049997985,0.0463531,414.19922913654784,-0.09157876971522154,4.120342626763229,29.166666666666668,9306,1.4157471656799316,0.04660797350141519,0.04330123134735414,1539842,410.19509363660984,43.75
219,5.995181560516357,424.9456865889179,127.58077946345236,750.556496306977,-50.38682049456731,28.125,1.5757742364363894,0.1,0.008028745651245117,0.22688841819763184,0.049964808,0.04778883,415.2738748817849,-0.10618427006771815,4.235844029060307,28.125,9404,1.4260268211364746,0.04897551991418061,0.046158377292909156,1549246,409.75404627928003,43.75
220,6.05070161819458,411.8208733861188,71.95040608171878,751.1290085648538,292.6554768825215,26.041666666666668,1.940304429782201,0.1,0.00815272331237793,0.2547924518585205,0.049622625,0.05408739,414.9285747322183,-0.09205243357568345,4.105447566424317,26.041666666666668,9600,1.4859399795532227,0.03179355198519429,0.025979506228618977,1558846,422.78148158298075,37.5
221,6.116755247116089,431.64691909744033,89.69169836332631,746.3906201906581,312.6876966245511,37.5,1.9833494355429062,0.1,0.008870363235473633,0.22134995460510254,0.049011458,0.05216088,416.6004091687405,-0.08839081284686247,4.302859187153138,37.5,9600,1.4894793033599854,0.03564940033563153,0.03334728921660584,1568446,402.3245891052486,43.75
222,6.063109397888184,407.0028568902546,77.02838336666,730.335063406527,135.36229626129096,22.916666666666668,1.9557649600750184,0.1,0.007988214492797852,0.1900343894958496,0.049205016,0.049453076,415.6406539408919,-0.09148947143019835,4.057260528569802,22.916666666666668,9600,1.4940104484558105,0.03840543712159722,0.03343059245009003,1578046,350.055593854364,50.0
223,6.128597021102905,407.10623396407846,87.5066599327371,746.5065742164435,115.32488173943021,19.791666666666668,1.8507785799294334,0.1,0.008189916610717773,0.24981975555419922,0.04911144,0.054747988,414.7872119432106,-0.09211959395405,4.058713739379283,19.791666666666668,9600,1.4476752281188965,0.034742782054137195,0.03158661640991814,1587646,379.1817486699757,50.0
224,6.281479597091675,404.9342640692793,75.31486330883156,725.946968581755,191.41239337450048,21.875,1.9143360164920995,0.1,0.00822305679321289,0.2513759136199951,0.05011354,0.053654734,413.8019171558175,-0.09175668903699463,4.036576644296339,21.875,9600,1.4264442920684814,0.03339930036553671,0.03118062708019143,1597246,382.2168985940651,50.0
225,6.036911487579346,404.36497520511085,84.5763384568657,742.4818713728715,-50.38109099628099,21.875,1.7416102757175669,0.1,0.007643938064575195,0.1981048583984375,0.048973415,0.05161166,412.8582229607468,-0.09207087768179546,4.036096386931032,21.875,9502,1.4052412509918213,0.028017195211944464,0.026404858601307507,1606748,353.3815724742059,50.0
226,6.053034543991089,433.6411289424368,104.11624544155497,742.5754663718676,272.22697381934347,28.125,1.9912213624658714,0.1,0.007898807525634766,0.19350624084472656,0.049812414,0.0527033,414.9365135589158,-0.08968767773273778,4.32322898893393,28.125,9600,1.4499437808990479,0.05150998735605819,0.041179146396785826,1616348,340.1906829935766,50.0
227,6.050070285797119,418.9585974587996,78.2443821617263,698.2254118067992,333.7825122605003,23.958333333333332,2.0257287089415823,0.1,0.008990287780761719,0.27496957778930664,0.0499296,0.05285443,415.3387219489042,-0.08943134083977293,4.176818659160227,23.958333333333332,9600,1.4441020488739014,0.03533534676999377,0.02853800580573752,1625948,349.0533821618322,50.0
228,6.057602643966675,406.8146171173227,64.16494966100079,750.8765008795642,332.86502924457335,19.791666666666668,1.938336352878589,0.1,0.007960081100463867,0.1965949535369873,0.050690938,0.055389863,414.48631146574604,-0.09170719919246566,4.054959467474201,19.791666666666668,9600,1.4341511726379395,0.025595870292394286,0.02223352749240858,1635548,360.4361958507567,50.0
229,5.956393003463745,422.66985418852147,100.16886761625645,738.6616722361257,-50.39149728730181,30.208333333333332,1.6611908977358165,0.1,0.007908821105957031,0.2322397232055664,0.049750775,0.050448693,415.3046657380236,-0.08911216290999412,4.212666821029747,30.208333333333332,9502,1.4230525493621826,0.03725334848401685,0.03476598769376356,1645050,410.0134048892271,50.0
230,5.927612781524658,415.75178057742716,102.3649722449232,750.4418255199358,-50.39548674293688,33.333333333333336,1.5347719468396979,0.1,0.007992744445800781,0.22278141975402832,0.04994236,0.04524338,415.34937722196395,-0.10538686851947719,4.142648332080301,33.333333333333336,9404,1.4171078205108643,0.03263565776814124,0.03098995120330183,1654454,424.84873657160995,43.75
231,6.1921164989471436,420.349807449911,90.00605362722624,750.5206172491985,175.70150052218764,25.0,1.83253299451699,0.1,0.008338451385498047,0.27964353561401367,0.050077543,0.057987463,415.8494202447587,-0.09051466427400245,4.190318669059331,25.0,9600,1.4558539390563965,0.03687667579165541,0.035109603748383386,1664054,429.642152159326,43.75
232,5.993987560272217,419.8203990231623,105.75635799932436,758.8696201155678,-50.378019318683265,22.916666666666668,1.620000359611929,0.1,0.008118867874145508,0.22052955627441406,0.05016976,0.052405432,416.246518122599,-0.09162556314271658,4.185439421709288,22.916666666666668,9502,1.423875093460083,0.039977683877030525,0.03741508932538318,1673556,432.117707071386,37.5
233,6.268448829650879,417.06624343773956,80.83670638935959,738.4745663475335,344.79391631648576,26.041666666666668,1.8704270676182553,0.1,0.0085296630859375,0.23669195175170898,0.049457844,0.0620248,416.32849065411307,-0.08918561034677515,4.157897722986558,26.041666666666668,9600,1.4412031173706055,0.03752485100157671,0.0325147408954597,1683156,429.99618837550526,37.5
234,6.041874647140503,401.683779030352,59.6208400310965,750.4076116746994,349.38657890949406,17.708333333333332,1.8095446068349517,0.1,0.0076601505279541016,0.18677806854248047,0.049379393,0.059416693,414.864019491737,-0.09217037917438915,4.004496287492278,17.708333333333332,9600,1.4545471668243408,0.02663510361455855,0.020228685894297698,1692756,430.336773928904,43.75
235,6.09954309463501,431.6056248350786,110.0524894519377,746.8234958315071,-50.3815270937946,34.375,1.6710727989204692,0.1,0.008811712265014648,0.2663254737854004,0.05002382,0.053242046,416.5381800260712,-0.08793272543031745,4.303279093476293,34.375,9502,1.4466266632080078,0.05001415151178707,0.0413450502404463,1702258,431.07498250943445,37.5
236,5.903831958770752,403.74146212211804,98.47848966366253,714.3014539336481,-50.38759296080156,20.833333333333332,1.711136386912836,0.1,0.00863194465637207,0.22029471397399902,0.05045931,0.046138927,415.2585082356759,-0.09376729126555376,4.024643672311698,20.833333333333332,9502,1.4314711093902588,0.03766374374775747,0.030759056698581685,1711760,420.25178589653433,43.75
237,6.11075496673584,425.12888759924687,116.78936576478343,766.7257822348697,-50.396591440626146,26.041666666666668,1.7687543195835618,0.1,0.009073495864868164,0.24641656875610352,0.049330324,0.05332652,416.245546172033,-0.09030979919547222,4.238096296185069,26.041666666666668,9502,1.431891918182373,0.04757941022208033,0.045501034501534844,1721262,406.1695286825045,43.75
238,6.121505498886108,418.90010346584876,80.9960060702692,730.264972869681,342.1116947525353,26.041666666666668,1.761012929676825,0.1,0.008333921432495117,0.23486757278442383,0.05030854,0.0576149,416.5110019014146,-0.09126260606644421,4.176654060600223,26.041666666666668,9600,1.43996000289917,0.037560025138291944,0.0341936444882138,1730862,384.15477760818567,50.0
239,6.174315452575684,405.5108657066327,65.62056082564513,722.1523586374269,253.03072369243384,19.791666666666668,1.8672206592382703,0.1,0.00785374641418457,0.2348804473876953,0.051597703,0.057773985,415.4109882819364,-0.09264652941223457,4.041936803921099,19.791666666666668,9600,1.4119470119476318,0.023271713948679724,0.02182670493804413,1740462,359.80901324175056,37.5
240,6.064137697219849,405.38264686347696,74.98354318231414,681.6691637400095,207.49823995252947,25.0,1.78900079476627,0.1,0.008539915084838867,0.24384450912475586,0.04933527,0.059644673,414.40815414009046,-0.0922759169544878,4.040640749712179,25.0,9600,1.4213101863861084,0.03601500354293414,0.03485144855846,1750062,387.726088198589,37.5
241,6.122899055480957,424.98521839387195,102.7737702733372,742.6894305492879,155.23781673963677,28.125,1.9130258668330429,0.1,0.008735179901123047,0.2183520793914795,0.049828235,0.056791514,415.46586056546863,-0.08916365864438176,4.236669674688952,28.125,9600,1.4036376476287842,0.048067074461392405,0.045037137170772595,1759662,426.81674599635244,43.75
242,6.1919262409210205,390.76972783600246,82.48695472424572,678.1793244285553,-50.381759796576034,17.708333333333332,1.3547798712473924,0.1,0.00798177719116211,0.18794727325439453,0.050731614,0.032905787,412.996247292522,-0.0939011521746609,3.894921947083697,17.708333333333332,9404,1.3734805583953857,0.020613698583601275,0.01632021824166764,1769066,422.77181991105954,37.5
243,6.367198944091797,415.4027349184659,78.51500970127859,690.2128882037812,256.1533960300666,21.875,1.9129592336036607,0.1,0.010370969772338867,0.29463672637939453,0.050012957,0.057748552,413.2368960551164,-0.08998844613456992,4.140844887198764,21.875,9600,1.4151341915130615,0.03359615513787986,0.029869733171689533,1778666,421.11254827543684,31.25
244,6.132864713668823,416.7224632082817,93.12728229714392,766.6012394863801,171.69691380235548,23.958333333333332,1.7735947049100196,0.1,0.0082244873046875,0.2433607578277588,0.049312096,0.05832388,413.58545277043294,-0.08970650471470742,4.154460161951959,23.958333333333332,9600,1.4176626205444336,0.04206732382644181,0.03884681523632834,1788266,415.41696406305493,37.5
245,6.191083192825317,437.75008214524695,106.18600945370655,770.9925420918294,349.2504124309739,29.166666666666668,1.8401820280503887,0.1,0.007765769958496094,0.2781836986541748,0.04846288,0.05537175,416.00191570791435,-0.0881717981033508,4.364744868563316,29.166666666666668,9600,1.4225378036499023,0.04450553236272869,0.04130089353635305,1797866,416.3991164902173,37.5
246,6.10257887840271,426.07836555270734,87.28842904950389,759.2753201450978,369.6815523479428,28.125,1.9254530407798198,0.1,0.008101224899291992,0.2441561222076416,0.048577473,0.051871676,417.0095606923937,-0.08822900141360031,4.248437665253067,28.125,9600,1.4336903095245361,0.039757841010581746,0.036464742332759766,1807466,423.84689096881664,37.5
247,6.175482511520386,426.385036890269,85.38674443222726,746.4301285312392,370.9223151576421,29.166666666666668,1.840531608371491,0.1,0.008448123931884766,0.2143559455871582,0.048570596,0.054337095,417.94710831218123,-0.08933430317481385,4.251082363491853,29.166666666666668,9600,1.4552648067474365,0.038392329655328745,0.03479976748975635,1817066,420.8339378516047,31.25
248,6.183758497238159,431.0890570122926,96.77055282788177,742.5875186538302,368.96082478632616,26.041666666666668,1.8921794010933675,0.1,0.00881505012512207,0.21077704429626465,0.048007786,0.053186145,419.26130318219236,-0.0877164513160214,4.298116882017312,26.041666666666668,9600,1.5021135807037354,0.044923305581641704,0.04165343658180864,1826666,378.1421022534674,37.5
249,6.137511491775513,407.5033016094862,99.63712201330375,743.0482526234631,-50.40738632272402,23.958333333333332,1.6550528439920742,0.1,0.008756875991821289,0.20719599723815918,0.04929801,0.05166499,418.08550302492176,-0.09209796429781252,4.062266526768208,23.958333333333332,9502,1.4761035442352295,0.04125307706619696,0.03744391585400027,1836168,430.10359093377326,43.75
250,6.062551975250244,423.7297487171131,85.54926295171062,718.0578279100874,336.59399202741315,26.041666666666668,1.8238415295521395,0.1,0.009783506393432617,0.23628902435302734,0.04976433,0.058681693,418.64992759414093,-0.08922613146105558,4.223690535205612,26.041666666666668,9600,1.4624178409576416,0.036972483145786356,0.03261472479974232,1845768,433.18657020855017,43.75
251,6.2790563106536865,434.0042742820171,109.83787305148537,766.4077561405763,-50.40049958293797,32.291666666666664,1.6450024719228062,0.1,0.008611679077148438,0.20995545387268066,0.050055258,0.056782953,420.1853622629286,-0.088627291451355,4.325170553404212,32.291666666666664,9502,1.4548850059509277,0.040364268017422454,0.03860139423106874,1855270,427.74802603681997,31.25
252,6.168023109436035,416.96930162988843,76.09230809093903,666.0305937878856,203.93964215276162,28.125,1.7602443080618508,0.1,0.007985591888427734,0.18954086303710938,0.049660765,0.062631205,419.8637561996246,-0.09100893033063961,4.156074403002694,28.125,9600,1.4449567794799805,0.03873030750938086,0.030469634852416685,1864870,435.1896408577938,43.75
253,6.255549430847168,440.3805012618174,95.64562505332361,702.1112965404052,248.2756984802958,35.416666666666664,1.8549990897096071,0.1,0.010255098342895508,0.19387102127075195,0.05026142,0.057436954,421.9154307058439,-0.08563371579419145,4.391032950872475,35.416666666666664,9600,1.4412646293640137,0.04359938335406652,0.03732859658642927,1874470,433.8949992259372,43.75
254,6.144593000411987,420.07714891508294,84.84408016877168,766.8979691942584,332.5323066759235,28.125,1.9341104264833613,0.1,0.008501052856445312,0.20195913314819336,0.049119644,0.056299925,421.7316025267678,-0.08950178431734379,4.188414882349323,28.125,9600,1.4810307025909424,0.03920223876074134,0.03547719877402309,1884070,444.96239530112774,50.0
255,6.168877124786377,420.00818564555647,79.66004679783738,746.1726818947982,184.1882487312053,30.208333333333332,1.8058311930982596,0.1,0.008409976959228516,0.2211132049560547,0.048901718,0.061098013,421.55926083864665,-0.08935366194427818,4.187313004722388,30.208333333333332,9600,1.4892771244049072,0.0370420540488631,0.030026377220949623,1893670,444.3190215203087,50.0
256,6.251356363296509,417.4999359250252,83.64731090176646,754.9243229297898,224.28185130481265,23.958333333333332,1.8777603757592691,0.1,0.00787806510925293,0.18449807167053223,0.049663186,0.060616132,421.1533283472845,-0.08901248360583176,4.162654183060835,23.958333333333332,9600,1.452620029449463,0.03232492718529438,0.03108922798898791,1903270,432.98483666245363,50.0
257,5.983652830123901,408.6241626260239,99.70437202591444,734.248249354121,-50.38621566087695,29.166666666666668,1.6454781091138007,0.1,0.007910728454589844,0.18453574180603027,0.050275244,0.042893827,419.90041177515843,-0.08895506979569719,4.07346350997159,29.166666666666668,9404,1.4397454261779785,0.03332716388030335,0.03093411014628255,1912674,438.5579952340363,56.25
258,6.21955132484436,416.92682227429106,76.53105563860649,762.9688007645461,251.90976087126202,25.0,1.781907875380396,0.1,0.008224010467529297,0.2044980525970459,0.050438322,0.061652966,419.6030528250717,-0.08976596015805101,4.156484039841949,25.0,9600,1.457953929901123,0.030507153286307955,0.02917214129102749,1922274,439.97898153158155,50.0
259,6.251032590866089,401.6041913607617,76.25667267220791,746.8077901177066,256.46614306179475,19.791666666666668,1.8194047607577692,0.1,0.0077517032623291016,0.18877601623535156,0.050351657,0.059516203,417.80316667864076,-0.09379536686677592,4.003704633133224,19.791666666666668,9600,1.444047212600708,0.031568405299655614,0.029172859833027098,1931874,438.5861932693167,50.0
260,6.3347883224487305,411.55934576722694,71.26733914549871,758.6907988270581,321.13634644323207,22.916666666666668,1.7835113883883846,0.1,0.008244991302490234,0.22701096534729004,0.050285414,0.06269085,417.1787845874994,-0.0904991134112888,4.102834219922045,22.916666666666668,9600,1.439979076385498,0.02876441745487744,0.027597489461361552,1941474,439.61172413458615,56.25
261,6.046998739242554,407.67346103742733,80.12963499311442,718.2558165197783,-50.37997030771383,26.041666666666668,1.7234822419723663,0.1,0.008005857467651367,0.18840789794921875,0.049832426,0.044761952,416.22825223249225,-0.08915512567403851,4.064391134979668,26.041666666666668,9502,1.446824550628662,0.02496199419433948,0.023462817653462125,1950976,445.2840789727845,56.25
262,6.208991050720215,416.7303475110198,87.01052781683573,738.5800570711002,219.90684746398503,22.916666666666668,1.8127008343731452,0.1,0.00831747055053711,0.2310495376586914,0.05008195,0.05539849,416.278461760345,-0.08962694337766987,4.154956389955664,22.916666666666668,9600,1.4741573333740234,0.036077862770063855,0.033507755490918986,1960576,438.3598336721567,50.0
263,6.224318742752075,408.1032363279108,92.3381692093458,738.2080797125848,-50.384333448100286,19.791666666666668,1.6375543396623897,0.1,0.0076978206634521484,0.1853923797607422,0.050090704,0.04520773,415.4609392171016,-0.09006724080109522,4.0682637172524565,19.791666666666668,9502,1.4635932445526123,0.03469157092740517,0.03241496746804142,1970078,437.37501089005264,43.75
264,5.990493535995483,427.81220380965766,111.37497768060533,734.0106065036979,-50.38563517017854,31.25,1.644378481959784,0.1,0.00802922248840332,0.19085311889648438,0.05092665,0.055399258,416.6960656763572,-0.08820936453630646,4.264931540107246,31.25,9502,1.4466338157653809,0.044783710540522235,0.0399783087050497,1979580,433.4955923117425,43.75
265,6.17881441116333,437.5305596443218,97.8778068244909,751.0006087398996,347.89049486816566,36.458333333333336,1.8567847233107697,0.1,0.007973194122314453,0.1961374282836914,0.05010497,0.057301927,418.7795150731537,-0.08704957271895351,4.3625337606143795,36.458333333333336,9600,1.4233076572418213,0.039055651171154886,0.03633709755434602,1989180,430.7199682177694,50.0
266,6.146984100341797,411.1501323714704,93.57630369462771,759.0030134714741,-50.398504032771875,18.75,1.6319178409213626,0.1,0.007918834686279297,0.200408935546875,0.04981864,0.05301348,418.01657680298536,-0.08986048304649182,4.098315901199524,18.75,9502,1.428739309310913,0.03621404161782992,0.03444210194126861,1998682,441.6994700806104,50.0
267,6.1506195068359375,415.3947676243729,78.77876791794576,758.97793554308,220.6098922613702,26.041666666666668,1.9816939812436039,0.1,0.008091449737548828,0.21136951446533203,0.049432006,0.050918408,417.7543958851241,-0.08965514975368814,4.140761516912979,26.041666666666668,9600,1.4620957374572754,0.032180667880992074,0.029307603112686615,2008282,441.9455966125471,43.75
268,6.25719952583313,430.02216940578234,97.59731804052937,771.4237893516092,334.0518563286773,31.25,1.8677710584820029,0.1,0.008571624755859375,0.21170663833618164,0.05032823,0.059302352,418.9811732371899,-0.08796576207510554,4.287450904591561,31.25,9600,1.3802556991577148,0.037103799781082115,0.034390949124920384,2017882,439.61782805772964,43.75
269,6.4246826171875,427.66689475890024,96.66829939726922,726.6641942931651,212.687042156664,25.0,1.9234595771359653,0.1,0.008327245712280273,0.23183608055114746,0.049620252,0.052343164,419.849745389361,-0.08859246940464084,4.263907530595359,25.0,9600,1.3697855472564697,0.041809694176342845,0.04174221717076331,2027482,443.944856387665,50.0
270,5.981050252914429,436.31214085497464,116.0961904573951,759.2324523912289,-50.38655769373636,35.416666666666664,1.8457394252057815,0.1,0.007634401321411133,0.1860342025756836,0.048701696,0.046314646,421.4959849359223,-0.08724773926539675,4.34993249800654,35.416666666666664,9502,1.3882932662963867,0.04397432589394057,0.04067012977801133,2036984,443.2188750589755,43.75
271,6.146589994430542,415.43311660342016,123.46732064108987,770.6656710974082,-50.386437521570834,27.083333333333332,1.5300643295683412,0.1,0.007897138595581055,0.19214129447937012,0.049292415,0.0512518,420.88969810267207,-0.09095355873227551,4.140314272505833,27.083333333333332,9404,1.430776834487915,0.05258274435277999,0.05265769508699083,2046388,441.6953792635853,43.75
272,6.15663480758667,424.7119688899134,96.16672915723362,754.7883072548445,192.03991723167633,29.166666666666668,2.0195266783523573,0.1,0.009226560592651367,0.22736096382141113,0.049971648,0.052065145,421.2719251813962,-0.08689775261877337,4.234768914047893,29.166666666666668,9600,1.4710602760314941,0.04665706615609199,0.043333949172562336,2055988,437.8069077410919,43.75
273,6.136042594909668,425.0053807621255,85.34785480725645,767.0653075426926,293.3725101775221,28.125,1.7875765839346285,0.1,0.008081436157226562,0.19740915298461914,0.050523207,0.060107112,421.64527073946914,-0.08771729289081871,4.236866040442515,28.125,9600,1.4418118000030518,0.03642617206247264,0.034084265872531584,2065588,437.6635307337164,50.0
274,6.1740851402282715,418.5716393000359,84.64505774033061,758.3654760585572,350.11745227309876,25.0,1.8472511097936886,0.1,0.0077457427978515625,0.22555875778198242,0.049008686,0.059161924,421.33790759552585,-0.08955339709659092,4.173363269570076,25.0,9600,1.4329783916473389,0.038977401493690444,0.035951004378058204,2075188,425.73567782285534,43.75
275,5.98625922203064,417.0322928609441,98.2339916311696,754.1191492125923,-50.38830644237098,28.125,1.6714443289695646,0.1,0.007900476455688477,0.19559764862060547,0.04899454,0.052474856,420.9073461220677,-0.10780562107665133,4.157559501513798,28.125,9502,1.3736162185668945,0.03642614591070367,0.03527117561001135,2084690,442.1822075360791,62.5
276,6.311206817626953,416.1302032240134,78.27503464175024,754.1982316050196,285.74483791441384,29.166666666666668,1.8784460674181944,0.1,0.008116006851196289,0.22025370597839355,0.048774518,0.058136687,420.42963183226226,-0.08938072624651584,4.1485359404201505,29.166666666666668,9600,1.379927635192871,0.032167108572888466,0.029422441456836625,2094290,421.1101655561365,56.25
277,6.2760536670684814,443.01389319841275,99.6265736557296,742.7627908655774,336.12871219729357,36.458333333333336,1.9982321483948773,0.1,0.00786733627319336,0.20151662826538086,0.04765348,0.052609883,422.68805796887733,-0.08596632855060445,4.4173670047827285,36.458333333333336,9600,1.388636589050293,0.04511608673807837,0.038652218453821705,2103890,420.1380020848825,50.0
278,6.373460531234741,435.7462762102252,117.11233953773656,762.2287235452393,-50.38041189376795,38.541666666666664,1.5818644306883891,0.1,0.007962465286254883,0.19489455223083496,0.049368028,0.050448857,423.9938797930121,-0.08773021340708026,4.345104968891998,38.541666666666664,9502,1.4369173049926758,0.04471595988721413,0.04036862273401871,2113392,429.1344741344598,56.25
279,6.143243789672852,420.86946573871154,102.1321375721673,714.3219348682337,17.591353319446092,28.125,1.7347363188100564,0.1,0.008062124252319336,0.24668145179748535,0.049225397,0.0570581,423.6814383875821,-0.09032581013806805,4.1963408565285985,28.125,9600,1.471027135848999,0.044661111615608366,0.041732831283088266,2122992,425.4523793191129,68.75
280,6.1581337451934814,423.69354283460035,92.82737231410653,746.3433759349579,192.2005424153768,28.125,1.8819753400114871,0.1,0.007826805114746094,0.18448162078857422,0.049484987,0.055636883,423.6826488322839,-0.0895872927448274,4.224579373921839,28.125,9600,1.4879038333892822,0.03945629323968974,0.03831892932577991,2132592,409.73172919531896,43.75
281,6.266563415527344,425.9505115810377,95.23486939334872,763.4112051799278,235.9781833144106,30.208333333333332,1.7284110204192475,0.1,0.0079193115234375,0.188643217086792,0.050528504,0.06436674,423.9094351071593,-0.08785137392985272,4.2463152927368135,30.208333333333332,9600,1.4819228649139404,0.0356104338854604,0.03392067999679149,2142192,390.5930409160205,56.25
282,5.978737115859985,426.39620168246114,110.74736969246167,742.2907403289039,-50.382886468607055,37.5,1.611081944769575,0.1,0.007605791091918945,0.18839788436889648,0.04976017,0.05336117,424.15811176468947,-0.08793163190241975,4.251189908353892,37.5,9404,1.4631927013397217,0.03268908241357579,0.030955581001887257,2151596,412.40136019693784,50.0
283,6.158360004425049,414.3465694860626,76.14210675287227,750.2866202900783,248.2481241137089,26.041666666666668,1.8820490316379503,0.1,0.007977008819580078,0.19997787475585938,0.050132666,0.054944135,423.17695753682676,-0.09054886952540091,4.130701130474598,26.041666666666668,9600,1.4896914958953857,0.03202449640778024,0.028993112721147848,2161196,410.946117446309,50.0
284,6.174681663513184,430.9429463390311,86.65842246743884,722.0140568690526,336.7751713605384,33.333333333333336,1.930587104170344,0.1,0.00825953483581543,0.18549346923828125,0.05040971,0.055166688,423.95355641704725,-0.08710191324277494,4.295814753423891,33.333333333333336,9600,1.5142900943756104,0.040066311629575156,0.036420911730510035,2170796,411.1420983976873,50.0
285,6.229201078414917,426.15825972214043,90.07119007444521,734.5299688052296,248.89372371740052,29.166666666666668,1.9621814393889792,0.1,0.008282184600830078,0.2064652442932129,0.04999327,0.05314027,424.1740267475566,-0.08868927624515122,4.248810723754849,29.166666666666668,9600,1.530808448791504,0.03975125922386238,0.03820117340262014,2180396,411.89400366472023,50.0
286,6.485241651535034,442.70581592636955,103.4032568222293,738.0177149439215,361.14311835806814,35.416666666666664,1.8462944273795698,0.1,0.008692026138305664,0.20375728607177734,0.048764806,0.055541255,426.0272056654379,-0.08572905438017443,4.412604278953158,35.416666666666664,9600,1.5416338443756104,0.0439928491917897,0.038341910079714464,2189996,416.0077535793546,56.25
287,6.159274578094482,415.7537507266372,96.74004645318402,718.0964696538252,-50.37871981256328,31.25,1.620839088161247,0.1,0.00775599479675293,0.1925797462463379,0.049167164,0.05166926,424.9998601715579,-0.0885903486259485,4.145179747969034,31.25,9502,1.4842989444732666,0.03738244488038124,0.03505379525142834,2199498,420.33093522433137,56.25
288,6.130289793014526,427.3753789283351,91.00445520988336,726.4199028721985,236.68261468585462,36.458333333333336,1.7903575408587196,0.1,0.008039474487304688,0.2232956886291504,0.04973422,0.057470337,425.23741204723564,-0.08818081489963138,4.260569185100369,36.458333333333336,9600,1.486860752105713,0.03855291056572347,0.037141445946878154,2209098,407.6370955430649,50.0
289,6.2096006870269775,417.56940143449856,73.39460184481514,742.6925175989112,369.43717295004654,29.166666666666668,1.8844606047468644,0.1,0.008211851119995117,0.1926264762878418,0.049358882,0.056780547,424.47061098596197,-0.08874818470740257,4.162918481959264,29.166666666666668,9600,1.5083794593811035,0.030494475113254805,0.028862938439707615,2218698,407.2813329723591,43.75
290,6.354163408279419,422.28847527118586,88.29871316648769,762.6205494866427,313.4479445689667,22.916666666666668,1.8276684217098698,0.1,0.009669065475463867,0.2303636074066162,0.048941538,0.057276808,424.2523974144844,-0.08946779960744451,4.210115533725889,22.916666666666668,9600,1.4993948936462402,0.03930179145110604,0.038170479311273646,2228298,398.2759743835089,43.75
291,6.151388168334961,418.6673385778258,98.36079232088427,767.0287750822105,-50.39153634982679,28.125,1.759510579512579,0.1,0.00746464729309082,0.18795561790466309,0.049306393,0.05417328,423.6938915308185,-0.08856952039643191,4.173903971082052,28.125,9502,1.4329149723052979,0.034246071222929074,0.03198605576199621,2237800,390.1147588617864,43.75
292,6.151137828826904,424.12088480051244,80.35625878370777,717.9046484803371,333.6648237689186,34.375,1.9632631126845363,0.1,0.008634328842163086,0.21388006210327148,0.04894499,0.05415357,423.7365908577879,-0.08739039502232197,4.228442938311011,34.375,9600,1.483147382736206,0.03376084050417176,0.02985142617450878,2247400,349.80968118904923,31.25
293,6.128923416137695,427.5925530116574,86.75422904275368,738.6158001021945,361.31992663445305,33.333333333333336,1.836399344833415,0.1,0.008671283721923828,0.24459314346313477,0.05003535,0.05861646,424.12218707317487,-0.08727422198241258,4.262725778017587,33.333333333333336,9600,1.4656710624694824,0.03572437063703426,0.03420501472176107,2257000,382.6618910195074,37.5
294,6.290117263793945,414.1383271727819,76.08728642948553,721.9292013367568,200.21703789162922,28.125,1.8773091694480237,0.1,0.007919549942016602,0.19817233085632324,0.05021085,0.055479787,423.12380108313556,-0.08888936367935424,4.128610636320645,28.125,9600,1.478473424911499,0.03258883578405372,0.031228528658829104,2266600,371.8244480646842,31.25
295,6.339348793029785,446.909114371558,104.56184393117455,766.4472915086543,366.3995717793755,37.5,1.9426990726707656,0.1,0.008127212524414062,0.22182369232177734,0.050201558,0.054509584,425.5023324119778,-0.0849374945521707,4.455479172114496,37.5,9600,1.4920225143432617,0.04811330216022659,0.039330458432250616,2276200,312.7140942750139,31.25
296,6.145148754119873,432.421874008281,96.17936438909176,766.4481322044087,305.4906044242747,33.333333333333336,1.8823424560876323,0.1,0.008560657501220703,0.2390298843383789,0.049820386,0.058728453,426.19428657160813,-0.08771780789510725,4.311032192104893,33.333333333333336,9600,1.494072675704956,0.04638117812990447,0.0393581940857167,2285800,343.7300091553432,31.25
297,6.235676050186157,431.8944804546474,102.43099566115134,762.38401515839,231.81201894956206,30.208333333333332,1.9104868037207101,0.1,0.008007287979125977,0.1904592514038086,0.049856693,0.05282412,426.76430595991206,-0.08757074260254905,4.306595924064117,30.208333333333332,9600,1.5106041431427002,0.04328559135409615,0.041448046722808225,2295400,379.2739845051343,31.25
298,6.056768178939819,425.61034873670513,99.3083864387313,750.4993550352442,-50.39157619783495,36.458333333333336,1.672350150472161,0.1,0.007696866989135742,0.1874544620513916,0.049998894,0.050188646,426.6489102375914,-0.08763271883121826,4.243329361131291,36.458333333333336,9502,1.5017428398132324,0.03309617644296548,0.03070789407402822,2304902,389.0765828064775,37.5
299,6.033508539199829,432.2364231781957,107.67248153991608,763.2260015524165,-50.37938795792739,35.416666666666664,1.5754133098417593,0.1,0.007875442504882812,0.19668245315551758,0.049754843,0.0563778,427.2076615316518,-0.08624574823511248,4.30959936978745,35.416666666666664,9502,1.520451307296753,0.03921449637167131,0.03848967453902964,2314404,393.27007012396905,37.5
300,6.234858512878418,421.0824772016087,106.56971567928701,767.0419143394828,-50.381755718831755,25.0,1.5793130340135706,0.1,0.007775306701660156,0.1910078525543213,0.05012896,0.06166007,426.5951430986475,-0.08912886230851058,4.197639870579278,25.0,9502,1.4603917598724365,0.03869776098731016,0.03527618729286147,2323906,396.1523977213071,37.5
301,6.190220832824707,425.7091191501818,89.52249211672046,746.696641453057,305.1898248971922,28.125,1.8812218481703789,0.1,0.008679866790771484,0.2867472171783447,0.04943956,0.054195516,426.50654070380097,-0.08777398660567858,4.2434760133943215,28.125,9600,1.499504566192627,0.03144141836250006,0.030797108410586485,2333506,392.9001143610653,37.5
302,6.201569557189941,400.7798101608361,123.41620148433707,750.3667732330798,-50.41183400804499,27.083333333333332,1.4191222831677346,0.1,0.008444070816040039,0.1825428009033203,0.04947817,0.04779732,423.93386764950446,-0.09223012422576599,4.000246754841708,27.083333333333332,9208,1.4101979732513428,0.03519914967928586,0.031116062040324053,2342714,316.7534679738675,37.5
303,6.408740520477295,412.7611235172735,92.68919998323805,734.0577142530922,-50.392315768725375,23.958333333333332,1.7123698496082902,0.1,0.007609367370605469,0.22201871871948242,0.049614664,0.04598123,422.8165932362814,-0.09109490993440283,4.114846958125587,23.958333333333332,9502,1.4463129043579102,0.029037336618258643,0.026646960747904465,2352216,316.44121335045315,31.25
304,6.133710861206055,426.7702091069632,101.29012937349802,722.4013957760427,-50.37452102747316,33.333333333333336,1.7486773451781956,0.1,0.007882356643676758,0.23984003067016602,0.049378034,0.051627755,423.21195482334963,-0.0891759362499252,4.254098839412743,33.333333333333336,9502,1.45430326461792,0.03444587520484995,0.03270304748331188,2361718,338.74218264618304,43.75
305,6.286818981170654,430.3597794046985,84.06411128154821,766.5020060675059,361.63193166539435,31.25,1.8921812939118472,0.1,0.008613109588623047,0.30014705657958984,0.048417535,0.05523283,423.9267372814845,-0.08666733245100083,4.291249334215666,31.25,9600,1.4785878658294678,0.034020425379858714,0.032530887566580576,2371318,346.3426320724401,37.5
306,6.299100637435913,435.1005088845468,97.18750702713034,738.0567849071651,260.5961189607253,32.291666666666664,1.8213483723459798,0.1,0.008357524871826172,0.24699091911315918,0.049703714,0.058708217,425.0441144417907,-0.0888465527694492,4.337820113897217,32.291666666666664,9600,1.523219108581543,0.038387066901230185,0.033045045553611666,2380918,343.3279691543888,37.5
307,6.253779888153076,429.463866892225,92.87281298343332,758.73343969149,357.1762000274488,28.125,1.8820504596151104,0.1,0.008721590042114258,0.2394273281097412,0.049246624,0.05420818,425.48608968683413,-0.08770627080472215,4.282293729195278,28.125,9600,1.5114991664886475,0.0389473457894383,0.03674231839748802,2390518,345.04492141905087,31.25
308,6.18933892250061,428.66369847414245,86.7343299010829,762.4457212523685,252.32282221465948,35.416666666666664,1.8536127915111185,0.1,0.008725404739379883,0.22645926475524902,0.047987297,0.0565718,425.80385056556497,-0.08821919503606512,4.2738641382972675,35.416666666666664,9600,1.5397469997406006,0.03553880466773458,0.03237807099990908,2400118,330.3511096087367,31.25
309,6.0947675704956055,420.0585987383013,110.00421842530272,750.7421146587428,-50.385953197531784,29.166666666666668,1.6709803244585901,0.1,0.007738828659057617,0.19213414192199707,0.04947327,0.050372187,425.2293253828386,-0.0897185288656465,4.187395767939031,29.166666666666668,9502,1.5517158508300781,0.04195836368444294,0.03779294734476434,2409620,326.55253860063937,31.25
310,6.378425598144531,427.15651761590624,107.5652363480081,762.8105747162527,-50.39391605132054,28.125,1.6161882230916003,0.1,0.009425163269042969,0.2658512592315674,0.049395353,0.04743334,425.4220446061454,-0.08920098897728639,4.258796332668143,28.125,9502,1.5792958736419678,0.03853853292441117,0.03584658809058341,2419122,366.25198627577515,37.5
311,6.338296175003052,421.4870262780624,79.99568714510318,734.7896270809756,192.76902315658663,33.333333333333336,1.7969483311880765,0.1,0.009129524230957031,0.2588052749633789,0.050477367,0.059917133,425.0285427733371,-0.08748881675734899,4.202511183242652,33.333333333333336,9600,1.5898802280426025,0.03401195859583378,0.027962453956657075,2428722,376.13722976357224,37.5
312,6.199246644973755,425.2275417388905,119.67506555157327,758.9204207248234,-50.39836370665363,31.25,1.6126359194928435,0.1,0.010568618774414062,0.24004888534545898,0.0493166,0.052983824,425.04844266989244,-0.0890505596021295,4.238255049216877,31.25,9404,1.5598621368408203,0.0394221283320576,0.03656775743997934,2438126,350.29076568472556,31.25
313,6.194882154464722,417.32076601122327,73.00417162526531,738.3339856472684,328.5421340919669,29.166666666666668,1.862300713443776,0.1,0.0088958740234375,0.27869534492492676,0.049945403,0.05890985,424.2756750040256,-0.08914358990243461,4.160439743430899,29.166666666666668,9600,1.5332427024841309,0.0272976812643345,0.02111093172089915,2447726,332.1313128751449,25.0
314,6.2107648849487305,431.8716026470666,89.19376886464732,754.3030640939834,370.747165134092,31.25,1.7961564817852789,0.1,0.008422613143920898,0.20235610008239746,0.049646623,0.056675334,425.0352677683297,-0.08905895515606059,4.304691044843939,31.25,9600,1.4971365928649902,0.03280253417336179,0.030246014037864456,2457326,351.81104176118555,25.0
315,6.1999289989471436,439.89262969358333,101.9304923973613,754.7397723282672,264.31342745673555,34.375,1.8595159826526968,0.1,0.008367776870727539,0.24650955200195312,0.050169785,0.05438475,426.521003960855,-0.0867547332566558,4.386578600076677,34.375,9600,1.5053648948669434,0.03935917424947422,0.03604911171909511,2466926,377.19326894498147,31.25
316,6.280750751495361,422.40589591856656,81.21807471028674,767.5591029255313,235.95525450638456,31.25,1.8167636195579253,0.1,0.008304357528686523,0.24814748764038086,0.049749643,0.054955687,426.1094931566262,-0.08785918342184092,4.2121408165781595,31.25,9600,1.51350998878479,0.03239004740879748,0.028622383699051606,2476526,375.8953117940193,31.25
317,6.156420469284058,411.5313588593128,86.91873082327912,738.589923054593,-50.387361867180196,28.125,1.5826512626314932,0.1,0.009922266006469727,0.274646520614624,0.05004832,0.050432723,424.6516797268948,-0.08994309780324143,4.102970756652515,28.125,9502,1.5258417129516602,0.027754235270475963,0.024920300230850713,2486028,369.105044274996,18.75
318,5.991329669952393,428.1249763753122,100.91930960756444,750.6603786073515,-50.37249801325606,38.541666666666664,1.8181205870187296,0.1,0.007533550262451172,0.20412397384643555,0.0497757,0.052257217,424.9990093917366,-0.086639406067956,4.26848184283273,38.541666666666664,9502,1.5325508117675781,0.03257838523416223,0.0293915790330544,2495530,373.5162944718444,18.75
319,6.278673887252808,420.6829354913563,77.45215030187303,689.9194535073589,338.06190309630875,28.125,1.8397007088823563,0.1,0.008599281311035156,0.262592077255249,0.049088877,0.05678336,424.5674020016986,-0.08885039416469269,4.193649605835307,28.125,9600,1.5587239265441895,0.027086838504553946,0.027133767300304354,2505130,303.6167458742354,25.0
320,6.295011281967163,409.413840164882,70.85556255136618,754.528760764916,276.1854594364071,26.041666666666668,1.8479311761038113,0.1,0.008521318435668945,0.2317962646484375,0.05018838,0.057303697,423.05204581801695,-0.09028533423456109,4.0817979990987725,26.041666666666668,9600,1.55464768409729,0.032982330049610556,0.024582572787580016,2514730,302.15589297851284,12.5
321,6.237815618515015,425.9879892689157,117.89175485724171,762.9746944064195,-50.39630534674567,32.291666666666664,1.5329907241550338,0.1,0.008034229278564453,0.19823861122131348,0.050003644,0.050924525,423.34564016310685,-0.1228695988412493,4.247117256319823,32.291666666666664,9404,1.5150988101959229,0.046328576541142176,0.04079878615011506,2524134,306.1573484849164,12.5
322,6.092208623886108,430.8184292430986,112.03874992621118,766.9218226791061,-50.38671855309842,33.333333333333336,1.6916314146460336,0.1,0.007843494415283203,0.2320566177368164,0.049421713,0.057841774,424.09291907110605,-0.08821494419437688,4.295416838241745,33.333333333333336,9502,1.5348460674285889,0.04264016467281935,0.0404413382433063,2533636,271.5688643193139,6.25
323,6.227257490158081,438.34576848059277,100.80113064733825,767.0632358879127,180.95836758862785,34.375,1.7420811007274437,0.1,0.008386611938476562,0.22890067100524902,0.05051446,0.058413003,425.51820401205475,-0.0859701379206792,4.370279862079321,34.375,9600,1.5536928176879883,0.044228505402039,0.04145729316640944,2543236,287.50406645509645,12.5
324,5.904476881027222,419.0569203160835,140.84342933391457,767.2182950026494,-50.387822331130536,26.041666666666668,1.4335959108974954,0.1,0.007847309112548828,0.18811297416687012,0.049494985,0.048123527,424.8720756424576,-0.09007968383061087,4.188652822604907,26.041666666666668,9208,1.505455732345581,0.046375705459291997,0.04177111930176676,2552444,326.38100062317545,18.75
325,6.2355639934539795,418.8924744511193,100.01849936586228,742.1998636205248,-50.38424546661502,29.166666666666668,1.6701289601711606,0.1,0.00887155532836914,0.23447346687316895,0.049673527,0.06252181,424.2741155233238,-0.10548290184199409,4.1761550802421255,29.166666666666668,9502,1.5747511386871338,0.03900888199710095,0.03477791291916636,2561946,276.52577594771935,25.0
326,6.360998630523682,432.6945959986953,96.7319492243755,758.8892356764582,370.61830875426887,32.291666666666664,1.8070219429161816,0.1,0.007895946502685547,0.2010517120361328,0.049599648,0.059936218,425.116163570861,-0.08624118313076905,4.313342150202565,32.291666666666664,9600,1.613698959350586,0.04062736860560316,0.03668967513098586,2571546,261.8872217284173,18.75
327,6.311645746231079,420.88080269946937,91.76204037629236,725.9431583825344,-50.39268217505599,35.416666666666664,1.6308534801872192,0.1,0.00774383544921875,0.24604320526123047,0.049253598,0.050319,424.6926274837218,-0.08829197356125047,4.195623563917715,35.416666666666664,9502,1.5570342540740967,0.02877658397098854,0.027994004015655893,2581048,273.785536442842,6.25
328,6.302248239517212,418.98288610373925,83.2783267049024,738.4877544709224,272.4830143771272,29.166666666666668,1.7930628700222846,0.1,0.018543720245361328,0.2451648712158203,0.049247812,0.05990993,424.1216533457236,-0.08919308560357447,4.177056914396426,29.166666666666668,9600,1.581186056137085,0.033931765046981914,0.032574156957031926,2590648,255.05954259447267,12.5
329,6.499321937561035,426.4108257982557,94.79267857892506,745.9833496204192,228.46407673139515,31.25,1.993457169322572,0.1,0.00919342041015625,0.2490406036376953,0.050761994,0.053470034,424.3505705909768,-0.08782152886870859,4.250928471131291,31.25,9600,1.5832388401031494,0.040898077732704596,0.03868922424292773,2600248,285.69613954935005,25.0
330,6.480481147766113,435.9163659592826,121.03931875437425,754.6823345613576,-50.38246639468725,31.25,1.6988519669369178,0.1,0.0081329345703125,0.19268035888671875,0.049450696,0.05580589,425.5071501278074,-0.08772071300942848,4.345982599790823,31.25,9502,1.5137684345245361,0.050120214713244,0.04534030335744482,2609750,286.4177263360286,12.5
331,6.246968507766724,429.6608348631103,104.04142924256152,758.6849862666797,228.55426496096464,30.208333333333332,1.8112469288997475,0.1,0.009206295013427734,0.2435472011566162,0.04855445,0.056879878,425.9225186013377,-0.08781477421200508,4.284685225787995,30.208333333333332,9600,1.5159261226654053,0.05312099187687046,0.0461510055204194,2619350,302.9026904324544,18.75
