Iter | Sampling Pol | Evaluation Pol | Best (Sampled) 
   0 -25.28 -25.67 -100000000.00 
   1 -25.52 -23.96 -25.28 
   2 -24.12 -21.63 -25.28 
   3 -22.11 -18.39 -24.12 
   4 -18.92 -17.01 -22.11 
   5 -17.51 -15.20 -18.92 
   6 -15.85 -13.56 -17.51 
   7 -14.30 -12.56 -15.85 
   8 -13.22 -11.62 -14.30 
   9 -12.17 -11.05 -13.22 
  10 -11.45 -10.83 -12.17 
  11 -11.09 -10.90 -11.45 
  12 -10.92 -10.91 -11.09 
  13 -10.91 -10.87 -10.92 
  14 -10.79 -10.89 -10.91 
  15 -10.78 -10.90 -10.79 
  16 -10.79 -10.89 -10.78 
  17 -10.74 -10.80 -10.78 
  18 -10.65 -10.84 -10.74 
  19 -10.69 -10.82 -10.65 
  20 -10.64 -10.83 -10.65 
  21 -10.63 -10.74 -10.64 
  22 -10.56 -10.64 -10.63 
  23 -10.48 -10.50 -10.56 
  24 -10.38 -10.49 -10.48 
  25 -10.41 -10.57 -10.38 
  26 -10.42 -10.51 -10.38 
  27 -10.40 -10.40 -10.38 
  28 -10.33 -10.36 -10.38 
  29 -10.31 -10.32 -10.33 
  30 -10.29 -10.25 -10.31 
  31 -10.23 -10.19 -10.29 
  32 -10.21 -10.17 -10.23 
  33 -10.20 -10.17 -10.21 
  34 -10.21 -10.13 -10.20 
  35 -10.19 -10.08 -10.20 
  36 -10.16 -10.06 -10.19 
  37 -10.16 -10.06 -10.16 
  38 -10.12 -10.05 -10.16 
  39 -10.11 -9.99 -10.12 
  40 -10.05 -9.96 -10.11 
  41 -10.02 -9.95 -10.05 
  42 -10.02 -9.94 -10.02 
  43 -10.02 -9.93 -10.02 
  44 -10.02 -9.91 -10.02 
  45 -9.99 -9.91 -10.02 
  46 -9.99 -9.90 -9.99 
  47 -9.98 -9.87 -9.99 
  48 -9.98 -9.86 -9.98 
  49 -9.97 -9.84 -9.98 
  50 -9.96 -9.84 -9.97 
  51 -9.96 -9.85 -9.96 
  52 -9.97 -9.82 -9.96 
  53 -9.92 -9.83 -9.96 
  54 -9.93 -9.82 -9.92 
  55 -9.92 -9.82 -9.92 
  56 -9.92 -9.86 -9.92 
  57 -9.97 -9.81 -9.92 
  58 -9.91 -9.80 -9.92 
  59 -9.91 -9.82 -9.91 
  60 -9.92 -9.87 -9.91 
  61 -9.98 -9.82 -9.91 
  62 -9.93 -9.83 -9.91 
  63 -9.94 -9.80 -9.91 
  64 -9.89 -9.80 -9.91 
  65 -9.90 -9.80 -9.89 
  66 -9.91 -9.81 -9.89 
  67 -9.91 -9.80 -9.89 
  68 -9.89 -9.79 -9.89 
  69 -9.88 -9.78 -9.89 
  70 -9.86 -9.79 -9.88 
  71 -9.87 -9.79 -9.86 
  72 -9.88 -9.79 -9.86 
  73 -9.87 -9.79 -9.86 
  74 -9.88 -9.78 -9.86 
  75 -9.86 -9.78 -9.86 
  76 -9.86 -9.78 -9.86 
  77 -9.85 -9.80 -9.86 
  78 -9.87 -9.80 -9.85 
  79 -9.89 -9.80 -9.85 
  80 -9.88 -9.79 -9.85 
  81 -9.85 -9.79 -9.85 
  82 -9.86 -9.79 -9.85 
  83 -9.86 -9.79 -9.85 
  84 -9.86 -9.79 -9.85 
  85 -9.86 -9.79 -9.85 
  86 -9.87 -9.81 -9.85 
  87 -9.88 -9.82 -9.85 
  88 -9.89 -9.81 -9.85 
  89 -9.88 -9.80 -9.85 
  90 -9.87 -9.81 -9.85 
  91 -9.88 -9.79 -9.85 
  92 -9.86 -9.79 -9.85 
  93 -9.86 -9.79 -9.85 
  94 -9.87 -9.81 -9.85 
  95 -9.90 -9.81 -9.85 
  96 -9.90 -9.80 -9.85 
  97 -9.87 -9.80 -9.85 
  98 -9.87 -9.80 -9.85 
  99 -9.86 -9.81 -9.85 
 100 -9.88 -9.80 -9.85 
 101 -9.87 -9.79 -9.85 
 102 -9.87 -9.79 -9.85 
 103 -9.88 -9.80 -9.85 
 104 -9.86 -9.79 -9.85 
 105 -9.85 -9.78 -9.85 
 106 -9.85 -9.79 -9.85 
 107 -9.87 -9.79 -9.85 
 108 -9.85 -9.79 -9.85 
 109 -9.85 -9.78 -9.85 
 110 -9.84 -9.78 -9.85 
 111 -9.84 -9.77 -9.84 
 112 -9.84 -9.77 -9.84 
 113 -9.83 -9.77 -9.84 
 114 -9.83 -9.78 -9.83 
 115 -9.84 -9.78 -9.83 
 116 -9.84 -9.79 -9.83 
 117 -9.85 -9.79 -9.83 
 118 -9.84 -9.79 -9.83 
 119 -9.85 -9.78 -9.83 
 120 -9.85 -9.79 -9.83 
 121 -9.85 -9.79 -9.83 
 122 -9.85 -9.78 -9.83 
 123 -9.84 -9.78 -9.83 
 124 -9.84 -9.78 -9.83 
 125 -9.83 -9.78 -9.83 
 126 -9.83 -9.78 -9.83 
 127 -9.82 -9.79 -9.83 
 128 -9.83 -9.78 -9.82 
 129 -9.82 -9.78 -9.82 
 130 -9.81 -9.77 -9.82 
 131 -9.82 -9.78 -9.81 
 132 -9.83 -9.78 -9.81 
 133 -9.83 -9.78 -9.81 
 134 -9.84 -9.78 -9.81 
 135 -9.83 -9.78 -9.81 
 136 -9.83 -9.78 -9.81 
 137 -9.85 -9.79 -9.81 
 138 -9.87 -9.78 -9.81 
 139 -9.85 -9.79 -9.81 
 140 -9.87 -9.80 -9.81 
 141 -9.88 -9.80 -9.81 
 142 -9.88 -9.80 -9.81 
 143 -9.88 -9.79 -9.81 
 144 -9.88 -9.80 -9.81 
 145 -9.88 -9.80 -9.81 
 146 -9.88 -9.80 -9.81 
 147 -9.89 -9.81 -9.81 
 148 -9.89 -9.79 -9.81 
 149 -9.88 -9.79 -9.81 
 150 -9.87 -9.79 -9.81 
 151 -9.87 -9.79 -9.81 
 152 -9.87 -9.79 -9.81 
 153 -9.86 -9.78 -9.81 
 154 -9.86 -9.79 -9.81 
 155 -9.85 -9.79 -9.81 
 156 -9.85 -9.80 -9.81 
 157 -9.87 -9.79 -9.81 
 158 -9.86 -9.78 -9.81 
 159 -9.84 -9.79 -9.81 
 160 -9.84 -9.80 -9.81 
 161 -9.86 -9.79 -9.81 
 162 -9.85 -9.79 -9.81 
 163 -9.85 -9.79 -9.81 
 164 -9.85 -9.79 -9.81 
 165 -9.86 -9.79 -9.81 
 166 -9.86 -9.79 -9.81 
 167 -9.85 -9.79 -9.81 
 168 -9.85 -9.80 -9.81 
 169 -9.86 -9.80 -9.81 
 170 -9.86 -9.80 -9.81 
 171 -9.85 -9.80 -9.81 
 172 -9.85 -9.78 -9.81 
 173 -9.83 -9.78 -9.81 
 174 -9.84 -9.78 -9.81 
 175 -9.84 -9.78 -9.81 
 176 -9.83 -9.78 -9.81 
 177 -9.83 -9.78 -9.81 
 178 -9.83 -9.77 -9.81 
 179 -9.81 -9.78 -9.81 
 180 -9.82 -9.78 -9.81 
 181 -9.83 -9.78 -9.81 
 182 -9.83 -9.77 -9.81 
 183 -9.83 -9.77 -9.81 
 184 -9.83 -9.77 -9.81 
 185 -9.84 -9.77 -9.81 
 186 -9.82 -9.76 -9.81 
 187 -9.82 -9.78 -9.81 
 188 -9.83 -9.77 -9.81 
 189 -9.83 -9.77 -9.81 
 190 -9.83 -9.76 -9.81 
 191 -9.82 -9.75 -9.81 
 192 -9.80 -9.75 -9.81 
 193 -9.80 -9.76 -9.80 
 194 -9.81 -9.76 -9.80 
 195 -9.81 -9.77 -9.80 
 196 -9.82 -9.76 -9.80 
 197 -9.82 -9.76 -9.80 
 198 -9.81 -9.76 -9.80 
 199 -9.83 -9.76 -9.80 
 200 -9.81 -9.77 -9.80 
 201 -9.82 -9.77 -9.80 
 202 -9.82 -9.76 -9.80 
 203 -9.82 -9.76 -9.80 
 204 -9.81 -9.76 -9.80 
 205 -9.82 -9.76 -9.80 
 206 -9.83 -9.76 -9.80 
 207 -9.81 -9.76 -9.80 
 208 -9.81 -9.75 -9.80 
 209 -9.81 -9.75 -9.80 
 210 -9.83 -9.77 -9.80 
 211 -9.85 -9.75 -9.80 
 212 -9.83 -9.75 -9.80 
 213 -9.81 -9.75 -9.80 
 214 -9.83 -9.76 -9.80 
 215 -9.84 -9.76 -9.80 
 216 -9.84 -9.77 -9.80 
 217 -9.85 -9.77 -9.80 
 218 -9.86 -9.77 -9.80 
 219 -9.85 -9.77 -9.80 
 220 -9.86 -9.75 -9.80 
 221 -9.83 -9.76 -9.80 
 222 -9.84 -9.75 -9.80 
 223 -9.83 -9.76 -9.80 
 224 -9.85 -9.77 -9.80 
 225 -9.87 -9.76 -9.80 
 226 -9.84 -9.77 -9.80 
 227 -9.85 -9.77 -9.80 
 228 -9.84 -9.76 -9.80 
 229 -9.84 -9.82 -9.80 
 230 -9.90 -9.79 -9.80 
 231 -9.88 -9.77 -9.80 
 232 -9.85 -9.78 -9.80 
 233 -9.86 -9.79 -9.80 
 234 -9.85 -9.79 -9.80 
 235 -9.86 -9.78 -9.80 
 236 -9.86 -9.77 -9.80 
 237 -9.84 -9.78 -9.80 
 238 -9.84 -9.78 -9.80 
 239 -9.84 -9.78 -9.80 
 240 -9.84 -9.76 -9.80 
 241 -9.83 -9.76 -9.80 
 242 -9.83 -9.77 -9.80 
 243 -9.83 -9.77 -9.80 
 244 -9.83 -9.77 -9.80 
 245 -9.84 -9.78 -9.80 
 246 -9.85 -9.78 -9.80 
 247 -9.84 -9.77 -9.80 
 248 -9.84 -9.78 -9.80 
 249 -9.84 -9.77 -9.80 
 250 -9.83 -9.76 -9.80 
 251 -9.83 -9.76 -9.80 
 252 -9.83 -9.75 -9.80 
 253 -9.83 -9.75 -9.80 
 254 -9.82 -9.75 -9.80 
 255 -9.82 -9.74 -9.80 
 256 -9.83 -9.73 -9.80 
 257 -9.82 -9.75 -9.80 
 258 -9.84 -9.76 -9.80 
 259 -9.85 -9.74 -9.80 
 260 -9.83 -9.74 -9.80 
 261 -9.83 -9.74 -9.80 
 262 -9.82 -9.74 -9.80 
 263 -9.81 -9.74 -9.80 
 264 -9.80 -9.74 -9.80 
 265 -9.80 -9.74 -9.80 
 266 -9.81 -9.75 -9.80 
 267 -9.81 -9.75 -9.80 
 268 -9.80 -9.75 -9.80 
 269 -9.80 -9.75 -9.80 
 270 -9.80 -9.74 -9.80 
 271 -9.80 -9.75 -9.80 
 272 -9.79 -9.75 -9.80 
 273 -9.79 -9.75 -9.79 
 274 -9.80 -9.76 -9.79 
 275 -9.80 -9.76 -9.79 
 276 -9.81 -9.76 -9.79 
 277 -9.80 -9.77 -9.79 
 278 -9.81 -9.76 -9.79 
 279 -9.81 -9.75 -9.79 
 280 -9.81 -9.75 -9.79 
 281 -9.82 -9.75 -9.79 
 282 -9.80 -9.75 -9.79 
 283 -9.81 -9.75 -9.79 
 284 -9.81 -9.75 -9.79 
 285 -9.81 -9.75 -9.79 
 286 -9.80 -9.75 -9.79 
 287 -9.80 -9.76 -9.79 
 288 -9.81 -9.75 -9.79 
 289 -9.82 -9.76 -9.79 
 290 -9.82 -9.75 -9.79 
 291 -9.81 -9.75 -9.79 
 292 -9.80 -9.75 -9.79 
 293 -9.80 -9.75 -9.79 
 294 -9.80 -9.74 -9.79 
 295 -9.79 -9.74 -9.79 
 296 -9.79 -9.73 -9.79 
 297 -9.79 -9.73 -9.79 
 298 -9.79 -9.73 -9.79 
 299 -9.79 -9.73 -9.79 
 300 -9.79 -9.73 -9.79 
 301 -9.79 -9.73 -9.79 
 302 -9.79 -9.73 -9.79 
 303 -9.79 -9.73 -9.79 
 304 -9.79 -9.74 -9.79 
 305 -9.80 -9.75 -9.79 
 306 -9.79 -9.74 -9.79 
 307 -9.79 -9.74 -9.79 
 308 -9.80 -9.74 -9.79 
 309 -9.79 -9.74 -9.79 
 310 -9.79 -9.74 -9.79 
 311 -9.79 -9.74 -9.79 
 312 -9.78 -9.74 -9.79 
 313 -9.79 -9.75 -9.78 
 314 -9.79 -9.75 -9.78 
 315 -9.79 -9.75 -9.78 
 316 -9.79 -9.75 -9.78 
 317 -9.80 -9.75 -9.78 
 318 -9.79 -9.75 -9.78 
 319 -9.79 -9.74 -9.78 
 320 -9.79 -9.74 -9.78 
 321 -9.79 -9.75 -9.78 
 322 -9.80 -9.75 -9.78 
 323 -9.80 -9.76 -9.78 
 324 -9.81 -9.76 -9.78 
 325 -9.80 -9.76 -9.78 
 326 -9.81 -9.75 -9.78 
 327 -9.81 -9.74 -9.78 
 328 -9.80 -9.74 -9.78 
 329 -9.79 -9.74 -9.78 
 330 -9.80 -9.75 -9.78 
 331 -9.80 -9.74 -9.78 
 332 -9.80 -9.74 -9.78 
 333 -9.80 -9.73 -9.78 
 334 -9.79 -9.73 -9.78 
 335 -9.79 -9.73 -9.78 
 336 -9.79 -9.73 -9.78 
 337 -9.79 -9.73 -9.78 
 338 -9.80 -9.73 -9.78 
 339 -9.80 -9.73 -9.78 
 340 -9.80 -9.73 -9.78 
 341 -9.80 -9.73 -9.78 
 342 -9.80 -9.73 -9.78 
 343 -9.79 -9.72 -9.78 
 344 -9.79 -9.72 -9.78 
 345 -9.78 -9.73 -9.78 
 346 -9.79 -9.72 -9.78 
 347 -9.79 -9.72 -9.78 
 348 -9.79 -9.73 -9.78 
 349 -9.80 -9.73 -9.78 
 350 -9.80 -9.72 -9.78 
 351 -9.80 -9.73 -9.78 
 352 -9.82 -9.74 -9.78 
 353 -9.81 -9.73 -9.78 
 354 -9.81 -9.73 -9.78 
 355 -9.81 -9.74 -9.78 
 356 -9.82 -9.73 -9.78 
 357 -9.82 -9.74 -9.78 
 358 -9.82 -9.73 -9.78 
 359 -9.81 -9.74 -9.78 
 360 -9.82 -9.74 -9.78 
 361 -9.84 -9.74 -9.78 
 362 -9.83 -9.74 -9.78 
 363 -9.82 -9.74 -9.78 
 364 -9.82 -9.74 -9.78 
 365 -9.82 -9.75 -9.78 
 366 -9.83 -9.77 -9.78 
 367 -9.84 -9.76 -9.78 
 368 -9.85 -9.76 -9.78 
 369 -9.84 -9.75 -9.78 
 370 -9.83 -9.76 -9.78 
 371 -9.85 -9.74 -9.78 
 372 -9.82 -9.75 -9.78 
 373 -9.81 -9.75 -9.78 
 374 -9.82 -9.76 -9.78 
 375 -9.82 -9.75 -9.78 
 376 -9.80 -9.74 -9.78 
 377 -9.80 -9.75 -9.78 
 378 -9.81 -9.75 -9.78 
 379 -9.82 -9.76 -9.78 
 380 -9.83 -9.76 -9.78 
 381 -9.82 -9.76 -9.78 
 382 -9.83 -9.77 -9.78 
 383 -9.83 -9.78 -9.78 
 384 -9.84 -9.79 -9.78 
 385 -9.84 -9.80 -9.78 
 386 -9.84 -9.81 -9.78 
 387 -9.84 -9.80 -9.78 
 388 -9.83 -9.79 -9.78 
 389 -9.82 -9.79 -9.78 
 390 -9.82 -9.78 -9.78 
 391 -9.81 -9.77 -9.78 
 392 -9.81 -9.78 -9.78 
 393 -9.81 -9.77 -9.78 
 394 -9.80 -9.76 -9.78 
 395 -9.80 -9.75 -9.78 
 396 -9.80 -9.75 -9.78 
 397 -9.80 -9.76 -9.78 
 398 -9.79 -9.76 -9.78 
 399 -9.79 -9.76 -9.78 
 400 -9.80 -9.76 -9.78 
 401 -9.80 -9.76 -9.78 
 402 -9.80 -9.76 -9.78 
 403 -9.80 -9.77 -9.78 
 404 -9.80 -9.77 -9.78 
 405 -9.80 -9.77 -9.78 
 406 -9.80 -9.77 -9.78 
 407 -9.80 -9.77 -9.78 
 408 -9.80 -9.77 -9.78 
 409 -9.80 -9.77 -9.78 
 410 -9.80 -9.77 -9.78 
 411 -9.80 -9.76 -9.78 
 412 -9.80 -9.77 -9.78 
 413 -9.80 -9.77 -9.78 
 414 -9.80 -9.76 -9.78 
 415 -9.80 -9.76 -9.78 
 416 -9.80 -9.76 -9.78 
 417 -9.80 -9.76 -9.78 
 418 -9.80 -9.76 -9.78 
 419 -9.80 -9.76 -9.78 
 420 -9.81 -9.76 -9.78 
 421 -9.80 -9.77 -9.78 
 422 -9.82 -9.77 -9.78 
 423 -9.82 -9.77 -9.78 
 424 -9.83 -9.81 -9.78 
 425 -9.86 -9.80 -9.78 
 426 -9.84 -9.82 -9.78 
 427 -9.85 -9.84 -9.78 
 428 -9.88 -9.82 -9.78 
 429 -9.86 -9.84 -9.78 
 430 -9.87 -9.87 -9.78 
 431 -9.90 -9.88 -9.78 
 432 -9.90 -9.88 -9.78 
 433 -9.90 -9.90 -9.78 
 434 -9.92 -9.89 -9.78 
 435 -9.92 -9.87 -9.78 
 436 -9.91 -9.85 -9.78 
 437 -9.88 -9.83 -9.78 
 438 -9.86 -9.83 -9.78 
 439 -9.86 -9.83 -9.78 
 440 -9.86 -9.80 -9.78 
 441 -9.84 -9.79 -9.78 
 442 -9.83 -9.81 -9.78 
 443 -9.84 -9.83 -9.78 
 444 -9.87 -9.80 -9.78 
 445 -9.83 -9.79 -9.78 
 446 -9.83 -9.79 -9.78 
 447 -9.82 -9.79 -9.78 
 448 -9.83 -9.78 -9.78 
 449 -9.82 -9.78 -9.78 
 450 -9.82 -9.78 -9.78 
 451 -9.81 -9.79 -9.78 
 452 -9.81 -9.79 -9.78 
 453 -9.82 -9.79 -9.78 
 454 -9.82 -9.79 -9.78 
 455 -9.82 -9.78 -9.78 
 456 -9.81 -9.78 -9.78 
 457 -9.82 -9.78 -9.78 
 458 -9.82 -9.78 -9.78 
 459 -9.82 -9.78 -9.78 
 460 -9.81 -9.78 -9.78 
 461 -9.81 -9.79 -9.78 
 462 -9.82 -9.79 -9.78 
 463 -9.82 -9.79 -9.78 
 464 -9.82 -9.80 -9.78 
 465 -9.82 -9.80 -9.78 
 466 -9.82 -9.80 -9.78 
 467 -9.82 -9.80 -9.78 
 468 -9.82 -9.80 -9.78 
 469 -9.83 -9.80 -9.78 
 470 -9.82 -9.79 -9.78 
 471 -9.82 -9.79 -9.78 
 472 -9.82 -9.80 -9.78 
 473 -9.82 -9.79 -9.78 
 474 -9.82 -9.79 -9.78 
 475 -9.82 -9.79 -9.78 
 476 -9.82 -9.80 -9.78 
 477 -9.83 -9.80 -9.78 
 478 -9.83 -9.80 -9.78 
 479 -9.82 -9.79 -9.78 
 480 -9.82 -9.79 -9.78 
 481 -9.82 -9.80 -9.78 
 482 -9.82 -9.80 -9.78 
 483 -9.82 -9.79 -9.78 
 484 -9.82 -9.79 -9.78 
 485 -9.82 -9.79 -9.78 
 486 -9.82 -9.79 -9.78 
 487 -9.82 -9.79 -9.78 
 488 -9.82 -9.78 -9.78 
 489 -9.82 -9.78 -9.78 
 490 -9.82 -9.79 -9.78 
 491 -9.83 -9.80 -9.78 
 492 -9.85 -9.83 -9.78 
 493 -9.89 -9.82 -9.78 
 494 -9.87 -9.78 -9.78 
 495 -9.83 -9.78 -9.78 
 496 -9.82 -9.80 -9.78 
 497 -9.85 -9.79 -9.78 
 498 -9.85 -9.78 -9.78 
 499 -9.83 -9.79 -9.78 
 500 -9.83 -9.79 -9.78 
 501 -9.82 -9.78 -9.78 
 502 -9.81 -9.79 -9.78 
 503 -9.81 -9.79 -9.78 
 504 -9.81 -9.79 -9.78 
 505 -9.81 -9.79 -9.78 
 506 -9.81 -9.79 -9.78 
 507 -9.82 -9.80 -9.78 
 508 -9.83 -9.81 -9.78 
 509 -9.84 -9.81 -9.78 
 510 -9.83 -9.80 -9.78 
 511 -9.82 -9.79 -9.78 
 512 -9.83 -9.80 -9.78 
 513 -9.83 -9.81 -9.78 
 514 -9.84 -9.80 -9.78 
 515 -9.83 -9.81 -9.78 
 516 -9.83 -9.81 -9.78 
 517 -9.83 -9.81 -9.78 
 518 -9.83 -9.82 -9.78 
 519 -9.83 -9.81 -9.78 
 520 -9.83 -9.81 -9.78 
 521 -9.83 -9.82 -9.78 
 522 -9.84 -9.81 -9.78 
 523 -9.83 -9.80 -9.78 
 524 -9.82 -9.80 -9.78 
 525 -9.82 -9.80 -9.78 
 526 -9.81 -9.80 -9.78 
 527 -9.82 -9.81 -9.78 
 528 -9.83 -9.80 -9.78 
 529 -9.82 -9.80 -9.78 
 530 -9.82 -9.81 -9.78 
 531 -9.83 -9.81 -9.78 
 532 -9.83 -9.81 -9.78 
 533 -9.83 -9.81 -9.78 
 534 -9.83 -9.83 -9.78 
 535 -9.84 -9.83 -9.78 
 536 -9.85 -9.81 -9.78 
 537 -9.83 -9.82 -9.78 
 538 -9.84 -9.82 -9.78 
 539 -9.83 -9.82 -9.78 
 540 -9.84 -9.81 -9.78 
 541 -9.83 -9.84 -9.78 
 542 -9.86 -9.85 -9.78 
 543 -9.87 -9.84 -9.78 
 544 -9.85 -9.82 -9.78 
 545 -9.83 -9.81 -9.78 
 546 -9.83 -9.81 -9.78 
 547 -9.82 -9.80 -9.78 
 548 -9.82 -9.79 -9.78 
 549 -9.82 -9.80 -9.78 
 550 -9.81 -9.80 -9.78 
 551 -9.82 -9.80 -9.78 
 552 -9.81 -9.80 -9.78 
 553 -9.82 -9.80 -9.78 
 554 -9.82 -9.80 -9.78 
 555 -9.82 -9.79 -9.78 
 556 -9.82 -9.79 -9.78 
 557 -9.81 -9.80 -9.78 
 558 -9.81 -9.79 -9.78 
 559 -9.81 -9.80 -9.78 
 560 -9.81 -9.80 -9.78 
 561 -9.81 -9.80 -9.78 
 562 -9.80 -9.79 -9.78 
 563 -9.80 -9.79 -9.78 
 564 -9.80 -9.78 -9.78 
 565 -9.79 -9.78 -9.78 
 566 -9.79 -9.79 -9.78 
 567 -9.80 -9.79 -9.78 
 568 -9.80 -9.79 -9.78 
 569 -9.80 -9.78 -9.78 
 570 -9.80 -9.78 -9.78 
 571 -9.79 -9.78 -9.78 
 572 -9.79 -9.77 -9.78 
 573 -9.79 -9.80 -9.78 
 574 -9.81 -9.80 -9.78 
 575 -9.81 -9.80 -9.78 
 576 -9.82 -9.80 -9.78 
 577 -9.81 -9.80 -9.78 
 578 -9.81 -9.80 -9.78 
 579 -9.81 -9.80 -9.78 
 580 -9.82 -9.80 -9.78 
 581 -9.81 -9.80 -9.78 
 582 -9.81 -9.80 -9.78 
 583 -9.81 -9.80 -9.78 
 584 -9.81 -9.80 -9.78 
 585 -9.81 -9.80 -9.78 
 586 -9.81 -9.80 -9.78 
 587 -9.81 -9.80 -9.78 
 588 -9.80 -9.80 -9.78 
 589 -9.82 -9.80 -9.78 
 590 -9.81 -9.79 -9.78 
 591 -9.81 -9.80 -9.78 
 592 -9.82 -9.80 -9.78 
 593 -9.82 -9.80 -9.78 
 594 -9.82 -9.81 -9.78 
 595 -9.82 -9.80 -9.78 
 596 -9.82 -9.80 -9.78 
 597 -9.81 -9.80 -9.78 
 598 -9.81 -9.80 -9.78 
 599 -9.81 -9.79 -9.78 
 600 -9.81 -9.80 -9.78 
 601 -9.81 -9.79 -9.78 
 602 -9.81 -9.79 -9.78 
 603 -9.81 -9.79 -9.78 
 604 -9.81 -9.80 -9.78 
 605 -9.82 -9.80 -9.78 
 606 -9.82 -9.79 -9.78 
 607 -9.81 -9.79 -9.78 
 608 -9.81 -9.79 -9.78 
 609 -9.81 -9.78 -9.78 
 610 -9.81 -9.78 -9.78 
 611 -9.80 -9.78 -9.78 
 612 -9.81 -9.79 -9.78 
 613 -9.82 -9.79 -9.78 
 614 -9.82 -9.80 -9.78 
 615 -9.83 -9.78 -9.78 
 616 -9.81 -9.78 -9.78 
 617 -9.81 -9.78 -9.78 
 618 -9.82 -9.78 -9.78 
 619 -9.82 -9.79 -9.78 
 620 -9.81 -9.78 -9.78 
 621 -9.81 -9.77 -9.78 
 622 -9.80 -9.77 -9.78 
 623 -9.80 -9.76 -9.78 
 624 -9.79 -9.76 -9.78 
 625 -9.78 -9.76 -9.78 
 626 -9.78 -9.76 -9.78 
 627 -9.79 -9.75 -9.78 
 628 -9.77 -9.75 -9.78 
 629 -9.78 -9.76 -9.77 
 630 -9.79 -9.76 -9.77 
 631 -9.80 -9.76 -9.77 
 632 -9.79 -9.77 -9.77 
 633 -9.80 -9.78 -9.77 
 634 -9.81 -9.78 -9.77 
 635 -9.81 -9.78 -9.77 
 636 -9.80 -9.78 -9.77 
 637 -9.81 -9.78 -9.77 
 638 -9.81 -9.78 -9.77 
 639 -9.80 -9.78 -9.77 
 640 -9.80 -9.79 -9.77 
 641 -9.81 -9.79 -9.77 
 642 -9.81 -9.79 -9.77 
 643 -9.81 -9.80 -9.77 
 644 -9.81 -9.79 -9.77 
 645 -9.81 -9.80 -9.77 
 646 -9.82 -9.81 -9.77 
 647 -9.82 -9.80 -9.77 
 648 -9.82 -9.81 -9.77 
 649 -9.83 -9.80 -9.77 
 650 -9.83 -9.81 -9.77 
 651 -9.83 -9.81 -9.77 
 652 -9.83 -9.80 -9.77 
 653 -9.83 -9.80 -9.77 
 654 -9.83 -9.80 -9.77 
 655 -9.83 -9.81 -9.77 
 656 -9.84 -9.80 -9.77 
 657 -9.83 -9.78 -9.77 
 658 -9.82 -9.79 -9.77 
 659 -9.82 -9.80 -9.77 
 660 -9.83 -9.81 -9.77 
 661 -9.83 -9.81 -9.77 
 662 -9.82 -9.80 -9.77 
 663 -9.82 -9.80 -9.77 
 664 -9.81 -9.79 -9.77 
 665 -9.81 -9.80 -9.77 
 666 -9.82 -9.81 -9.77 
 667 -9.83 -9.81 -9.77 
 668 -9.83 -9.80 -9.77 
 669 -9.82 -9.81 -9.77 
 670 -9.83 -9.80 -9.77 
 671 -9.82 -9.80 -9.77 
 672 -9.82 -9.80 -9.77 
 673 -9.82 -9.80 -9.77 
 674 -9.82 -9.80 -9.77 
 675 -9.82 -9.81 -9.77 
 676 -9.83 -9.79 -9.77 
 677 -9.81 -9.79 -9.77 
 678 -9.81 -9.79 -9.77 
 679 -9.80 -9.79 -9.77 
 680 -9.80 -9.79 -9.77 
 681 -9.81 -9.80 -9.77 
 682 -9.81 -9.80 -9.77 
 683 -9.82 -9.80 -9.77 
 684 -9.82 -9.81 -9.77 
 685 -9.82 -9.80 -9.77 
 686 -9.82 -9.80 -9.77 
 687 -9.82 -9.80 -9.77 
 688 -9.82 -9.80 -9.77 
 689 -9.81 -9.79 -9.77 
 690 -9.81 -9.79 -9.77 
 691 -9.81 -9.79 -9.77 
 692 -9.80 -9.78 -9.77 
 693 -9.80 -9.78 -9.77 
 694 -9.79 -9.78 -9.77 
 695 -9.80 -9.78 -9.77 
 696 -9.80 -9.78 -9.77 
 697 -9.80 -9.77 -9.77 
 698 -9.81 -9.79 -9.77 
 699 -9.82 -9.82 -9.77 
 700 -9.84 -9.81 -9.77 
 701 -9.83 -9.84 -9.77 
 702 -9.86 -9.85 -9.77 
 703 -9.87 -9.84 -9.77 
 704 -9.86 -9.80 -9.77 
 705 -9.84 -9.79 -9.77 
 706 -9.82 -9.81 -9.77 
 707 -9.84 -9.81 -9.77 
 708 -9.84 -9.82 -9.77 
 709 -9.84 -9.81 -9.77 
 710 -9.83 -9.79 -9.77 
 711 -9.81 -9.78 -9.77 
 712 -9.81 -9.79 -9.77 
 713 -9.81 -9.79 -9.77 
 714 -9.81 -9.79 -9.77 
 715 -9.82 -9.80 -9.77 
 716 -9.82 -9.79 -9.77 
 717 -9.82 -9.80 -9.77 
 718 -9.82 -9.80 -9.77 
 719 -9.82 -9.80 -9.77 
 720 -9.82 -9.80 -9.77 
 721 -9.82 -9.79 -9.77 
 722 -9.81 -9.80 -9.77 
 723 -9.82 -9.81 -9.77 
 724 -9.83 -9.83 -9.77 
 725 -9.85 -9.82 -9.77 
 726 -9.84 -9.82 -9.77 
 727 -9.84 -9.84 -9.77 
 728 -9.85 -9.85 -9.77 
 729 -9.86 -9.85 -9.77 
 730 -9.87 -9.83 -9.77 
 731 -9.85 -9.82 -9.77 
 732 -9.85 -9.81 -9.77 
 733 -9.83 -9.83 -9.77 
 734 -9.85 -9.82 -9.77 
 735 -9.84 -9.81 -9.77 
 736 -9.83 -9.82 -9.77 
 737 -9.84 -9.82 -9.77 
 738 -9.83 -9.82 -9.77 
 739 -9.84 -9.82 -9.77 
 740 -9.84 -9.82 -9.77 
 741 -9.84 -9.82 -9.77 
 742 -9.84 -9.83 -9.77 
 743 -9.85 -9.85 -9.77 
 744 -9.87 -9.86 -9.77 
 745 -9.88 -9.84 -9.77 
 746 -9.86 -9.85 -9.77 
 747 -9.87 -9.88 -9.77 
 748 -9.90 -9.90 -9.77 
 749 -9.92 -9.89 -9.77 
 750 -9.91 -9.87 -9.77 
 751 -9.88 -9.87 -9.77 
 752 -9.89 -9.86 -9.77 
 753 -9.88 -9.88 -9.77 
 754 -9.89 -9.88 -9.77 
 755 -9.90 -9.88 -9.77 
 756 -9.89 -9.86 -9.77 
 757 -9.88 -9.85 -9.77 
 758 -9.87 -9.86 -9.77 
 759 -9.88 -9.86 -9.77 
 760 -9.88 -9.86 -9.77 
 761 -9.88 -9.85 -9.77 
 762 -9.87 -9.84 -9.77 
 763 -9.86 -9.85 -9.77 
 764 -9.87 -9.83 -9.77 
 765 -9.85 -9.83 -9.77 
 766 -9.85 -9.83 -9.77 
 767 -9.85 -9.83 -9.77 
 768 -9.85 -9.83 -9.77 
 769 -9.85 -9.83 -9.77 
 770 -9.85 -9.84 -9.77 
 771 -9.86 -9.84 -9.77 
 772 -9.86 -9.85 -9.77 
 773 -9.86 -9.84 -9.77 
 774 -9.85 -9.84 -9.77 
 775 -9.86 -9.84 -9.77 
 776 -9.86 -9.85 -9.77 
 777 -9.87 -9.85 -9.77 
 778 -9.87 -9.85 -9.77 
 779 -9.87 -9.85 -9.77 
 780 -9.87 -9.86 -9.77 
 781 -9.88 -9.87 -9.77 
 782 -9.89 -9.86 -9.77 
 783 -9.88 -9.86 -9.77 
 784 -9.87 -9.86 -9.77 
 785 -9.88 -9.86 -9.77 
 786 -9.87 -9.87 -9.77 
 787 -9.88 -9.86 -9.77 
 788 -9.88 -9.86 -9.77 
 789 -9.88 -9.86 -9.77 
 790 -9.88 -9.86 -9.77 
 791 -9.88 -9.86 -9.77 
 792 -9.88 -9.87 -9.77 
 793 -9.89 -9.87 -9.77 
 794 -9.88 -9.86 -9.77 
 795 -9.88 -9.86 -9.77 
 796 -9.88 -9.86 -9.77 
 797 -9.88 -9.86 -9.77 
 798 -9.88 -9.86 -9.77 
 799 -9.87 -9.86 -9.77 
 800 -9.87 -9.86 -9.77 
 801 -9.87 -9.86 -9.77 
 802 -9.87 -9.86 -9.77 
 803 -9.87 -9.86 -9.77 
 804 -9.86 -9.86 -9.77 
 805 -9.87 -9.86 -9.77 
 806 -9.87 -9.86 -9.77 
 807 -9.87 -9.86 -9.77 
 808 -9.87 -9.86 -9.77 
 809 -9.87 -9.86 -9.77 
 810 -9.87 -9.85 -9.77 
 811 -9.87 -9.86 -9.77 
 812 -9.87 -9.85 -9.77 
 813 -9.86 -9.85 -9.77 
 814 -9.87 -9.85 -9.77 
 815 -9.87 -9.85 -9.77 
 816 -9.87 -9.86 -9.77 
 817 -9.87 -9.86 -9.77 
 818 -9.87 -9.86 -9.77 
 819 -9.88 -9.87 -9.77 
 820 -9.88 -9.87 -9.77 
 821 -9.89 -9.87 -9.77 
 822 -9.89 -9.87 -9.77 
 823 -9.89 -9.87 -9.77 
 824 -9.89 -9.87 -9.77 
 825 -9.89 -9.87 -9.77 
 826 -9.89 -9.87 -9.77 
 827 -9.89 -9.87 -9.77 
 828 -9.89 -9.87 -9.77 
 829 -9.89 -9.87 -9.77 
 830 -9.89 -9.88 -9.77 
 831 -9.90 -9.88 -9.77 
 832 -9.89 -9.87 -9.77 
 833 -9.89 -9.87 -9.77 
 834 -9.88 -9.86 -9.77 
 835 -9.88 -9.86 -9.77 
 836 -9.88 -9.87 -9.77 
 837 -9.88 -9.86 -9.77 
 838 -9.88 -9.86 -9.77 
 839 -9.88 -9.86 -9.77 
 840 -9.88 -9.86 -9.77 
 841 -9.88 -9.86 -9.77 
 842 -9.87 -9.86 -9.77 
 843 -9.88 -9.86 -9.77 
 844 -9.88 -9.86 -9.77 
 845 -9.88 -9.86 -9.77 
 846 -9.88 -9.86 -9.77 
 847 -9.89 -9.86 -9.77 
 848 -9.89 -9.86 -9.77 
 849 -9.89 -9.86 -9.77 
 850 -9.88 -9.86 -9.77 
 851 -9.88 -9.86 -9.77 
 852 -9.88 -9.86 -9.77 
 853 -9.88 -9.86 -9.77 
 854 -9.88 -9.86 -9.77 
 855 -9.87 -9.86 -9.77 
 856 -9.88 -9.86 -9.77 
 857 -9.88 -9.86 -9.77 
 858 -9.88 -9.86 -9.77 
 859 -9.88 -9.86 -9.77 
 860 -9.88 -9.86 -9.77 
 861 -9.88 -9.86 -9.77 
 862 -9.88 -9.86 -9.77 
 863 -9.88 -9.86 -9.77 
 864 -9.88 -9.86 -9.77 
 865 -9.88 -9.86 -9.77 
 866 -9.88 -9.86 -9.77 
 867 -9.88 -9.86 -9.77 
 868 -9.88 -9.85 -9.77 
 869 -9.88 -9.85 -9.77 
 870 -9.88 -9.85 -9.77 
 871 -9.87 -9.85 -9.77 
 872 -9.87 -9.84 -9.77 
 873 -9.86 -9.84 -9.77 
 874 -9.87 -9.84 -9.77 
 875 -9.87 -9.84 -9.77 
 876 -9.86 -9.83 -9.77 
 877 -9.86 -9.83 -9.77 
 878 -9.86 -9.84 -9.77 
 879 -9.86 -9.83 -9.77 
 880 -9.85 -9.83 -9.77 
 881 -9.86 -9.84 -9.77 
 882 -9.86 -9.84 -9.77 
 883 -9.86 -9.84 -9.77 
 884 -9.86 -9.83 -9.77 
 885 -9.86 -9.84 -9.77 
 886 -9.86 -9.84 -9.77 
 887 -9.86 -9.84 -9.77 
 888 -9.86 -9.84 -9.77 
 889 -9.86 -9.84 -9.77 
 890 -9.86 -9.84 -9.77 
 891 -9.86 -9.84 -9.77 
 892 -9.86 -9.84 -9.77 
 893 -9.86 -9.84 -9.77 
 894 -9.86 -9.84 -9.77 
 895 -9.86 -9.85 -9.77 
 896 -9.86 -9.84 -9.77 
 897 -9.86 -9.84 -9.77 
 898 -9.86 -9.84 -9.77 
 899 -9.87 -9.84 -9.77 
 900 -9.86 -9.84 -9.77 
 901 -9.87 -9.84 -9.77 
 902 -9.87 -9.84 -9.77 
 903 -9.87 -9.84 -9.77 
 904 -9.87 -9.84 -9.77 
 905 -9.86 -9.84 -9.77 
 906 -9.87 -9.84 -9.77 
 907 -9.86 -9.85 -9.77 
 908 -9.87 -9.85 -9.77 
 909 -9.87 -9.85 -9.77 
 910 -9.87 -9.86 -9.77 
 911 -9.88 -9.86 -9.77 
 912 -9.88 -9.87 -9.77 
 913 -9.89 -9.87 -9.77 
 914 -9.88 -9.87 -9.77 
 915 -9.88 -9.87 -9.77 
 916 -9.89 -9.87 -9.77 
 917 -9.89 -9.87 -9.77 
 918 -9.89 -9.87 -9.77 
 919 -9.89 -9.87 -9.77 
 920 -9.89 -9.87 -9.77 
 921 -9.89 -9.87 -9.77 
 922 -9.89 -9.87 -9.77 
 923 -9.88 -9.87 -9.77 
 924 -9.88 -9.87 -9.77 
 925 -9.89 -9.87 -9.77 
 926 -9.89 -9.86 -9.77 
 927 -9.88 -9.85 -9.77 
 928 -9.88 -9.85 -9.77 
 929 -9.87 -9.85 -9.77 
 930 -9.89 -9.85 -9.77 
 931 -9.88 -9.85 -9.77 
 932 -9.89 -9.85 -9.77 
 933 -9.89 -9.85 -9.77 
 934 -9.89 -9.89 -9.77 
 935 -9.92 -9.89 -9.77 
 936 -9.92 -9.89 -9.77 
 937 -9.92 -9.86 -9.77 
 938 -9.90 -9.85 -9.77 
 939 -9.89 -9.86 -9.77 
 940 -9.90 -9.89 -9.77 
 941 -9.92 -9.87 -9.77 
 942 -9.90 -9.87 -9.77 
 943 -9.90 -9.84 -9.77 
 944 -9.88 -9.84 -9.77 
 945 -9.87 -9.84 -9.77 
 946 -9.87 -9.84 -9.77 
 947 -9.86 -9.84 -9.77 
 948 -9.86 -9.84 -9.77 
 949 -9.86 -9.84 -9.77 
 950 -9.86 -9.85 -9.77 
 951 -9.86 -9.84 -9.77 
 952 -9.86 -9.85 -9.77 
 953 -9.87 -9.85 -9.77 
 954 -9.87 -9.84 -9.77 
 955 -9.88 -9.86 -9.77 
 956 -9.90 -9.87 -9.77 
 957 -9.91 -9.85 -9.77 
 958 -9.88 -9.84 -9.77 
 959 -9.87 -9.85 -9.77 
 960 -9.88 -9.85 -9.77 
 961 -9.89 -9.85 -9.77 
 962 -9.88 -9.85 -9.77 
 963 -9.87 -9.85 -9.77 
 964 -9.87 -9.86 -9.77 
 965 -9.88 -9.85 -9.77 
 966 -9.88 -9.86 -9.77 
 967 -9.88 -9.86 -9.77 
 968 -9.88 -9.86 -9.77 
 969 -9.88 -9.86 -9.77 
 970 -9.88 -9.86 -9.77 
 971 -9.88 -9.87 -9.77 
 972 -9.88 -9.86 -9.77 
 973 -9.88 -9.86 -9.77 
 974 -9.88 -9.86 -9.77 
 975 -9.88 -9.86 -9.77 
 976 -9.88 -9.86 -9.77 
 977 -9.88 -9.87 -9.77 
 978 -9.88 -9.87 -9.77 
 979 -9.88 -9.87 -9.77 
 980 -9.88 -9.86 -9.77 
 981 -9.88 -9.86 -9.77 
 982 -9.87 -9.86 -9.77 
 983 -9.87 -9.86 -9.77 
 984 -9.87 -9.86 -9.77 
 985 -9.87 -9.86 -9.77 
 986 -9.87 -9.86 -9.77 
 987 -9.86 -9.85 -9.77 
 988 -9.86 -9.85 -9.77 
 989 -9.86 -9.85 -9.77 
 990 -9.86 -9.85 -9.77 
 991 -9.86 -9.85 -9.77 
 992 -9.86 -9.85 -9.77 
 993 -9.86 -9.85 -9.77 
 994 -9.86 -9.85 -9.77 
 995 -9.86 -9.85 -9.77 
 996 -9.86 -9.85 -9.77 
 997 -9.86 -9.85 -9.77 
 998 -9.86 -9.85 -9.77 
 999 -9.86 -9.85 -9.77 
1000 -9.86 -9.85 -9.77 
1001 -9.86 -9.85 -9.77 
1002 -9.86 -9.85 -9.77 
1003 -9.86 -9.85 -9.77 
1004 -9.86 -9.84 -9.77 
1005 -9.86 -9.84 -9.77 
1006 -9.86 -9.84 -9.77 
1007 -9.86 -9.84 -9.77 
1008 -9.86 -9.84 -9.77 
1009 -9.86 -9.84 -9.77 
1010 -9.86 -9.84 -9.77 
1011 -9.86 -9.84 -9.77 
1012 -9.86 -9.84 -9.77 
1013 -9.86 -9.84 -9.77 
1014 -9.86 -9.84 -9.77 
1015 -9.86 -9.84 -9.77 
1016 -9.86 -9.84 -9.77 
1017 -9.86 -9.85 -9.77 
1018 -9.87 -9.85 -9.77 
1019 -9.88 -9.85 -9.77 
1020 -9.87 -9.85 -9.77 
1021 -9.88 -9.85 -9.77 
1022 -9.87 -9.84 -9.77 
1023 -9.87 -9.84 -9.77 
1024 -9.88 -9.84 -9.77 
1025 -9.89 -9.84 -9.77 
1026 -9.89 -9.85 -9.77 
1027 -9.89 -9.85 -9.77 
1028 -9.89 -9.86 -9.77 
1029 -9.90 -9.86 -9.77 
1030 -9.90 -9.85 -9.77 
1031 -9.88 -9.86 -9.77 
1032 -9.88 -9.86 -9.77 
1033 -9.87 -9.85 -9.77 
1034 -9.87 -9.86 -9.77 
1035 -9.88 -9.85 -9.77 
1036 -9.87 -9.85 -9.77 
1037 -9.88 -9.85 -9.77 
1038 -9.90 -9.85 -9.77 
1039 -9.88 -9.85 -9.77 
1040 -9.88 -9.85 -9.77 
1041 -9.87 -9.85 -9.77 
1042 -9.89 -9.85 -9.77 
1043 -9.88 -9.87 -9.77 
1044 -9.90 -9.86 -9.77 
1045 -9.90 -9.90 -9.77 
1046 -9.93 -9.95 -9.77 
1047 -9.97 -9.98 -9.77 
1048 -10.00 -10.03 -9.77 
1049 -10.05 -10.03 -9.77 
1050 -10.04 -9.97 -9.77 
1051 -10.00 -9.96 -9.77 
1052 -9.98 -9.98 -9.77 
1053 -10.00 -9.94 -9.77 
1054 -9.96 -9.93 -9.77 
1055 -9.95 -9.94 -9.77 
1056 -9.97 -9.93 -9.77 
1057 -9.97 -9.91 -9.77 
1058 -9.95 -9.94 -9.77 
1059 -9.97 -9.94 -9.77 
1060 -9.97 -9.89 -9.77 
1061 -9.92 -9.89 -9.77 
1062 -9.93 -9.87 -9.77 
1063 -9.91 -9.85 -9.77 
1064 -9.89 -9.85 -9.77 
1065 -9.89 -9.86 -9.77 
1066 -9.88 -9.85 -9.77 
1067 -9.89 -9.86 -9.77 
1068 -9.89 -9.86 -9.77 
1069 -9.89 -9.86 -9.77 
1070 -9.88 -9.85 -9.77 
1071 -9.88 -9.85 -9.77 
1072 -9.87 -9.85 -9.77 
1073 -9.88 -9.85 -9.77 
1074 -9.88 -9.85 -9.77 
1075 -9.88 -9.86 -9.77 
1076 -9.89 -9.86 -9.77 
1077 -9.88 -9.85 -9.77 
1078 -9.88 -9.86 -9.77 
1079 -9.88 -9.86 -9.77 
1080 -9.88 -9.85 -9.77 
1081 -9.88 -9.86 -9.77 
1082 -9.88 -9.86 -9.77 
1083 -9.89 -9.86 -9.77 
1084 -9.89 -9.86 -9.77 
1085 -9.88 -9.86 -9.77 
1086 -9.87 -9.87 -9.77 
1087 -9.88 -9.86 -9.77 
1088 -9.87 -9.87 -9.77 
1089 -9.88 -9.86 -9.77 
1090 -9.87 -9.86 -9.77 
1091 -9.88 -9.85 -9.77 
1092 -9.87 -9.86 -9.77 
1093 -9.87 -9.86 -9.77 
1094 -9.88 -9.86 -9.77 
1095 -9.87 -9.86 -9.77 
1096 -9.88 -9.85 -9.77 
1097 -9.87 -9.86 -9.77 
1098 -9.87 -9.86 -9.77 
1099 -9.88 -9.85 -9.77 
1100 -9.88 -9.85 -9.77 
1101 -9.88 -9.84 -9.77 
1102 -9.87 -9.85 -9.77 
1103 -9.88 -9.85 -9.77 
1104 -9.88 -9.86 -9.77 
1105 -9.88 -9.86 -9.77 
1106 -9.88 -9.85 -9.77 
1107 -9.87 -9.86 -9.77 
1108 -9.88 -9.86 -9.77 
1109 -9.87 -9.86 -9.77 
1110 -9.87 -9.86 -9.77 
1111 -9.87 -9.86 -9.77 
1112 -9.88 -9.85 -9.77 
1113 -9.87 -9.85 -9.77 
1114 -9.87 -9.85 -9.77 
1115 -9.87 -9.86 -9.77 
1116 -9.87 -9.86 -9.77 
1117 -9.87 -9.86 -9.77 
1118 -9.87 -9.85 -9.77 
1119 -9.86 -9.85 -9.77 
1120 -9.86 -9.85 -9.77 
1121 -9.86 -9.84 -9.77 
1122 -9.86 -9.84 -9.77 
1123 -9.87 -9.84 -9.77 
1124 -9.86 -9.84 -9.77 
1125 -9.86 -9.84 -9.77 
1126 -9.86 -9.84 -9.77 
1127 -9.86 -9.84 -9.77 
1128 -9.86 -9.86 -9.77 
1129 -9.88 -9.88 -9.77 
1130 -9.90 -9.86 -9.77 
1131 -9.88 -9.87 -9.77 
1132 -9.89 -9.88 -9.77 
1133 -9.90 -9.87 -9.77 
1134 -9.89 -9.86 -9.77 
1135 -9.88 -9.90 -9.77 
1136 -9.92 -9.91 -9.77 
1137 -9.93 -9.89 -9.77 
1138 -9.91 -9.90 -9.77 
1139 -9.91 -9.91 -9.77 
1140 -9.93 -9.88 -9.77 
1141 -9.90 -9.88 -9.77 
1142 -9.90 -9.86 -9.77 
1143 -9.88 -9.86 -9.77 
1144 -9.88 -9.85 -9.77 
1145 -9.87 -9.85 -9.77 
1146 -9.87 -9.84 -9.77 
1147 -9.86 -9.84 -9.77 
1148 -9.86 -9.84 -9.77 
1149 -9.86 -9.84 -9.77 
1150 -9.86 -9.84 -9.77 
1151 -9.86 -9.84 -9.77 
1152 -9.86 -9.84 -9.77 
1153 -9.86 -9.85 -9.77 
1154 -9.87 -9.86 -9.77 
1155 -9.87 -9.85 -9.77 
1156 -9.87 -9.86 -9.77 
1157 -9.88 -9.85 -9.77 
1158 -9.88 -9.85 -9.77 
1159 -9.86 -9.86 -9.77 
1160 -9.88 -9.85 -9.77 
1161 -9.87 -9.84 -9.77 
1162 -9.85 -9.84 -9.77 
1163 -9.86 -9.85 -9.77 
1164 -9.86 -9.85 -9.77 
1165 -9.86 -9.86 -9.77 
1166 -9.87 -9.86 -9.77 
1167 -9.88 -9.87 -9.77 
1168 -9.89 -9.86 -9.77 
1169 -9.88 -9.84 -9.77 
1170 -9.87 -9.84 -9.77 
1171 -9.87 -9.84 -9.77 
1172 -9.86 -9.84 -9.77 
1173 -9.86 -9.84 -9.77 
1174 -9.86 -9.84 -9.77 
1175 -9.86 -9.83 -9.77 
1176 -9.85 -9.83 -9.77 
1177 -9.86 -9.84 -9.77 
1178 -9.87 -9.83 -9.77 
1179 -9.85 -9.83 -9.77 
1180 -9.86 -9.84 -9.77 
1181 -9.86 -9.85 -9.77 
1182 -9.87 -9.85 -9.77 
1183 -9.86 -9.85 -9.77 
1184 -9.87 -9.85 -9.77 
1185 -9.86 -9.86 -9.77 
1186 -9.86 -9.86 -9.77 
1187 -9.86 -9.85 -9.77 
1188 -9.86 -9.85 -9.77 
1189 -9.86 -9.86 -9.77 
1190 -9.86 -9.85 -9.77 
1191 -9.85 -9.85 -9.77 
1192 -9.85 -9.85 -9.77 
1193 -9.86 -9.85 -9.77 
1194 -9.86 -9.85 -9.77 
1195 -9.86 -9.86 -9.77 
1196 -9.87 -9.85 -9.77 
1197 -9.87 -9.85 -9.77 
1198 -9.86 -9.84 -9.77 
1199 -9.85 -9.84 -9.77 
1200 -9.85 -9.84 -9.77 
1201 -9.85 -9.85 -9.77 
1202 -9.86 -9.84 -9.77 
1203 -9.85 -9.84 -9.77 
1204 -9.86 -9.84 -9.77 
1205 -9.85 -9.84 -9.77 
1206 -9.85 -9.84 -9.77 
1207 -9.85 -9.84 -9.77 
1208 -9.85 -9.84 -9.77 
1209 -9.85 -9.85 -9.77 
1210 -9.86 -9.85 -9.77 
1211 -9.86 -9.85 -9.77 
1212 -9.86 -9.85 -9.77 
1213 -9.86 -9.86 -9.77 
1214 -9.86 -9.86 -9.77 
1215 -9.86 -9.86 -9.77 
1216 -9.86 -9.86 -9.77 
1217 -9.86 -9.86 -9.77 
1218 -9.86 -9.86 -9.77 
1219 -9.86 -9.86 -9.77 
1220 -9.86 -9.87 -9.77 
1221 -9.87 -9.87 -9.77 
1222 -9.87 -9.87 -9.77 
1223 -9.86 -9.87 -9.77 
1224 -9.86 -9.86 -9.77 
1225 -9.86 -9.85 -9.77 
1226 -9.85 -9.85 -9.77 
1227 -9.85 -9.85 -9.77 
1228 -9.86 -9.85 -9.77 
1229 -9.86 -9.85 -9.77 
1230 -9.86 -9.84 -9.77 
1231 -9.86 -9.84 -9.77 
1232 -9.86 -9.85 -9.77 
1233 -9.87 -9.84 -9.77 
1234 -9.87 -9.86 -9.77 
1235 -9.88 -9.84 -9.77 
1236 -9.87 -9.83 -9.77 
1237 -9.85 -9.83 -9.77 
1238 -9.86 -9.83 -9.77 
1239 -9.85 -9.84 -9.77 
1240 -9.86 -9.84 -9.77 
1241 -9.86 -9.83 -9.77 
1242 -9.85 -9.84 -9.77 
1243 -9.86 -9.83 -9.77 
1244 -9.86 -9.84 -9.77 
1245 -9.86 -9.85 -9.77 
1246 -9.87 -9.85 -9.77 
1247 -9.87 -9.85 -9.77 
1248 -9.87 -9.87 -9.77 
1249 -9.88 -9.86 -9.77 
1250 -9.88 -9.86 -9.77 
1251 -9.87 -9.88 -9.77 
1252 -9.90 -9.87 -9.77 
1253 -9.89 -9.84 -9.77 
1254 -9.86 -9.83 -9.77 
1255 -9.85 -9.84 -9.77 
1256 -9.86 -9.85 -9.77 
1257 -9.87 -9.83 -9.77 
1258 -9.86 -9.82 -9.77 
1259 -9.85 -9.82 -9.77 
1260 -9.84 -9.81 -9.77 
1261 -9.84 -9.80 -9.77 
1262 -9.82 -9.81 -9.77 
1263 -9.82 -9.81 -9.77 
1264 -9.83 -9.82 -9.77 
1265 -9.84 -9.82 -9.77 
1266 -9.84 -9.82 -9.77 
1267 -9.84 -9.83 -9.77 
1268 -9.84 -9.83 -9.77 
1269 -9.85 -9.83 -9.77 
1270 -9.85 -9.82 -9.77 
1271 -9.84 -9.83 -9.77 
1272 -9.84 -9.83 -9.77 
1273 -9.84 -9.83 -9.77 
1274 -9.84 -9.82 -9.77 
1275 -9.84 -9.83 -9.77 
1276 -9.85 -9.83 -9.77 
1277 -9.85 -9.83 -9.77 
1278 -9.85 -9.83 -9.77 
1279 -9.84 -9.83 -9.77 
1280 -9.84 -9.82 -9.77 
1281 -9.84 -9.82 -9.77 
1282 -9.84 -9.82 -9.77 
1283 -9.84 -9.83 -9.77 
1284 -9.84 -9.83 -9.77 
1285 -9.85 -9.82 -9.77 
1286 -9.84 -9.82 -9.77 
1287 -9.84 -9.82 -9.77 
1288 -9.83 -9.82 -9.77 
1289 -9.84 -9.82 -9.77 
1290 -9.84 -9.82 -9.77 
1291 -9.84 -9.82 -9.77 
1292 -9.84 -9.82 -9.77 
1293 -9.84 -9.83 -9.77 
1294 -9.84 -9.83 -9.77 
1295 -9.85 -9.83 -9.77 
1296 -9.85 -9.82 -9.77 
1297 -9.85 -9.82 -9.77 
1298 -9.84 -9.82 -9.77 
1299 -9.84 -9.82 -9.77 
1300 -9.84 -9.82 -9.77 
1301 -9.84 -9.82 -9.77 
1302 -9.84 -9.83 -9.77 
1303 -9.85 -9.83 -9.77 
1304 -9.84 -9.83 -9.77 
1305 -9.85 -9.83 -9.77 
1306 -9.85 -9.83 -9.77 
1307 -9.85 -9.84 -9.77 
1308 -9.86 -9.84 -9.77 
1309 -9.86 -9.84 -9.77 
1310 -9.86 -9.84 -9.77 
1311 -9.87 -9.84 -9.77 
1312 -9.86 -9.84 -9.77 
1313 -9.86 -9.84 -9.77 
1314 -9.86 -9.84 -9.77 
1315 -9.88 -9.84 -9.77 
1316 -9.88 -9.86 -9.77 
1317 -9.89 -9.83 -9.77 
1318 -9.87 -9.85 -9.77 
1319 -9.88 -9.90 -9.77 
1320 -9.92 -9.89 -9.77 
1321 -9.91 -9.92 -9.77 
1322 -9.93 -9.91 -9.77 
1323 -9.92 -9.89 -9.77 
1324 -9.91 -9.89 -9.77 
1325 -9.91 -9.84 -9.77 
1326 -9.86 -9.84 -9.77 
1327 -9.87 -9.84 -9.77 
1328 -9.88 -9.84 -9.77 
1329 -9.86 -9.84 -9.77 
1330 -9.86 -9.84 -9.77 
1331 -9.85 -9.83 -9.77 
1332 -9.85 -9.84 -9.77 
1333 -9.86 -9.84 -9.77 
1334 -9.85 -9.84 -9.77 
1335 -9.86 -9.84 -9.77 
1336 -9.86 -9.84 -9.77 
1337 -9.86 -9.84 -9.77 
1338 -9.86 -9.84 -9.77 
1339 -9.86 -9.85 -9.77 
1340 -9.86 -9.85 -9.77 
1341 -9.86 -9.85 -9.77 
1342 -9.86 -9.85 -9.77 
1343 -9.86 -9.85 -9.77 
1344 -9.86 -9.85 -9.77 
1345 -9.86 -9.85 -9.77 
1346 -9.86 -9.84 -9.77 
1347 -9.86 -9.84 -9.77 
1348 -9.86 -9.84 -9.77 
1349 -9.85 -9.84 -9.77 
1350 -9.86 -9.84 -9.77 
1351 -9.87 -9.84 -9.77 
1352 -9.87 -9.84 -9.77 
1353 -9.87 -9.85 -9.77 
1354 -9.87 -9.84 -9.77 
1355 -9.86 -9.84 -9.77 
1356 -9.87 -9.83 -9.77 
1357 -9.86 -9.83 -9.77 
1358 -9.86 -9.83 -9.77 
1359 -9.86 -9.85 -9.77 
1360 -9.88 -9.84 -9.77 
1361 -9.87 -9.84 -9.77 
1362 -9.87 -9.84 -9.77 
1363 -9.87 -9.84 -9.77 
1364 -9.87 -9.84 -9.77 
1365 -9.87 -9.84 -9.77 
1366 -9.87 -9.84 -9.77 
1367 -9.87 -9.84 -9.77 
1368 -9.87 -9.84 -9.77 
1369 -9.87 -9.84 -9.77 
1370 -9.87 -9.84 -9.77 
1371 -9.87 -9.84 -9.77 
1372 -9.87 -9.83 -9.77 
1373 -9.86 -9.83 -9.77 
1374 -9.86 -9.83 -9.77 
1375 -9.86 -9.83 -9.77 
1376 -9.86 -9.84 -9.77 
1377 -9.87 -9.84 -9.77 
1378 -9.87 -9.84 -9.77 
1379 -9.87 -9.84 -9.77 
1380 -9.88 -9.84 -9.77 
1381 -9.89 -9.84 -9.77 
1382 -9.89 -9.84 -9.77 
1383 -9.88 -9.84 -9.77 
1384 -9.87 -9.84 -9.77 
1385 -9.87 -9.84 -9.77 
1386 -9.87 -9.84 -9.77 
1387 -9.87 -9.84 -9.77 
1388 -9.88 -9.84 -9.77 
1389 -9.88 -9.84 -9.77 
1390 -9.87 -9.84 -9.77 
1391 -9.88 -9.84 -9.77 
1392 -9.87 -9.84 -9.77 
1393 -9.87 -9.84 -9.77 
1394 -9.87 -9.84 -9.77 
1395 -9.87 -9.85 -9.77 
1396 -9.87 -9.84 -9.77 
1397 -9.87 -9.84 -9.77 
1398 -9.87 -9.84 -9.77 
1399 -9.87 -9.84 -9.77 
1400 -9.86 -9.84 -9.77 
1401 -9.86 -9.84 -9.77 
1402 -9.86 -9.84 -9.77 
1403 -9.86 -9.85 -9.77 
1404 -9.87 -9.85 -9.77 
1405 -9.87 -9.84 -9.77 
1406 -9.86 -9.84 -9.77 
1407 -9.86 -9.84 -9.77 
1408 -9.87 -9.84 -9.77 
1409 -9.87 -9.85 -9.77 
1410 -9.87 -9.85 -9.77 
1411 -9.88 -9.86 -9.77 
1412 -9.89 -9.85 -9.77 
1413 -9.88 -9.85 -9.77 
1414 -9.88 -9.85 -9.77 
1415 -9.88 -9.86 -9.77 
1416 -9.89 -9.85 -9.77 
1417 -9.88 -9.85 -9.77 
1418 -9.88 -9.85 -9.77 
1419 -9.88 -9.85 -9.77 
1420 -9.88 -9.86 -9.77 
1421 -9.89 -9.86 -9.77 
1422 -9.90 -9.87 -9.77 
1423 -9.90 -9.88 -9.77 
1424 -9.92 -9.87 -9.77 
1425 -9.90 -9.88 -9.77 
1426 -9.91 -9.88 -9.77 
1427 -9.91 -9.88 -9.77 
1428 -9.91 -9.87 -9.77 
1429 -9.90 -9.86 -9.77 
1430 -9.90 -9.86 -9.77 
1431 -9.90 -9.87 -9.77 
1432 -9.90 -9.87 -9.77 
1433 -9.90 -9.87 -9.77 
1434 -9.89 -9.87 -9.77 
1435 -9.90 -9.86 -9.77 
1436 -9.89 -9.86 -9.77 
1437 -9.89 -9.86 -9.77 
1438 -9.89 -9.86 -9.77 
1439 -9.89 -9.86 -9.77 
1440 -9.89 -9.88 -9.77 
1441 -9.90 -9.86 -9.77 
1442 -9.89 -9.85 -9.77 
1443 -9.88 -9.85 -9.77 
1444 -9.88 -9.85 -9.77 
1445 -9.87 -9.85 -9.77 
1446 -9.88 -9.84 -9.77 
1447 -9.87 -9.85 -9.77 
1448 -9.87 -9.85 -9.77 
1449 -9.87 -9.85 -9.77 
1450 -9.87 -9.85 -9.77 
1451 -9.88 -9.85 -9.77 
1452 -9.87 -9.85 -9.77 
1453 -9.87 -9.86 -9.77 
1454 -9.87 -9.86 -9.77 
1455 -9.88 -9.85 -9.77 
1456 -9.87 -9.85 -9.77 
1457 -9.87 -9.84 -9.77 
1458 -9.87 -9.85 -9.77 
1459 -9.87 -9.84 -9.77 
1460 -9.87 -9.84 -9.77 
1461 -9.87 -9.83 -9.77 
1462 -9.86 -9.83 -9.77 
1463 -9.86 -9.83 -9.77 
1464 -9.86 -9.83 -9.77 
1465 -9.86 -9.83 -9.77 
1466 -9.86 -9.84 -9.77 
1467 -9.87 -9.83 -9.77 
1468 -9.86 -9.84 -9.77 
1469 -9.86 -9.83 -9.77 
1470 -9.86 -9.83 -9.77 
1471 -9.86 -9.83 -9.77 
1472 -9.86 -9.84 -9.77 
1473 -9.86 -9.84 -9.77 
1474 -9.86 -9.84 -9.77 
1475 -9.86 -9.84 -9.77 
1476 -9.86 -9.84 -9.77 
1477 -9.86 -9.84 -9.77 
1478 -9.86 -9.84 -9.77 
1479 -9.86 -9.83 -9.77 
1480 -9.86 -9.83 -9.77 
1481 -9.85 -9.84 -9.77 
1482 -9.86 -9.84 -9.77 
1483 -9.86 -9.83 -9.77 
1484 -9.85 -9.83 -9.77 
1485 -9.85 -9.83 -9.77 
1486 -9.85 -9.83 -9.77 
1487 -9.85 -9.83 -9.77 
1488 -9.85 -9.82 -9.77 
1489 -9.85 -9.82 -9.77 
1490 -9.84 -9.82 -9.77 
1491 -9.84 -9.82 -9.77 
1492 -9.84 -9.82 -9.77 
1493 -9.84 -9.82 -9.77 
1494 -9.84 -9.82 -9.77 
1495 -9.84 -9.82 -9.77 
1496 -9.84 -9.82 -9.77 
1497 -9.84 -9.82 -9.77 
1498 -9.84 -9.82 -9.77 
1499 -9.84 -9.82 -9.77 
1500 -9.84 -9.83 -9.77 
1501 -9.85 -9.82 -9.77 
1502 -9.84 -9.82 -9.77 
1503 -9.84 -9.82 -9.77 
1504 -9.84 -9.82 -9.77 
1505 -9.84 -9.82 -9.77 
1506 -9.84 -9.82 -9.77 
1507 -9.85 -9.83 -9.77 
1508 -9.85 -9.83 -9.77 
1509 -9.85 -9.82 -9.77 
1510 -9.85 -9.83 -9.77 
1511 -9.85 -9.83 -9.77 
1512 -9.85 -9.83 -9.77 
1513 -9.85 -9.82 -9.77 
1514 -9.85 -9.82 -9.77 
1515 -9.85 -9.82 -9.77 
1516 -9.85 -9.82 -9.77 
1517 -9.85 -9.83 -9.77 
1518 -9.86 -9.82 -9.77 
1519 -9.85 -9.82 -9.77 
1520 -9.85 -9.82 -9.77 
1521 -9.85 -9.82 -9.77 
1522 -9.85 -9.82 -9.77 
1523 -9.84 -9.82 -9.77 
1524 -9.84 -9.82 -9.77 
1525 -9.85 -9.82 -9.77 
1526 -9.85 -9.82 -9.77 
1527 -9.85 -9.82 -9.77 
1528 -9.85 -9.82 -9.77 
1529 -9.84 -9.82 -9.77 
1530 -9.84 -9.82 -9.77 
1531 -9.84 -9.82 -9.77 
1532 -9.84 -9.82 -9.77 
1533 -9.84 -9.82 -9.77 
1534 -9.84 -9.82 -9.77 
1535 -9.84 -9.82 -9.77 
1536 -9.84 -9.82 -9.77 
1537 -9.84 -9.83 -9.77 
1538 -9.84 -9.83 -9.77 
1539 -9.84 -9.82 -9.77 
1540 -9.84 -9.82 -9.77 
1541 -9.84 -9.82 -9.77 
1542 -9.84 -9.82 -9.77 
1543 -9.84 -9.82 -9.77 
1544 -9.83 -9.82 -9.77 
1545 -9.84 -9.81 -9.77 
1546 -9.83 -9.81 -9.77 
1547 -9.83 -9.82 -9.77 
1548 -9.84 -9.81 -9.77 
1549 -9.83 -9.81 -9.77 
1550 -9.83 -9.80 -9.77 
1551 -9.83 -9.81 -9.77 
1552 -9.83 -9.81 -9.77 
1553 -9.83 -9.81 -9.77 
1554 -9.83 -9.81 -9.77 
1555 -9.83 -9.82 -9.77 
1556 -9.84 -9.82 -9.77 
1557 -9.84 -9.82 -9.77 
1558 -9.84 -9.82 -9.77 
1559 -9.84 -9.82 -9.77 
1560 -9.84 -9.82 -9.77 
1561 -9.84 -9.82 -9.77 
1562 -9.84 -9.82 -9.77 
1563 -9.84 -9.82 -9.77 
1564 -9.84 -9.82 -9.77 
1565 -9.84 -9.82 -9.77 
1566 -9.84 -9.82 -9.77 
1567 -9.84 -9.82 -9.77 
1568 -9.84 -9.82 -9.77 
1569 -9.84 -9.82 -9.77 
1570 -9.84 -9.82 -9.77 
1571 -9.85 -9.82 -9.77 
1572 -9.86 -9.82 -9.77 
1573 -9.86 -9.81 -9.77 
1574 -9.85 -9.81 -9.77 
1575 -9.83 -9.81 -9.77 
1576 -9.83 -9.81 -9.77 
1577 -9.83 -9.80 -9.77 
1578 -9.83 -9.81 -9.77 
1579 -9.83 -9.81 -9.77 
1580 -9.83 -9.81 -9.77 
1581 -9.84 -9.81 -9.77 
1582 -9.84 -9.81 -9.77 
1583 -9.84 -9.81 -9.77 
1584 -9.85 -9.82 -9.77 
1585 -9.85 -9.82 -9.77 
1586 -9.85 -9.82 -9.77 
1587 -9.85 -9.82 -9.77 
1588 -9.85 -9.82 -9.77 
1589 -9.85 -9.82 -9.77 
1590 -9.85 -9.82 -9.77 
1591 -9.85 -9.82 -9.77 
1592 -9.85 -9.82 -9.77 
1593 -9.85 -9.82 -9.77 
1594 -9.85 -9.82 -9.77 
1595 -9.85 -9.83 -9.77 
1596 -9.86 -9.83 -9.77 
1597 -9.87 -9.83 -9.77 
1598 -9.86 -9.84 -9.77 
1599 -9.87 -9.83 -9.77 
1600 -9.86 -9.83 -9.77 
1601 -9.87 -9.84 -9.77 
1602 -9.86 -9.84 -9.77 
1603 -9.87 -9.84 -9.77 
1604 -9.87 -9.84 -9.77 
1605 -9.86 -9.84 -9.77 
1606 -9.86 -9.84 -9.77 
1607 -9.86 -9.85 -9.77 
1608 -9.86 -9.85 -9.77 
1609 -9.87 -9.85 -9.77 
1610 -9.86 -9.85 -9.77 
1611 -9.87 -9.85 -9.77 
1612 -9.87 -9.85 -9.77 
1613 -9.87 -9.86 -9.77 
1614 -9.87 -9.85 -9.77 
1615 -9.87 -9.86 -9.77 
1616 -9.87 -9.86 -9.77 
1617 -9.87 -9.86 -9.77 
1618 -9.87 -9.86 -9.77 
1619 -9.88 -9.86 -9.77 
1620 -9.88 -9.86 -9.77 
1621 -9.88 -9.86 -9.77 
1622 -9.87 -9.87 -9.77 
1623 -9.88 -9.86 -9.77 
1624 -9.88 -9.87 -9.77 
1625 -9.88 -9.87 -9.77 
1626 -9.89 -9.88 -9.77 
1627 -9.89 -9.87 -9.77 
1628 -9.89 -9.87 -9.77 
1629 -9.88 -9.86 -9.77 
1630 -9.89 -9.87 -9.77 
1631 -9.89 -9.86 -9.77 
1632 -9.89 -9.87 -9.77 
1633 -9.88 -9.87 -9.77 
1634 -9.89 -9.88 -9.77 
1635 -9.89 -9.88 -9.77 
1636 -9.90 -9.88 -9.77 
1637 -9.90 -9.89 -9.77 
1638 -9.91 -9.89 -9.77 
1639 -9.91 -9.88 -9.77 
1640 -9.90 -9.88 -9.77 
1641 -9.90 -9.89 -9.77 
1642 -9.90 -9.89 -9.77 
1643 -9.91 -9.89 -9.77 
1644 -9.90 -9.88 -9.77 
1645 -9.90 -9.88 -9.77 
1646 -9.89 -9.88 -9.77 
1647 -9.89 -9.88 -9.77 
1648 -9.90 -9.89 -9.77 
1649 -9.90 -9.88 -9.77 
1650 -9.89 -9.88 -9.77 
1651 -9.89 -9.87 -9.77 
1652 -9.89 -9.87 -9.77 
1653 -9.89 -9.88 -9.77 
1654 -9.90 -9.88 -9.77 
1655 -9.89 -9.87 -9.77 
1656 -9.89 -9.87 -9.77 
1657 -9.89 -9.87 -9.77 
1658 -9.89 -9.87 -9.77 
1659 -9.88 -9.87 -9.77 
1660 -9.89 -9.88 -9.77 
1661 -9.89 -9.87 -9.77 
1662 -9.88 -9.86 -9.77 
1663 -9.88 -9.86 -9.77 
1664 -9.88 -9.86 -9.77 
1665 -9.87 -9.86 -9.77 
1666 -9.88 -9.86 -9.77 
1667 -9.88 -9.86 -9.77 
1668 -9.87 -9.86 -9.77 
1669 -9.87 -9.86 -9.77 
1670 -9.87 -9.86 -9.77 
1671 -9.87 -9.86 -9.77 
1672 -9.87 -9.85 -9.77 
1673 -9.87 -9.86 -9.77 
1674 -9.87 -9.86 -9.77 
1675 -9.87 -9.85 -9.77 
1676 -9.86 -9.84 -9.77 
1677 -9.85 -9.83 -9.77 
1678 -9.85 -9.83 -9.77 
1679 -9.84 -9.83 -9.77 
1680 -9.84 -9.83 -9.77 
1681 -9.84 -9.84 -9.77 
1682 -9.85 -9.85 -9.77 
1683 -9.86 -9.84 -9.77 
1684 -9.85 -9.84 -9.77 
1685 -9.85 -9.84 -9.77 
1686 -9.85 -9.84 -9.77 
1687 -9.85 -9.84 -9.77 
1688 -9.85 -9.83 -9.77 
1689 -9.85 -9.84 -9.77 
1690 -9.85 -9.83 -9.77 
1691 -9.85 -9.83 -9.77 
1692 -9.85 -9.84 -9.77 
1693 -9.85 -9.83 -9.77 
1694 -9.85 -9.83 -9.77 
1695 -9.85 -9.83 -9.77 
1696 -9.84 -9.83 -9.77 
1697 -9.84 -9.83 -9.77 
1698 -9.84 -9.83 -9.77 
1699 -9.84 -9.82 -9.77 
1700 -9.84 -9.82 -9.77 
1701 -9.84 -9.82 -9.77 
1702 -9.84 -9.82 -9.77 
1703 -9.84 -9.82 -9.77 
1704 -9.84 -9.83 -9.77 
1705 -9.84 -9.83 -9.77 
1706 -9.85 -9.82 -9.77 
1707 -9.84 -9.82 -9.77 
1708 -9.84 -9.83 -9.77 
1709 -9.84 -9.82 -9.77 
1710 -9.84 -9.83 -9.77 
1711 -9.84 -9.83 -9.77 
1712 -9.84 -9.83 -9.77 
1713 -9.84 -9.82 -9.77 
1714 -9.84 -9.82 -9.77 
1715 -9.84 -9.82 -9.77 
1716 -9.83 -9.82 -9.77 
1717 -9.83 -9.82 -9.77 
1718 -9.83 -9.82 -9.77 
1719 -9.83 -9.82 -9.77 
1720 -9.83 -9.81 -9.77 
1721 -9.82 -9.81 -9.77 
1722 -9.82 -9.81 -9.77 
1723 -9.82 -9.81 -9.77 
1724 -9.82 -9.81 -9.77 
1725 -9.82 -9.82 -9.77 
1726 -9.83 -9.82 -9.77 
1727 -9.83 -9.82 -9.77 
1728 -9.83 -9.82 -9.77 
1729 -9.83 -9.82 -9.77 
1730 -9.83 -9.81 -9.77 
1731 -9.83 -9.81 -9.77 
1732 -9.82 -9.81 -9.77 
1733 -9.82 -9.81 -9.77 
1734 -9.82 -9.81 -9.77 
1735 -9.82 -9.81 -9.77 
1736 -9.82 -9.81 -9.77 
1737 -9.83 -9.81 -9.77 
1738 -9.83 -9.81 -9.77 
1739 -9.83 -9.81 -9.77 
1740 -9.82 -9.81 -9.77 
1741 -9.83 -9.82 -9.77 
1742 -9.84 -9.81 -9.77 
1743 -9.84 -9.82 -9.77 
1744 -9.85 -9.83 -9.77 
1745 -9.85 -9.84 -9.77 
1746 -9.86 -9.85 -9.77 
1747 -9.86 -9.84 -9.77 
1748 -9.86 -9.83 -9.77 
1749 -9.85 -9.84 -9.77 
1750 -9.86 -9.82 -9.77 
1751 -9.85 -9.82 -9.77 
1752 -9.85 -9.82 -9.77 
1753 -9.84 -9.84 -9.77 
1754 -9.86 -9.83 -9.77 
1755 -9.85 -9.83 -9.77 
1756 -9.85 -9.84 -9.77 
1757 -9.86 -9.85 -9.77 
1758 -9.87 -9.86 -9.77 
1759 -9.88 -9.85 -9.77 
1760 -9.87 -9.85 -9.77 
1761 -9.87 -9.84 -9.77 
1762 -9.87 -9.84 -9.77 
1763 -9.86 -9.84 -9.77 
1764 -9.87 -9.84 -9.77 
1765 -9.87 -9.84 -9.77 
1766 -9.86 -9.82 -9.77 
1767 -9.85 -9.83 -9.77 
1768 -9.85 -9.83 -9.77 
1769 -9.85 -9.82 -9.77 
1770 -9.84 -9.82 -9.77 
1771 -9.84 -9.82 -9.77 
1772 -9.84 -9.82 -9.77 
1773 -9.83 -9.82 -9.77 
1774 -9.84 -9.82 -9.77 
1775 -9.83 -9.82 -9.77 
1776 -9.84 -9.82 -9.77 
1777 -9.84 -9.81 -9.77 
1778 -9.83 -9.82 -9.77 
1779 -9.84 -9.82 -9.77 
1780 -9.85 -9.83 -9.77 
1781 -9.85 -9.83 -9.77 
1782 -9.85 -9.84 -9.77 
1783 -9.86 -9.83 -9.77 
1784 -9.85 -9.83 -9.77 
1785 -9.85 -9.84 -9.77 
1786 -9.85 -9.84 -9.77 
1787 -9.85 -9.84 -9.77 
1788 -9.86 -9.84 -9.77 
1789 -9.86 -9.84 -9.77 
1790 -9.86 -9.84 -9.77 
1791 -9.85 -9.84 -9.77 
1792 -9.86 -9.84 -9.77 
1793 -9.86 -9.84 -9.77 
1794 -9.85 -9.84 -9.77 
1795 -9.86 -9.83 -9.77 
1796 -9.85 -9.83 -9.77 
1797 -9.85 -9.83 -9.77 
1798 -9.85 -9.83 -9.77 
1799 -9.85 -9.83 -9.77 
1800 -9.85 -9.83 -9.77 
1801 -9.85 -9.83 -9.77 
1802 -9.85 -9.82 -9.77 
1803 -9.85 -9.82 -9.77 
1804 -9.85 -9.83 -9.77 
1805 -9.85 -9.82 -9.77 
1806 -9.84 -9.82 -9.77 
1807 -9.84 -9.81 -9.77 
1808 -9.83 -9.81 -9.77 
1809 -9.83 -9.82 -9.77 
1810 -9.83 -9.82 -9.77 
1811 -9.83 -9.82 -9.77 
1812 -9.83 -9.83 -9.77 
1813 -9.84 -9.83 -9.77 
1814 -9.84 -9.83 -9.77 
1815 -9.85 -9.83 -9.77 
1816 -9.84 -9.83 -9.77 
1817 -9.84 -9.83 -9.77 
1818 -9.84 -9.84 -9.77 
1819 -9.85 -9.84 -9.77 
1820 -9.86 -9.83 -9.77 
1821 -9.85 -9.82 -9.77 
1822 -9.85 -9.82 -9.77 
1823 -9.85 -9.82 -9.77 
1824 -9.84 -9.81 -9.77 
1825 -9.83 -9.82 -9.77 
1826 -9.84 -9.82 -9.77 
1827 -9.83 -9.82 -9.77 
1828 -9.84 -9.82 -9.77 
1829 -9.84 -9.82 -9.77 
1830 -9.84 -9.82 -9.77 
1831 -9.84 -9.82 -9.77 
1832 -9.84 -9.82 -9.77 
1833 -9.84 -9.82 -9.77 
1834 -9.84 -9.83 -9.77 
1835 -9.84 -9.83 -9.77 
1836 -9.85 -9.83 -9.77 
1837 -9.85 -9.83 -9.77 
1838 -9.85 -9.82 -9.77 
1839 -9.84 -9.82 -9.77 
1840 -9.84 -9.82 -9.77 
1841 -9.84 -9.82 -9.77 
1842 -9.83 -9.82 -9.77 
1843 -9.84 -9.82 -9.77 
1844 -9.84 -9.83 -9.77 
1845 -9.86 -9.82 -9.77 
1846 -9.84 -9.81 -9.77 
1847 -9.83 -9.81 -9.77 
1848 -9.83 -9.81 -9.77 
1849 -9.83 -9.81 -9.77 
1850 -9.83 -9.81 -9.77 
1851 -9.82 -9.81 -9.77 
1852 -9.83 -9.81 -9.77 
1853 -9.82 -9.80 -9.77 
1854 -9.82 -9.81 -9.77 
1855 -9.83 -9.81 -9.77 
1856 -9.83 -9.80 -9.77 
1857 -9.82 -9.80 -9.77 
1858 -9.82 -9.80 -9.77 
1859 -9.83 -9.82 -9.77 
1860 -9.84 -9.81 -9.77 
1861 -9.83 -9.81 -9.77 
1862 -9.83 -9.80 -9.77 
1863 -9.82 -9.80 -9.77 
1864 -9.82 -9.80 -9.77 
1865 -9.82 -9.79 -9.77 
1866 -9.81 -9.80 -9.77 
1867 -9.82 -9.80 -9.77 
1868 -9.82 -9.80 -9.77 
1869 -9.82 -9.80 -9.77 
1870 -9.82 -9.80 -9.77 
1871 -9.82 -9.80 -9.77 
1872 -9.82 -9.80 -9.77 
1873 -9.82 -9.81 -9.77 
1874 -9.82 -9.80 -9.77 
1875 -9.82 -9.80 -9.77 
1876 -9.81 -9.80 -9.77 
1877 -9.81 -9.80 -9.77 
1878 -9.82 -9.80 -9.77 
1879 -9.81 -9.81 -9.77 
1880 -9.83 -9.81 -9.77 
1881 -9.82 -9.81 -9.77 
1882 -9.83 -9.81 -9.77 
1883 -9.83 -9.80 -9.77 
1884 -9.82 -9.80 -9.77 
1885 -9.82 -9.80 -9.77 
1886 -9.82 -9.80 -9.77 
1887 -9.82 -9.80 -9.77 
1888 -9.81 -9.80 -9.77 
1889 -9.81 -9.80 -9.77 
1890 -9.81 -9.79 -9.77 
1891 -9.81 -9.79 -9.77 
1892 -9.80 -9.79 -9.77 
1893 -9.81 -9.79 -9.77 
1894 -9.81 -9.79 -9.77 
1895 -9.81 -9.79 -9.77 
1896 -9.82 -9.78 -9.77 
1897 -9.81 -9.78 -9.77 
1898 -9.81 -9.78 -9.77 
1899 -9.81 -9.78 -9.77 
1900 -9.82 -9.79 -9.77 
1901 -9.82 -9.79 -9.77 
1902 -9.82 -9.79 -9.77 
1903 -9.82 -9.79 -9.77 
1904 -9.81 -9.78 -9.77 
1905 -9.81 -9.78 -9.77 
1906 -9.81 -9.78 -9.77 
1907 -9.81 -9.79 -9.77 
1908 -9.81 -9.79 -9.77 
1909 -9.81 -9.79 -9.77 
1910 -9.81 -9.79 -9.77 
1911 -9.81 -9.78 -9.77 
1912 -9.81 -9.78 -9.77 
1913 -9.82 -9.78 -9.77 
1914 -9.81 -9.78 -9.77 
1915 -9.81 -9.79 -9.77 
1916 -9.81 -9.78 -9.77 
1917 -9.81 -9.78 -9.77 
1918 -9.81 -9.79 -9.77 
1919 -9.82 -9.80 -9.77 
1920 -9.82 -9.80 -9.77 
1921 -9.82 -9.80 -9.77 
1922 -9.82 -9.81 -9.77 
1923 -9.82 -9.82 -9.77 
1924 -9.84 -9.82 -9.77 
1925 -9.84 -9.82 -9.77 
1926 -9.83 -9.82 -9.77 
1927 -9.83 -9.82 -9.77 
1928 -9.83 -9.82 -9.77 
1929 -9.84 -9.82 -9.77 
1930 -9.84 -9.81 -9.77 
1931 -9.83 -9.81 -9.77 
1932 -9.83 -9.82 -9.77 
1933 -9.83 -9.81 -9.77 
1934 -9.83 -9.81 -9.77 
1935 -9.83 -9.82 -9.77 
1936 -9.83 -9.83 -9.77 
1937 -9.84 -9.84 -9.77 
1938 -9.85 -9.84 -9.77 
1939 -9.85 -9.84 -9.77 
1940 -9.86 -9.84 -9.77 
1941 -9.86 -9.83 -9.77 
1942 -9.85 -9.84 -9.77 
1943 -9.85 -9.84 -9.77 
1944 -9.86 -9.84 -9.77 
1945 -9.85 -9.84 -9.77 
1946 -9.86 -9.85 -9.77 
1947 -9.87 -9.84 -9.77 
1948 -9.86 -9.83 -9.77 
1949 -9.85 -9.83 -9.77 
1950 -9.85 -9.82 -9.77 
1951 -9.83 -9.82 -9.77 
1952 -9.84 -9.82 -9.77 
1953 -9.84 -9.81 -9.77 
1954 -9.84 -9.81 -9.77 
1955 -9.83 -9.81 -9.77 
1956 -9.84 -9.81 -9.77 
1957 -9.84 -9.81 -9.77 
1958 -9.83 -9.81 -9.77 
1959 -9.82 -9.81 -9.77 
1960 -9.83 -9.81 -9.77 
1961 -9.82 -9.81 -9.77 
1962 -9.83 -9.81 -9.77 
1963 -9.83 -9.81 -9.77 
1964 -9.82 -9.81 -9.77 
1965 -9.83 -9.81 -9.77 
1966 -9.83 -9.81 -9.77 
1967 -9.83 -9.81 -9.77 
1968 -9.83 -9.82 -9.77 
1969 -9.83 -9.82 -9.77 
1970 -9.84 -9.82 -9.77 
1971 -9.83 -9.82 -9.77 
1972 -9.84 -9.82 -9.77 
1973 -9.84 -9.81 -9.77 
1974 -9.84 -9.81 -9.77 
1975 -9.84 -9.81 -9.77 
1976 -9.83 -9.80 -9.77 
1977 -9.82 -9.80 -9.77 
1978 -9.83 -9.79 -9.77 
1979 -9.82 -9.79 -9.77 
1980 -9.81 -9.79 -9.77 
1981 -9.82 -9.79 -9.77 
1982 -9.82 -9.80 -9.77 
1983 -9.82 -9.79 -9.77 
1984 -9.82 -9.79 -9.77 
1985 -9.81 -9.78 -9.77 
1986 -9.81 -9.78 -9.77 
1987 -9.81 -9.78 -9.77 
1988 -9.81 -9.78 -9.77 
1989 -9.82 -9.78 -9.77 
1990 -9.81 -9.78 -9.77 
1991 -9.81 -9.78 -9.77 
1992 -9.81 -9.78 -9.77 
1993 -9.81 -9.78 -9.77 
1994 -9.81 -9.78 -9.77 
1995 -9.81 -9.78 -9.77 
1996 -9.81 -9.79 -9.77 
1997 -9.81 -9.79 -9.77 
1998 -9.82 -9.79 -9.77 
1999 -9.82 -9.78 -9.77 
2000 -9.81 -9.79 -9.77 
2001 -9.81 -9.79 -9.77 
2002 -9.81 -9.79 -9.77 
2003 -9.81 -9.78 -9.77 
2004 -9.81 -9.79 -9.77 
2005 -9.81 -9.78 -9.77 
2006 -9.81 -9.78 -9.77 
2007 -9.81 -9.78 -9.77 
2008 -9.81 -9.78 -9.77 
2009 -9.81 -9.78 -9.77 
2010 -9.81 -9.78 -9.77 
2011 -9.81 -9.78 -9.77 
2012 -9.81 -9.78 -9.77 
2013 -9.81 -9.78 -9.77 
2014 -9.81 -9.77 -9.77 
2015 -9.81 -9.77 -9.77 
2016 -9.81 -9.78 -9.77 
2017 -9.81 -9.77 -9.77 
2018 -9.81 -9.77 -9.77 
2019 -9.81 -9.78 -9.77 
2020 -9.81 -9.78 -9.77 
2021 -9.82 -9.78 -9.77 
2022 -9.82 -9.78 -9.77 
2023 -9.81 -9.77 -9.77 
2024 -9.81 -9.78 -9.77 
2025 -9.81 -9.78 -9.77 
2026 -9.82 -9.78 -9.77 
2027 -9.82 -9.77 -9.77 
2028 -9.81 -9.77 -9.77 
2029 -9.82 -9.77 -9.77 
2030 -9.81 -9.77 -9.77 
2031 -9.81 -9.77 -9.77 
2032 -9.81 -9.76 -9.77 
2033 -9.81 -9.76 -9.77 
2034 -9.80 -9.77 -9.77 
2035 -9.80 -9.77 -9.77 
2036 -9.80 -9.76 -9.77 
2037 -9.80 -9.77 -9.77 
2038 -9.80 -9.77 -9.77 
2039 -9.80 -9.77 -9.77 
2040 -9.80 -9.77 -9.77 
2041 -9.80 -9.77 -9.77 
2042 -9.80 -9.77 -9.77 
2043 -9.80 -9.77 -9.77 
2044 -9.80 -9.77 -9.77 
2045 -9.80 -9.77 -9.77 
2046 -9.79 -9.77 -9.77 
2047 -9.79 -9.76 -9.77 
2048 -9.79 -9.76 -9.77 
2049 -9.79 -9.76 -9.77 
2050 -9.79 -9.77 -9.77 
2051 -9.79 -9.76 -9.77 
2052 -9.79 -9.76 -9.77 
2053 -9.79 -9.76 -9.77 
2054 -9.79 -9.76 -9.77 
2055 -9.79 -9.76 -9.77 
2056 -9.79 -9.76 -9.77 
2057 -9.79 -9.76 -9.77 
2058 -9.79 -9.76 -9.77 
2059 -9.79 -9.76 -9.77 
2060 -9.79 -9.76 -9.77 
2061 -9.79 -9.77 -9.77 
2062 -9.80 -9.77 -9.77 
2063 -9.80 -9.77 -9.77 
2064 -9.81 -9.77 -9.77 
2065 -9.81 -9.77 -9.77 
2066 -9.81 -9.77 -9.77 
2067 -9.81 -9.77 -9.77 
2068 -9.80 -9.77 -9.77 
2069 -9.81 -9.77 -9.77 
2070 -9.81 -9.77 -9.77 
2071 -9.80 -9.77 -9.77 
2072 -9.80 -9.77 -9.77 
2073 -9.80 -9.77 -9.77 
2074 -9.80 -9.77 -9.77 
2075 -9.81 -9.77 -9.77 
2076 -9.81 -9.77 -9.77 
2077 -9.81 -9.77 -9.77 
2078 -9.81 -9.76 -9.77 
2079 -9.80 -9.76 -9.77 
2080 -9.80 -9.76 -9.77 
2081 -9.80 -9.76 -9.77 
2082 -9.80 -9.77 -9.77 
2083 -9.80 -9.77 -9.77 
2084 -9.80 -9.77 -9.77 
2085 -9.80 -9.77 -9.77 
2086 -9.81 -9.77 -9.77 
2087 -9.81 -9.76 -9.77 
2088 -9.80 -9.76 -9.77 
2089 -9.80 -9.77 -9.77 
2090 -9.80 -9.76 -9.77 
2091 -9.80 -9.76 -9.77 
2092 -9.79 -9.76 -9.77 
2093 -9.80 -9.76 -9.77 
2094 -9.80 -9.76 -9.77 
2095 -9.80 -9.77 -9.77 
2096 -9.80 -9.77 -9.77 
2097 -9.81 -9.77 -9.77 
2098 -9.81 -9.77 -9.77 
2099 -9.81 -9.77 -9.77 
2100 -9.81 -9.77 -9.77 
2101 -9.83 -9.79 -9.77 
2102 -9.86 -9.82 -9.77 
2103 -9.88 -9.84 -9.77 
2104 -9.90 -9.80 -9.77 
2105 -9.86 -9.79 -9.77 
2106 -9.85 -9.78 -9.77 
2107 -9.83 -9.78 -9.77 
2108 -9.84 -9.79 -9.77 
2109 -9.85 -9.78 -9.77 
2110 -9.85 -9.78 -9.77 
2111 -9.84 -9.78 -9.77 
2112 -9.83 -9.79 -9.77 
2113 -9.83 -9.79 -9.77 
2114 -9.85 -9.79 -9.77 
2115 -9.86 -9.80 -9.77 
2116 -9.86 -9.80 -9.77 
2117 -9.85 -9.80 -9.77 
2118 -9.84 -9.80 -9.77 
2119 -9.84 -9.81 -9.77 
2120 -9.84 -9.80 -9.77 
2121 -9.84 -9.80 -9.77 
2122 -9.84 -9.80 -9.77 
2123 -9.85 -9.80 -9.77 
2124 -9.85 -9.81 -9.77 
2125 -9.86 -9.80 -9.77 
2126 -9.86 -9.81 -9.77 
2127 -9.86 -9.82 -9.77 
2128 -9.86 -9.81 -9.77 
2129 -9.85 -9.81 -9.77 
2130 -9.85 -9.80 -9.77 
2131 -9.84 -9.80 -9.77 
2132 -9.84 -9.80 -9.77 
2133 -9.85 -9.80 -9.77 
2134 -9.86 -9.83 -9.77 
2135 -9.88 -9.81 -9.77 
2136 -9.86 -9.82 -9.77 
2137 -9.87 -9.83 -9.77 
2138 -9.88 -9.83 -9.77 
2139 -9.88 -9.82 -9.77 
2140 -9.87 -9.83 -9.77 
2141 -9.88 -9.83 -9.77 
2142 -9.87 -9.82 -9.77 
2143 -9.87 -9.80 -9.77 
2144 -9.85 -9.80 -9.77 
2145 -9.84 -9.80 -9.77 
2146 -9.85 -9.80 -9.77 
2147 -9.86 -9.80 -9.77 
2148 -9.86 -9.81 -9.77 
2149 -9.86 -9.82 -9.77 
2150 -9.88 -9.83 -9.77 
2151 -9.89 -9.82 -9.77 
2152 -9.89 -9.82 -9.77 
2153 -9.89 -9.83 -9.77 
2154 -9.89 -9.82 -9.77 
2155 -9.87 -9.82 -9.77 
2156 -9.87 -9.81 -9.77 
2157 -9.85 -9.81 -9.77 
2158 -9.86 -9.82 -9.77 
2159 -9.87 -9.82 -9.77 
2160 -9.86 -9.82 -9.77 
2161 -9.87 -9.81 -9.77 
2162 -9.86 -9.81 -9.77 
2163 -9.86 -9.81 -9.77 
2164 -9.87 -9.81 -9.77 
2165 -9.88 -9.81 -9.77 
2166 -9.88 -9.82 -9.77 
2167 -9.89 -9.80 -9.77 
2168 -9.86 -9.80 -9.77 
2169 -9.86 -9.81 -9.77 
2170 -9.86 -9.81 -9.77 
2171 -9.87 -9.80 -9.77 
2172 -9.87 -9.80 -9.77 
2173 -9.87 -9.80 -9.77 
2174 -9.87 -9.81 -9.77 
2175 -9.87 -9.82 -9.77 
2176 -9.88 -9.82 -9.77 
2177 -9.88 -9.81 -9.77 
2178 -9.87 -9.81 -9.77 
2179 -9.88 -9.80 -9.77 
2180 -9.87 -9.80 -9.77 
2181 -9.87 -9.82 -9.77 
2182 -9.87 -9.83 -9.77 
2183 -9.88 -9.82 -9.77 
2184 -9.88 -9.82 -9.77 
2185 -9.87 -9.82 -9.77 
2186 -9.87 -9.82 -9.77 
2187 -9.87 -9.83 -9.77 
2188 -9.86 -9.83 -9.77 
2189 -9.87 -9.82 -9.77 
2190 -9.86 -9.83 -9.77 
2191 -9.87 -9.83 -9.77 
2192 -9.86 -9.82 -9.77 
2193 -9.86 -9.83 -9.77 
2194 -9.87 -9.83 -9.77 
2195 -9.87 -9.83 -9.77 
2196 -9.86 -9.82 -9.77 
2197 -9.86 -9.83 -9.77 
2198 -9.86 -9.82 -9.77 
2199 -9.86 -9.83 -9.77 
2200 -9.86 -9.83 -9.77 
2201 -9.87 -9.83 -9.77 
2202 -9.87 -9.83 -9.77 
2203 -9.87 -9.82 -9.77 
2204 -9.86 -9.81 -9.77 
2205 -9.85 -9.82 -9.77 
2206 -9.86 -9.81 -9.77 
2207 -9.85 -9.81 -9.77 
2208 -9.85 -9.81 -9.77 
2209 -9.84 -9.81 -9.77 
2210 -9.85 -9.81 -9.77 
2211 -9.85 -9.81 -9.77 
2212 -9.85 -9.81 -9.77 
2213 -9.85 -9.81 -9.77 
2214 -9.84 -9.82 -9.77 
2215 -9.85 -9.81 -9.77 
2216 -9.85 -9.82 -9.77 
2217 -9.85 -9.82 -9.77 
2218 -9.86 -9.82 -9.77 
2219 -9.85 -9.83 -9.77 
2220 -9.86 -9.83 -9.77 
2221 -9.85 -9.82 -9.77 
2222 -9.85 -9.81 -9.77 
2223 -9.85 -9.82 -9.77 
2224 -9.85 -9.81 -9.77 
2225 -9.85 -9.81 -9.77 
2226 -9.85 -9.81 -9.77 
2227 -9.84 -9.81 -9.77 
2228 -9.85 -9.81 -9.77 
2229 -9.84 -9.81 -9.77 
2230 -9.84 -9.82 -9.77 
2231 -9.85 -9.83 -9.77 
2232 -9.85 -9.82 -9.77 
2233 -9.86 -9.82 -9.77 
2234 -9.85 -9.82 -9.77 
2235 -9.85 -9.82 -9.77 
2236 -9.86 -9.82 -9.77 
2237 -9.86 -9.82 -9.77 
2238 -9.86 -9.81 -9.77 
2239 -9.85 -9.81 -9.77 
2240 -9.86 -9.81 -9.77 
2241 -9.87 -9.82 -9.77 
2242 -9.89 -9.82 -9.77 
2243 -9.89 -9.81 -9.77 
2244 -9.88 -9.81 -9.77 
2245 -9.86 -9.81 -9.77 
2246 -9.87 -9.81 -9.77 
2247 -9.87 -9.83 -9.77 
2248 -9.88 -9.81 -9.77 
2249 -9.86 -9.81 -9.77 
2250 -9.86 -9.83 -9.77 
2251 -9.89 -9.84 -9.77 
2252 -9.90 -9.83 -9.77 
2253 -9.91 -9.81 -9.77 
2254 -9.87 -9.82 -9.77 
2255 -9.89 -9.81 -9.77 
2256 -9.87 -9.82 -9.77 
2257 -9.87 -9.82 -9.77 
2258 -9.90 -9.83 -9.77 
2259 -9.89 -9.84 -9.77 
2260 -9.91 -9.83 -9.77 
2261 -9.91 -9.85 -9.77 
2262 -9.91 -9.85 -9.77 
2263 -9.91 -9.84 -9.77 
2264 -9.91 -9.83 -9.77 
2265 -9.90 -9.84 -9.77 
2266 -9.90 -9.82 -9.77 
2267 -9.87 -9.82 -9.77 
2268 -9.86 -9.82 -9.77 
2269 -9.86 -9.82 -9.77 
2270 -9.86 -9.83 -9.77 
2271 -9.87 -9.81 -9.77 
2272 -9.85 -9.81 -9.77 
2273 -9.85 -9.80 -9.77 
2274 -9.85 -9.80 -9.77 
2275 -9.84 -9.79 -9.77 
2276 -9.85 -9.79 -9.77 
2277 -9.84 -9.79 -9.77 
2278 -9.84 -9.80 -9.77 
2279 -9.84 -9.80 -9.77 
2280 -9.84 -9.80 -9.77 
2281 -9.84 -9.80 -9.77 
2282 -9.84 -9.80 -9.77 
2283 -9.83 -9.80 -9.77 
2284 -9.84 -9.80 -9.77 
2285 -9.83 -9.80 -9.77 
2286 -9.83 -9.80 -9.77 
2287 -9.83 -9.80 -9.77 
2288 -9.83 -9.80 -9.77 
2289 -9.84 -9.79 -9.77 
2290 -9.83 -9.79 -9.77 
2291 -9.83 -9.79 -9.77 
2292 -9.83 -9.79 -9.77 
2293 -9.83 -9.80 -9.77 
2294 -9.83 -9.80 -9.77 
2295 -9.83 -9.79 -9.77 
2296 -9.82 -9.79 -9.77 
2297 -9.82 -9.79 -9.77 
2298 -9.82 -9.79 -9.77 
2299 -9.82 -9.80 -9.77 
2300 -9.82 -9.79 -9.77 
2301 -9.82 -9.79 -9.77 
2302 -9.82 -9.79 -9.77 
2303 -9.82 -9.80 -9.77 
2304 -9.82 -9.79 -9.77 
2305 -9.82 -9.80 -9.77 
2306 -9.82 -9.80 -9.77 
2307 -9.82 -9.80 -9.77 
2308 -9.82 -9.80 -9.77 
2309 -9.81 -9.80 -9.77 
2310 -9.82 -9.80 -9.77 
2311 -9.82 -9.79 -9.77 
2312 -9.81 -9.80 -9.77 
2313 -9.82 -9.80 -9.77 
2314 -9.81 -9.79 -9.77 
2315 -9.81 -9.79 -9.77 
2316 -9.82 -9.80 -9.77 
2317 -9.82 -9.80 -9.77 
2318 -9.83 -9.80 -9.77 
2319 -9.83 -9.80 -9.77 
2320 -9.83 -9.79 -9.77 
2321 -9.82 -9.79 -9.77 
2322 -9.83 -9.79 -9.77 
2323 -9.83 -9.79 -9.77 
2324 -9.84 -9.79 -9.77 
2325 -9.82 -9.78 -9.77 
2326 -9.82 -9.78 -9.77 
2327 -9.82 -9.78 -9.77 
2328 -9.82 -9.78 -9.77 
2329 -9.82 -9.79 -9.77 
2330 -9.83 -9.78 -9.77 
2331 -9.81 -9.78 -9.77 
2332 -9.81 -9.78 -9.77 
2333 -9.81 -9.79 -9.77 
2334 -9.82 -9.78 -9.77 
2335 -9.81 -9.79 -9.77 
2336 -9.82 -9.78 -9.77 
2337 -9.81 -9.79 -9.77 
2338 -9.81 -9.79 -9.77 
2339 -9.82 -9.79 -9.77 
2340 -9.82 -9.79 -9.77 
2341 -9.82 -9.79 -9.77 
2342 -9.82 -9.79 -9.77 
2343 -9.83 -9.79 -9.77 
2344 -9.83 -9.80 -9.77 
2345 -9.83 -9.80 -9.77 
2346 -9.83 -9.80 -9.77 
2347 -9.82 -9.80 -9.77 
2348 -9.84 -9.81 -9.77 
2349 -9.84 -9.81 -9.77 
2350 -9.84 -9.81 -9.77 
2351 -9.84 -9.81 -9.77 
2352 -9.84 -9.81 -9.77 
2353 -9.85 -9.82 -9.77 
2354 -9.86 -9.81 -9.77 
2355 -9.86 -9.82 -9.77 
2356 -9.86 -9.82 -9.77 
2357 -9.86 -9.84 -9.77 
2358 -9.88 -9.85 -9.77 
2359 -9.89 -9.86 -9.77 
2360 -9.90 -9.86 -9.77 
2361 -9.89 -9.88 -9.77 
2362 -9.91 -9.87 -9.77 
2363 -9.90 -9.87 -9.77 
2364 -9.90 -9.89 -9.77 
2365 -9.92 -9.88 -9.77 
2366 -9.91 -9.89 -9.77 
2367 -9.92 -9.89 -9.77 
2368 -9.93 -9.90 -9.77 
2369 -9.93 -9.90 -9.77 
2370 -9.93 -9.89 -9.77 
2371 -9.92 -9.89 -9.77 
2372 -9.92 -9.90 -9.77 
2373 -9.94 -9.91 -9.77 
2374 -9.95 -9.91 -9.77 
2375 -9.95 -9.90 -9.77 
2376 -9.94 -9.91 -9.77 
2377 -9.96 -9.91 -9.77 
2378 -9.96 -9.93 -9.77 
2379 -9.97 -9.91 -9.77 
2380 -9.95 -9.92 -9.77 
2381 -9.96 -9.94 -9.77 
2382 -9.98 -9.94 -9.77 
2383 -9.99 -9.94 -9.77 
2384 -9.98 -9.93 -9.77 
2385 -9.98 -9.94 -9.77 
2386 -9.98 -9.94 -9.77 
2387 -9.98 -9.94 -9.77 
2388 -9.98 -9.93 -9.77 
2389 -9.97 -9.91 -9.77 
2390 -9.95 -9.91 -9.77 
2391 -9.95 -9.91 -9.77 
2392 -9.94 -9.90 -9.77 
2393 -9.94 -9.87 -9.77 
2394 -9.91 -9.87 -9.77 
2395 -9.91 -9.85 -9.77 
2396 -9.89 -9.85 -9.77 
2397 -9.89 -9.84 -9.77 
2398 -9.87 -9.85 -9.77 
2399 -9.89 -9.86 -9.77 
2400 -9.89 -9.85 -9.77 
2401 -9.89 -9.87 -9.77 
2402 -9.91 -9.87 -9.77 
2403 -9.91 -9.86 -9.77 
2404 -9.90 -9.84 -9.77 
2405 -9.88 -9.82 -9.77 
2406 -9.86 -9.85 -9.77 
2407 -9.89 -9.84 -9.77 
2408 -9.88 -9.85 -9.77 
2409 -9.88 -9.85 -9.77 
2410 -9.89 -9.85 -9.77 
2411 -9.88 -9.87 -9.77 
2412 -9.90 -9.86 -9.77 
2413 -9.90 -9.88 -9.77 
2414 -9.91 -9.86 -9.77 
2415 -9.89 -9.84 -9.77 
2416 -9.87 -9.85 -9.77 
2417 -9.88 -9.85 -9.77 
2418 -9.88 -9.84 -9.77 
2419 -9.88 -9.82 -9.77 
2420 -9.85 -9.81 -9.77 
2421 -9.84 -9.81 -9.77 
2422 -9.85 -9.81 -9.77 
2423 -9.84 -9.81 -9.77 
2424 -9.85 -9.81 -9.77 
2425 -9.85 -9.81 -9.77 
2426 -9.84 -9.81 -9.77 
2427 -9.84 -9.81 -9.77 
2428 -9.84 -9.83 -9.77 
2429 -9.85 -9.84 -9.77 
2430 -9.88 -9.84 -9.77 
2431 -9.87 -9.82 -9.77 
2432 -9.85 -9.83 -9.77 
2433 -9.86 -9.86 -9.77 
2434 -9.89 -9.86 -9.77 
2435 -9.89 -9.87 -9.77 
2436 -9.90 -9.84 -9.77 
2437 -9.87 -9.83 -9.77 
2438 -9.86 -9.84 -9.77 
2439 -9.87 -9.83 -9.77 
2440 -9.86 -9.84 -9.77 
2441 -9.87 -9.82 -9.77 
2442 -9.85 -9.85 -9.77 
2443 -9.88 -9.83 -9.77 
2444 -9.86 -9.82 -9.77 
2445 -9.85 -9.81 -9.77 
2446 -9.84 -9.80 -9.77 
2447 -9.83 -9.82 -9.77 
2448 -9.85 -9.85 -9.77 
2449 -9.88 -9.84 -9.77 
2450 -9.87 -9.83 -9.77 
2451 -9.87 -9.82 -9.77 
2452 -9.85 -9.80 -9.77 
2453 -9.83 -9.81 -9.77 
2454 -9.84 -9.81 -9.77 
2455 -9.84 -9.82 -9.77 
2456 -9.85 -9.82 -9.77 
2457 -9.86 -9.80 -9.77 
2458 -9.84 -9.79 -9.77 
2459 -9.82 -9.79 -9.77 
2460 -9.82 -9.78 -9.77 
2461 -9.81 -9.79 -9.77 
2462 -9.82 -9.78 -9.77 
2463 -9.82 -9.79 -9.77 
2464 -9.82 -9.79 -9.77 
2465 -9.82 -9.79 -9.77 
2466 -9.83 -9.79 -9.77 
2467 -9.83 -9.80 -9.77 
2468 -9.84 -9.80 -9.77 
2469 -9.83 -9.80 -9.77 
2470 -9.84 -9.80 -9.77 
2471 -9.83 -9.80 -9.77 
2472 -9.84 -9.81 -9.77 
2473 -9.84 -9.79 -9.77 
2474 -9.83 -9.80 -9.77 
2475 -9.84 -9.79 -9.77 
2476 -9.84 -9.80 -9.77 
2477 -9.84 -9.80 -9.77 
2478 -9.83 -9.80 -9.77 
2479 -9.83 -9.80 -9.77 
2480 -9.83 -9.80 -9.77 
2481 -9.83 -9.80 -9.77 
2482 -9.83 -9.80 -9.77 
2483 -9.82 -9.80 -9.77 
2484 -9.83 -9.80 -9.77 
2485 -9.83 -9.81 -9.77 
2486 -9.83 -9.81 -9.77 
2487 -9.84 -9.81 -9.77 
2488 -9.84 -9.80 -9.77 
2489 -9.84 -9.81 -9.77 
2490 -9.83 -9.81 -9.77 
2491 -9.84 -9.81 -9.77 
2492 -9.83 -9.81 -9.77 
2493 -9.83 -9.81 -9.77 
2494 -9.84 -9.81 -9.77 
2495 -9.84 -9.82 -9.77 
2496 -9.85 -9.81 -9.77 
2497 -9.84 -9.82 -9.77 
2498 -9.85 -9.82 -9.77 
2499 -9.84 -9.81 -9.77 
2500 -9.84 -9.81 -9.77 
2501 -9.83 -9.81 -9.77 
2502 -9.84 -9.82 -9.77 
2503 -9.84 -9.81 -9.77 
2504 -9.84 -9.82 -9.77 
2505 -9.84 -9.82 -9.77 
2506 -9.84 -9.82 -9.77 
2507 -9.84 -9.81 -9.77 
2508 -9.84 -9.81 -9.77 
2509 -9.83 -9.80 -9.77 
2510 -9.83 -9.79 -9.77 
2511 -9.83 -9.79 -9.77 
2512 -9.83 -9.79 -9.77 
2513 -9.83 -9.80 -9.77 
2514 -9.84 -9.80 -9.77 
2515 -9.84 -9.81 -9.77 
2516 -9.84 -9.80 -9.77 
2517 -9.84 -9.82 -9.77 
2518 -9.85 -9.80 -9.77 
2519 -9.84 -9.81 -9.77 
2520 -9.84 -9.81 -9.77 
2521 -9.84 -9.81 -9.77 
2522 -9.84 -9.81 -9.77 
2523 -9.84 -9.81 -9.77 
2524 -9.84 -9.81 -9.77 
2525 -9.83 -9.80 -9.77 
2526 -9.83 -9.79 -9.77 
2527 -9.82 -9.80 -9.77 
2528 -9.82 -9.79 -9.77 
2529 -9.82 -9.80 -9.77 
2530 -9.83 -9.80 -9.77 
2531 -9.83 -9.81 -9.77 
2532 -9.83 -9.81 -9.77 
2533 -9.84 -9.82 -9.77 
2534 -9.84 -9.81 -9.77 
2535 -9.84 -9.81 -9.77 
2536 -9.84 -9.81 -9.77 
2537 -9.84 -9.81 -9.77 
2538 -9.84 -9.81 -9.77 
2539 -9.84 -9.81 -9.77 
2540 -9.83 -9.81 -9.77 
2541 -9.83 -9.81 -9.77 
2542 -9.83 -9.81 -9.77 
2543 -9.84 -9.81 -9.77 
2544 -9.84 -9.81 -9.77 
2545 -9.83 -9.81 -9.77 
2546 -9.84 -9.81 -9.77 
2547 -9.84 -9.82 -9.77 
2548 -9.84 -9.82 -9.77 
2549 -9.85 -9.83 -9.77 
2550 -9.85 -9.83 -9.77 
2551 -9.85 -9.84 -9.77 
2552 -9.86 -9.84 -9.77 
2553 -9.87 -9.84 -9.77 
2554 -9.87 -9.85 -9.77 
2555 -9.87 -9.84 -9.77 
2556 -9.87 -9.84 -9.77 
2557 -9.87 -9.84 -9.77 
2558 -9.87 -9.84 -9.77 
2559 -9.87 -9.84 -9.77 
2560 -9.87 -9.85 -9.77 
2561 -9.87 -9.84 -9.77 
2562 -9.87 -9.84 -9.77 
2563 -9.87 -9.84 -9.77 
2564 -9.86 -9.84 -9.77 
2565 -9.86 -9.83 -9.77 
2566 -9.86 -9.84 -9.77 
2567 -9.86 -9.83 -9.77 
2568 -9.85 -9.83 -9.77 
2569 -9.85 -9.83 -9.77 
2570 -9.86 -9.83 -9.77 
2571 -9.86 -9.84 -9.77 
2572 -9.86 -9.83 -9.77 
2573 -9.86 -9.83 -9.77 
2574 -9.86 -9.83 -9.77 
2575 -9.87 -9.84 -9.77 
2576 -9.87 -9.84 -9.77 
2577 -9.87 -9.84 -9.77 
2578 -9.87 -9.83 -9.77 
2579 -9.86 -9.84 -9.77 
2580 -9.88 -9.83 -9.77 
2581 -9.87 -9.83 -9.77 
2582 -9.87 -9.83 -9.77 
2583 -9.87 -9.83 -9.77 
2584 -9.87 -9.83 -9.77 
2585 -9.87 -9.83 -9.77 
2586 -9.87 -9.83 -9.77 
2587 -9.87 -9.83 -9.77 
2588 -9.86 -9.83 -9.77 
2589 -9.87 -9.83 -9.77 
2590 -9.86 -9.83 -9.77 
2591 -9.87 -9.83 -9.77 
2592 -9.87 -9.83 -9.77 
2593 -9.86 -9.83 -9.77 
2594 -9.86 -9.82 -9.77 
2595 -9.85 -9.82 -9.77 
2596 -9.85 -9.82 -9.77 
2597 -9.85 -9.82 -9.77 
2598 -9.86 -9.81 -9.77 
2599 -9.85 -9.82 -9.77 
2600 -9.85 -9.82 -9.77 
2601 -9.85 -9.83 -9.77 
2602 -9.85 -9.83 -9.77 
2603 -9.85 -9.82 -9.77 
2604 -9.85 -9.83 -9.77 
2605 -9.85 -9.83 -9.77 
2606 -9.85 -9.83 -9.77 
2607 -9.85 -9.82 -9.77 
2608 -9.84 -9.82 -9.77 
2609 -9.84 -9.82 -9.77 
2610 -9.84 -9.81 -9.77 
2611 -9.84 -9.81 -9.77 
2612 -9.84 -9.81 -9.77 
2613 -9.84 -9.81 -9.77 
2614 -9.84 -9.82 -9.77 
2615 -9.85 -9.82 -9.77 
2616 -9.85 -9.82 -9.77 
2617 -9.86 -9.82 -9.77 
2618 -9.86 -9.82 -9.77 
2619 -9.86 -9.82 -9.77 
2620 -9.86 -9.82 -9.77 
2621 -9.85 -9.82 -9.77 
2622 -9.85 -9.82 -9.77 
2623 -9.85 -9.81 -9.77 
2624 -9.85 -9.81 -9.77 
2625 -9.85 -9.81 -9.77 
2626 -9.85 -9.81 -9.77 
2627 -9.85 -9.80 -9.77 
2628 -9.85 -9.80 -9.77 
2629 -9.85 -9.79 -9.77 
2630 -9.85 -9.80 -9.77 
2631 -9.84 -9.79 -9.77 
2632 -9.84 -9.79 -9.77 
2633 -9.84 -9.79 -9.77 
2634 -9.84 -9.79 -9.77 
2635 -9.83 -9.79 -9.77 
2636 -9.84 -9.79 -9.77 
2637 -9.84 -9.80 -9.77 
2638 -9.83 -9.80 -9.77 
2639 -9.83 -9.80 -9.77 
2640 -9.83 -9.80 -9.77 
2641 -9.83 -9.79 -9.77 
2642 -9.82 -9.80 -9.77 
2643 -9.82 -9.79 -9.77 
2644 -9.81 -9.79 -9.77 
2645 -9.81 -9.79 -9.77 
2646 -9.81 -9.79 -9.77 
2647 -9.81 -9.79 -9.77 
2648 -9.81 -9.79 -9.77 
2649 -9.81 -9.79 -9.77 
2650 -9.81 -9.79 -9.77 
2651 -9.81 -9.78 -9.77 
2652 -9.81 -9.78 -9.77 
2653 -9.81 -9.78 -9.77 
2654 -9.81 -9.78 -9.77 
2655 -9.81 -9.78 -9.77 
2656 -9.81 -9.78 -9.77 
2657 -9.80 -9.78 -9.77 
2658 -9.80 -9.78 -9.77 
2659 -9.80 -9.78 -9.77 
2660 -9.80 -9.78 -9.77 
2661 -9.80 -9.78 -9.77 
2662 -9.80 -9.78 -9.77 
2663 -9.80 -9.78 -9.77 
2664 -9.80 -9.78 -9.77 
2665 -9.80 -9.78 -9.77 
2666 -9.80 -9.77 -9.77 
2667 -9.80 -9.78 -9.77 
2668 -9.80 -9.78 -9.77 
2669 -9.80 -9.78 -9.77 
2670 -9.80 -9.78 -9.77 
2671 -9.80 -9.78 -9.77 
2672 -9.80 -9.78 -9.77 
2673 -9.79 -9.78 -9.77 
2674 -9.80 -9.78 -9.77 
2675 -9.81 -9.78 -9.77 
2676 -9.80 -9.78 -9.77 
2677 -9.80 -9.78 -9.77 
2678 -9.80 -9.78 -9.77 
2679 -9.80 -9.78 -9.77 
2680 -9.80 -9.78 -9.77 
2681 -9.80 -9.78 -9.77 
2682 -9.81 -9.78 -9.77 
2683 -9.81 -9.78 -9.77 
2684 -9.81 -9.78 -9.77 
2685 -9.81 -9.78 -9.77 
2686 -9.80 -9.78 -9.77 
2687 -9.80 -9.78 -9.77 
2688 -9.80 -9.77 -9.77 
2689 -9.79 -9.77 -9.77 
2690 -9.80 -9.77 -9.77 
2691 -9.80 -9.77 -9.77 
2692 -9.80 -9.77 -9.77 
2693 -9.80 -9.77 -9.77 
2694 -9.80 -9.78 -9.77 
2695 -9.81 -9.78 -9.77 
2696 -9.81 -9.78 -9.77 
2697 -9.81 -9.77 -9.77 
2698 -9.81 -9.78 -9.77 
2699 -9.81 -9.77 -9.77 
2700 -9.80 -9.77 -9.77 
2701 -9.81 -9.77 -9.77 
2702 -9.80 -9.77 -9.77 
2703 -9.80 -9.77 -9.77 
2704 -9.80 -9.77 -9.77 
2705 -9.81 -9.77 -9.77 
2706 -9.81 -9.78 -9.77 
2707 -9.81 -9.78 -9.77 
2708 -9.81 -9.77 -9.77 
2709 -9.81 -9.77 -9.77 
2710 -9.80 -9.77 -9.77 
2711 -9.80 -9.77 -9.77 
2712 -9.80 -9.77 -9.77 
2713 -9.80 -9.77 -9.77 
2714 -9.80 -9.77 -9.77 
2715 -9.81 -9.78 -9.77 
2716 -9.81 -9.77 -9.77 
2717 -9.80 -9.77 -9.77 
2718 -9.81 -9.77 -9.77 
2719 -9.81 -9.77 -9.77 
2720 -9.81 -9.77 -9.77 
2721 -9.81 -9.77 -9.77 
2722 -9.81 -9.77 -9.77 
2723 -9.81 -9.77 -9.77 
2724 -9.81 -9.78 -9.77 
2725 -9.81 -9.78 -9.77 
2726 -9.81 -9.77 -9.77 
2727 -9.81 -9.78 -9.77 
2728 -9.81 -9.77 -9.77 
2729 -9.81 -9.78 -9.77 
2730 -9.83 -9.80 -9.77 
2731 -9.84 -9.80 -9.77 
2732 -9.84 -9.77 -9.77 
2733 -9.82 -9.77 -9.77 
2734 -9.82 -9.77 -9.77 
2735 -9.81 -9.78 -9.77 
2736 -9.81 -9.78 -9.77 
2737 -9.81 -9.78 -9.77 
2738 -9.82 -9.78 -9.77 
2739 -9.82 -9.78 -9.77 
2740 -9.81 -9.78 -9.77 
2741 -9.82 -9.78 -9.77 
2742 -9.82 -9.78 -9.77 
2743 -9.82 -9.78 -9.77 
2744 -9.81 -9.78 -9.77 
2745 -9.80 -9.78 -9.77 
2746 -9.81 -9.78 -9.77 
2747 -9.81 -9.78 -9.77 
2748 -9.80 -9.78 -9.77 
2749 -9.80 -9.78 -9.77 
2750 -9.80 -9.78 -9.77 
2751 -9.80 -9.78 -9.77 
2752 -9.80 -9.78 -9.77 
2753 -9.80 -9.78 -9.77 
2754 -9.80 -9.79 -9.77 
2755 -9.81 -9.79 -9.77 
2756 -9.81 -9.79 -9.77 
2757 -9.81 -9.79 -9.77 
2758 -9.81 -9.79 -9.77 
2759 -9.81 -9.79 -9.77 
2760 -9.81 -9.79 -9.77 
2761 -9.82 -9.79 -9.77 
2762 -9.81 -9.79 -9.77 
2763 -9.81 -9.79 -9.77 
2764 -9.81 -9.79 -9.77 
2765 -9.81 -9.79 -9.77 
2766 -9.82 -9.79 -9.77 
2767 -9.81 -9.79 -9.77 
2768 -9.81 -9.79 -9.77 
2769 -9.81 -9.80 -9.77 
2770 -9.82 -9.79 -9.77 
2771 -9.81 -9.80 -9.77 
2772 -9.82 -9.80 -9.77 
2773 -9.82 -9.80 -9.77 
2774 -9.82 -9.80 -9.77 
2775 -9.82 -9.80 -9.77 
2776 -9.82 -9.80 -9.77 
2777 -9.82 -9.80 -9.77 
2778 -9.82 -9.80 -9.77 
2779 -9.82 -9.80 -9.77 
2780 -9.82 -9.80 -9.77 
2781 -9.82 -9.80 -9.77 
2782 -9.82 -9.80 -9.77 
2783 -9.82 -9.80 -9.77 
2784 -9.82 -9.80 -9.77 
2785 -9.82 -9.80 -9.77 
2786 -9.81 -9.80 -9.77 
2787 -9.82 -9.81 -9.77 
2788 -9.82 -9.81 -9.77 
2789 -9.82 -9.81 -9.77 
2790 -9.82 -9.81 -9.77 
2791 -9.82 -9.80 -9.77 
2792 -9.82 -9.80 -9.77 
2793 -9.81 -9.80 -9.77 
2794 -9.81 -9.80 -9.77 
2795 -9.81 -9.80 -9.77 
2796 -9.82 -9.81 -9.77 
2797 -9.82 -9.81 -9.77 
2798 -9.82 -9.81 -9.77 
2799 -9.82 -9.81 -9.77 
2800 -9.82 -9.81 -9.77 
2801 -9.82 -9.81 -9.77 
2802 -9.82 -9.81 -9.77 
2803 -9.82 -9.81 -9.77 
2804 -9.82 -9.81 -9.77 
2805 -9.82 -9.81 -9.77 
2806 -9.83 -9.81 -9.77 
2807 -9.82 -9.81 -9.77 
2808 -9.82 -9.81 -9.77 
2809 -9.82 -9.81 -9.77 
2810 -9.82 -9.81 -9.77 
2811 -9.83 -9.81 -9.77 
2812 -9.83 -9.81 -9.77 
2813 -9.83 -9.82 -9.77 
2814 -9.83 -9.82 -9.77 
2815 -9.83 -9.82 -9.77 
2816 -9.83 -9.82 -9.77 
2817 -9.83 -9.81 -9.77 
2818 -9.83 -9.81 -9.77 
2819 -9.82 -9.81 -9.77 
2820 -9.83 -9.81 -9.77 
2821 -9.83 -9.81 -9.77 
2822 -9.83 -9.81 -9.77 
2823 -9.83 -9.81 -9.77 
2824 -9.82 -9.81 -9.77 
2825 -9.82 -9.81 -9.77 
2826 -9.82 -9.80 -9.77 
2827 -9.82 -9.81 -9.77 
2828 -9.82 -9.81 -9.77 
2829 -9.82 -9.81 -9.77 
2830 -9.82 -9.81 -9.77 
2831 -9.82 -9.80 -9.77 
2832 -9.82 -9.81 -9.77 
2833 -9.82 -9.81 -9.77 
2834 -9.82 -9.81 -9.77 
2835 -9.82 -9.80 -9.77 
2836 -9.82 -9.81 -9.77 
2837 -9.82 -9.81 -9.77 
2838 -9.82 -9.81 -9.77 
2839 -9.82 -9.81 -9.77 
2840 -9.82 -9.81 -9.77 
2841 -9.83 -9.81 -9.77 
2842 -9.83 -9.81 -9.77 
2843 -9.82 -9.81 -9.77 
2844 -9.82 -9.81 -9.77 
2845 -9.82 -9.81 -9.77 
2846 -9.82 -9.81 -9.77 
2847 -9.82 -9.81 -9.77 
2848 -9.82 -9.81 -9.77 
2849 -9.82 -9.81 -9.77 
2850 -9.82 -9.81 -9.77 
2851 -9.82 -9.81 -9.77 
2852 -9.82 -9.81 -9.77 
2853 -9.82 -9.81 -9.77 
2854 -9.82 -9.81 -9.77 
2855 -9.82 -9.81 -9.77 
2856 -9.82 -9.81 -9.77 
2857 -9.82 -9.81 -9.77 
2858 -9.82 -9.81 -9.77 
2859 -9.82 -9.81 -9.77 
2860 -9.82 -9.81 -9.77 
2861 -9.82 -9.81 -9.77 
2862 -9.82 -9.81 -9.77 
2863 -9.82 -9.81 -9.77 
2864 -9.82 -9.82 -9.77 
2865 -9.83 -9.82 -9.77 
2866 -9.83 -9.82 -9.77 
2867 -9.83 -9.82 -9.77 
2868 -9.83 -9.82 -9.77 
2869 -9.83 -9.82 -9.77 
2870 -9.83 -9.82 -9.77 
2871 -9.83 -9.82 -9.77 
2872 -9.83 -9.82 -9.77 
2873 -9.83 -9.83 -9.77 
2874 -9.84 -9.82 -9.77 
2875 -9.83 -9.82 -9.77 
2876 -9.83 -9.82 -9.77 
2877 -9.83 -9.82 -9.77 
2878 -9.83 -9.82 -9.77 
2879 -9.83 -9.82 -9.77 
2880 -9.83 -9.82 -9.77 
2881 -9.83 -9.83 -9.77 
2882 -9.83 -9.83 -9.77 
2883 -9.83 -9.83 -9.77 
2884 -9.84 -9.83 -9.77 
2885 -9.84 -9.83 -9.77 
2886 -9.84 -9.83 -9.77 
2887 -9.84 -9.83 -9.77 
2888 -9.84 -9.83 -9.77 
2889 -9.84 -9.83 -9.77 
2890 -9.84 -9.83 -9.77 
2891 -9.83 -9.83 -9.77 
2892 -9.83 -9.82 -9.77 
2893 -9.83 -9.82 -9.77 
2894 -9.83 -9.82 -9.77 
2895 -9.83 -9.82 -9.77 
2896 -9.83 -9.82 -9.77 
2897 -9.83 -9.83 -9.77 
2898 -9.83 -9.82 -9.77 
2899 -9.84 -9.82 -9.77 
2900 -9.83 -9.82 -9.77 
2901 -9.83 -9.82 -9.77 
2902 -9.83 -9.82 -9.77 
2903 -9.83 -9.81 -9.77 
2904 -9.82 -9.82 -9.77 
2905 -9.83 -9.82 -9.77 
2906 -9.83 -9.82 -9.77 
2907 -9.83 -9.82 -9.77 
2908 -9.83 -9.82 -9.77 
2909 -9.83 -9.82 -9.77 
2910 -9.83 -9.81 -9.77 
2911 -9.83 -9.81 -9.77 
2912 -9.82 -9.81 -9.77 
2913 -9.82 -9.81 -9.77 
2914 -9.82 -9.81 -9.77 
2915 -9.82 -9.81 -9.77 
2916 -9.82 -9.82 -9.77 
2917 -9.83 -9.82 -9.77 
2918 -9.82 -9.82 -9.77 
2919 -9.83 -9.82 -9.77 
2920 -9.83 -9.82 -9.77 
2921 -9.83 -9.82 -9.77 
2922 -9.82 -9.81 -9.77 
2923 -9.82 -9.81 -9.77 
2924 -9.82 -9.81 -9.77 
2925 -9.82 -9.81 -9.77 
2926 -9.82 -9.81 -9.77 
2927 -9.83 -9.81 -9.77 
2928 -9.82 -9.81 -9.77 
2929 -9.83 -9.81 -9.77 
2930 -9.82 -9.81 -9.77 
2931 -9.82 -9.82 -9.77 
2932 -9.83 -9.82 -9.77 
2933 -9.83 -9.82 -9.77 
2934 -9.83 -9.82 -9.77 
2935 -9.83 -9.82 -9.77 
2936 -9.83 -9.82 -9.77 
2937 -9.83 -9.82 -9.77 
2938 -9.83 -9.82 -9.77 
2939 -9.83 -9.82 -9.77 
2940 -9.83 -9.82 -9.77 
2941 -9.83 -9.82 -9.77 
2942 -9.83 -9.82 -9.77 
2943 -9.83 -9.83 -9.77 
2944 -9.84 -9.83 -9.77 
2945 -9.84 -9.83 -9.77 
2946 -9.84 -9.83 -9.77 
2947 -9.84 -9.83 -9.77 
2948 -9.84 -9.83 -9.77 
2949 -9.84 -9.83 -9.77 
2950 -9.84 -9.83 -9.77 
2951 -9.84 -9.83 -9.77 
2952 -9.84 -9.83 -9.77 
2953 -9.84 -9.83 -9.77 
2954 -9.85 -9.83 -9.77 
2955 -9.84 -9.83 -9.77 
2956 -9.84 -9.83 -9.77 
2957 -9.84 -9.83 -9.77 
2958 -9.84 -9.84 -9.77 
2959 -9.84 -9.83 -9.77 
2960 -9.84 -9.84 -9.77 
2961 -9.85 -9.84 -9.77 
2962 -9.85 -9.84 -9.77 
2963 -9.85 -9.84 -9.77 
2964 -9.85 -9.84 -9.77 
2965 -9.85 -9.84 -9.77 
2966 -9.85 -9.85 -9.77 
2967 -9.85 -9.84 -9.77 
2968 -9.85 -9.85 -9.77 
2969 -9.86 -9.85 -9.77 
2970 -9.86 -9.85 -9.77 
2971 -9.87 -9.85 -9.77 
2972 -9.86 -9.85 -9.77 
2973 -9.86 -9.85 -9.77 
2974 -9.86 -9.85 -9.77 
2975 -9.86 -9.85 -9.77 
2976 -9.86 -9.85 -9.77 
2977 -9.85 -9.85 -9.77 
2978 -9.86 -9.85 -9.77 
2979 -9.86 -9.85 -9.77 
2980 -9.85 -9.84 -9.77 
2981 -9.85 -9.84 -9.77 
2982 -9.85 -9.84 -9.77 
2983 -9.85 -9.84 -9.77 
2984 -9.85 -9.84 -9.77 
2985 -9.85 -9.84 -9.77 
2986 -9.85 -9.83 -9.77 
2987 -9.84 -9.83 -9.77 
2988 -9.84 -9.83 -9.77 
2989 -9.84 -9.83 -9.77 
2990 -9.84 -9.83 -9.77 
2991 -9.84 -9.83 -9.77 
2992 -9.84 -9.83 -9.77 
2993 -9.84 -9.84 -9.77 
2994 -9.85 -9.84 -9.77 
2995 -9.85 -9.84 -9.77 
2996 -9.85 -9.84 -9.77 
2997 -9.85 -9.84 -9.77 
2998 -9.85 -9.84 -9.77 
2999 -9.85 -9.84 -9.77 
3000 -9.85 -9.84 -9.77 
3001 -9.85 -9.84 -9.77 
3002 -9.85 -9.84 -9.77 
3003 -9.85 -9.84 -9.77 
3004 -9.84 -9.84 -9.77 
3005 -9.84 -9.84 -9.77 
3006 -9.84 -9.84 -9.77 
3007 -9.85 -9.84 -9.77 
3008 -9.85 -9.84 -9.77 
3009 -9.85 -9.84 -9.77 
3010 -9.85 -9.84 -9.77 
3011 -9.85 -9.84 -9.77 
3012 -9.84 -9.83 -9.77 
3013 -9.84 -9.84 -9.77 
3014 -9.84 -9.84 -9.77 
3015 -9.85 -9.84 -9.77 
3016 -9.85 -9.84 -9.77 
3017 -9.85 -9.84 -9.77 
3018 -9.85 -9.84 -9.77 
3019 -9.85 -9.83 -9.77 
3020 -9.84 -9.84 -9.77 
3021 -9.84 -9.83 -9.77 
3022 -9.84 -9.83 -9.77 
3023 -9.83 -9.83 -9.77 
3024 -9.83 -9.83 -9.77 
3025 -9.83 -9.82 -9.77 
3026 -9.83 -9.82 -9.77 
3027 -9.83 -9.82 -9.77 
3028 -9.83 -9.82 -9.77 
3029 -9.82 -9.81 -9.77 
3030 -9.82 -9.82 -9.77 
3031 -9.82 -9.82 -9.77 
3032 -9.82 -9.81 -9.77 
3033 -9.83 -9.81 -9.77 
3034 -9.82 -9.81 -9.77 
3035 -9.82 -9.82 -9.77 
3036 -9.83 -9.81 -9.77 
3037 -9.83 -9.81 -9.77 
3038 -9.82 -9.81 -9.77 
3039 -9.82 -9.81 -9.77 
3040 -9.82 -9.80 -9.77 
3041 -9.82 -9.80 -9.77 
3042 -9.82 -9.80 -9.77 
3043 -9.81 -9.80 -9.77 
3044 -9.81 -9.80 -9.77 
3045 -9.81 -9.80 -9.77 
3046 -9.81 -9.80 -9.77 
3047 -9.82 -9.81 -9.77 
3048 -9.82 -9.81 -9.77 
3049 -9.82 -9.80 -9.77 
3050 -9.81 -9.80 -9.77 
3051 -9.81 -9.80 -9.77 
3052 -9.81 -9.80 -9.77 
3053 -9.81 -9.80 -9.77 
3054 -9.81 -9.80 -9.77 
3055 -9.81 -9.80 -9.77 
3056 -9.81 -9.80 -9.77 
3057 -9.81 -9.80 -9.77 
3058 -9.81 -9.81 -9.77 
3059 -9.82 -9.80 -9.77 
3060 -9.81 -9.81 -9.77 
3061 -9.81 -9.81 -9.77 
3062 -9.82 -9.81 -9.77 
3063 -9.82 -9.81 -9.77 
3064 -9.82 -9.81 -9.77 
3065 -9.82 -9.82 -9.77 
3066 -9.83 -9.82 -9.77 
3067 -9.83 -9.82 -9.77 
3068 -9.83 -9.81 -9.77 
3069 -9.82 -9.81 -9.77 
3070 -9.82 -9.81 -9.77 
3071 -9.82 -9.82 -9.77 
3072 -9.83 -9.82 -9.77 
3073 -9.83 -9.82 -9.77 
3074 -9.83 -9.82 -9.77 
3075 -9.83 -9.81 -9.77 
3076 -9.82 -9.81 -9.77 
3077 -9.82 -9.82 -9.77 
3078 -9.82 -9.81 -9.77 
3079 -9.82 -9.81 -9.77 
3080 -9.82 -9.81 -9.77 
3081 -9.82 -9.81 -9.77 
3082 -9.82 -9.81 -9.77 
3083 -9.82 -9.81 -9.77 
3084 -9.82 -9.81 -9.77 
3085 -9.82 -9.81 -9.77 
3086 -9.82 -9.81 -9.77 
3087 -9.82 -9.82 -9.77 
3088 -9.82 -9.82 -9.77 
3089 -9.82 -9.82 -9.77 
3090 -9.83 -9.82 -9.77 
3091 -9.83 -9.82 -9.77 
3092 -9.83 -9.82 -9.77 
3093 -9.83 -9.82 -9.77 
3094 -9.83 -9.82 -9.77 
3095 -9.83 -9.82 -9.77 
3096 -9.83 -9.82 -9.77 
3097 -9.83 -9.82 -9.77 
3098 -9.83 -9.82 -9.77 
3099 -9.83 -9.82 -9.77 
3100 -9.83 -9.82 -9.77 
3101 -9.83 -9.82 -9.77 
3102 -9.83 -9.82 -9.77 
3103 -9.83 -9.83 -9.77 
3104 -9.83 -9.83 -9.77 
3105 -9.84 -9.83 -9.77 
3106 -9.84 -9.83 -9.77 
3107 -9.84 -9.83 -9.77 
3108 -9.84 -9.83 -9.77 
3109 -9.84 -9.83 -9.77 
3110 -9.84 -9.83 -9.77 
3111 -9.84 -9.82 -9.77 
3112 -9.83 -9.82 -9.77 
3113 -9.83 -9.83 -9.77 
3114 -9.84 -9.83 -9.77 
3115 -9.84 -9.82 -9.77 
3116 -9.84 -9.82 -9.77 
3117 -9.83 -9.82 -9.77 
3118 -9.83 -9.82 -9.77 
3119 -9.84 -9.83 -9.77 
3120 -9.84 -9.83 -9.77 
3121 -9.84 -9.83 -9.77 
3122 -9.84 -9.82 -9.77 
3123 -9.84 -9.82 -9.77 
3124 -9.84 -9.82 -9.77 
3125 -9.83 -9.82 -9.77 
3126 -9.83 -9.82 -9.77 
3127 -9.83 -9.82 -9.77 
3128 -9.83 -9.81 -9.77 
3129 -9.83 -9.81 -9.77 
3130 -9.83 -9.81 -9.77 
3131 -9.83 -9.82 -9.77 
3132 -9.83 -9.82 -9.77 
3133 -9.83 -9.82 -9.77 
3134 -9.83 -9.82 -9.77 
3135 -9.84 -9.83 -9.77 
3136 -9.84 -9.83 -9.77 
3137 -9.84 -9.83 -9.77 
3138 -9.84 -9.83 -9.77 
3139 -9.84 -9.83 -9.77 
3140 -9.84 -9.83 -9.77 
3141 -9.84 -9.83 -9.77 
3142 -9.84 -9.83 -9.77 
3143 -9.84 -9.83 -9.77 
3144 -9.84 -9.84 -9.77 
3145 -9.85 -9.83 -9.77 
3146 -9.85 -9.84 -9.77 
3147 -9.84 -9.84 -9.77 
3148 -9.85 -9.84 -9.77 
3149 -9.85 -9.85 -9.77 
3150 -9.86 -9.85 -9.77 
3151 -9.86 -9.84 -9.77 
3152 -9.86 -9.84 -9.77 
3153 -9.85 -9.85 -9.77 
3154 -9.86 -9.84 -9.77 
3155 -9.86 -9.84 -9.77 
3156 -9.86 -9.83 -9.77 
3157 -9.85 -9.83 -9.77 
3158 -9.85 -9.83 -9.77 
3159 -9.85 -9.83 -9.77 
3160 -9.85 -9.83 -9.77 
3161 -9.85 -9.83 -9.77 
3162 -9.85 -9.83 -9.77 
3163 -9.85 -9.83 -9.77 
3164 -9.84 -9.83 -9.77 
3165 -9.85 -9.83 -9.77 
3166 -9.85 -9.83 -9.77 
3167 -9.85 -9.84 -9.77 
3168 -9.86 -9.84 -9.77 
3169 -9.85 -9.83 -9.77 
3170 -9.85 -9.84 -9.77 
3171 -9.86 -9.84 -9.77 
3172 -9.86 -9.85 -9.77 
3173 -9.86 -9.85 -9.77 
3174 -9.86 -9.85 -9.77 
3175 -9.87 -9.85 -9.77 
3176 -9.87 -9.84 -9.77 
3177 -9.86 -9.84 -9.77 
3178 -9.86 -9.84 -9.77 
3179 -9.85 -9.84 -9.77 
3180 -9.85 -9.83 -9.77 
3181 -9.85 -9.83 -9.77 
3182 -9.85 -9.83 -9.77 
3183 -9.85 -9.83 -9.77 
3184 -9.84 -9.83 -9.77 
3185 -9.84 -9.83 -9.77 
3186 -9.84 -9.82 -9.77 
3187 -9.84 -9.82 -9.77 
3188 -9.84 -9.82 -9.77 
3189 -9.84 -9.82 -9.77 
3190 -9.84 -9.82 -9.77 
3191 -9.84 -9.82 -9.77 
3192 -9.84 -9.82 -9.77 
3193 -9.83 -9.81 -9.77 
3194 -9.83 -9.82 -9.77 
3195 -9.84 -9.82 -9.77 
3196 -9.83 -9.82 -9.77 
3197 -9.83 -9.82 -9.77 
3198 -9.84 -9.83 -9.77 
3199 -9.84 -9.82 -9.77 
3200 -9.84 -9.83 -9.77 
3201 -9.84 -9.82 -9.77 
3202 -9.84 -9.82 -9.77 
3203 -9.84 -9.82 -9.77 
3204 -9.83 -9.82 -9.77 
3205 -9.83 -9.82 -9.77 
3206 -9.84 -9.82 -9.77 
3207 -9.84 -9.83 -9.77 
3208 -9.84 -9.82 -9.77 
3209 -9.84 -9.82 -9.77 
3210 -9.84 -9.82 -9.77 
3211 -9.83 -9.82 -9.77 
3212 -9.84 -9.82 -9.77 
3213 -9.83 -9.82 -9.77 
3214 -9.84 -9.82 -9.77 
3215 -9.84 -9.82 -9.77 
3216 -9.84 -9.82 -9.77 
3217 -9.84 -9.82 -9.77 
3218 -9.85 -9.82 -9.77 
3219 -9.84 -9.82 -9.77 
3220 -9.85 -9.82 -9.77 
3221 -9.85 -9.83 -9.77 
3222 -9.85 -9.82 -9.77 
3223 -9.85 -9.82 -9.77 
3224 -9.84 -9.82 -9.77 
3225 -9.84 -9.82 -9.77 
3226 -9.84 -9.82 -9.77 
3227 -9.84 -9.82 -9.77 
3228 -9.84 -9.81 -9.77 
3229 -9.83 -9.81 -9.77 
3230 -9.83 -9.81 -9.77 
3231 -9.83 -9.82 -9.77 
3232 -9.84 -9.81 -9.77 
3233 -9.83 -9.81 -9.77 
3234 -9.84 -9.81 -9.77 
3235 -9.84 -9.81 -9.77 
3236 -9.83 -9.81 -9.77 
3237 -9.83 -9.81 -9.77 
3238 -9.84 -9.81 -9.77 
3239 -9.84 -9.82 -9.77 
3240 -9.84 -9.81 -9.77 
3241 -9.84 -9.81 -9.77 
3242 -9.84 -9.81 -9.77 
3243 -9.84 -9.82 -9.77 
3244 -9.84 -9.81 -9.77 
3245 -9.84 -9.81 -9.77 
3246 -9.84 -9.81 -9.77 
3247 -9.84 -9.82 -9.77 
3248 -9.84 -9.81 -9.77 
3249 -9.84 -9.81 -9.77 
3250 -9.84 -9.82 -9.77 
3251 -9.84 -9.82 -9.77 
3252 -9.84 -9.81 -9.77 
3253 -9.84 -9.81 -9.77 
3254 -9.84 -9.81 -9.77 
3255 -9.84 -9.81 -9.77 
3256 -9.84 -9.81 -9.77 
3257 -9.83 -9.81 -9.77 
3258 -9.83 -9.81 -9.77 
3259 -9.84 -9.81 -9.77 
3260 -9.84 -9.80 -9.77 
3261 -9.83 -9.80 -9.77 
3262 -9.83 -9.80 -9.77 
3263 -9.83 -9.80 -9.77 
3264 -9.83 -9.80 -9.77 
3265 -9.84 -9.80 -9.77 
3266 -9.84 -9.80 -9.77 
3267 -9.84 -9.80 -9.77 
3268 -9.84 -9.80 -9.77 
3269 -9.84 -9.81 -9.77 
3270 -9.85 -9.81 -9.77 
3271 -9.85 -9.81 -9.77 
3272 -9.84 -9.81 -9.77 
3273 -9.85 -9.81 -9.77 
3274 -9.85 -9.81 -9.77 
3275 -9.84 -9.81 -9.77 
3276 -9.84 -9.81 -9.77 
3277 -9.84 -9.81 -9.77 
3278 -9.84 -9.81 -9.77 
3279 -9.84 -9.80 -9.77 
3280 -9.84 -9.81 -9.77 
3281 -9.84 -9.80 -9.77 
3282 -9.84 -9.80 -9.77 
3283 -9.84 -9.80 -9.77 
3284 -9.84 -9.80 -9.77 
3285 -9.84 -9.80 -9.77 
3286 -9.84 -9.79 -9.77 
3287 -9.83 -9.79 -9.77 
3288 -9.83 -9.79 -9.77 
3289 -9.83 -9.79 -9.77 
3290 -9.82 -9.79 -9.77 
3291 -9.82 -9.79 -9.77 
3292 -9.82 -9.79 -9.77 
3293 -9.82 -9.79 -9.77 
3294 -9.82 -9.80 -9.77 
3295 -9.82 -9.79 -9.77 
3296 -9.82 -9.79 -9.77 
3297 -9.82 -9.80 -9.77 
3298 -9.82 -9.80 -9.77 
3299 -9.82 -9.79 -9.77 
3300 -9.82 -9.79 -9.77 
3301 -9.82 -9.79 -9.77 
3302 -9.82 -9.79 -9.77 
3303 -9.81 -9.79 -9.77 
3304 -9.81 -9.79 -9.77 
3305 -9.81 -9.78 -9.77 
3306 -9.81 -9.78 -9.77 
3307 -9.81 -9.78 -9.77 
3308 -9.80 -9.79 -9.77 
3309 -9.81 -9.79 -9.77 
3310 -9.81 -9.79 -9.77 
3311 -9.81 -9.79 -9.77 
3312 -9.81 -9.79 -9.77 
3313 -9.81 -9.79 -9.77 
3314 -9.81 -9.79 -9.77 
3315 -9.81 -9.79 -9.77 
3316 -9.81 -9.79 -9.77 
3317 -9.81 -9.78 -9.77 
3318 -9.81 -9.78 -9.77 
3319 -9.80 -9.79 -9.77 
3320 -9.81 -9.78 -9.77 
3321 -9.81 -9.79 -9.77 
3322 -9.81 -9.78 -9.77 
3323 -9.80 -9.78 -9.77 
3324 -9.80 -9.78 -9.77 
3325 -9.81 -9.78 -9.77 
3326 -9.81 -9.79 -9.77 
3327 -9.81 -9.78 -9.77 
3328 -9.81 -9.78 -9.77 
3329 -9.81 -9.79 -9.77 
3330 -9.81 -9.78 -9.77 
3331 -9.81 -9.78 -9.77 
3332 -9.80 -9.78 -9.77 
3333 -9.80 -9.78 -9.77 
3334 -9.81 -9.78 -9.77 
3335 -9.80 -9.78 -9.77 
3336 -9.81 -9.77 -9.77 
3337 -9.80 -9.77 -9.77 
3338 -9.80 -9.78 -9.77 
3339 -9.81 -9.78 -9.77 
3340 -9.81 -9.78 -9.77 
3341 -9.81 -9.78 -9.77 
3342 -9.81 -9.78 -9.77 
3343 -9.82 -9.78 -9.77 
3344 -9.81 -9.78 -9.77 
3345 -9.81 -9.78 -9.77 
3346 -9.80 -9.78 -9.77 
3347 -9.81 -9.78 -9.77 
3348 -9.81 -9.78 -9.77 
3349 -9.81 -9.78 -9.77 
3350 -9.81 -9.78 -9.77 
3351 -9.81 -9.78 -9.77 
3352 -9.81 -9.78 -9.77 
3353 -9.81 -9.78 -9.77 
3354 -9.81 -9.78 -9.77 
3355 -9.82 -9.81 -9.77 
3356 -9.84 -9.80 -9.77 
3357 -9.83 -9.80 -9.77 
3358 -9.83 -9.83 -9.77 
3359 -9.86 -9.84 -9.77 
3360 -9.87 -9.82 -9.77 
3361 -9.85 -9.79 -9.77 
3362 -9.82 -9.77 -9.77 
3363 -9.80 -9.78 -9.77 
3364 -9.81 -9.79 -9.77 
3365 -9.82 -9.81 -9.77 
3366 -9.84 -9.79 -9.77 
3367 -9.82 -9.78 -9.77 
3368 -9.82 -9.76 -9.77 
3369 -9.80 -9.77 -9.77 
3370 -9.81 -9.76 -9.77 
3371 -9.80 -9.77 -9.77 
3372 -9.80 -9.77 -9.77 
3373 -9.80 -9.78 -9.77 
3374 -9.80 -9.78 -9.77 
3375 -9.81 -9.78 -9.77 
3376 -9.81 -9.78 -9.77 
3377 -9.81 -9.78 -9.77 
3378 -9.82 -9.78 -9.77 
3379 -9.82 -9.78 -9.77 
3380 -9.82 -9.79 -9.77 
3381 -9.82 -9.79 -9.77 
3382 -9.82 -9.78 -9.77 
3383 -9.81 -9.79 -9.77 
3384 -9.82 -9.79 -9.77 
3385 -9.82 -9.80 -9.77 
3386 -9.83 -9.79 -9.77 
3387 -9.83 -9.80 -9.77 
3388 -9.83 -9.80 -9.77 
3389 -9.83 -9.79 -9.77 
3390 -9.83 -9.79 -9.77 
3391 -9.83 -9.79 -9.77 
3392 -9.83 -9.79 -9.77 
3393 -9.83 -9.79 -9.77 
3394 -9.82 -9.79 -9.77 
3395 -9.82 -9.79 -9.77 
3396 -9.83 -9.79 -9.77 
3397 -9.82 -9.80 -9.77 
3398 -9.83 -9.80 -9.77 
3399 -9.83 -9.79 -9.77 
3400 -9.83 -9.79 -9.77 
3401 -9.83 -9.80 -9.77 
3402 -9.84 -9.80 -9.77 
3403 -9.84 -9.80 -9.77 
3404 -9.84 -9.80 -9.77 
3405 -9.84 -9.81 -9.77 
3406 -9.85 -9.81 -9.77 
3407 -9.84 -9.81 -9.77 
3408 -9.85 -9.82 -9.77 
3409 -9.85 -9.81 -9.77 
3410 -9.85 -9.81 -9.77 
3411 -9.85 -9.81 -9.77 
3412 -9.84 -9.82 -9.77 
3413 -9.84 -9.81 -9.77 
3414 -9.84 -9.82 -9.77 
3415 -9.84 -9.82 -9.77 
3416 -9.85 -9.81 -9.77 
3417 -9.84 -9.81 -9.77 
3418 -9.84 -9.81 -9.77 
3419 -9.83 -9.82 -9.77 
3420 -9.84 -9.81 -9.77 
3421 -9.83 -9.81 -9.77 
3422 -9.84 -9.80 -9.77 
3423 -9.83 -9.81 -9.77 
3424 -9.83 -9.80 -9.77 
3425 -9.83 -9.80 -9.77 
3426 -9.83 -9.81 -9.77 
3427 -9.83 -9.81 -9.77 
3428 -9.83 -9.81 -9.77 
3429 -9.84 -9.81 -9.77 
3430 -9.84 -9.81 -9.77 
3431 -9.84 -9.82 -9.77 
3432 -9.84 -9.81 -9.77 
3433 -9.84 -9.81 -9.77 
3434 -9.84 -9.81 -9.77 
3435 -9.83 -9.81 -9.77 
3436 -9.84 -9.81 -9.77 
3437 -9.84 -9.80 -9.77 
3438 -9.83 -9.81 -9.77 
3439 -9.84 -9.81 -9.77 
3440 -9.84 -9.82 -9.77 
3441 -9.85 -9.81 -9.77 
3442 -9.84 -9.81 -9.77 
3443 -9.84 -9.81 -9.77 
3444 -9.84 -9.81 -9.77 
3445 -9.84 -9.81 -9.77 
3446 -9.84 -9.81 -9.77 
3447 -9.85 -9.81 -9.77 
3448 -9.84 -9.81 -9.77 
3449 -9.84 -9.81 -9.77 
3450 -9.85 -9.81 -9.77 
3451 -9.85 -9.81 -9.77 
3452 -9.85 -9.81 -9.77 
3453 -9.86 -9.82 -9.77 
3454 -9.88 -9.82 -9.77 
3455 -9.87 -9.82 -9.77 
3456 -9.87 -9.81 -9.77 
3457 -9.86 -9.80 -9.77 
3458 -9.85 -9.80 -9.77 
3459 -9.85 -9.80 -9.77 
3460 -9.85 -9.81 -9.77 
3461 -9.87 -9.81 -9.77 
3462 -9.86 -9.81 -9.77 
3463 -9.87 -9.81 -9.77 
3464 -9.86 -9.81 -9.77 
3465 -9.85 -9.81 -9.77 
3466 -9.85 -9.81 -9.77 
3467 -9.85 -9.81 -9.77 
3468 -9.85 -9.80 -9.77 
3469 -9.85 -9.81 -9.77 
3470 -9.84 -9.81 -9.77 
3471 -9.85 -9.81 -9.77 
3472 -9.85 -9.81 -9.77 
3473 -9.85 -9.81 -9.77 
3474 -9.85 -9.82 -9.77 
3475 -9.86 -9.82 -9.77 
3476 -9.85 -9.82 -9.77 
3477 -9.85 -9.82 -9.77 
3478 -9.85 -9.82 -9.77 
3479 -9.86 -9.82 -9.77 
3480 -9.86 -9.82 -9.77 
3481 -9.85 -9.82 -9.77 
3482 -9.85 -9.82 -9.77 
3483 -9.86 -9.82 -9.77 
3484 -9.86 -9.82 -9.77 
3485 -9.85 -9.83 -9.77 
3486 -9.85 -9.83 -9.77 
3487 -9.85 -9.83 -9.77 
3488 -9.85 -9.84 -9.77 
3489 -9.86 -9.84 -9.77 
3490 -9.86 -9.83 -9.77 
3491 -9.86 -9.84 -9.77 
3492 -9.87 -9.85 -9.77 
3493 -9.87 -9.84 -9.77 
3494 -9.86 -9.83 -9.77 
3495 -9.86 -9.82 -9.77 
3496 -9.85 -9.82 -9.77 
3497 -9.86 -9.82 -9.77 
3498 -9.85 -9.82 -9.77 
3499 -9.86 -9.83 -9.77 
3500 -9.86 -9.82 -9.77 
3501 -9.86 -9.82 -9.77 
3502 -9.86 -9.82 -9.77 
3503 -9.86 -9.82 -9.77 
3504 -9.85 -9.83 -9.77 
3505 -9.86 -9.83 -9.77 
3506 -9.86 -9.83 -9.77 
3507 -9.86 -9.83 -9.77 
3508 -9.86 -9.82 -9.77 
3509 -9.86 -9.82 -9.77 
3510 -9.86 -9.83 -9.77 
3511 -9.86 -9.83 -9.77 
3512 -9.86 -9.82 -9.77 
3513 -9.85 -9.83 -9.77 
3514 -9.86 -9.83 -9.77 
3515 -9.86 -9.83 -9.77 
3516 -9.86 -9.83 -9.77 
3517 -9.86 -9.82 -9.77 
3518 -9.86 -9.83 -9.77 
3519 -9.86 -9.82 -9.77 
3520 -9.85 -9.82 -9.77 
3521 -9.85 -9.82 -9.77 
3522 -9.85 -9.82 -9.77 
3523 -9.86 -9.82 -9.77 
3524 -9.85 -9.82 -9.77 
3525 -9.85 -9.82 -9.77 
3526 -9.85 -9.82 -9.77 
3527 -9.85 -9.81 -9.77 
3528 -9.84 -9.82 -9.77 
3529 -9.84 -9.82 -9.77 
3530 -9.85 -9.83 -9.77 
3531 -9.85 -9.83 -9.77 
3532 -9.86 -9.83 -9.77 
3533 -9.86 -9.83 -9.77 
3534 -9.86 -9.83 -9.77 
3535 -9.86 -9.83 -9.77 
3536 -9.86 -9.83 -9.77 
3537 -9.86 -9.83 -9.77 
3538 -9.86 -9.83 -9.77 
3539 -9.86 -9.83 -9.77 
3540 -9.86 -9.82 -9.77 
3541 -9.85 -9.83 -9.77 
3542 -9.85 -9.83 -9.77 
3543 -9.86 -9.83 -9.77 
3544 -9.85 -9.83 -9.77 
3545 -9.85 -9.83 -9.77 
3546 -9.86 -9.83 -9.77 
3547 -9.86 -9.83 -9.77 
3548 -9.86 -9.83 -9.77 
3549 -9.86 -9.83 -9.77 
3550 -9.86 -9.83 -9.77 
3551 -9.86 -9.83 -9.77 
3552 -9.85 -9.83 -9.77 
3553 -9.86 -9.83 -9.77 
3554 -9.86 -9.83 -9.77 
3555 -9.86 -9.82 -9.77 
3556 -9.86 -9.83 -9.77 
3557 -9.86 -9.83 -9.77 
3558 -9.86 -9.83 -9.77 
3559 -9.86 -9.83 -9.77 
3560 -9.85 -9.83 -9.77 
3561 -9.85 -9.83 -9.77 
3562 -9.85 -9.83 -9.77 
3563 -9.85 -9.82 -9.77 
3564 -9.85 -9.81 -9.77 
3565 -9.84 -9.82 -9.77 
3566 -9.85 -9.82 -9.77 
3567 -9.84 -9.81 -9.77 
3568 -9.84 -9.81 -9.77 
3569 -9.83 -9.81 -9.77 
3570 -9.83 -9.81 -9.77 
3571 -9.83 -9.82 -9.77 
3572 -9.84 -9.82 -9.77 
3573 -9.84 -9.82 -9.77 
3574 -9.84 -9.81 -9.77 
3575 -9.84 -9.81 -9.77 
3576 -9.84 -9.82 -9.77 
3577 -9.84 -9.81 -9.77 
3578 -9.84 -9.81 -9.77 
3579 -9.84 -9.81 -9.77 
3580 -9.85 -9.81 -9.77 
3581 -9.84 -9.81 -9.77 
3582 -9.83 -9.81 -9.77 
3583 -9.84 -9.81 -9.77 
3584 -9.84 -9.81 -9.77 
3585 -9.83 -9.81 -9.77 
3586 -9.82 -9.81 -9.77 
3587 -9.83 -9.81 -9.77 
3588 -9.83 -9.81 -9.77 
3589 -9.83 -9.81 -9.77 
3590 -9.83 -9.82 -9.77 
3591 -9.83 -9.81 -9.77 
3592 -9.83 -9.81 -9.77 
3593 -9.82 -9.81 -9.77 
3594 -9.83 -9.81 -9.77 
3595 -9.83 -9.81 -9.77 
3596 -9.83 -9.80 -9.77 
3597 -9.82 -9.80 -9.77 
3598 -9.82 -9.81 -9.77 
3599 -9.82 -9.80 -9.77 
3600 -9.82 -9.80 -9.77 
3601 -9.81 -9.80 -9.77 
3602 -9.82 -9.80 -9.77 
3603 -9.81 -9.80 -9.77 
3604 -9.81 -9.80 -9.77 
3605 -9.81 -9.80 -9.77 
3606 -9.81 -9.80 -9.77 
3607 -9.81 -9.79 -9.77 
3608 -9.80 -9.79 -9.77 
3609 -9.80 -9.79 -9.77 
3610 -9.80 -9.79 -9.77 
3611 -9.80 -9.79 -9.77 
3612 -9.81 -9.79 -9.77 
3613 -9.81 -9.79 -9.77 
3614 -9.81 -9.79 -9.77 
3615 -9.80 -9.79 -9.77 
3616 -9.80 -9.78 -9.77 
3617 -9.80 -9.79 -9.77 
3618 -9.80 -9.79 -9.77 
3619 -9.80 -9.79 -9.77 
3620 -9.80 -9.79 -9.77 
3621 -9.81 -9.79 -9.77 
3622 -9.80 -9.79 -9.77 
3623 -9.81 -9.79 -9.77 
3624 -9.80 -9.79 -9.77 
3625 -9.80 -9.79 -9.77 
3626 -9.81 -9.79 -9.77 
3627 -9.80 -9.78 -9.77 
3628 -9.80 -9.78 -9.77 
3629 -9.79 -9.78 -9.77 
3630 -9.79 -9.78 -9.77 
3631 -9.79 -9.77 -9.77 
3632 -9.79 -9.78 -9.77 
3633 -9.79 -9.78 -9.77 
3634 -9.80 -9.79 -9.77 
3635 -9.80 -9.79 -9.77 
3636 -9.80 -9.80 -9.77 
3637 -9.81 -9.80 -9.77 
3638 -9.81 -9.79 -9.77 
3639 -9.80 -9.79 -9.77 
3640 -9.80 -9.78 -9.77 
3641 -9.79 -9.78 -9.77 
3642 -9.79 -9.78 -9.77 
3643 -9.79 -9.79 -9.77 
3644 -9.79 -9.78 -9.77 
3645 -9.79 -9.78 -9.77 
3646 -9.79 -9.77 -9.77 
3647 -9.78 -9.77 -9.77 
3648 -9.78 -9.76 -9.77 
3649 -9.77 -9.76 -9.77 
3650 -9.77 -9.76 -9.77 
3651 -9.77 -9.76 -9.77 
3652 -9.77 -9.76 -9.77 
3653 -9.77 -9.76 -9.77 
3654 -9.77 -9.76 -9.77 
3655 -9.77 -9.76 -9.77 
3656 -9.77 -9.76 -9.77 
3657 -9.77 -9.76 -9.77 
3658 -9.77 -9.76 -9.77 
3659 -9.77 -9.76 -9.77 
3660 -9.77 -9.76 -9.77 
3661 -9.77 -9.76 -9.77 
3662 -9.77 -9.76 -9.77 
3663 -9.78 -9.76 -9.77 
3664 -9.78 -9.76 -9.77 
3665 -9.78 -9.76 -9.77 
3666 -9.77 -9.76 -9.77 
3667 -9.77 -9.76 -9.77 
3668 -9.77 -9.77 -9.77 
3669 -9.78 -9.77 -9.77 
3670 -9.78 -9.77 -9.77 
3671 -9.78 -9.77 -9.77 
3672 -9.78 -9.78 -9.77 
3673 -9.78 -9.78 -9.77 
3674 -9.79 -9.78 -9.77 
3675 -9.79 -9.77 -9.77 
3676 -9.78 -9.77 -9.77 
3677 -9.78 -9.77 -9.77 
3678 -9.78 -9.77 -9.77 
3679 -9.78 -9.77 -9.77 
3680 -9.78 -9.77 -9.77 
3681 -9.79 -9.77 -9.77 
3682 -9.78 -9.77 -9.77 
3683 -9.78 -9.77 -9.77 
3684 -9.78 -9.77 -9.77 
3685 -9.79 -9.77 -9.77 
3686 -9.79 -9.77 -9.77 
3687 -9.79 -9.77 -9.77 
3688 -9.79 -9.77 -9.77 
3689 -9.79 -9.78 -9.77 
3690 -9.79 -9.78 -9.77 
3691 -9.80 -9.78 -9.77 
3692 -9.79 -9.78 -9.77 
3693 -9.79 -9.78 -9.77 
3694 -9.79 -9.77 -9.77 
3695 -9.80 -9.77 -9.77 
3696 -9.80 -9.76 -9.77 
3697 -9.79 -9.76 -9.77 
3698 -9.79 -9.76 -9.77 
3699 -9.78 -9.76 -9.77 
3700 -9.78 -9.75 -9.77 
3701 -9.78 -9.75 -9.77 
3702 -9.78 -9.76 -9.77 
3703 -9.78 -9.75 -9.77 
3704 -9.79 -9.77 -9.77 
3705 -9.79 -9.77 -9.77 
3706 -9.80 -9.78 -9.77 
3707 -9.81 -9.78 -9.77 
3708 -9.81 -9.78 -9.77 
3709 -9.80 -9.78 -9.77 
3710 -9.80 -9.78 -9.77 
3711 -9.80 -9.77 -9.77 
3712 -9.80 -9.78 -9.77 
3713 -9.80 -9.78 -9.77 
3714 -9.81 -9.78 -9.77 
3715 -9.80 -9.77 -9.77 
3716 -9.80 -9.77 -9.77 
3717 -9.79 -9.78 -9.77 
3718 -9.81 -9.78 -9.77 
3719 -9.80 -9.78 -9.77 
3720 -9.80 -9.78 -9.77 
3721 -9.80 -9.77 -9.77 
3722 -9.80 -9.77 -9.77 
3723 -9.80 -9.77 -9.77 
3724 -9.80 -9.78 -9.77 
3725 -9.81 -9.78 -9.77 
3726 -9.81 -9.78 -9.77 
3727 -9.82 -9.78 -9.77 
3728 -9.82 -9.78 -9.77 
3729 -9.82 -9.78 -9.77 
3730 -9.82 -9.77 -9.77 
3731 -9.82 -9.77 -9.77 
3732 -9.81 -9.77 -9.77 
3733 -9.81 -9.77 -9.77 
3734 -9.80 -9.77 -9.77 
3735 -9.80 -9.77 -9.77 
3736 -9.81 -9.77 -9.77 
3737 -9.81 -9.77 -9.77 
3738 -9.81 -9.78 -9.77 
3739 -9.81 -9.77 -9.77 
3740 -9.80 -9.77 -9.77 
3741 -9.80 -9.77 -9.77 
3742 -9.80 -9.76 -9.77 
3743 -9.79 -9.76 -9.77 
3744 -9.79 -9.76 -9.77 
3745 -9.79 -9.76 -9.77 
3746 -9.79 -9.76 -9.77 
3747 -9.79 -9.76 -9.77 
3748 -9.79 -9.76 -9.77 
3749 -9.79 -9.77 -9.77 
3750 -9.79 -9.77 -9.77 
3751 -9.79 -9.76 -9.77 
3752 -9.79 -9.76 -9.77 
3753 -9.79 -9.77 -9.77 
3754 -9.79 -9.77 -9.77 
3755 -9.80 -9.78 -9.77 
3756 -9.80 -9.78 -9.77 
3757 -9.80 -9.77 -9.77 
3758 -9.80 -9.78 -9.77 
3759 -9.80 -9.78 -9.77 
3760 -9.80 -9.78 -9.77 
3761 -9.80 -9.78 -9.77 
3762 -9.81 -9.78 -9.77 
3763 -9.81 -9.78 -9.77 
3764 -9.81 -9.78 -9.77 
3765 -9.81 -9.78 -9.77 
3766 -9.81 -9.79 -9.77 
3767 -9.82 -9.80 -9.77 
3768 -9.82 -9.79 -9.77 
3769 -9.82 -9.79 -9.77 
3770 -9.82 -9.79 -9.77 
3771 -9.82 -9.80 -9.77 
3772 -9.83 -9.79 -9.77 
3773 -9.82 -9.80 -9.77 
3774 -9.82 -9.80 -9.77 
3775 -9.82 -9.80 -9.77 
3776 -9.82 -9.79 -9.77 
3777 -9.81 -9.79 -9.77 
3778 -9.81 -9.78 -9.77 
3779 -9.81 -9.79 -9.77 
3780 -9.81 -9.79 -9.77 
3781 -9.81 -9.78 -9.77 
3782 -9.80 -9.79 -9.77 
3783 -9.81 -9.78 -9.77 
3784 -9.80 -9.78 -9.77 
3785 -9.80 -9.78 -9.77 
3786 -9.80 -9.78 -9.77 
3787 -9.80 -9.78 -9.77 
3788 -9.80 -9.78 -9.77 
3789 -9.80 -9.77 -9.77 
3790 -9.80 -9.77 -9.77 
3791 -9.80 -9.77 -9.77 
3792 -9.79 -9.77 -9.77 
3793 -9.80 -9.77 -9.77 
3794 -9.80 -9.77 -9.77 
3795 -9.80 -9.76 -9.77 
3796 -9.79 -9.77 -9.77 
3797 -9.79 -9.77 -9.77 
3798 -9.80 -9.77 -9.77 
3799 -9.80 -9.77 -9.77 
3800 -9.80 -9.77 -9.77 
3801 -9.80 -9.77 -9.77 
3802 -9.79 -9.76 -9.77 
3803 -9.79 -9.77 -9.77 
3804 -9.80 -9.76 -9.77 
3805 -9.80 -9.77 -9.77 
3806 -9.80 -9.77 -9.77 
3807 -9.80 -9.77 -9.77 
3808 -9.80 -9.76 -9.77 
3809 -9.79 -9.77 -9.77 
3810 -9.79 -9.77 -9.77 
3811 -9.80 -9.77 -9.77 
3812 -9.80 -9.77 -9.77 
3813 -9.80 -9.77 -9.77 
3814 -9.81 -9.77 -9.77 
3815 -9.81 -9.77 -9.77 
3816 -9.81 -9.77 -9.77 
3817 -9.80 -9.77 -9.77 
3818 -9.80 -9.77 -9.77 
3819 -9.80 -9.77 -9.77 
3820 -9.80 -9.77 -9.77 
3821 -9.80 -9.77 -9.77 
3822 -9.81 -9.77 -9.77 
3823 -9.81 -9.77 -9.77 
3824 -9.81 -9.76 -9.77 
3825 -9.80 -9.76 -9.77 
3826 -9.80 -9.77 -9.77 
3827 -9.81 -9.77 -9.77 
3828 -9.81 -9.76 -9.77 
3829 -9.80 -9.76 -9.77 
3830 -9.80 -9.76 -9.77 
3831 -9.80 -9.76 -9.77 
3832 -9.79 -9.76 -9.77 
3833 -9.79 -9.76 -9.77 
3834 -9.79 -9.75 -9.77 
3835 -9.79 -9.75 -9.77 
3836 -9.79 -9.75 -9.77 
3837 -9.78 -9.75 -9.77 
3838 -9.78 -9.75 -9.77 
3839 -9.79 -9.75 -9.77 
3840 -9.79 -9.75 -9.77 
3841 -9.79 -9.75 -9.77 
3842 -9.79 -9.75 -9.77 
3843 -9.79 -9.75 -9.77 
3844 -9.78 -9.75 -9.77 
3845 -9.79 -9.75 -9.77 
3846 -9.79 -9.75 -9.77 
3847 -9.79 -9.75 -9.77 
3848 -9.79 -9.75 -9.77 
3849 -9.79 -9.75 -9.77 
3850 -9.79 -9.75 -9.77 
3851 -9.79 -9.76 -9.77 
3852 -9.79 -9.76 -9.77 
3853 -9.79 -9.76 -9.77 
3854 -9.80 -9.76 -9.77 
3855 -9.80 -9.77 -9.77 
3856 -9.81 -9.77 -9.77 
3857 -9.81 -9.77 -9.77 
3858 -9.81 -9.77 -9.77 
3859 -9.81 -9.77 -9.77 
3860 -9.81 -9.77 -9.77 
3861 -9.81 -9.78 -9.77 
3862 -9.81 -9.78 -9.77 
3863 -9.81 -9.78 -9.77 
3864 -9.81 -9.78 -9.77 
3865 -9.81 -9.78 -9.77 
3866 -9.81 -9.78 -9.77 
3867 -9.81 -9.78 -9.77 
3868 -9.81 -9.78 -9.77 
3869 -9.81 -9.78 -9.77 
3870 -9.81 -9.78 -9.77 
3871 -9.81 -9.78 -9.77 
3872 -9.81 -9.78 -9.77 
3873 -9.81 -9.78 -9.77 
3874 -9.81 -9.78 -9.77 
3875 -9.81 -9.79 -9.77 
3876 -9.82 -9.79 -9.77 
3877 -9.82 -9.79 -9.77 
3878 -9.82 -9.79 -9.77 
3879 -9.82 -9.79 -9.77 
3880 -9.82 -9.79 -9.77 
3881 -9.82 -9.79 -9.77 
3882 -9.82 -9.79 -9.77 
3883 -9.82 -9.79 -9.77 
3884 -9.82 -9.80 -9.77 
3885 -9.82 -9.79 -9.77 
3886 -9.82 -9.79 -9.77 
3887 -9.82 -9.79 -9.77 
3888 -9.82 -9.79 -9.77 
3889 -9.82 -9.78 -9.77 
3890 -9.81 -9.78 -9.77 
3891 -9.81 -9.79 -9.77 
3892 -9.81 -9.79 -9.77 
3893 -9.82 -9.79 -9.77 
3894 -9.82 -9.80 -9.77 
3895 -9.82 -9.80 -9.77 
3896 -9.83 -9.81 -9.77 
3897 -9.83 -9.81 -9.77 
3898 -9.84 -9.81 -9.77 
3899 -9.83 -9.81 -9.77 
3900 -9.84 -9.81 -9.77 
3901 -9.83 -9.80 -9.77 
3902 -9.82 -9.80 -9.77 
3903 -9.82 -9.81 -9.77 
3904 -9.83 -9.81 -9.77 
3905 -9.83 -9.82 -9.77 
3906 -9.84 -9.82 -9.77 
3907 -9.84 -9.82 -9.77 
3908 -9.84 -9.81 -9.77 
3909 -9.83 -9.81 -9.77 
3910 -9.82 -9.81 -9.77 
3911 -9.83 -9.81 -9.77 
3912 -9.83 -9.81 -9.77 
3913 -9.83 -9.81 -9.77 
3914 -9.83 -9.81 -9.77 
3915 -9.84 -9.82 -9.77 
3916 -9.84 -9.82 -9.77 
3917 -9.84 -9.82 -9.77 
3918 -9.85 -9.82 -9.77 
3919 -9.85 -9.83 -9.77 
3920 -9.85 -9.83 -9.77 
3921 -9.85 -9.83 -9.77 
3922 -9.85 -9.83 -9.77 
3923 -9.85 -9.84 -9.77 
3924 -9.86 -9.84 -9.77 
3925 -9.86 -9.83 -9.77 
3926 -9.86 -9.83 -9.77 
3927 -9.85 -9.83 -9.77 
3928 -9.86 -9.83 -9.77 
3929 -9.85 -9.82 -9.77 
3930 -9.85 -9.82 -9.77 
3931 -9.85 -9.82 -9.77 
3932 -9.85 -9.81 -9.77 
3933 -9.85 -9.81 -9.77 
3934 -9.84 -9.81 -9.77 
3935 -9.85 -9.81 -9.77 
3936 -9.84 -9.81 -9.77 
3937 -9.84 -9.81 -9.77 
3938 -9.85 -9.81 -9.77 
3939 -9.84 -9.81 -9.77 
3940 -9.85 -9.81 -9.77 
3941 -9.85 -9.80 -9.77 
3942 -9.85 -9.80 -9.77 
3943 -9.84 -9.80 -9.77 
3944 -9.83 -9.80 -9.77 
3945 -9.83 -9.80 -9.77 
3946 -9.84 -9.79 -9.77 
3947 -9.83 -9.79 -9.77 
3948 -9.84 -9.79 -9.77 
3949 -9.84 -9.79 -9.77 
3950 -9.85 -9.79 -9.77 
3951 -9.84 -9.79 -9.77 
3952 -9.83 -9.79 -9.77 
3953 -9.83 -9.79 -9.77 
3954 -9.82 -9.79 -9.77 
3955 -9.83 -9.79 -9.77 
3956 -9.83 -9.78 -9.77 
3957 -9.83 -9.79 -9.77 
3958 -9.82 -9.79 -9.77 
3959 -9.83 -9.79 -9.77 
3960 -9.85 -9.80 -9.77 
3961 -9.83 -9.80 -9.77 
3962 -9.83 -9.80 -9.77 
3963 -9.83 -9.80 -9.77 
3964 -9.83 -9.80 -9.77 
3965 -9.83 -9.80 -9.77 
3966 -9.82 -9.79 -9.77 
3967 -9.82 -9.79 -9.77 
3968 -9.81 -9.79 -9.77 
3969 -9.81 -9.80 -9.77 
3970 -9.82 -9.80 -9.77 
3971 -9.81 -9.80 -9.77 
3972 -9.81 -9.80 -9.77 
3973 -9.82 -9.80 -9.77 
3974 -9.82 -9.80 -9.77 
3975 -9.81 -9.80 -9.77 
3976 -9.82 -9.79 -9.77 
3977 -9.81 -9.79 -9.77 
3978 -9.82 -9.79 -9.77 
3979 -9.81 -9.80 -9.77 
3980 -9.82 -9.80 -9.77 
3981 -9.82 -9.80 -9.77 
3982 -9.82 -9.80 -9.77 
3983 -9.82 -9.81 -9.77 
3984 -9.82 -9.81 -9.77 
3985 -9.82 -9.81 -9.77 
3986 -9.82 -9.81 -9.77 
3987 -9.82 -9.80 -9.77 
3988 -9.82 -9.80 -9.77 
3989 -9.81 -9.80 -9.77 
3990 -9.81 -9.80 -9.77 
3991 -9.81 -9.80 -9.77 
3992 -9.82 -9.80 -9.77 
3993 -9.82 -9.80 -9.77 
3994 -9.82 -9.80 -9.77 
3995 -9.82 -9.80 -9.77 
3996 -9.82 -9.80 -9.77 
3997 -9.82 -9.80 -9.77 
3998 -9.83 -9.81 -9.77 
3999 -9.83 -9.81 -9.77 
4000 -9.83 -9.80 -9.77 
4001 -9.83 -9.80 -9.77 
4002 -9.83 -9.80 -9.77 
4003 -9.83 -9.80 -9.77 
4004 -9.83 -9.80 -9.77 
4005 -9.84 -9.81 -9.77 
4006 -9.85 -9.81 -9.77 
4007 -9.85 -9.81 -9.77 
4008 -9.85 -9.82 -9.77 
4009 -9.85 -9.82 -9.77 
4010 -9.85 -9.82 -9.77 
4011 -9.85 -9.82 -9.77 
4012 -9.84 -9.81 -9.77 
4013 -9.84 -9.81 -9.77 
4014 -9.84 -9.81 -9.77 
4015 -9.84 -9.81 -9.77 
4016 -9.84 -9.81 -9.77 
4017 -9.84 -9.81 -9.77 
4018 -9.83 -9.81 -9.77 
4019 -9.83 -9.81 -9.77 
4020 -9.84 -9.81 -9.77 
4021 -9.83 -9.80 -9.77 
4022 -9.84 -9.81 -9.77 
4023 -9.84 -9.81 -9.77 
4024 -9.84 -9.81 -9.77 
4025 -9.85 -9.81 -9.77 
4026 -9.84 -9.80 -9.77 
4027 -9.83 -9.80 -9.77 
4028 -9.83 -9.80 -9.77 
4029 -9.83 -9.80 -9.77 
4030 -9.83 -9.80 -9.77 
4031 -9.84 -9.79 -9.77 
4032 -9.84 -9.79 -9.77 
4033 -9.83 -9.79 -9.77 
4034 -9.83 -9.79 -9.77 
4035 -9.83 -9.79 -9.77 
4036 -9.83 -9.79 -9.77 
4037 -9.83 -9.79 -9.77 
4038 -9.84 -9.79 -9.77 
4039 -9.83 -9.80 -9.77 
4040 -9.84 -9.79 -9.77 
4041 -9.83 -9.79 -9.77 
4042 -9.83 -9.80 -9.77 
4043 -9.83 -9.80 -9.77 
4044 -9.84 -9.80 -9.77 
4045 -9.84 -9.80 -9.77 
4046 -9.84 -9.80 -9.77 
4047 -9.85 -9.80 -9.77 
4048 -9.84 -9.80 -9.77 
4049 -9.84 -9.80 -9.77 
4050 -9.84 -9.81 -9.77 
4051 -9.85 -9.81 -9.77 
4052 -9.85 -9.81 -9.77 
4053 -9.85 -9.81 -9.77 
4054 -9.85 -9.81 -9.77 
4055 -9.85 -9.82 -9.77 
4056 -9.85 -9.81 -9.77 
4057 -9.85 -9.81 -9.77 
4058 -9.85 -9.81 -9.77 
4059 -9.85 -9.81 -9.77 
4060 -9.85 -9.81 -9.77 
4061 -9.84 -9.81 -9.77 
4062 -9.84 -9.81 -9.77 
4063 -9.84 -9.80 -9.77 
4064 -9.84 -9.80 -9.77 
4065 -9.84 -9.80 -9.77 
4066 -9.84 -9.80 -9.77 
4067 -9.84 -9.80 -9.77 
4068 -9.84 -9.80 -9.77 
4069 -9.84 -9.81 -9.77 
4070 -9.84 -9.80 -9.77 
4071 -9.85 -9.80 -9.77 
4072 -9.85 -9.80 -9.77 
4073 -9.84 -9.80 -9.77 
4074 -9.84 -9.81 -9.77 
4075 -9.85 -9.81 -9.77 
4076 -9.85 -9.82 -9.77 
4077 -9.85 -9.82 -9.77 
4078 -9.86 -9.82 -9.77 
4079 -9.86 -9.82 -9.77 
4080 -9.86 -9.82 -9.77 
4081 -9.86 -9.82 -9.77 
4082 -9.86 -9.82 -9.77 
4083 -9.86 -9.82 -9.77 
4084 -9.86 -9.83 -9.77 
4085 -9.86 -9.83 -9.77 
4086 -9.86 -9.82 -9.77 
4087 -9.86 -9.83 -9.77 
4088 -9.86 -9.83 -9.77 
4089 -9.86 -9.84 -9.77 
4090 -9.87 -9.84 -9.77 
4091 -9.87 -9.83 -9.77 
4092 -9.86 -9.83 -9.77 
4093 -9.87 -9.84 -9.77 
4094 -9.86 -9.84 -9.77 
4095 -9.87 -9.85 -9.77 
4096 -9.87 -9.85 -9.77 
4097 -9.87 -9.85 -9.77 
4098 -9.87 -9.86 -9.77 
4099 -9.88 -9.86 -9.77 
4100 -9.87 -9.86 -9.77 
4101 -9.88 -9.86 -9.77 
4102 -9.87 -9.86 -9.77 
4103 -9.87 -9.85 -9.77 
4104 -9.87 -9.85 -9.77 
4105 -9.87 -9.84 -9.77 
4106 -9.86 -9.84 -9.77 
4107 -9.86 -9.84 -9.77 
4108 -9.86 -9.84 -9.77 
4109 -9.86 -9.84 -9.77 
4110 -9.86 -9.84 -9.77 
4111 -9.86 -9.84 -9.77 
4112 -9.86 -9.83 -9.77 
4113 -9.86 -9.83 -9.77 
4114 -9.85 -9.83 -9.77 
4115 -9.85 -9.82 -9.77 
4116 -9.85 -9.83 -9.77 
4117 -9.85 -9.83 -9.77 
4118 -9.85 -9.82 -9.77 
4119 -9.85 -9.83 -9.77 
4120 -9.86 -9.82 -9.77 
4121 -9.85 -9.82 -9.77 
4122 -9.85 -9.82 -9.77 
4123 -9.85 -9.83 -9.77 
4124 -9.85 -9.83 -9.77 
4125 -9.85 -9.82 -9.77 
4126 -9.85 -9.82 -9.77 
4127 -9.85 -9.82 -9.77 
4128 -9.85 -9.82 -9.77 
4129 -9.85 -9.82 -9.77 
4130 -9.85 -9.82 -9.77 
4131 -9.85 -9.82 -9.77 
4132 -9.85 -9.82 -9.77 
4133 -9.85 -9.82 -9.77 
4134 -9.85 -9.82 -9.77 
4135 -9.84 -9.82 -9.77 
4136 -9.84 -9.82 -9.77 
4137 -9.84 -9.81 -9.77 
4138 -9.84 -9.81 -9.77 
4139 -9.84 -9.82 -9.77 
4140 -9.84 -9.81 -9.77 
4141 -9.83 -9.81 -9.77 
4142 -9.84 -9.81 -9.77 
4143 -9.84 -9.81 -9.77 
4144 -9.84 -9.81 -9.77 
4145 -9.84 -9.81 -9.77 
4146 -9.84 -9.81 -9.77 
4147 -9.84 -9.81 -9.77 
4148 -9.83 -9.81 -9.77 
4149 -9.83 -9.81 -9.77 
4150 -9.83 -9.80 -9.77 
4151 -9.83 -9.80 -9.77 
4152 -9.83 -9.80 -9.77 
4153 -9.83 -9.80 -9.77 
4154 -9.83 -9.81 -9.77 
4155 -9.83 -9.80 -9.77 
4156 -9.83 -9.80 -9.77 
4157 -9.83 -9.81 -9.77 
4158 -9.83 -9.80 -9.77 
4159 -9.83 -9.80 -9.77 
4160 -9.83 -9.80 -9.77 
4161 -9.83 -9.80 -9.77 
4162 -9.82 -9.80 -9.77 
4163 -9.82 -9.80 -9.77 
4164 -9.82 -9.80 -9.77 
4165 -9.82 -9.80 -9.77 
4166 -9.83 -9.80 -9.77 
4167 -9.83 -9.80 -9.77 
4168 -9.83 -9.80 -9.77 
4169 -9.83 -9.80 -9.77 
4170 -9.83 -9.81 -9.77 
4171 -9.83 -9.81 -9.77 
4172 -9.83 -9.81 -9.77 
4173 -9.83 -9.81 -9.77 
4174 -9.83 -9.81 -9.77 
4175 -9.83 -9.80 -9.77 
4176 -9.83 -9.81 -9.77 
4177 -9.83 -9.81 -9.77 
4178 -9.83 -9.81 -9.77 
4179 -9.84 -9.81 -9.77 
4180 -9.84 -9.81 -9.77 
4181 -9.83 -9.81 -9.77 
4182 -9.83 -9.81 -9.77 
4183 -9.84 -9.82 -9.77 
4184 -9.84 -9.82 -9.77 
4185 -9.84 -9.82 -9.77 
4186 -9.84 -9.82 -9.77 
4187 -9.84 -9.82 -9.77 
4188 -9.85 -9.81 -9.77 
4189 -9.84 -9.81 -9.77 
4190 -9.84 -9.80 -9.77 
4191 -9.84 -9.81 -9.77 
4192 -9.84 -9.80 -9.77 
4193 -9.83 -9.80 -9.77 
4194 -9.84 -9.81 -9.77 
4195 -9.84 -9.81 -9.77 
4196 -9.84 -9.81 -9.77 
4197 -9.84 -9.81 -9.77 
4198 -9.84 -9.81 -9.77 
4199 -9.84 -9.82 -9.77 
4200 -9.85 -9.82 -9.77 
4201 -9.84 -9.82 -9.77 
4202 -9.85 -9.82 -9.77 
4203 -9.86 -9.82 -9.77 
4204 -9.87 -9.83 -9.77 
4205 -9.86 -9.83 -9.77 
4206 -9.85 -9.83 -9.77 
4207 -9.88 -9.84 -9.77 
4208 -9.89 -9.93 -9.77 
4209 -9.98 -9.87 -9.77 
4210 -9.91 -9.93 -9.77 
4211 -9.98 -9.88 -9.77 
4212 -9.94 -9.87 -9.77 
4213 -9.93 -9.93 -9.77 
4214 -9.97 -9.84 -9.77 
4215 -9.90 -9.82 -9.77 
4216 -9.87 -9.82 -9.77 
4217 -9.87 -9.81 -9.77 
4218 -9.86 -9.81 -9.77 
4219 -9.87 -9.82 -9.77 
4220 -9.87 -9.82 -9.77 
4221 -9.86 -9.82 -9.77 
4222 -9.87 -9.82 -9.77 
4223 -9.85 -9.82 -9.77 
4224 -9.86 -9.82 -9.77 
4225 -9.84 -9.82 -9.77 
4226 -9.84 -9.82 -9.77 
4227 -9.85 -9.82 -9.77 
4228 -9.84 -9.81 -9.77 
4229 -9.84 -9.81 -9.77 
4230 -9.84 -9.81 -9.77 
4231 -9.83 -9.82 -9.77 
4232 -9.84 -9.81 -9.77 
4233 -9.83 -9.81 -9.77 
4234 -9.83 -9.81 -9.77 
4235 -9.83 -9.82 -9.77 
4236 -9.83 -9.82 -9.77 
4237 -9.84 -9.82 -9.77 
4238 -9.84 -9.82 -9.77 
4239 -9.84 -9.82 -9.77 
4240 -9.84 -9.81 -9.77 
4241 -9.84 -9.81 -9.77 
4242 -9.84 -9.81 -9.77 
4243 -9.84 -9.81 -9.77 
4244 -9.84 -9.81 -9.77 
4245 -9.84 -9.81 -9.77 
4246 -9.86 -9.82 -9.77 
4247 -9.86 -9.82 -9.77 
4248 -9.88 -9.81 -9.77 
4249 -9.84 -9.80 -9.77 
4250 -9.83 -9.80 -9.77 
4251 -9.82 -9.80 -9.77 
4252 -9.82 -9.80 -9.77 
4253 -9.83 -9.80 -9.77 
4254 -9.84 -9.80 -9.77 
4255 -9.83 -9.80 -9.77 
4256 -9.83 -9.80 -9.77 
4257 -9.83 -9.80 -9.77 
4258 -9.83 -9.80 -9.77 
4259 -9.85 -9.82 -9.77 
4260 -9.88 -9.81 -9.77 
4261 -9.85 -9.81 -9.77 
4262 -9.86 -9.84 -9.77 
4263 -9.90 -9.84 -9.77 
4264 -9.90 -9.90 -9.77 
4265 -9.94 -9.83 -9.77 
4266 -9.88 -9.81 -9.77 
4267 -9.85 -9.81 -9.77 
4268 -9.85 -9.81 -9.77 
4269 -9.87 -9.81 -9.77 
4270 -9.84 -9.81 -9.77 
4271 -9.85 -9.82 -9.77 
4272 -9.88 -9.81 -9.77 
4273 -9.86 -9.81 -9.77 
4274 -9.84 -9.80 -9.77 
4275 -9.83 -9.80 -9.77 
4276 -9.83 -9.80 -9.77 
4277 -9.82 -9.80 -9.77 
4278 -9.82 -9.80 -9.77 
4279 -9.84 -9.80 -9.77 
4280 -9.84 -9.80 -9.77 
4281 -9.85 -9.80 -9.77 
4282 -9.84 -9.79 -9.77 
4283 -9.84 -9.80 -9.77 
4284 -9.84 -9.80 -9.77 
4285 -9.83 -9.80 -9.77 
4286 -9.88 -9.80 -9.77 
4287 -9.84 -9.80 -9.77 
4288 -9.85 -9.80 -9.77 
4289 -9.86 -9.85 -9.77 
4290 -9.92 -9.81 -9.77 
4291 -9.89 -9.80 -9.77 
4292 -9.87 -9.80 -9.77 
4293 -9.87 -9.84 -9.77 
4294 -9.92 -9.87 -9.77 
4295 -9.95 -9.84 -9.77 
4296 -9.92 -9.82 -9.77 
4297 -9.91 -9.81 -9.77 
4298 -9.90 -9.82 -9.77 
4299 -9.91 -9.82 -9.77 
4300 -9.91 -9.80 -9.77 
4301 -9.86 -9.79 -9.77 
4302 -9.84 -9.79 -9.77 
4303 -9.82 -9.79 -9.77 
4304 -9.83 -9.79 -9.77 
4305 -9.82 -9.79 -9.77 
4306 -9.82 -9.79 -9.77 
4307 -9.82 -9.79 -9.77 
4308 -9.81 -9.79 -9.77 
4309 -9.82 -9.79 -9.77 
4310 -9.82 -9.79 -9.77 
4311 -9.82 -9.79 -9.77 
4312 -9.83 -9.79 -9.77 
4313 -9.82 -9.79 -9.77 
4314 -9.82 -9.79 -9.77 
4315 -9.83 -9.79 -9.77 
4316 -9.82 -9.79 -9.77 
4317 -9.83 -9.79 -9.77 
4318 -9.82 -9.79 -9.77 
4319 -9.82 -9.79 -9.77 
4320 -9.82 -9.78 -9.77 
4321 -9.81 -9.78 -9.77 
4322 -9.81 -9.78 -9.77 
4323 -9.81 -9.79 -9.77 
4324 -9.81 -9.79 -9.77 
4325 -9.82 -9.79 -9.77 
4326 -9.81 -9.79 -9.77 
4327 -9.81 -9.79 -9.77 
4328 -9.81 -9.78 -9.77 
4329 -9.81 -9.78 -9.77 
4330 -9.81 -9.79 -9.77 
4331 -9.81 -9.79 -9.77 
4332 -9.82 -9.79 -9.77 
4333 -9.81 -9.79 -9.77 
4334 -9.81 -9.79 -9.77 
4335 -9.82 -9.79 -9.77 
4336 -9.82 -9.79 -9.77 
4337 -9.82 -9.79 -9.77 
4338 -9.82 -9.79 -9.77 
4339 -9.82 -9.79 -9.77 
4340 -9.82 -9.79 -9.77 
4341 -9.82 -9.79 -9.77 
4342 -9.82 -9.79 -9.77 
4343 -9.82 -9.79 -9.77 
4344 -9.82 -9.79 -9.77 
4345 -9.82 -9.79 -9.77 
4346 -9.82 -9.79 -9.77 
4347 -9.82 -9.79 -9.77 
4348 -9.82 -9.79 -9.77 
4349 -9.82 -9.79 -9.77 
4350 -9.82 -9.79 -9.77 
4351 -9.82 -9.79 -9.77 
4352 -9.82 -9.78 -9.77 
4353 -9.82 -9.78 -9.77 
4354 -9.82 -9.78 -9.77 
4355 -9.82 -9.79 -9.77 
4356 -9.82 -9.78 -9.77 
4357 -9.82 -9.78 -9.77 
4358 -9.81 -9.77 -9.77 
4359 -9.81 -9.77 -9.77 
4360 -9.81 -9.78 -9.77 
4361 -9.81 -9.78 -9.77 
4362 -9.81 -9.78 -9.77 
4363 -9.82 -9.78 -9.77 
4364 -9.82 -9.78 -9.77 
4365 -9.82 -9.78 -9.77 
4366 -9.81 -9.78 -9.77 
4367 -9.81 -9.78 -9.77 
4368 -9.81 -9.78 -9.77 
4369 -9.81 -9.78 -9.77 
4370 -9.81 -9.78 -9.77 
4371 -9.81 -9.79 -9.77 
4372 -9.82 -9.79 -9.77 
4373 -9.82 -9.78 -9.77 
4374 -9.81 -9.78 -9.77 
4375 -9.80 -9.78 -9.77 
4376 -9.81 -9.78 -9.77 
4377 -9.81 -9.78 -9.77 
4378 -9.80 -9.78 -9.77 
4379 -9.80 -9.77 -9.77 
4380 -9.80 -9.77 -9.77 
4381 -9.80 -9.77 -9.77 
4382 -9.80 -9.77 -9.77 
4383 -9.80 -9.77 -9.77 
4384 -9.79 -9.77 -9.77 
4385 -9.80 -9.77 -9.77 
4386 -9.80 -9.77 -9.77 
4387 -9.80 -9.77 -9.77 
4388 -9.80 -9.77 -9.77 
4389 -9.80 -9.77 -9.77 
4390 -9.80 -9.77 -9.77 
4391 -9.80 -9.77 -9.77 
4392 -9.80 -9.77 -9.77 
4393 -9.80 -9.77 -9.77 
4394 -9.80 -9.77 -9.77 
4395 -9.82 -9.77 -9.77 
4396 -9.82 -9.77 -9.77 
4397 -9.82 -9.77 -9.77 
4398 -9.83 -9.82 -9.77 
4399 -9.87 -9.83 -9.77 
4400 -9.88 -9.79 -9.77 
4401 -9.85 -9.84 -9.77 
4402 -9.90 -9.83 -9.77 
4403 -9.88 -9.81 -9.77 
4404 -9.86 -9.79 -9.77 
4405 -9.84 -9.81 -9.77 
4406 -9.86 -9.79 -9.77 
4407 -9.84 -9.82 -9.77 
4408 -9.87 -9.81 -9.77 
4409 -9.86 -9.80 -9.77 
4410 -9.85 -9.78 -9.77 
4411 -9.83 -9.83 -9.77 
4412 -9.89 -9.77 -9.77 
4413 -9.84 -9.80 -9.77 
4414 -9.86 -9.78 -9.77 
4415 -9.84 -9.79 -9.77 
4416 -9.85 -9.77 -9.77 
4417 -9.83 -9.77 -9.77 
4418 -9.82 -9.77 -9.77 
4419 -9.82 -9.76 -9.77 
4420 -9.81 -9.76 -9.77 
4421 -9.80 -9.76 -9.77 
4422 -9.80 -9.76 -9.77 
4423 -9.80 -9.76 -9.77 
4424 -9.80 -9.76 -9.77 
4425 -9.80 -9.76 -9.77 
4426 -9.80 -9.76 -9.77 
4427 -9.80 -9.77 -9.77 
4428 -9.81 -9.77 -9.77 
4429 -9.81 -9.77 -9.77 
4430 -9.81 -9.78 -9.77 
4431 -9.82 -9.77 -9.77 
4432 -9.81 -9.77 -9.77 
4433 -9.81 -9.77 -9.77 
4434 -9.81 -9.78 -9.77 
4435 -9.81 -9.78 -9.77 
4436 -9.81 -9.78 -9.77 
4437 -9.81 -9.79 -9.77 
4438 -9.82 -9.79 -9.77 
4439 -9.82 -9.79 -9.77 
4440 -9.81 -9.79 -9.77 
4441 -9.81 -9.80 -9.77 
4442 -9.82 -9.79 -9.77 
4443 -9.82 -9.79 -9.77 
4444 -9.81 -9.79 -9.77 
4445 -9.82 -9.80 -9.77 
4446 -9.82 -9.79 -9.77 
4447 -9.81 -9.79 -9.77 
4448 -9.81 -9.78 -9.77 
4449 -9.81 -9.79 -9.77 
4450 -9.83 -9.79 -9.77 
4451 -9.82 -9.79 -9.77 
4452 -9.82 -9.79 -9.77 
4453 -9.82 -9.79 -9.77 
4454 -9.82 -9.79 -9.77 
4455 -9.83 -9.78 -9.77 
4456 -9.82 -9.79 -9.77 
4457 -9.82 -9.78 -9.77 
4458 -9.83 -9.78 -9.77 
4459 -9.82 -9.78 -9.77 
4460 -9.82 -9.78 -9.77 
4461 -9.81 -9.78 -9.77 
4462 -9.82 -9.78 -9.77 
4463 -9.80 -9.78 -9.77 
4464 -9.81 -9.79 -9.77 
4465 -9.81 -9.78 -9.77 
4466 -9.81 -9.77 -9.77 
4467 -9.81 -9.77 -9.77 
4468 -9.80 -9.77 -9.77 
4469 -9.81 -9.78 -9.77 
4470 -9.81 -9.77 -9.77 
4471 -9.81 -9.77 -9.77 
4472 -9.80 -9.78 -9.77 
4473 -9.81 -9.78 -9.77 
4474 -9.81 -9.78 -9.77 
4475 -9.82 -9.78 -9.77 
4476 -9.81 -9.79 -9.77 
4477 -9.81 -9.79 -9.77 
4478 -9.82 -9.78 -9.77 
4479 -9.82 -9.78 -9.77 
4480 -9.84 -9.77 -9.77 
4481 -9.81 -9.77 -9.77 
4482 -9.81 -9.77 -9.77 
4483 -9.82 -9.78 -9.77 
4484 -9.83 -9.81 -9.77 
4485 -9.86 -9.78 -9.77 
4486 -9.84 -9.77 -9.77 
4487 -9.83 -9.81 -9.77 
4488 -9.86 -9.82 -9.77 
4489 -9.86 -9.84 -9.77 
4490 -9.88 -9.81 -9.77 
4491 -9.86 -9.80 -9.77 
4492 -9.85 -9.84 -9.77 
4493 -9.89 -9.82 -9.77 
4494 -9.87 -9.81 -9.77 
4495 -9.86 -9.78 -9.77 
4496 -9.83 -9.77 -9.77 
4497 -9.82 -9.77 -9.77 
4498 -9.82 -9.78 -9.77 
4499 -9.81 -9.78 -9.77 
4500 -9.80 -9.77 -9.77 
4501 -9.80 -9.78 -9.77 
4502 -9.80 -9.78 -9.77 
4503 -9.80 -9.78 -9.77 
4504 -9.80 -9.78 -9.77 
4505 -9.80 -9.77 -9.77 
4506 -9.80 -9.77 -9.77 
4507 -9.79 -9.77 -9.77 
4508 -9.79 -9.77 -9.77 
4509 -9.79 -9.77 -9.77 
4510 -9.79 -9.77 -9.77 
4511 -9.79 -9.76 -9.77 
4512 -9.79 -9.77 -9.77 
4513 -9.79 -9.77 -9.77 
4514 -9.79 -9.77 -9.77 
4515 -9.79 -9.77 -9.77 
4516 -9.79 -9.77 -9.77 
4517 -9.79 -9.77 -9.77 
4518 -9.79 -9.77 -9.77 
4519 -9.79 -9.77 -9.77 
4520 -9.79 -9.77 -9.77 
4521 -9.79 -9.77 -9.77 
4522 -9.79 -9.77 -9.77 
4523 -9.79 -9.77 -9.77 
4524 -9.79 -9.78 -9.77 
4525 -9.80 -9.78 -9.77 
4526 -9.79 -9.77 -9.77 
4527 -9.79 -9.77 -9.77 
4528 -9.79 -9.77 -9.77 
4529 -9.79 -9.77 -9.77 
4530 -9.79 -9.77 -9.77 
4531 -9.79 -9.77 -9.77 
4532 -9.79 -9.76 -9.77 
4533 -9.79 -9.76 -9.77 
4534 -9.79 -9.76 -9.77 
4535 -9.79 -9.77 -9.77 
4536 -9.79 -9.78 -9.77 
4537 -9.80 -9.77 -9.77 
4538 -9.80 -9.77 -9.77 
4539 -9.81 -9.78 -9.77 
4540 -9.83 -9.79 -9.77 
4541 -9.84 -9.76 -9.77 
4542 -9.81 -9.76 -9.77 
4543 -9.80 -9.76 -9.77 
4544 -9.80 -9.76 -9.77 
4545 -9.79 -9.76 -9.77 
4546 -9.79 -9.76 -9.77 
4547 -9.80 -9.76 -9.77 
4548 -9.80 -9.77 -9.77 
4549 -9.81 -9.77 -9.77 
4550 -9.80 -9.78 -9.77 
4551 -9.82 -9.78 -9.77 
4552 -9.82 -9.77 -9.77 
4553 -9.82 -9.76 -9.77 
4554 -9.80 -9.77 -9.77 
4555 -9.81 -9.77 -9.77 
4556 -9.80 -9.78 -9.77 
4557 -9.80 -9.78 -9.77 
4558 -9.80 -9.78 -9.77 
4559 -9.80 -9.77 -9.77 
4560 -9.80 -9.76 -9.77 
4561 -9.79 -9.76 -9.77 
4562 -9.79 -9.76 -9.77 
4563 -9.79 -9.76 -9.77 
4564 -9.79 -9.76 -9.77 
4565 -9.79 -9.76 -9.77 
4566 -9.79 -9.76 -9.77 
4567 -9.79 -9.76 -9.77 
4568 -9.79 -9.76 -9.77 
4569 -9.79 -9.77 -9.77 
4570 -9.79 -9.77 -9.77 
4571 -9.79 -9.76 -9.77 
4572 -9.78 -9.76 -9.77 
4573 -9.79 -9.76 -9.77 
4574 -9.79 -9.76 -9.77 
4575 -9.79 -9.76 -9.77 
4576 -9.78 -9.76 -9.77 
4577 -9.78 -9.75 -9.77 
4578 -9.78 -9.75 -9.77 
4579 -9.77 -9.75 -9.77 
4580 -9.77 -9.75 -9.77 
4581 -9.77 -9.75 -9.77 
4582 -9.77 -9.75 -9.77 
4583 -9.77 -9.75 -9.77 
4584 -9.77 -9.75 -9.77 
4585 -9.77 -9.75 -9.77 
4586 -9.77 -9.75 -9.77 
4587 -9.77 -9.75 -9.77 
4588 -9.77 -9.75 -9.77 
4589 -9.77 -9.75 -9.77 
4590 -9.77 -9.74 -9.77 
4591 -9.77 -9.75 -9.77 
4592 -9.77 -9.74 -9.77 
4593 -9.77 -9.75 -9.77 
4594 -9.77 -9.75 -9.77 
4595 -9.77 -9.74 -9.77 
4596 -9.77 -9.75 -9.77 
4597 -9.77 -9.74 -9.77 
4598 -9.76 -9.75 -9.77 
4599 -9.77 -9.75 -9.76 
4600 -9.77 -9.75 -9.76 
4601 -9.77 -9.75 -9.76 
4602 -9.78 -9.75 -9.76 
4603 -9.78 -9.75 -9.76 
4604 -9.77 -9.75 -9.76 
4605 -9.77 -9.76 -9.76 
4606 -9.77 -9.76 -9.76 
4607 -9.77 -9.75 -9.76 
4608 -9.77 -9.76 -9.76 
4609 -9.78 -9.76 -9.76 
4610 -9.78 -9.76 -9.76 
4611 -9.78 -9.76 -9.76 
4612 -9.78 -9.76 -9.76 
4613 -9.77 -9.75 -9.76 
4614 -9.77 -9.75 -9.76 
4615 -9.77 -9.75 -9.76 
4616 -9.77 -9.75 -9.76 
4617 -9.77 -9.75 -9.76 
4618 -9.78 -9.75 -9.76 
4619 -9.78 -9.75 -9.76 
4620 -9.78 -9.75 -9.76 
4621 -9.78 -9.75 -9.76 
4622 -9.78 -9.75 -9.76 
4623 -9.78 -9.75 -9.76 
4624 -9.78 -9.75 -9.76 
4625 -9.78 -9.74 -9.76 
4626 -9.77 -9.74 -9.76 
4627 -9.77 -9.74 -9.76 
4628 -9.77 -9.75 -9.76 
4629 -9.78 -9.75 -9.76 
4630 -9.78 -9.75 -9.76 
4631 -9.78 -9.75 -9.76 
4632 -9.78 -9.75 -9.76 
4633 -9.78 -9.76 -9.76 
4634 -9.78 -9.76 -9.76 
4635 -9.78 -9.76 -9.76 
4636 -9.78 -9.76 -9.76 
4637 -9.78 -9.75 -9.76 
4638 -9.78 -9.76 -9.76 
4639 -9.77 -9.76 -9.76 
4640 -9.78 -9.76 -9.76 
4641 -9.78 -9.76 -9.76 
4642 -9.77 -9.75 -9.76 
4643 -9.77 -9.76 -9.76 
4644 -9.77 -9.75 -9.76 
4645 -9.77 -9.76 -9.76 
4646 -9.78 -9.76 -9.76 
4647 -9.78 -9.76 -9.76 
4648 -9.78 -9.77 -9.76 
4649 -9.78 -9.77 -9.76 
4650 -9.78 -9.77 -9.76 
4651 -9.78 -9.77 -9.76 
4652 -9.79 -9.77 -9.76 
4653 -9.79 -9.77 -9.76 
4654 -9.79 -9.76 -9.76 
4655 -9.79 -9.77 -9.76 
4656 -9.79 -9.76 -9.76 
4657 -9.78 -9.76 -9.76 
4658 -9.79 -9.77 -9.76 
4659 -9.79 -9.77 -9.76 
4660 -9.79 -9.77 -9.76 
4661 -9.79 -9.77 -9.76 
4662 -9.79 -9.77 -9.76 
4663 -9.79 -9.77 -9.76 
4664 -9.79 -9.77 -9.76 
4665 -9.79 -9.77 -9.76 
4666 -9.79 -9.77 -9.76 
4667 -9.79 -9.77 -9.76 
4668 -9.79 -9.77 -9.76 
4669 -9.79 -9.77 -9.76 
4670 -9.80 -9.77 -9.76 
4671 -9.80 -9.77 -9.76 
4672 -9.79 -9.77 -9.76 
4673 -9.79 -9.78 -9.76 
4674 -9.80 -9.77 -9.76 
4675 -9.79 -9.77 -9.76 
4676 -9.79 -9.76 -9.76 
4677 -9.79 -9.76 -9.76 
4678 -9.79 -9.76 -9.76 
4679 -9.79 -9.76 -9.76 
4680 -9.79 -9.76 -9.76 
4681 -9.79 -9.76 -9.76 
4682 -9.78 -9.76 -9.76 
4683 -9.78 -9.76 -9.76 
4684 -9.79 -9.77 -9.76 
4685 -9.79 -9.77 -9.76 
4686 -9.78 -9.77 -9.76 
4687 -9.79 -9.77 -9.76 
4688 -9.79 -9.77 -9.76 
4689 -9.79 -9.77 -9.76 
4690 -9.79 -9.77 -9.76 
4691 -9.79 -9.77 -9.76 
4692 -9.79 -9.77 -9.76 
4693 -9.78 -9.77 -9.76 
4694 -9.78 -9.77 -9.76 
4695 -9.78 -9.76 -9.76 
4696 -9.77 -9.76 -9.76 
4697 -9.77 -9.76 -9.76 
4698 -9.77 -9.76 -9.76 
4699 -9.77 -9.76 -9.76 
4700 -9.78 -9.76 -9.76 
4701 -9.77 -9.77 -9.76 
4702 -9.78 -9.77 -9.76 
4703 -9.78 -9.76 -9.76 
4704 -9.78 -9.76 -9.76 
4705 -9.77 -9.76 -9.76 
4706 -9.77 -9.76 -9.76 
4707 -9.77 -9.76 -9.76 
4708 -9.77 -9.76 -9.76 
4709 -9.78 -9.76 -9.76 
4710 -9.78 -9.76 -9.76 
4711 -9.78 -9.76 -9.76 
4712 -9.78 -9.76 -9.76 
4713 -9.77 -9.76 -9.76 
4714 -9.77 -9.76 -9.76 
4715 -9.77 -9.76 -9.76 
4716 -9.77 -9.76 -9.76 
4717 -9.78 -9.77 -9.76 
4718 -9.78 -9.77 -9.76 
4719 -9.79 -9.77 -9.76 
4720 -9.78 -9.76 -9.76 
4721 -9.78 -9.77 -9.76 
4722 -9.78 -9.77 -9.76 
4723 -9.78 -9.76 -9.76 
4724 -9.78 -9.76 -9.76 
4725 -9.78 -9.76 -9.76 
4726 -9.78 -9.76 -9.76 
4727 -9.78 -9.76 -9.76 
4728 -9.78 -9.76 -9.76 
4729 -9.78 -9.76 -9.76 
4730 -9.78 -9.76 -9.76 
4731 -9.78 -9.76 -9.76 
4732 -9.78 -9.76 -9.76 
4733 -9.78 -9.76 -9.76 
4734 -9.78 -9.77 -9.76 
4735 -9.79 -9.77 -9.76 
4736 -9.79 -9.77 -9.76 
4737 -9.79 -9.77 -9.76 
4738 -9.79 -9.77 -9.76 
4739 -9.79 -9.76 -9.76 
4740 -9.78 -9.76 -9.76 
4741 -9.78 -9.76 -9.76 
4742 -9.79 -9.76 -9.76 
4743 -9.78 -9.76 -9.76 
4744 -9.78 -9.77 -9.76 
4745 -9.79 -9.76 -9.76 
4746 -9.79 -9.76 -9.76 
4747 -9.79 -9.76 -9.76 
4748 -9.79 -9.76 -9.76 
4749 -9.79 -9.76 -9.76 
4750 -9.79 -9.76 -9.76 
4751 -9.79 -9.76 -9.76 
4752 -9.79 -9.76 -9.76 
4753 -9.78 -9.76 -9.76 
4754 -9.78 -9.76 -9.76 
4755 -9.78 -9.76 -9.76 
4756 -9.78 -9.76 -9.76 
4757 -9.78 -9.76 -9.76 
4758 -9.77 -9.75 -9.76 
4759 -9.77 -9.75 -9.76 
4760 -9.77 -9.75 -9.76 
4761 -9.77 -9.75 -9.76 
4762 -9.78 -9.75 -9.76 
4763 -9.78 -9.76 -9.76 
4764 -9.77 -9.76 -9.76 
4765 -9.78 -9.76 -9.76 
4766 -9.78 -9.76 -9.76 
4767 -9.78 -9.76 -9.76 
4768 -9.78 -9.77 -9.76 
4769 -9.78 -9.76 -9.76 
4770 -9.78 -9.76 -9.76 
4771 -9.78 -9.76 -9.76 
4772 -9.78 -9.76 -9.76 
4773 -9.78 -9.76 -9.76 
4774 -9.78 -9.76 -9.76 
4775 -9.78 -9.76 -9.76 
4776 -9.77 -9.76 -9.76 
4777 -9.77 -9.76 -9.76 
4778 -9.77 -9.76 -9.76 
4779 -9.78 -9.76 -9.76 
4780 -9.78 -9.76 -9.76 
4781 -9.78 -9.76 -9.76 
4782 -9.78 -9.76 -9.76 
4783 -9.78 -9.76 -9.76 
4784 -9.78 -9.76 -9.76 
4785 -9.78 -9.76 -9.76 
4786 -9.78 -9.76 -9.76 
4787 -9.78 -9.76 -9.76 
4788 -9.78 -9.76 -9.76 
4789 -9.78 -9.76 -9.76 
4790 -9.78 -9.76 -9.76 
4791 -9.78 -9.76 -9.76 
4792 -9.78 -9.76 -9.76 
4793 -9.78 -9.76 -9.76 
4794 -9.78 -9.76 -9.76 
4795 -9.78 -9.76 -9.76 
4796 -9.78 -9.76 -9.76 
4797 -9.78 -9.75 -9.76 
4798 -9.77 -9.75 -9.76 
4799 -9.78 -9.75 -9.76 
4800 -9.77 -9.75 -9.76 
4801 -9.78 -9.75 -9.76 
4802 -9.77 -9.75 -9.76 
4803 -9.78 -9.75 -9.76 
4804 -9.77 -9.75 -9.76 
4805 -9.78 -9.75 -9.76 
4806 -9.78 -9.75 -9.76 
4807 -9.77 -9.76 -9.76 
4808 -9.78 -9.76 -9.76 
4809 -9.78 -9.76 -9.76 
4810 -9.78 -9.76 -9.76 
4811 -9.78 -9.76 -9.76 
4812 -9.78 -9.76 -9.76 
4813 -9.78 -9.76 -9.76 
4814 -9.78 -9.76 -9.76 
4815 -9.78 -9.76 -9.76 
4816 -9.78 -9.76 -9.76 
4817 -9.78 -9.77 -9.76 
4818 -9.79 -9.77 -9.76 
4819 -9.79 -9.77 -9.76 
4820 -9.78 -9.76 -9.76 
4821 -9.78 -9.76 -9.76 
4822 -9.78 -9.76 -9.76 
4823 -9.78 -9.76 -9.76 
4824 -9.78 -9.76 -9.76 
4825 -9.78 -9.76 -9.76 
4826 -9.78 -9.76 -9.76 
4827 -9.78 -9.76 -9.76 
4828 -9.78 -9.76 -9.76 
4829 -9.78 -9.76 -9.76 
4830 -9.78 -9.77 -9.76 
4831 -9.79 -9.77 -9.76 
4832 -9.79 -9.77 -9.76 
4833 -9.79 -9.77 -9.76 
4834 -9.79 -9.77 -9.76 
4835 -9.79 -9.77 -9.76 
4836 -9.79 -9.77 -9.76 
4837 -9.79 -9.77 -9.76 
4838 -9.79 -9.77 -9.76 
4839 -9.79 -9.77 -9.76 
4840 -9.79 -9.77 -9.76 
4841 -9.79 -9.77 -9.76 
4842 -9.79 -9.77 -9.76 
4843 -9.79 -9.77 -9.76 
4844 -9.79 -9.76 -9.76 
4845 -9.78 -9.76 -9.76 
4846 -9.78 -9.76 -9.76 
4847 -9.79 -9.77 -9.76 
4848 -9.79 -9.76 -9.76 
4849 -9.79 -9.77 -9.76 
4850 -9.79 -9.77 -9.76 
4851 -9.79 -9.77 -9.76 
4852 -9.80 -9.77 -9.76 
4853 -9.79 -9.77 -9.76 
4854 -9.79 -9.77 -9.76 
4855 -9.79 -9.77 -9.76 
4856 -9.79 -9.77 -9.76 
4857 -9.79 -9.77 -9.76 
4858 -9.79 -9.76 -9.76 
4859 -9.79 -9.77 -9.76 
4860 -9.79 -9.77 -9.76 
4861 -9.79 -9.76 -9.76 
4862 -9.79 -9.76 -9.76 
4863 -9.79 -9.76 -9.76 
4864 -9.79 -9.76 -9.76 
4865 -9.78 -9.76 -9.76 
4866 -9.79 -9.76 -9.76 
4867 -9.79 -9.76 -9.76 
4868 -9.79 -9.76 -9.76 
4869 -9.79 -9.76 -9.76 
4870 -9.78 -9.76 -9.76 
4871 -9.78 -9.76 -9.76 
4872 -9.78 -9.76 -9.76 
4873 -9.78 -9.76 -9.76 
4874 -9.78 -9.76 -9.76 
4875 -9.78 -9.76 -9.76 
4876 -9.78 -9.76 -9.76 
4877 -9.78 -9.76 -9.76 
4878 -9.78 -9.76 -9.76 
4879 -9.78 -9.76 -9.76 
4880 -9.78 -9.76 -9.76 
4881 -9.78 -9.76 -9.76 
4882 -9.78 -9.75 -9.76 
4883 -9.78 -9.75 -9.76 
4884 -9.77 -9.75 -9.76 
4885 -9.78 -9.76 -9.76 
4886 -9.78 -9.75 -9.76 
4887 -9.77 -9.76 -9.76 
4888 -9.78 -9.76 -9.76 
4889 -9.78 -9.76 -9.76 
4890 -9.78 -9.75 -9.76 
4891 -9.77 -9.75 -9.76 
4892 -9.77 -9.75 -9.76 
4893 -9.77 -9.75 -9.76 
4894 -9.77 -9.75 -9.76 
4895 -9.77 -9.75 -9.76 
4896 -9.77 -9.75 -9.76 
4897 -9.77 -9.75 -9.76 
4898 -9.77 -9.75 -9.76 
4899 -9.77 -9.75 -9.76 
4900 -9.77 -9.75 -9.76 
4901 -9.77 -9.75 -9.76 
4902 -9.77 -9.75 -9.76 
4903 -9.77 -9.75 -9.76 
4904 -9.77 -9.75 -9.76 
4905 -9.77 -9.76 -9.76 
4906 -9.77 -9.76 -9.76 
4907 -9.77 -9.76 -9.76 
4908 -9.77 -9.75 -9.76 
4909 -9.77 -9.75 -9.76 
4910 -9.77 -9.75 -9.76 
4911 -9.77 -9.75 -9.76 
4912 -9.77 -9.75 -9.76 
4913 -9.77 -9.75 -9.76 
4914 -9.77 -9.75 -9.76 
4915 -9.77 -9.75 -9.76 
4916 -9.77 -9.75 -9.76 
4917 -9.77 -9.75 -9.76 
4918 -9.77 -9.75 -9.76 
4919 -9.77 -9.75 -9.76 
4920 -9.77 -9.75 -9.76 
4921 -9.77 -9.75 -9.76 
4922 -9.77 -9.75 -9.76 
4923 -9.77 -9.75 -9.76 
4924 -9.77 -9.75 -9.76 
4925 -9.77 -9.75 -9.76 
4926 -9.77 -9.75 -9.76 
4927 -9.77 -9.75 -9.76 
4928 -9.77 -9.75 -9.76 
4929 -9.77 -9.75 -9.76 
4930 -9.77 -9.75 -9.76 
4931 -9.78 -9.76 -9.76 
4932 -9.78 -9.76 -9.76 
4933 -9.78 -9.76 -9.76 
4934 -9.78 -9.76 -9.76 
4935 -9.78 -9.76 -9.76 
4936 -9.79 -9.76 -9.76 
4937 -9.78 -9.76 -9.76 
4938 -9.78 -9.76 -9.76 
4939 -9.78 -9.76 -9.76 
4940 -9.78 -9.76 -9.76 
4941 -9.79 -9.76 -9.76 
4942 -9.79 -9.77 -9.76 
4943 -9.79 -9.77 -9.76 
4944 -9.79 -9.77 -9.76 
4945 -9.79 -9.77 -9.76 
4946 -9.79 -9.77 -9.76 
4947 -9.79 -9.77 -9.76 
4948 -9.79 -9.77 -9.76 
4949 -9.79 -9.77 -9.76 
4950 -9.80 -9.77 -9.76 
4951 -9.80 -9.77 -9.76 
4952 -9.80 -9.77 -9.76 
4953 -9.80 -9.77 -9.76 
4954 -9.80 -9.77 -9.76 
4955 -9.80 -9.77 -9.76 
4956 -9.80 -9.77 -9.76 
4957 -9.80 -9.77 -9.76 
4958 -9.79 -9.77 -9.76 
4959 -9.79 -9.77 -9.76 
4960 -9.79 -9.77 -9.76 
4961 -9.79 -9.77 -9.76 
4962 -9.79 -9.77 -9.76 
4963 -9.79 -9.77 -9.76 
4964 -9.79 -9.77 -9.76 
4965 -9.79 -9.77 -9.76 
4966 -9.79 -9.77 -9.76 
4967 -9.79 -9.77 -9.76 
4968 -9.80 -9.77 -9.76 
4969 -9.79 -9.77 -9.76 
4970 -9.80 -9.77 -9.76 
4971 -9.80 -9.77 -9.76 
4972 -9.80 -9.77 -9.76 
4973 -9.80 -9.77 -9.76 
4974 -9.80 -9.77 -9.76 
4975 -9.80 -9.77 -9.76 
4976 -9.80 -9.77 -9.76 
4977 -9.79 -9.77 -9.76 
4978 -9.79 -9.77 -9.76 
4979 -9.79 -9.77 -9.76 
4980 -9.79 -9.77 -9.76 
4981 -9.79 -9.77 -9.76 
4982 -9.80 -9.77 -9.76 
4983 -9.79 -9.78 -9.76 
4984 -9.80 -9.78 -9.76 
4985 -9.80 -9.78 -9.76 
4986 -9.80 -9.78 -9.76 
4987 -9.80 -9.78 -9.76 
4988 -9.80 -9.78 -9.76 
4989 -9.80 -9.78 -9.76 
4990 -9.81 -9.78 -9.76 
