Iter | Sampling Pol | Evaluation Pol | Best (Sampled) 
   0  3.27  3.88 -100000000.00 
   1  1.26  4.19  3.27 
   2  1.76  4.24  3.27 
   3  4.09  4.39  3.27 
   4  3.79  4.05  4.09 
   5  3.91  3.96  4.09 
   6  4.02  3.61  4.09 
   7  3.05  4.30  4.09 
   8  4.02  4.12  4.09 
   9  2.26  3.52  4.09 
  10  3.04  4.45  4.09 
  11  3.50  4.20  4.09 
  12  3.27  3.94  4.09 
  13  4.29  4.37  4.09 
  14  4.54  4.04  4.29 
  15  3.28  4.20  4.54 
  16  2.00  2.97  4.54 
  17  3.81  4.39  4.54 
  18  4.05  4.23  4.54 
  19  3.03  3.80  4.54 
  20  3.83  2.61  4.54 
  21  4.01  2.68  4.54 
  22  3.02  3.77  4.54 
  23  4.15  4.21  4.54 
  24  4.54  4.06  4.54 
  25  4.55  3.90  4.54 
  26  3.57  3.79  4.55 
  27  2.78  4.08  4.55 
  28  4.54  3.65  4.55 
  29  3.51  3.04  4.55 
  30  3.52  4.04  4.55 
  31  3.04  3.78  4.55 
  32  2.78  2.96  4.55 
  33  4.57  4.07  4.55 
  34  4.06  4.04  4.57 
  35  2.52  3.45  4.57 
  36  4.05  3.53  4.57 
  37  2.55  3.80  4.57 
  38  6.17  3.53  4.57 
  39  4.07  4.05  6.17 
  40  4.65  4.65  6.17 
  41  3.54  3.62  6.17 
  42  4.05  2.95  6.17 
  43  4.00  3.67  6.17 
  44  3.03  4.74  6.17 
  45  3.54  3.79  6.17 
  46  2.27  3.70  6.17 
  47  3.30  3.72  6.17 
  48  3.32  4.06  6.17 
  49  4.05  4.21  6.17 
  50  4.60  3.65  6.17 
  51  4.06  4.20  6.17 
  52  4.04  4.06  6.17 
  53  4.09  4.16  6.17 
  54  3.55  4.20  6.17 
  55  3.27  4.22  6.17 
  56  3.04  4.40  6.17 
  57  3.93  3.79  6.17 
  58  3.51  4.13  6.17 
  59  4.02  3.18  6.17 
  60  4.04  3.55  6.17 
  61  4.58  3.00  6.17 
  62  3.36  3.40  6.17 
  63  5.15  4.11  6.17 
  64  3.56  4.09  6.17 
  65  4.02  4.06  6.17 
  66  4.06  3.53  6.17 
  67  2.77  3.90  6.17 
  68  2.78  2.87  6.17 
  69  2.77  3.04  6.17 
  70  3.78  3.68  6.17 
  71  4.14  3.70  6.17 
  72  3.02  3.41  6.17 
  73  3.78  3.73  6.17 
  74  3.06  3.63  6.17 
  75  3.57  3.90  6.17 
  76  4.04  3.21  6.17 
  77  4.04  3.75  6.17 
  78  3.78  3.62  6.17 
  79  3.79  3.38  6.17 
  80  3.52  4.38  6.17 
  81  2.54  3.14  6.17 
  82  4.06  3.28  6.17 
  83  3.53  3.28  6.17 
  84  3.78  3.57  6.17 
  85  4.03  3.80  6.17 
  86  4.04  3.21  6.17 
  87  4.07  3.89  6.17 
  88  4.09  3.98  6.17 
  89  2.78  3.27  6.17 
  90  3.29  3.91  6.17 
  91  3.75  3.12  6.17 
  92  6.10  3.71  6.17 
  93  4.07  3.40  6.17 
  94  4.04  3.88  6.17 
  95  2.78  3.96  6.17 
  96  2.28  4.14  6.17 
  97  4.06  4.01  6.17 
  98  2.80  3.75  6.17 
  99  4.15  4.01  6.17 
 100  3.27  3.14  6.17 
 101  4.06  3.53  6.17 
 102  3.27  3.75  6.17 
 103  3.79  3.16  6.17 
 104  3.56  3.88  6.17 
 105  4.05  3.30  6.17 
 106  3.43  3.68  6.17 
 107  4.07  4.03  6.17 
 108  2.26  3.75  6.17 
 109  3.66  3.64  6.17 
 110  4.08  3.64  6.17 
 111  4.04  3.25  6.17 
 112  3.01  3.65  6.17 
 113  4.05  3.47  6.17 
 114  4.04  4.22  6.17 
 115  0.75  4.03  6.17 
 116  4.04  4.03  6.17 
 117  3.27  3.50  6.17 
 118  2.77  3.60  6.17 
 119  4.08  3.70  6.17 
 120  4.06  3.03  6.17 
 121  3.78  3.38  6.17 
 122  4.04  3.77  6.17 
 123  3.56  3.54  6.17 
 124  3.77  3.36  6.17 
 125  2.76  3.20  6.17 
 126  4.04  3.61  6.17 
 127  3.32  4.04  6.17 
 128  2.53  3.43  6.17 
 129  2.36  3.95  6.17 
 130  3.06  3.53  6.17 
 131  4.01  3.60  6.17 
 132  3.76  3.96  6.17 
 133  4.04  3.18  6.17 
 134  1.76  3.70  6.17 
 135  4.59  2.61  6.17 
 136  2.76  4.06  6.17 
 137  4.04  3.92  6.17 
 138  3.02  3.59  6.17 
 139  4.04  3.21  6.17 
 140  4.01  2.69  6.17 
 141  3.01  3.38  6.17 
 142  4.54  3.87  6.17 
 143  4.02  4.06  6.17 
 144  4.02  3.65  6.17 
 145  4.03  3.22  6.17 
 146  4.08  3.21  6.17 
 147  3.53  4.56  6.17 
 148  4.04  4.06  6.17 
 149  2.56  4.07  6.17 
 150  2.77  4.06  6.17 
 151  4.07  3.97  6.17 
 152  4.01  3.62  6.17 
 153  4.02  3.73  6.17 
 154  4.01  3.90  6.17 
 155  4.04  3.06  6.17 
 156  3.51  3.41  6.17 
 157  4.02  3.63  6.17 
 158  4.03  3.50  6.17 
 159  4.03  3.72  6.17 
 160  4.03  3.13  6.17 
 161  2.78  2.87  6.17 
 162  4.08  4.04  6.17 
 163  3.87  3.06  6.17 
 164  2.03  3.59  6.17 
 165  4.02  3.87  6.17 
 166  3.26  3.88  6.17 
 167  2.77  3.64  6.17 
 168  2.54  3.71  6.17 
 169  4.03  3.65  6.17 
 170  4.05  3.53  6.17 
 171  3.55  2.63  6.17 
 172  4.06  3.55  6.17 
 173  4.07  3.58  6.17 
 174  4.56  3.31  6.17 
 175  3.08  3.66  6.17 
 176  4.08  3.63  6.17 
 177  4.19  3.33  6.17 
 178  4.07  2.92  6.17 
 179  4.20  4.10  6.17 
 180  4.03  3.88  6.17 
 181  2.52  5.65  6.17 
 182  4.03  5.69  6.17 
 183  4.06  3.87  6.17 
 184  4.18  3.72  6.17 
 185  4.02  3.98  6.17 
 186  2.27  3.05  6.17 
 187  4.02  2.72  6.17 
 188  4.05  3.74  6.17 
 189  4.01  3.73  6.17 
 190  3.30  4.06  6.17 
 191  3.80  3.95  6.17 
 192  3.76  3.29  6.17 
 193  4.04  3.95  6.17 
 194  4.02  3.71  6.17 
 195  4.07  3.46  6.17 
 196  4.03  3.37  6.17 
 197  3.04  3.88  6.17 
 198  3.55  2.53  6.17 
 199  3.27  3.85  6.17 
 200  3.59  3.38  6.17 
 201  4.06  3.61  6.17 
 202  3.27  3.99  6.17 
 203  9.11  3.30  6.17 
 204  4.54  3.53  9.11 
 205  4.53  3.43  9.11 
 206  3.51  3.26  9.11 
 207  3.27  3.43  9.11 
 208  4.08  3.35  9.11 
 209  4.08  3.87  9.11 
 210  4.06  3.19  9.11 
 211  4.02  3.40  9.11 
 212  4.04  4.02  9.11 
 213  5.80  3.70  9.11 
 214  2.02  4.04  9.11 
 215  4.07  3.27  9.11 
 216  4.08  4.03  9.11 
 217  3.86  3.70  9.11 
 218  2.04  3.22  9.11 
 219  2.52  3.95  9.11 
 220  6.32  3.31  9.11 
 221  3.53  3.47  9.11 
 222  4.08  3.12  9.11 
 223  3.55  3.69  9.11 
 224  2.83  3.61  9.11 
 225  4.17  3.86  9.11 
 226  2.51  3.54  9.11 
 227  4.17  4.02  9.11 
 228  1.79  3.43  9.11 
 229  3.51  3.63  9.11 
 230  4.08  3.80  9.11 
 231  4.06  3.62  9.11 
 232  4.03  3.30  9.11 
 233  3.28  3.84  9.11 
 234  4.19  4.08  9.11 
 235  4.81  3.71  9.11 
 236  2.82  3.73  9.11 
 237  5.34  5.14  9.11 
 238  4.29  3.58  9.11 
 239  2.80  4.23  9.11 
 240  2.55  3.02  9.11 
 241  2.81  3.78  9.11 
 242  3.79  4.08  9.11 
 243  3.60  3.73  9.11 
 244  4.02  3.38  9.11 
 245  3.53  4.04  9.11 
 246  4.05  4.36  9.11 
 247  2.52  3.84  9.11 
 248  4.04  3.20  9.11 
 249  2.82  3.70  9.11 
 250  2.77  3.55  9.11 
 251  2.28  3.30  9.11 
 252  4.08  3.88  9.11 
 253  4.01  3.36  9.11 
 254  4.01  4.04  9.11 
 255  2.75  3.30  9.11 
 256  4.07  3.87  9.11 
 257  3.77  2.69  9.11 
 258  4.01  4.12  9.11 
 259  5.48  3.19  9.11 
 260  5.70  3.82  9.11 
 261  4.18  3.21  9.11 
 262  2.25  3.29  9.11 
 263  3.26  3.79  9.11 
 264  4.07  3.97  9.11 
 265  2.91  3.65  9.11 
 266  2.51  3.87  9.11 
 267  4.11  3.60  9.11 
 268  6.79  3.42  9.11 
 269  4.11  4.17  9.11 
 270  6.16  3.83  9.11 
 271  3.59  3.42  9.11 
 272  3.77  4.15  9.11 
 273  4.11  3.66  9.11 
 274  4.06  3.90  9.11 
 275  2.07  3.23  9.11 
 276  4.54  3.54  9.11 
 277  3.66  3.46  9.11 
 278  4.10  3.59  9.11 
 279  4.17  3.31  9.11 
 280  4.11  3.08  9.11 
 281  4.11  3.75  9.11 
 282  2.30  3.69  9.11 
 283  4.02  4.03  9.11 
 284  4.31  3.71  9.11 
 285  2.77  3.74  9.11 
 286  3.04  4.09  9.11 
 287  4.15  3.69  9.11 
 288  4.19  2.68  9.11 
 289  4.38  3.20  9.11 
 290  5.91  3.60  9.11 
 291  2.34  3.62  9.11 
 292  4.07  3.36  9.11 
 293  4.06  4.04  9.11 
 294  2.76  4.03  9.11 
 295  4.18  3.28  9.11 
 296  4.08  3.20  9.11 
 297  3.01  3.79  9.11 
 298  4.13  3.78  9.11 
 299  4.03  3.95  9.11 
 300  4.02  3.02  9.11 
 301  3.54  3.28  9.11 
 302  3.62  3.62  9.11 
 303  2.85  4.03  9.11 
 304  3.42  3.77  9.11 
 305  4.14  3.60  9.11 
 306  4.04  3.54  9.11 
 307  4.24  3.54  9.11 
 308  4.22  4.07  9.11 
 309  5.34  3.20  9.11 
 310  3.26  3.12  9.11 
 311  4.64  3.61  9.11 
 312  4.54  2.53  9.11 
 313  4.06  3.97  9.11 
 314  5.17  3.98  9.11 
 315  3.07  3.52  9.11 
 316  5.05  3.51  9.11 
 317  3.81  4.76  9.11 
 318  4.92  4.83  9.11 
 319  3.74  3.37  9.11 
 320  2.76  3.03  9.11 
 321  4.04  3.31  9.11 
 322  3.37  3.90  9.11 
 323  3.17  3.73  9.11 
 324  3.87  4.04  9.11 
 325  4.24  4.05  9.11 
 326  4.02  3.55  9.11 
 327  2.51  3.12  9.11 
 328  3.52  4.03  9.11 
 329  2.55  3.54  9.11 
 330  2.28  3.03  9.11 
 331  4.31  4.04  9.11 
 332  3.86  4.05  9.11 
 333  3.39  3.60  9.11 
 334  3.05  3.53  9.11 
 335  4.64  3.03  9.11 
 336  4.01  4.03  9.11 
 337  4.46  3.87  9.11 
 338  2.77  3.43  9.11 
 339  4.03  3.43  9.11 
 340  4.03  3.69  9.11 
 341  4.34  3.64  9.11 
 342  2.84  3.45  9.11 
 343  4.04  4.07  9.11 
 344  4.04  3.93  9.11 
 345  3.26  4.13  9.11 
 346  3.55  4.14  9.11 
 347  5.48  2.98  9.11 
 348  5.11  4.50  9.11 
 349  4.01  3.01  9.11 
 350  4.79  3.98  9.11 
 351  3.82  3.96  9.11 
 352  3.76  2.86  9.11 
 353  2.77  3.27  9.11 
 354  6.59  3.44  9.11 
 355  4.10  3.32  9.11 
 356  4.56  4.13  9.11 
 357  4.33  8.26  9.11 
 358  4.74  5.16  9.11 
 359  3.38  4.11  9.11 
 360  4.40  4.60  9.11 
 361  4.88  6.86  9.11 
 362  2.76  4.52  9.11 
 363  4.69  3.18  9.11 
 364  4.05  3.78  9.11 
 365  4.12  4.08  9.11 
 366  5.24  3.70  9.11 
 367  3.40  4.05  9.11 
 368  2.55  3.42  9.11 
 369  4.06  4.10  9.11 
 370  3.68  4.78  9.11 
 371  2.71  3.80  9.11 
 372  4.65  3.83  9.11 
 373  4.20  3.82  9.11 
 374  4.14  3.33  9.11 
 375  3.55  2.79  9.11 
 376  4.12  4.47  9.11 
 377  2.85  3.40  9.11 
 378  4.04  3.54  9.11 
 379  3.18  3.47  9.11 
 380  3.73  3.90  9.11 
 381  2.81  4.08  9.11 
 382  3.76  3.94  9.11 
 383  4.05  3.93  9.11 
 384  5.93  4.05  9.11 
 385  4.02  4.21  9.11 
 386  3.44  3.27  9.11 
 387  3.76  3.79  9.11 
 388  4.09  4.05  9.11 
 389  3.08  4.12  9.11 
 390  3.82  6.87  9.11 
 391  2.50  2.85  9.11 
 392  4.23  3.36  9.11 
 393  4.55  3.33  9.11 
 394  3.53  3.86  9.11 
 395  5.12  5.44  9.11 
 396  4.05  2.86  9.11 
 397  4.01  4.01  9.11 
 398  4.03  3.53  9.11 
 399  4.09  3.76  9.11 
 400  3.61  3.12  9.11 
 401  4.14  4.11  9.11 
 402  3.79  3.75  9.11 
 403  4.75  3.73  9.11 
 404  4.08  3.40  9.11 
 405  3.87  4.49  9.11 
 406  3.26  4.92  9.11 
 407  2.53  4.20  9.11 
 408  3.00  3.21  9.11 
 409  4.11  3.65  9.11 
 410  4.16  4.03  9.11 
 411  4.13  3.03  9.11 
 412  3.29  3.77  9.11 
 413  2.91  3.61  9.11 
 414  3.42  3.79  9.11 
 415  3.04  3.87  9.11 
 416  4.16  2.10  9.11 
 417  4.10  2.95  9.11 
 418  3.54  4.02  9.11 
 419  1.53  3.10  9.11 
 420  3.77  4.02  9.11 
 421  4.09  3.18  9.11 
 422  4.91  3.01  9.11 
 423  3.77  4.04  9.11 
 424  2.26  3.45  9.11 
 425  5.62  3.40  9.11 
 426  4.59  4.11  9.11 
 427  4.02  3.50  9.11 
 428  2.26  5.86  9.11 
 429  4.04  3.70  9.11 
 430  4.06  5.62  9.11 
 431  4.13  3.80  9.11 
 432  4.02  3.70  9.11 
 433  4.23  3.83  9.11 
 434  3.86  3.39  9.11 
 435 10.48  3.60  9.11 
 436  3.01  3.86 10.48 
 437  2.76  4.10 10.48 
 438  4.03  3.27 10.48 
 439  2.79  2.78 10.48 
 440  4.92  3.95 10.48 
 441  4.03  3.96 10.48 
 442  4.09  3.78 10.48 
 443  1.26  3.87 10.48 
 444  3.34  3.59 10.48 
 445  3.00  3.36 10.48 
 446  4.03  3.43 10.48 
 447  4.16  2.95 10.48 
 448  4.17  3.38 10.48 
 449  4.12  4.04 10.48 
 450  3.04  4.06 10.48 
 451  4.15  3.27 10.48 
 452  4.64  3.77 10.48 
 453  3.69  3.70 10.48 
 454  1.78  3.70 10.48 
 455  3.76  3.61 10.48 
 456  4.34  3.47 10.48 
 457  4.06  3.51 10.48 
 458  2.60  4.01 10.48 
 459  4.08  3.44 10.48 
 460  4.10  3.78 10.48 
 461  3.34  3.93 10.48 
 462  6.16  3.27 10.48 
 463  4.36  4.03 10.48 
 464  4.10  3.52 10.48 
 465  4.22  4.04 10.48 
 466  4.09  3.35 10.48 
 467  4.37  3.43 10.48 
 468  3.54  3.60 10.48 
 469  3.04  3.86 10.48 
 470  2.51  4.03 10.48 
 471  5.66  2.95 10.48 
 472  2.77  4.02 10.48 
 473  3.76  4.04 10.48 
 474  1.25  4.03 10.48 
 475  3.12  3.76 10.48 
 476  2.76  3.38 10.48 
 477  3.28  3.74 10.48 
 478  3.69  3.60 10.48 
 479  4.06  3.64 10.48 
 480  2.28  3.35 10.48 
 481  4.18  2.85 10.48 
 482  4.03  3.29 10.48 
 483  3.01  2.95 10.48 
 484  4.18  3.69 10.48 
 485  3.12  4.13 10.48 
 486  4.22  3.24 10.48 
 487  2.80  3.62 10.48 
 488  2.88  4.10 10.48 
 489  3.60  3.28 10.48 
 490  4.62  3.70 10.48 
 491  4.02  3.52 10.48 
 492  4.03  3.87 10.48 
 493  2.53  3.06 10.48 
 494  4.33  3.90 10.48 
 495  4.19  4.47 10.48 
 496  4.06  4.14 10.48 
 497  4.05  3.88 10.48 
 498  3.84  4.14 10.48 
 499  4.59  2.87 10.48 
 500  3.68  4.06 10.48 
 501  4.03  4.06 10.48 
 502  2.03  3.45 10.48 
 503  2.88  3.30 10.48 
 504  3.26  3.64 10.48 
 505  2.79  3.46 10.48 
 506  4.17  3.72 10.48 
 507  3.63  3.97 10.48 
 508  4.13  3.78 10.48 
 509  4.23  3.53 10.48 
 510  2.59  3.52 10.48 
 511  2.00  3.10 10.48 
 512  4.63  3.37 10.48 
 513  2.92  3.70 10.48 
 514  3.60  3.21 10.48 
 515  3.02  3.22 10.48 
 516  3.26  3.76 10.48 
 517  1.84  3.06 10.48 
 518  4.03  3.83 10.48 
 519  3.31  3.91 10.48 
 520  3.06  3.80 10.48 
 521  1.77  3.76 10.48 
 522  7.13  3.69 10.48 
 523  3.02  4.02 10.48 
 524  4.30  3.68 10.48 
 525  4.02  3.60 10.48 
 526  4.02  3.69 10.48 
 527  4.01  3.62 10.48 
 528  2.79  3.18 10.48 
 529  2.78  3.26 10.48 
 530  3.31  3.69 10.48 
 531  4.64  3.95 10.48 
 532  2.76  3.11 10.48 
 533  4.02  3.94 10.48 
 534  5.34  4.03 10.48 
 535  2.54  4.02 10.48 
 536  3.31  3.69 10.48 
 537  3.78  3.27 10.48 
 538  4.07  3.60 10.48 
 539  3.76  3.94 10.48 
 540  3.28  3.68 10.48 
 541  4.10  3.51 10.48 
 542  2.84  4.04 10.48 
 543  4.10  3.68 10.48 
 544  2.03  3.44 10.48 
 545  4.06  3.67 10.48 
 546  3.78  3.82 10.48 
 547  3.67  4.01 10.48 
 548  3.00  4.22 10.48 
 549  3.27  3.51 10.48 
 550  5.33  4.15 10.48 
 551  4.04  4.08 10.48 
 552  2.94  2.95 10.48 
 553  3.78  4.69 10.48 
 554  4.03  3.90 10.48 
 555  3.52  4.32 10.48 
 556  4.09  4.06 10.48 
 557  2.82  4.07 10.48 
 558  3.85  3.75 10.48 
 559  4.17  4.01 10.48 
 560  4.31  4.09 10.48 
 561  3.36  4.24 10.48 
 562  3.04  4.39 10.48 
 563  3.51  4.66 10.48 
 564  3.57  4.42 10.48 
 565  4.04  3.69 10.48 
 566  3.77  6.42 10.48 
 567  6.50  4.88 10.48 
 568  6.07  3.60 10.48 
 569  5.13  4.06 10.48 
 570  4.19  3.77 10.48 
 571  4.43  4.71 10.48 
 572  3.00  3.74 10.48 
 573  4.10  4.47 10.48 
 574  1.53  4.15 10.48 
 575  6.85  4.36 10.48 
 576  4.59  4.13 10.48 
 577  3.26  3.01 10.48 
 578  4.13  3.37 10.48 
 579  4.59  3.30 10.48 
 580  4.02  4.06 10.48 
 581  4.20  4.02 10.48 
 582  5.30  4.04 10.48 
 583  3.05  3.70 10.48 
 584  4.01  3.94 10.48 
 585  2.27  4.02 10.48 
 586  3.01  3.60 10.48 
 587  4.02  4.02 10.48 
 588  4.10  3.36 10.48 
 589  3.91  3.36 10.48 
 590  2.76  4.05 10.48 
 591  4.13  3.68 10.48 
 592  5.38  3.78 10.48 
 593  3.26  3.11 10.48 
 594  3.53  2.67 10.48 
 595  4.04  3.58 10.48 
 596  4.03  3.73 10.48 
 597  4.03  3.92 10.48 
 598  3.28  3.35 10.48 
 599  4.13  3.18 10.48 
 600  3.01  3.81 10.48 
 601  4.09  4.09 10.48 
 602  4.54  4.19 10.48 
 603  3.07  3.61 10.48 
 604  2.76  3.79 10.48 
 605  4.06  3.81 10.48 
 606  4.12  3.76 10.48 
 607  4.05  3.53 10.48 
 608  4.02  4.25 10.48 
 609  4.63  3.85 10.48 
 610  3.76  3.46 10.48 
 611  4.04  3.73 10.48 
 612  4.17  4.70 10.48 
 613  2.52  4.03 10.48 
 614  4.19  3.41 10.48 
 615  4.01  3.19 10.48 
 616  3.31  4.00 10.48 
 617  4.01  4.25 10.48 
 618  2.77  4.53 10.48 
 619  4.60  3.82 10.48 
 620  4.13  4.99 10.48 
 621  4.19  3.87 10.48 
 622  3.25  3.69 10.48 
 623  5.28  3.26 10.48 
 624  2.59  3.68 10.48 
 625  3.76  3.88 10.48 
 626  7.81  3.90 10.48 
 627  3.26  3.15 10.48 
 628  4.26  3.12 10.48 
 629  4.11  3.37 10.48 
 630  4.15  3.31 10.48 
 631  2.92  4.00 10.48 
 632  4.02  3.84 10.48 
 633  4.85  3.63 10.48 
 634  3.78  3.59 10.48 
 635  2.26  3.98 10.48 
 636  3.51  3.72 10.48 
 637  4.04  4.44 10.48 
 638  4.01  3.94 10.48 
 639  3.77  3.68 10.48 
 640  3.11  3.51 10.48 
 641  4.08  4.02 10.48 
 642  5.27  3.44 10.48 
 643  2.77  3.77 10.48 
 644  3.81  3.02 10.48 
 645  5.84  3.93 10.48 
 646  4.02  3.61 10.48 
 647  3.02  3.61 10.48 
 648  4.01  3.77 10.48 
 649  3.76  3.77 10.48 
 650  1.84  3.27 10.48 
 651  4.01  3.68 10.48 
 652  4.02  3.35 10.48 
 653  6.61  3.70 10.48 
 654  4.08  4.02 10.48 
 655  1.76  3.68 10.48 
 656  4.03  3.60 10.48 
 657  2.80  3.44 10.48 
 658  4.04  3.34 10.48 
 659  3.01  3.44 10.48 
 660  4.03  3.95 10.48 
 661  2.00  3.36 10.48 
 662  4.12  4.03 10.48 
 663  4.02  3.61 10.48 
 664  2.50  5.68 10.48 
 665  4.18  3.83 10.48 
 666  2.76  3.86 10.48 
 667  4.09  4.23 10.48 
 668  3.02  4.06 10.48 
 669  5.29  4.40 10.48 
 670  3.02  3.46 10.48 
 671  4.02  3.62 10.48 
 672  4.09  3.45 10.48 
 673  4.09  3.95 10.48 
 674  6.60  3.10 10.48 
 675  5.09  3.11 10.48 
 676  3.51  4.04 10.48 
 677  3.86  3.79 10.48 
 678  4.02  4.05 10.48 
 679  5.21  3.86 10.48 
 680  3.25  3.20 10.48 
 681  4.09  3.68 10.48 
 682  4.09  3.81 10.48 
 683  2.00  4.37 10.48 
 684  3.34  4.65 10.48 
 685  7.37  3.35 10.48 
 686  4.07  3.25 10.48 
 687  1.77  3.69 10.48 
 688  4.01  3.94 10.48 
 689  4.93  5.23 10.48 
 690  4.12  4.21 10.48 
 691  5.70  3.87 10.48 
 692  3.27  4.10 10.48 
 693  5.58  4.04 10.48 
 694  4.18  3.88 10.48 
 695  4.05  3.33 10.48 
 696  4.34  3.70 10.48 
 697  3.52  3.50 10.48 
 698  3.27  4.06 10.48 
 699  3.09  3.87 10.48 
 700  2.81  3.20 10.48 
 701  4.02  3.63 10.48 
 702  4.09  3.97 10.48 
 703  7.46  3.74 10.48 
 704  4.07  4.06 10.48 
 705  3.54  2.61 10.48 
 706  5.12  3.62 10.48 
 707  3.84  2.94 10.48 
 708  3.03  2.79 10.48 
 709  4.16  4.03 10.48 
 710  3.57  4.03 10.48 
 711  3.31  3.54 10.48 
 712  4.02  2.70 10.48 
 713  2.04  3.80 10.48 
 714  3.54  3.62 10.48 
 715  4.38  3.29 10.48 
 716  5.14  4.04 10.48 
 717  4.03  3.52 10.48 
 718  4.01  4.04 10.48 
 719  1.02  3.62 10.48 
 720  5.41  3.86 10.48 
 721  3.55  3.69 10.48 
 722  4.37  3.86 10.48 
 723  5.05  4.02 10.48 
 724  2.76  2.68 10.48 
 725  4.30  3.69 10.48 
 726  5.66  4.02 10.48 
 727  4.05  3.26 10.48 
 728  5.11  3.77 10.48 
 729  3.26  3.51 10.48 
 730  4.12  3.19 10.48 
 731  3.03  3.60 10.48 
 732  4.05  2.94 10.48 
 733  5.11  4.02 10.48 
 734  3.01  4.02 10.48 
 735  5.03  3.35 10.48 
 736  4.50  4.02 10.48 
 737  4.23  4.04 10.48 
 738  1.51  3.61 10.48 
 739  4.04  3.52 10.48 
 740  3.55  3.77 10.48 
 741  4.03  3.52 10.48 
 742  4.05  3.19 10.48 
 743  3.81  3.86 10.48 
 744  3.81  3.19 10.48 
 745  5.32  3.28 10.48 
 746  5.63  3.68 10.48 
 747  3.82  3.02 10.48 
 748  5.94  4.02 10.48 
 749  4.04  3.93 10.48 
 750  5.41  3.45 10.48 
 751  4.16  4.03 10.48 
 752  3.06  3.80 10.48 
 753  4.02  3.60 10.48 
 754  4.36  3.52 10.48 
 755  6.38  4.02 10.48 
 756  3.77  3.27 10.48 
 757  4.01  3.77 10.48 
 758  5.12  4.02 10.48 
 759  3.54  2.93 10.48 
 760  3.01  3.19 10.48 
 761  5.17  3.93 10.48 
 762  3.84  3.35 10.48 
 763  2.76  3.69 10.48 
 764  3.18  3.26 10.48 
 765  4.08  3.49 10.48 
 766  4.04  3.36 10.48 
 767  4.01  3.94 10.48 
 768  2.87  3.93 10.48 
 769  4.84  3.61 10.48 
 770  3.79  3.27 10.48 
 771  4.05  4.03 10.48 
 772  4.31  3.26 10.48 
 773  2.56  3.01 10.48 
 774  2.29  2.93 10.48 
 775  6.94  3.35 10.48 
 776  4.08  3.68 10.48 
 777  5.08  3.62 10.48 
 778  5.06  4.02 10.48 
 779  4.58  3.10 10.48 
 780  6.58  3.35 10.48 
 781  5.16  3.93 10.48 
 782  2.89  4.03 10.48 
 783  4.01  4.02 10.48 
 784  2.01  3.61 10.48 
 785  3.28  4.05 10.48 
 786  6.32  3.94 10.48 
 787  4.29  3.35 10.48 
 788  4.73  2.84 10.48 
 789  2.77  3.68 10.48 
 790  5.01  4.01 10.48 
 791  2.77  3.10 10.48 
 792  4.87  3.78 10.48 
 793  5.85  3.60 10.48 
 794  3.55  3.86 10.48 
 795  4.28  3.27 10.48 
 796  3.83  3.78 10.48 
 797  3.57  3.53 10.48 
 798  4.06  4.03 10.48 
 799  3.26  3.93 10.48 
 800  4.04  2.94 10.48 
 801  3.90  3.68 10.48 
 802  5.31  3.27 10.48 
 803  4.01  4.25 10.48 
 804  4.11  4.13 10.48 
 805  6.23  3.70 10.48 
 806  2.01  3.88 10.48 
 807  2.76  4.68 10.48 
 808  2.31  4.40 10.48 
 809  4.99  4.99 10.48 
 810  3.91  5.68 10.48 
 811  4.98  4.29 10.48 
 812  3.58  5.45 10.48 
 813  3.02  2.88 10.48 
 814  3.78  5.07 10.48 
 815  5.92  4.04 10.48 
 816  4.89  5.45 10.48 
 817  3.70  4.34 10.48 
 818  4.88  4.64 10.48 
 819  6.97  4.47 10.48 
 820  5.35  2.81 10.48 
 821  3.51  4.15 10.48 
 822  5.01  5.25 10.48 
 823  3.63  4.09 10.48 
 824  3.85  5.27 10.48 
 825  3.02  5.03 10.48 
 826  3.88  3.57 10.48 
 827  3.63  4.69 10.48 
 828  3.34  5.05 10.48 
 829  4.81  4.47 10.48 
 830  6.90  4.77 10.48 
 831  4.02  5.19 10.48 
 832  5.06  5.47 10.48 
 833  1.50  5.05 10.48 
 834  4.01  3.62 10.48 
 835  4.04  4.45 10.48 
 836  4.04  4.70 10.48 
 837  3.56  4.03 10.48 
 838  5.25  4.47 10.48 
 839  3.06  3.90 10.48 
 840  4.19  4.01 10.48 
 841  3.82  4.10 10.48 
 842  3.64  3.93 10.48 
 843  2.79  3.13 10.48 
 844  4.05  3.88 10.48 
 845  6.34  4.82 10.48 
 846  5.33  4.08 10.48 
 847  5.56  4.59 10.48 
 848  2.94  3.30 10.48 
 849  4.09  4.02 10.48 
 850  5.87  3.64 10.48 
 851  2.68  3.92 10.48 
 852  5.89  4.35 10.48 
 853  5.93  4.32 10.48 
 854  2.80  4.20 10.48 
 855  5.17  3.33 10.48 
 856  6.23  5.19 10.48 
 857  4.04  3.86 10.48 
 858  3.43  3.35 10.48 
 859  4.73  4.20 10.48 
 860  4.32  4.10 10.48 
 861  4.30  5.71 10.48 
 862  3.81  3.81 10.48 
 863  4.08  4.36 10.48 
 864  1.52  4.12 10.48 
 865  3.85  4.09 10.48 
 866  4.12  4.07 10.48 
 867  4.09  3.79 10.48 
 868  3.54  3.82 10.48 
 869  4.63  4.26 10.48 
 870  3.31  3.83 10.48 
 871  3.88  3.13 10.48 
 872  4.25  5.56 10.48 
 873  3.91  4.58 10.48 
 874  5.26  4.55 10.48 
 875  4.34  4.63 10.48 
 876  4.73  5.47 10.48 
 877  5.01  3.69 10.48 
 878  4.05  4.24 10.48 
 879  3.85  3.24 10.48 
 880  3.35  4.81 10.48 
 881  2.26  5.10 10.48 
 882  3.52  3.96 10.48 
 883  7.28  4.65 10.48 
 884  4.05  3.26 10.48 
 885  2.30  4.10 10.48 
 886  3.11  3.91 10.48 
 887  4.07  4.97 10.48 
 888  3.26  4.43 10.48 
 889  2.77  3.96 10.48 
 890  4.10  4.20 10.48 
 891  3.56  4.87 10.48 
 892  4.14  5.66 10.48 
 893  6.74  4.14 10.48 
 894  4.03  3.72 10.48 
 895  5.00  4.06 10.48 
 896  5.90  4.14 10.48 
 897  4.50  4.72 10.48 
 898  4.10  3.45 10.48 
 899  3.27  3.47 10.48 
 900  5.58  7.65 10.48 
 901  2.81  4.12 10.48 
 902  4.07  5.30 10.48 
 903  4.09  4.95 10.48 
 904  4.25  4.10 10.48 
 905  4.36  3.68 10.48 
 906  3.10  3.81 10.48 
 907  4.04  7.06 10.48 
 908  5.33  3.21 10.48 
 909  3.76  5.16 10.48 
 910  4.78  3.40 10.48 
 911  3.62  3.50 10.48 
 912  4.09  3.44 10.48 
 913  3.69  3.79 10.48 
 914  3.07  3.77 10.48 
 915  5.36  4.55 10.48 
 916  6.29  4.02 10.48 
 917  4.08  3.79 10.48 
 918  2.56  4.16 10.48 
 919  2.84  3.76 10.48 
 920  4.38  3.58 10.48 
 921  4.09  4.13 10.48 
 922  3.02  3.72 10.48 
 923  4.13  3.97 10.48 
 924  2.76  5.23 10.48 
 925  5.13  4.67 10.48 
 926  4.34  3.25 10.48 
 927  3.80  3.66 10.48 
 928  2.77  3.51 10.48 
 929  5.06  3.72 10.48 
 930  6.46  4.45 10.48 
 931  5.17  3.60 10.48 
 932  6.40  3.57 10.48 
 933  4.05  3.36 10.48 
 934  4.05  4.03 10.48 
 935  3.39  4.65 10.48 
 936  4.52  4.50 10.48 
 937  5.16  3.81 10.48 
 938  4.38  5.86 10.48 
 939  2.54  4.68 10.48 
 940  3.02  2.88 10.48 
 941  5.50  5.52 10.48 
 942  4.65  5.50 10.48 
 943  4.84  4.21 10.48 
 944  2.91  3.90 10.48 
 945  3.97  3.38 10.48 
 946  3.83  3.41 10.48 
 947  4.04  3.25 10.48 
 948  4.26  3.74 10.48 
 949  4.06  3.83 10.48 
 950  3.32  3.95 10.48 
 951  2.80  3.59 10.48 
 952  3.28  3.46 10.48 
 953  4.27  3.43 10.48 
 954  2.03  4.73 10.48 
 955  4.69  5.42 10.48 
 956  4.08  3.51 10.48 
 957  4.55  5.06 10.48 
 958  6.37  3.78 10.48 
 959  4.17  4.98 10.48 
 960  4.58  3.88 10.48 
 961  4.58  4.19 10.48 
 962  4.36  3.76 10.48 
 963  2.84  3.60 10.48 
 964  6.01  3.50 10.48 
 965  4.08  3.44 10.48 
 966  4.95  3.66 10.48 
 967  3.27  3.51 10.48 
 968  2.25  4.25 10.48 
 969  2.77  3.90 10.48 
 970  4.04  4.11 10.48 
 971  4.09  3.86 10.48 
 972  3.96  4.92 10.48 
 973  4.65  5.06 10.48 
 974  3.29  3.84 10.48 
 975  4.04  3.68 10.48 
 976  6.13  4.69 10.48 
 977  4.08  4.76 10.48 
 978  4.17  3.88 10.48 
 979  3.77  4.09 10.48 
 980  3.04  4.09 10.48 
 981  2.84  3.41 10.48 
 982  3.34  3.86 10.48 
 983  3.10  4.94 10.48 
 984  4.09  3.71 10.48 
 985  4.09  4.14 10.48 
 986  3.04  4.12 10.48 
 987  4.07  6.34 10.48 
 988  2.30  3.30 10.48 
 989  2.79  5.99 10.48 
 990  3.87  3.65 10.48 
 991  4.10  3.96 10.48 
 992  4.04  4.64 10.48 
 993  2.75  4.26 10.48 
 994  3.35  4.92 10.48 
 995  4.11  4.14 10.48 
 996  4.73  6.37 10.48 
 997  2.01  5.17 10.48 
 998  5.40  4.10 10.48 
 999  1.53  5.27 10.48 
1000  3.32  5.10 10.48 
1001  2.36  4.56 10.48 
1002  6.05  3.92 10.48 
1003  4.51  3.25 10.48 
1004  4.03  4.01 10.48 
1005  3.03  4.61 10.48 
1006  4.13  3.87 10.48 
1007  4.18  6.11 10.48 
1008  4.08  3.89 10.48 
1009  4.09  5.24 10.48 
1010  4.57  5.21 10.48 
1011  5.66  3.96 10.48 
1012  4.66  4.35 10.48 
1013  9.04  3.56 10.48 
1014  4.19  4.50 10.48 
1015  3.56  4.26 10.48 
1016  4.09  2.92 10.48 
1017  3.93  3.46 10.48 
1018  4.43  6.07 10.48 
1019  4.38  3.58 10.48 
1020  3.10  5.81 10.48 
1021  5.41  4.24 10.48 
1022  4.34  4.88 10.48 
1023  2.77  3.28 10.48 
1024  4.04  6.08 10.48 
1025  3.81  5.06 10.48 
1026  5.15  5.30 10.48 
1027  2.30  3.85 10.48 
1028  4.79  2.80 10.48 
1029  3.51  5.89 10.48 
1030  4.07  3.38 10.48 
1031  5.15  4.83 10.48 
1032  5.37  3.70 10.48 
1033  4.07  3.22 10.48 
1034  4.12  3.63 10.48 
1035  4.18  6.01 10.48 
1036  9.60  5.25 10.48 
1037  3.30  4.92 10.48 
1038  3.91  3.77 10.48 
1039  4.41  3.96 10.48 
1040  4.12  4.61 10.48 
1041  3.07  3.81 10.48 
1042  2.95  3.79 10.48 
1043  4.03  4.58 10.48 
1044  4.92  4.32 10.48 
1045  3.09  4.37 10.48 
1046  3.96  4.19 10.48 
1047  3.53  4.62 10.48 
1048  4.73  5.68 10.48 
1049  4.05  3.13 10.48 
1050  4.14  6.20 10.48 
1051  3.77  3.64 10.48 
1052  4.39  5.64 10.48 
1053  4.10  3.69 10.48 
1054  4.06  3.69 10.48 
1055  4.07  5.62 10.48 
1056  2.52  2.99 10.48 
1057  4.42  4.97 10.48 
1058  4.69  4.10 10.48 
1059  5.54  4.67 10.48 
1060  5.39  2.89 10.48 
1061  5.37  4.45 10.48 
1062  4.03  3.96 10.48 
1063  4.63  3.95 10.48 
1064  4.06  3.53 10.48 
1065  4.03  2.69 10.48 
1066  2.92  2.59 10.48 
1067  4.08  3.79 10.48 
1068  2.86  4.97 10.48 
1069  2.79  3.53 10.48 
1070  3.80  4.82 10.48 
1071  3.21  4.90 10.48 
1072  2.88  3.87 10.48 
1073  3.67  4.05 10.48 
1074  3.87  3.10 10.48 
1075  4.17  3.94 10.48 
1076  3.38  4.52 10.48 
1077  3.27  4.01 10.48 
1078  3.52  3.10 10.48 
1079  3.93  3.78 10.48 
1080  4.05  3.11 10.48 
1081  3.28  3.11 10.48 
1082  4.04  3.43 10.48 
1083  4.86  3.63 10.48 
1084  3.99  3.97 10.48 
1085  4.05  4.64 10.48 
1086  4.08  3.80 10.48 
1087  2.26  3.55 10.48 
1088  4.14  6.07 10.48 
1089  3.33  3.95 10.48 
1090  4.03  4.80 10.48 
1091  4.10  5.31 10.48 
1092  4.39  5.50 10.48 
1093  5.42  4.93 10.48 
1094  3.37  4.20 10.48 
1095  4.12  3.64 10.48 
1096  4.04  5.08 10.48 
1097  5.43  3.62 10.48 
1098  2.78  4.27 10.48 
1099  4.08  5.74 10.48 
1100  6.45  3.68 10.48 
1101  5.16  3.61 10.48 
1102  4.03  4.75 10.48 
1103  4.56  3.19 10.48 
1104  4.02  3.94 10.48 
1105  3.83  3.86 10.48 
1106  4.12  3.36 10.48 
1107  4.10  3.35 10.48 
1108  4.69  2.02 10.48 
1109  3.32  3.53 10.48 
1110  4.04  5.57 10.48 
1111  5.15  3.60 10.48 
1112  5.81  3.86 10.48 
1113  4.13  5.13 10.48 
1114  3.50  3.85 10.48 
1115  2.77  3.93 10.48 
1116  3.98  3.85 10.48 
1117  5.75  3.94 10.48 
1118  1.50  3.26 10.48 
1119  5.89  3.18 10.48 
1120  5.77  3.93 10.48 
1121  4.38  3.68 10.48 
1122  5.04  4.74 10.48 
1123  4.89  5.24 10.48 
1124  4.55  3.40 10.48 
1125  5.12  4.60 10.48 
1126  3.10  4.55 10.48 
1127  5.11  3.18 10.48 
1128  5.28  3.34 10.48 
1129  4.76  3.27 10.48 
1130  3.90  3.43 10.48 
1131  4.89  3.19 10.48 
1132  5.41  3.35 10.48 
1133  3.67  3.43 10.48 
1134  4.97  3.45 10.48 
1135  4.67  3.85 10.48 
1136  3.51  3.34 10.48 
1137  3.31  3.01 10.48 
1138  5.20  3.18 10.48 
1139  4.05  3.60 10.48 
1140  4.97  4.30 10.48 
1141  4.69  4.02 10.48 
1142  2.28  4.03 10.48 
1143  5.06  5.32 10.48 
1144  3.11  3.78 10.48 
1145  4.15  4.02 10.48 
1146  3.51  5.12 10.48 
1147  5.51  5.17 10.48 
1148  5.01  5.40 10.48 
1149  4.72  3.81 10.48 
1150  3.89  3.94 10.48 
1151  4.57  4.87 10.48 
1152  1.57  4.22 10.48 
1153  2.80  3.99 10.48 
1154  3.38  3.82 10.48 
1155  4.06  4.44 10.48 
1156  3.28  3.58 10.48 
1157  4.21  4.38 10.48 
1158  4.15  4.16 10.48 
1159  5.09  5.09 10.48 
1160  4.07  5.33 10.48 
1161  4.29  5.42 10.48 
1162  4.03  5.05 10.48 
1163  4.13  3.67 10.48 
1164  4.97  4.04 10.48 
1165  4.35  4.33 10.48 
1166  7.62  3.80 10.48 
1167  4.01  4.51 10.48 
1168  4.31  3.55 10.48 
1169  3.02  5.02 10.48 
1170  1.80  4.61 10.48 
1171  2.91  3.38 10.48 
1172  2.77  4.05 10.48 
1173  4.27  4.14 10.48 
1174  4.27  3.56 10.48 
1175  3.06  3.80 10.48 
1176  3.04  4.05 10.48 
1177  6.66  4.07 10.48 
1178  4.03  3.74 10.48 
1179  5.66  4.75 10.48 
1180  1.86  4.88 10.48 
1181  3.36  4.68 10.48 
1182  8.00  4.05 10.48 
1183  4.08  4.43 10.48 
1184  4.06  3.58 10.48 
1185  5.46  4.58 10.48 
1186  4.89  4.18 10.48 
1187  3.34  3.57 10.48 
1188  3.67  4.55 10.48 
1189  4.33  4.35 10.48 
1190  3.23  4.23 10.48 
1191  4.13  4.22 10.48 
1192  4.75  3.90 10.48 
1193  4.17  4.07 10.48 
1194  4.71  3.10 10.48 
1195  4.20  3.61 10.48 
1196  4.96  4.29 10.48 
1197  3.59  3.10 10.48 
1198  4.49  3.52 10.48 
1199  5.04  3.61 10.48 
1200  4.10  3.72 10.48 
1201  3.65  3.19 10.48 
1202  4.10  3.52 10.48 
1203  5.88  3.62 10.48 
1204  4.06  4.03 10.48 
1205  3.02  3.18 10.48 
1206  5.29  3.95 10.48 
1207  6.25  4.01 10.48 
1208  8.10  3.28 10.48 
1209  4.06  3.95 10.48 
1210  4.68  3.43 10.48 
1211  4.03  3.20 10.48 
1212  4.12  3.52 10.48 
1213  5.17  4.37 10.48 
1214  3.20  3.20 10.48 
1215  4.92  3.63 10.48 
1216  4.17  3.79 10.48 
1217  2.87  3.69 10.48 
