Iter | Sampling Pol | Evaluation Pol | Best (Sampled) 
   0  0.03  0.03 -100000000.00 
   1  0.04  0.03  0.03 
   2  0.04  0.03  0.04 
   3  0.05  0.04  0.04 
   4  0.05  0.04  0.05 
   5  0.06  0.05  0.05 
   6  0.05  0.05  0.06 
   7  0.04  0.06  0.06 
   8  0.09  0.06  0.06 
   9  0.07  0.07  0.09 
  10  0.06  0.06  0.09 
  11  0.07  0.07  0.09 
  12  0.13  0.09  0.09 
  13  0.08  0.09  0.13 
  14  0.14  0.13  0.13 
  15  0.09  0.11  0.14 
  16  0.11  0.12  0.14 
  17  0.12  0.12  0.14 
  18  0.22  0.11  0.14 
  19  0.13  0.23  0.22 
  20  0.20  0.13  0.22 
  21  0.16  0.19  0.22 
  22  0.39  0.22  0.22 
  23  0.17  0.27  0.39 
  24  0.34  0.31  0.39 
  25  0.10  0.31  0.39 
  26  0.15  0.33  0.39 
  27  0.22  0.33  0.39 
  28  0.23  0.44  0.39 
  29  0.42  0.32  0.39 
  30  0.21  0.22  0.42 
  31  0.21  0.29  0.42 
  32  0.22  0.19  0.42 
  33  0.42  0.30  0.42 
  34  0.42  0.30  0.42 
  35  0.64  0.22  0.42 
  36  0.37  0.35  0.64 
  37  0.24  0.23  0.64 
  38  0.61  0.27  0.64 
  39  0.52  0.22  0.64 
  40  0.57  0.26  0.64 
  41  0.80  0.16  0.64 
  42  0.72  0.11  0.80 
  43  1.72  0.12  0.80 
  44  1.64  0.13  1.72 
  45  0.23  0.21  1.72 
  46  0.54  0.23  1.72 
  47  0.85  0.61  1.72 
  48  0.52  0.26  1.72 
  49  1.06  0.33  1.72 
  50  0.69  0.42  1.72 
  51  0.63  0.18  1.72 
  52  1.09  0.40  1.72 
  53  1.12  1.21  1.72 
  54  1.45  0.39  1.72 
  55  1.29  0.32  1.72 
  56  0.74  0.50  1.72 
  57  1.32  0.60  1.72 
  58  1.38  1.35  1.72 
  59  0.73  0.19  1.72 
  60  0.91  0.20  1.72 
  61  1.11  0.06  1.72 
  62  0.72  0.07  1.72 
  63  1.15  0.05  1.72 
  64  0.81  0.07  1.72 
  65  0.95  0.11  1.72 
  66  1.41  0.08  1.72 
  67  1.94  0.09  1.72 
  68  1.53  0.12  1.94 
  69  1.02  0.06  1.94 
  70  0.64  0.13  1.94 
  71  1.33  0.06  1.94 
  72  2.15  0.14  1.94 
  73  1.41  0.05  2.15 
  74  1.06  0.09  2.15 
  75  1.34  0.07  2.15 
  76  0.51  0.03  2.15 
  77  1.16  0.05  2.15 
  78  0.52  0.15  2.15 
  79  1.40  0.22  2.15 
  80  0.88  1.33  2.15 
  81  1.26  0.67  2.15 
  82  1.26  0.17  2.15 
  83  1.40  0.12  2.15 
  84  0.96  0.04  2.15 
  85  0.86  0.05  2.15 
  86  1.39  0.06  2.15 
  87  1.34  0.12  2.15 
  88  0.49  0.30  2.15 
  89  0.86  0.60  2.15 
  90  1.01  0.21  2.15 
  91  0.67  1.13  2.15 
  92  0.54  0.20  2.15 
  93  1.02  1.92  2.15 
  94  1.76  0.09  2.15 
  95  1.85  1.27  2.15 
  96  2.29  0.58  2.15 
  97  2.08  0.08  2.29 
  98  1.92  0.06  2.29 
  99  3.14  0.04  2.29 
 100  1.23  0.05  3.14 
 101  2.38  0.06  3.14 
 102  1.93  0.08  3.14 
 103  2.45  0.09  3.14 
 104  0.25  0.10  3.14 
 105  1.96  0.15  3.14 
 106  2.67  0.25  3.14 
 107  0.85  0.26  3.14 
 108  0.60  0.15  3.14 
 109  0.93  0.29  3.14 
 110  1.58  0.12  3.14 
 111  1.16  0.08  3.14 
 112  1.26  0.06  3.14 
 113  2.03  0.05  3.14 
 114  2.29  0.04  3.14 
 115  2.96  0.04  3.14 
 116  1.33  0.05  3.14 
 117  1.20  0.05  3.14 
 118  2.05  0.06  3.14 
 119  2.22  0.05  3.14 
 120  2.19  0.06  3.14 
 121  1.22  0.05  3.14 
 122  1.16  0.06  3.14 
 123  1.19  0.06  3.14 
 124  0.77  0.08  3.14 
 125  0.96  0.07  3.14 
 126  1.07  0.07  3.14 
 127  1.16  0.05  3.14 
 128  2.62  0.08  3.14 
 129  2.55  0.06  3.14 
 130  2.16  0.23  3.14 
 131  3.10  0.54  3.14 
 132  2.19  0.45  3.14 
 133  1.85  0.22  3.14 
 134  0.59  0.20  3.14 
 135  1.46  0.29  3.14 
 136  1.74  0.42  3.14 
 137  1.19  0.20  3.14 
 138  2.57  0.13  3.14 
 139  1.05  0.12  3.14 
 140  2.14  0.27  3.14 
 141  1.64  0.12  3.14 
 142  1.00  0.37  3.14 
 143  1.46  0.31  3.14 
 144  1.11  0.20  3.14 
 145  1.12  0.40  3.14 
 146  1.35  0.34  3.14 
 147  1.05  0.45  3.14 
 148  1.78  0.44  3.14 
 149  1.72  0.29  3.14 
 150  0.77  0.39  3.14 
 151  1.60  0.62  3.14 
 152  3.04  0.37  3.14 
 153  2.17  0.34  3.14 
 154  1.58  0.64  3.14 
 155  2.22  0.75  3.14 
 156  2.36  0.55  3.14 
 157  1.33  0.64  3.14 
 158  1.86  0.73  3.14 
 159  1.92  0.44  3.14 
 160  2.04  0.57  3.14 
 161  2.33  0.53  3.14 
 162  1.39  0.37  3.14 
 163  2.78  0.39  3.14 
 164  2.54  0.76  3.14 
 165  1.61  0.75  3.14 
 166  2.76  0.90  3.14 
 167  0.86  0.32  3.14 
 168  1.93  0.52  3.14 
 169  1.53  0.44  3.14 
 170  1.63  0.31  3.14 
 171  2.61  0.35  3.14 
 172  2.03  0.30  3.14 
 173  3.08  0.52  3.14 
 174  1.68  0.23  3.14 
 175  2.34  0.23  3.14 
 176  2.23  0.20  3.14 
 177  1.04  0.22  3.14 
 178  2.60  0.29  3.14 
 179  2.29  0.46  3.14 
 180  3.01  0.55  3.14 
 181  1.88  0.42  3.14 
 182  2.53  0.47  3.14 
 183  1.81  0.57  3.14 
 184  2.25  0.74  3.14 
 185  0.82  0.46  3.14 
 186  2.89  0.73  3.14 
 187  1.87  0.66  3.14 
 188  1.36  0.37  3.14 
 189  3.66  0.42  3.14 
 190  1.99  0.23  3.66 
 191  2.69  0.32  3.66 
 192  1.06  0.39  3.66 
 193  1.07  0.34  3.66 
 194  2.38  0.49  3.66 
 195  2.41  0.32  3.66 
 196  1.14  0.37  3.66 
 197  2.57  1.19  3.66 
 198  2.48  0.56  3.66 
 199  1.40  0.31  3.66 
 200  2.61  0.72  3.66 
 201  3.03  0.91  3.66 
 202  3.70  1.43  3.66 
 203  1.74  1.93  3.70 
 204  3.62  1.53  3.70 
 205  0.85  3.05  3.70 
 206  2.24  1.85  3.70 
 207  1.37  1.72  3.70 
 208  1.99  1.84  3.70 
 209  2.52  1.42  3.70 
 210  2.74  2.38  3.70 
 211  2.06  1.64  3.70 
 212  2.21  1.48  3.70 
 213  2.02  1.99  3.70 
 214  1.48  1.93  3.70 
 215  2.96  2.02  3.70 
 216  1.54  2.23  3.70 
 217  2.91  1.87  3.70 
 218  2.79  1.85  3.70 
 219  2.09  1.07  3.70 
 220  1.63  1.05  3.70 
 221  0.93  0.99  3.70 
 222  3.84  2.27  3.70 
 223  3.41  1.77  3.84 
 224  1.96  0.98  3.84 
 225  3.15  1.10  3.84 
 226  2.32  1.78  3.84 
 227  2.03  2.53  3.84 
 228  1.55  1.46  3.84 
 229  1.13  2.97  3.84 
 230  1.28  4.15  3.84 
 231  1.56  2.09  3.84 
 232  4.04  2.16  3.84 
 233  1.79  2.18  4.04 
 234  4.37  2.57  4.04 
 235  2.04  4.12  4.37 
 236  3.10  6.34  4.37 
 237  2.84  3.09  4.37 
 238  1.30  2.44  4.37 
 239  3.00  2.52  4.37 
 240  2.12  3.16  4.37 
 241  3.51  3.84  4.37 
 242  2.71  3.34  4.37 
 243  2.53  2.98  4.37 
 244  3.59  3.74  4.37 
 245  3.08  5.01  4.37 
 246  1.90  3.38  4.37 
 247  3.26  3.42  4.37 
 248  2.50  4.80  4.37 
 249  3.62  4.33  4.37 
 250  3.41  4.81  4.37 
 251  2.33  4.28  4.37 
 252  2.55  3.76  4.37 
 253  3.05  5.25  4.37 
 254  1.27 11.86  4.37 
 255  2.02  6.45  4.37 
 256  2.28  7.20  4.37 
 257  1.26  9.52  4.37 
 258  2.86  6.63  4.37 
 259  3.76  5.20  4.37 
 260  3.07  6.42  4.37 
 261  3.05  4.99  4.37 
 262  2.92  3.72  4.37 
 263  2.62  4.28  4.37 
 264  3.82  4.48  4.37 
 265  4.18  4.21  4.37 
 266  2.76  5.81  4.37 
 267  3.28  4.25  4.37 
 268  5.29  6.15  4.37 
 269  2.28  4.56  5.29 
 270  2.20  7.43  5.29 
 271  4.26  5.69  5.29 
 272  3.26  7.37  5.29 
 273  3.28  8.58  5.29 
 274  3.19  8.50  5.29 
 275  4.08  9.61  5.29 
 276  3.38  9.19  5.29 
 277  3.06  9.30  5.29 
 278  4.08  9.94  5.29 
 279  3.25  6.08  5.29 
 280  4.36 10.19  5.29 
 281  3.05  9.32  5.29 
 282  3.71  7.57  5.29 
 283  3.10  6.28  5.29 
 284  2.51  9.98  5.29 
 285  5.05 12.09  5.29 
 286  3.24  8.46  5.29 
 287  3.59 11.17  5.29 
 288  4.58 12.65  5.29 
 289  2.06 10.26  5.29 
 290  4.52 10.87  5.29 
 291  4.35 11.63  5.29 
 292  3.93 10.01  5.29 
 293  3.30  9.54  5.29 
 294  3.42 10.17  5.29 
 295  3.27 11.30  5.29 
 296  2.23 13.27  5.29 
 297  5.56 12.89  5.29 
 298  2.39 12.27  5.56 
 299  1.69 10.76  5.56 
 300  3.21 11.99  5.56 
 301  2.62 10.29  5.56 
 302  6.00  9.44  5.56 
 303  5.80  7.53  6.00 
 304  2.24  9.94  6.00 
 305  2.67  9.39  6.00 
 306  4.47  5.66  6.00 
 307  3.39  7.84  6.00 
 308  4.46  7.03  6.00 
 309  5.35  4.99  6.00 
 310  2.13 12.31  6.00 
 311  4.00 10.48  6.00 
 312  4.84 13.01  6.00 
 313  3.09 10.80  6.00 
 314  4.05 13.93  6.00 
 315  2.91  6.40  6.00 
 316  4.47  8.07  6.00 
 317  1.53  2.93  6.00 
 318  2.21  2.34  6.00 
 319  4.35  7.20  6.00 
 320  2.16 12.35  6.00 
 321  3.39 12.16  6.00 
 322  3.21  3.11  6.00 
 323  3.34  4.04  6.00 
 324  2.32  3.17  6.00 
 325  4.56  2.96  6.00 
 326  4.97  3.56  6.00 
 327  4.89  4.15  6.00 
 328  5.58  5.43  6.00 
 329  5.29  6.27  6.00 
 330  4.84  5.78  6.00 
 331  4.19  9.28  6.00 
 332  3.17  2.89  6.00 
 333  5.16  2.69  6.00 
 334  5.66  1.60  6.00 
 335  2.26  2.36  6.00 
 336  4.38  4.78  6.00 
 337  5.15  6.24  6.00 
 338  6.98  4.53  6.00 
 339  4.94  9.31  6.98 
 340  4.90  3.62  6.98 
 341  5.28  5.53  6.98 
 342  4.35  4.83  6.98 
 343  6.73  3.83  6.98 
 344  5.69  3.74  6.98 
 345  4.40  6.12  6.98 
 346  2.80  5.13  6.98 
 347  6.32  3.76  6.98 
 348  5.87  5.83  6.98 
 349  4.35  3.40  6.98 
 350  4.68  1.77  6.98 
 351  6.22  1.69  6.98 
 352  2.75  3.04  6.98 
 353  4.45  3.61  6.98 
 354  5.85  4.18  6.98 
 355  2.68  2.57  6.98 
 356  5.68  3.71  6.98 
 357  3.09  5.76  6.98 
 358  5.22  4.18  6.98 
 359  6.19  2.30  6.98 
 360  4.77  3.72  6.98 
 361  3.25  3.94  6.98 
 362  3.25  3.28  6.98 
 363  3.01  3.85  6.98 
 364  3.86  3.72  6.98 
 365  3.41  5.86  6.98 
 366  8.51 13.46  6.98 
 367  5.22  5.36  8.51 
 368  4.38 11.35  8.51 
 369  4.10  9.22  8.51 
 370  6.07 11.76  8.51 
 371  6.37  6.18  8.51 
 372  2.88  5.34  8.51 
 373  4.14 10.74  8.51 
 374  4.73  6.72  8.51 
 375  6.22  8.97  8.51 
 376  6.30  5.74  8.51 
 377  4.54  8.15  8.51 
 378  4.46 10.73  8.51 
 379  3.09 11.59  8.51 
 380  4.54  8.21  8.51 
 381  5.58  8.52  8.51 
 382  4.07  4.44  8.51 
 383  5.80  6.22  8.51 
 384  5.22  6.71  8.51 
 385  4.46  4.30  8.51 
 386  6.34  8.50  8.51 
 387  6.06  5.88  8.51 
 388  8.68  9.18  8.51 
 389  3.71  5.84  8.68 
 390  5.92 11.59  8.68 
 391  2.60  5.09  8.68 
 392  6.73  4.04  8.68 
 393  2.85  7.23  8.68 
 394  3.05  3.35  8.68 
 395  4.12  1.93  8.68 
 396  8.68  2.58  8.68 
 397  2.87  1.98  8.68 
 398  5.47  1.94  8.68 
 399  6.14  3.02  8.68 
 400  3.33 12.46  8.68 
 401  7.82 10.06  8.68 
 402  5.82  6.63  8.68 
 403  3.90  9.22  8.68 
 404  7.81  4.01  8.68 
 405  6.35  2.66  8.68 
 406  4.26  4.05  8.68 
 407  6.71  4.05  8.68 
 408  7.33  3.50  8.68 
 409  5.90  5.43  8.68 
 410  3.16 13.37  8.68 
 411  4.00 14.88  8.68 
 412  5.79 12.44  8.68 
 413  4.82 11.01  8.68 
 414  4.70 13.29  8.68 
 415  7.65 16.10  8.68 
 416  4.51 14.76  8.68 
 417  5.49 14.61  8.68 
 418  3.66 10.53  8.68 
 419  4.53  9.63  8.68 
 420  6.23 14.88  8.68 
 421  7.58 15.38  8.68 
 422  3.42 15.86  8.68 
 423  4.93 14.10  8.68 
 424  3.84 15.33  8.68 
 425  6.41 11.66  8.68 
 426  3.97 12.98  8.68 
 427  4.85 13.55  8.68 
 428  4.97 16.54  8.68 
 429  6.47 14.88  8.68 
 430  5.88 13.59  8.68 
 431  3.81 14.89  8.68 
 432  6.31 15.40  8.68 
 433  6.98 15.41  8.68 
 434  1.99  8.76  8.68 
 435  5.42 10.36  8.68 
 436  5.30 10.55  8.68 
 437  6.78 10.32  8.68 
 438  5.11  8.15  8.68 
 439  8.07 10.46  8.68 
 440  5.20 11.50  8.68 
 441  9.98  5.70  8.68 
 442  6.22  8.65  9.98 
 443  4.30  8.84  9.98 
 444  7.02  8.68  9.98 
 445  4.90 13.44  9.98 
 446  6.65  9.69  9.98 
 447  6.43  7.90  9.98 
 448  8.00  9.54  9.98 
 449  6.97  8.98  9.98 
 450  1.74 13.08  9.98 
 451  4.49 10.51  9.98 
 452  3.70  6.25  9.98 
 453  5.63 11.87  9.98 
 454  3.28  8.34  9.98 
 455  6.25 10.85  9.98 
 456  6.30  7.17  9.98 
 457  5.75  6.26  9.98 
 458  8.91  6.68  9.98 
 459  4.36  8.14  9.98 
 460  6.07  5.94  9.98 
 461  7.98  9.01  9.98 
 462  8.94  5.69  9.98 
 463  5.33 10.66  9.98 
 464  5.11  9.46  9.98 
 465  5.65 12.30  9.98 
 466  6.49 13.13  9.98 
 467  2.94 14.71  9.98 
 468  6.36 12.12  9.98 
 469  5.37 12.08  9.98 
 470  4.75  8.65  9.98 
 471  3.18 10.54  9.98 
 472  7.92  8.47  9.98 
 473  6.12 12.31  9.98 
 474  5.74 12.51  9.98 
 475  5.06  9.73  9.98 
 476  7.04 10.43  9.98 
 477  4.93  5.59  9.98 
 478  6.15  7.71  9.98 
 479  5.15  8.10  9.98 
 480  4.74  7.36  9.98 
 481  7.00  5.86  9.98 
 482  6.14  5.52  9.98 
 483  8.09  5.10  9.98 
 484  9.39  5.14  9.98 
 485  4.72  4.28  9.98 
 486  4.45  3.66  9.98 
 487  6.56  5.51  9.98 
 488  5.19  5.26  9.98 
 489  7.47  5.88  9.98 
 490  6.14  5.49  9.98 
 491  9.75  9.62  9.98 
 492  3.13  6.46  9.98 
 493  7.62 13.06  9.98 
 494  9.43 12.41  9.98 
 495  4.96  8.92  9.98 
 496  7.11 12.76  9.98 
 497  7.62 13.02  9.98 
 498  5.32 11.31  9.98 
 499  7.25  8.46  9.98 
