iteration,time_sampling,stoc_pol_mean,stoc_pol_std,stoc_pol_max,stoc_pol_min,rollout_success,alpha,delta,time_vpg,time_npg,kl_dist,surr_improvement,running_score,rwd_sparse,rwd_dense,success_percentage,num_samples,time_VF,VF_error_before,VF_error_after,env_samples,eval_score,eval_success
0,1.8506579399108887,-17.312833046770752,3.0734369507665535,-10.031368469538574,-25.102747317900317,0.0,0.5213666650325269,0.1,0.04639101028442383,0.12152957916259766,0.056973927,0.20658867,-17.312833046770752,-0.23123912259354165,-0.32506488626524843,0.0,2106,0.19724535942077637,0.9904905595236743,0.2955683190349589,2106,-8.65063317314137,0.0
1,1.7683742046356201,-15.970496132645954,3.1594114683963435,-9.937309921235883,-24.767777403107328,0.0,0.7615353794926899,0.1,0.006059169769287109,0.12351703643798828,0.05118834,0.136708,-17.178599355358273,-0.19548813816489607,-0.29845024504303014,0.0,1991,0.1846144199371338,0.26968417459884075,0.10605495494362509,4097,-6.088331296490604,0.0
2,1.797687292098999,-14.853643550117814,2.617966040471456,-8.832677234782574,-21.20769034014116,0.0,0.7179714938407332,0.1,0.005288124084472656,0.11959242820739746,0.048632644,0.14087267,-16.946103774834228,-0.1653705696763561,-0.2763063137902112,0.0,1911,0.16100525856018066,0.09640488929387464,0.06732456780039822,6008,-6.05006956363024,0.0
3,1.7991037368774414,-14.169118867315639,2.434613749979591,-9.121775086869334,-19.807541895183817,0.0,0.7176142263639256,0.1,0.014350414276123047,0.1213841438293457,0.05225536,0.14429908,-16.668405284082368,-0.14579474180607685,-0.26279356149748695,0.0,1865,0.1666567325592041,0.06526485340128117,0.040136775424095515,7873,-5.203522745869003,0.0
4,1.7750811576843262,-13.506643700743268,2.2084443021831417,-9.02883746709363,-19.55173391368564,0.0,0.7299268532710919,0.1,0.005371570587158203,0.1183466911315918,0.05113119,0.13685305,-16.352229125748458,-0.12781840027572935,-0.24960101865951087,0.0,1797,0.16076326370239258,0.03874813202603629,0.02984313953286753,9670,-4.4538208712219,0.0
5,1.7347705364227295,-12.59036740760695,2.322918381001345,-8.664334650361583,-21.633935763539505,0.0,0.6793207603265178,0.1,0.005276203155517578,0.11896514892578125,0.05151729,0.14030455,-15.976042953934309,-0.09658380077778028,-0.23144604586261444,0.0,1725,0.17571091651916504,0.04256189172178925,0.03687688541589873,11395,-4.281408893950498,0.0
6,1.6918115615844727,-11.192543284270563,1.8981903314514865,-7.4349118930261335,-17.24263149767767,0.0,0.685742500645193,0.1,0.0056285858154296875,0.12501168251037598,0.05500034,0.14552018,-15.497692986967934,-0.04381384331349714,-0.2035567031632596,0.0,1614,0.14557528495788574,0.04504478739093387,0.029303049971926037,13009,-4.17235662700547,0.0
7,1.7136330604553223,-10.485481820704992,1.7577129284765842,-7.35629263307022,-15.077907153074001,0.0,0.6673644152323724,0.1,0.005495548248291016,0.1231088638305664,0.051091865,0.15036315,-14.99647187034164,-0.013263922052898877,-0.1900341826494624,0.0,1564,0.1347026824951172,0.03042618692384757,0.027097842997913114,14573,-4.328686852742831,0.0
8,1.659158706665039,-9.421372323168635,1.392889146623143,-6.634169302236343,-14.998572338832382,0.0,0.6499146690828769,0.1,0.005457162857055664,0.11946320533752441,0.052138552,0.1455627,-14.43896191562434,0.02900390864027016,-0.16901065680279348,0.0,1461,0.12660002708435059,0.029431988149510938,0.02013297935127826,16034,-4.17665128362068,0.0
9,1.6686410903930664,-8.83686009584691,1.2789950173039975,-6.637199999868504,-14.314159248836841,0.0,0.6264026590692084,0.1,0.005306720733642578,0.11795234680175781,0.051290523,0.1561556,-13.878751733646597,0.05599734557958295,-0.15764081916943218,0.0,1415,0.12667179107666016,0.020223905137920238,0.01856408330959954,17449,-4.14317648558064,0.0
10,1.6641576290130615,-8.462924859015674,1.2476202374151042,-6.116227245338919,-13.01872591812031,0.0,0.6118200183717254,0.1,0.0053195953369140625,0.12180113792419434,0.053422444,0.15673086,-13.337169046183506,0.07567725297629295,-0.15005838524571644,0.0,1388,0.12012577056884766,0.019984988573277258,0.01850369279948616,18837,-4.0009252009061775,0.0
11,1.6511175632476807,-7.754674619783375,0.7787277861501211,-5.887350348025955,-9.982476518250195,0.0,0.6176125912376209,0.1,0.005144596099853516,0.11209869384765625,0.05181441,0.1672017,-12.778919603543493,0.1074575653866686,-0.13612521642102685,0.0,1309,0.11118602752685547,0.01389952061568034,0.008663478943451982,20146,-4.12492577902468,0.0
12,1.6445307731628418,-7.838884084990461,1.1036384725995159,-5.345740794425294,-12.006222598884134,0.0,0.6566958065113144,0.1,0.005318641662597656,0.11304855346679688,0.05254765,0.14920053,-12.284916051688189,0.10404045224912334,-0.13805970805315906,0.0,1332,0.11593389511108398,0.015886668037306345,0.015083283992794808,21478,-4.085830948854477,0.0
13,1.6023435592651367,-7.211512441168627,0.9645496040379393,-5.975269000051619,-12.183375119838127,0.0,0.5996560148441605,0.1,0.005036354064941406,0.1137535572052002,0.051442422,0.14814219,-11.777575690636233,0.136604906671171,-0.12564149888476156,0.0,1269,0.1288292407989502,0.018963138887252234,0.013228690097388378,22747,-3.6987671671920435,0.0
14,1.6120092868804932,-6.839742645757216,0.7215104016853646,-5.531384115151743,-9.839023621647037,0.0,0.5786811706201969,0.1,0.0052874088287353516,0.1239020824432373,0.052303288,0.16776091,-11.283792386148333,0.15692202698349478,-0.1184398087567282,0.0,1245,0.10779976844787598,0.009939779115585043,0.008212464401077145,23992,-3.4454903894614857,0.0
15,1.4984564781188965,-6.629160767076612,0.6499852860649303,-5.597149686285005,-8.953183934893907,0.0,0.6023752180075657,0.1,0.005396604537963867,0.11074376106262207,0.05199405,0.1596791,-10.818329224241161,0.16831915244635323,-0.11435733118037295,0.0,1213,0.1001594066619873,0.006980365698709803,0.006365928081978605,25205,-3.534734239018433,0.0
16,1.5194871425628662,-6.396797364681056,0.5878627165533106,-5.277264804397164,-8.553049083404387,0.0,0.5684759233540726,0.1,0.0064182281494140625,0.10978341102600098,0.051683877,0.17457297,-10.37617603828515,0.18007880699844322,-0.10970917772830331,0.0,1195,0.09984827041625977,0.006379828852171366,0.005613580343025292,26400,-3.3338899972748246,0.0
17,1.5202865600585938,-6.1481564622485045,0.5211448465104194,-5.199087074633779,-7.9684467836581145,0.0,0.6141030301690991,0.1,0.01036691665649414,0.11493635177612305,0.051101107,0.15131792,-9.953374080681485,0.19434220024758733,-0.10498154603734729,0.0,1177,0.10337448120117188,0.005806277040010898,0.004537997010985677,27577,-3.2626870560544754,0.0
18,1.502396821975708,-5.970061238491046,0.48361157214010053,-4.881885518145267,-7.547857644050212,0.0,0.588359044885158,0.1,0.0051805973052978516,0.10750937461853027,0.05247475,0.18101133,-9.555042796462441,0.2048430283436914,-0.10151760086208872,0.0,1171,0.1000065803527832,0.004408450207124535,0.004011107269163411,28748,-2.8905917527819613,0.0
19,1.5126206874847412,-5.804718121979531,0.42741802128515394,-4.867108949934275,-7.147586388514012,0.0,0.6082398823698686,0.1,0.005339145660400391,0.1108083724975586,0.05121042,0.17066744,-9.18001032901415,0.21397385805269598,-0.09813118150866451,0.0,1155,0.1143338680267334,0.0040623443770471685,0.0036371208723455146,29903,-2.7900265785334066,0.0
20,1.4918479919433594,-5.5907492908754195,0.37764236741065305,-4.723938357398549,-6.411603404033055,0.0,0.5723136983578728,0.1,0.005173921585083008,0.11035490036010742,0.051950157,0.17879875,-8.821084225200277,0.22515472376601445,-0.09414212506904558,0.0,1138,0.09726119041442871,0.00352990101205553,0.002805847577982169,31041,-2.9271591990451773,0.0
21,1.5164813995361328,-5.508709435306727,0.3659640797153624,-4.7400682221263475,-6.65072261453264,0.0,0.610191747982533,0.1,0.005195140838623047,0.1185460090637207,0.045545235,0.16049604,-8.489846746210922,0.22905801948423962,-0.09247069981252391,0.0,1140,0.0974721908569336,0.0033435518994203656,0.003086574763150506,32181,-2.884498893994818,0.0
22,1.4732916355133057,-5.284074838996807,0.33764602330766413,-4.394606057609481,-6.2123258482690655,0.0,0.592686969537692,0.1,0.005101680755615234,0.11035895347595215,0.049465526,0.16267198,-8.16926955548951,0.2428310744139532,-0.08816986725219637,0.0,1135,0.09663200378417969,0.003976905099424925,0.003247251425791266,33316,-2.712520445266467,0.0
23,1.48057222366333,-5.172685466054447,0.3924094718847942,-3.7952109184238814,-6.011718641076741,0.0,0.5989631518812936,0.1,0.004952907562255859,0.10755228996276855,0.046208784,0.1605879,-7.869611146546005,0.24943102977966558,-0.08598063664012527,0.0,1135,0.09416675567626953,0.004294634868392195,0.003913270014434755,34451,-2.3308297402066898,0.0
24,1.478593349456787,-5.0865674806085375,0.4035922184923716,-4.1589143169367295,-6.797483182700045,0.0,0.6174369307559724,0.1,0.005260467529296875,0.10788202285766602,0.04550841,0.15127519,-7.591306779952258,0.25369905701417444,-0.08438290926321852,0.0,1145,0.09455037117004395,0.004062873872774941,0.003817795890064284,35596,-2.3646915542170444,0.0
25,1.4965498447418213,-4.86029393119673,0.37211528840090835,-3.688590003393063,-5.643506555155522,0.0,0.6217352299795886,0.1,0.005244255065917969,0.1089029312133789,0.046163756,0.16333842,-7.318205495076705,0.2686385743835184,-0.07989298576080317,0.0,1134,0.09496474266052246,0.004578008998215327,0.0038008128469810293,36730,-2.303389808687002,0.0
26,1.485504150390625,-4.812936506218428,0.4420275433294907,-4.010394169745311,-6.15129070864397,0.0,0.5931997766848297,0.1,0.005141496658325195,0.1065821647644043,0.0478006,0.16992418,-7.067678596190877,0.2678227951591485,-0.07904365595383873,0.0,1161,0.10213828086853027,0.005445086271982337,0.005306531566621683,37891,-2.1366873364913146,0.0
27,1.52744460105896,-4.636938579330094,0.3458881862488106,-3.729283115137158,-5.529920305002415,0.0,0.6772159913160584,0.1,0.005049705505371094,0.10802149772644043,0.048378617,0.14564273,-6.824604594504799,0.2795029619478411,-0.07566973948129947,0.0,1157,0.10710716247558594,0.005622409648458604,0.004204936405941925,39048,-2.1154125895984808,0.0
28,1.497905969619751,-4.6656599708932225,0.5188842243246641,-3.359652142256503,-7.200062917901427,0.0,0.6983234822482036,0.1,0.005450248718261719,0.10885477066040039,0.044752534,0.12161475,-6.608710132143641,0.2759924499409638,-0.07603444623992171,0.0,1189,0.10684943199157715,0.008978593523843219,0.008498513397481335,40237,-1.929517482767459,0.0
29,1.5357038974761963,-4.4687207216164735,0.41243164465779203,-3.5442806812491128,-5.633324545350813,0.0,0.6347394831212627,0.1,0.005064725875854492,0.10848331451416016,0.047342993,0.1535212,-6.3947111910909245,0.28924064189717696,-0.07225165548927955,0.0,1184,0.09974360466003418,0.006604387654021734,0.005603420586000941,41421,-1.8992467536437343,0.0
30,1.5580089092254639,-4.28238621396939,0.4195401868304249,-2.428615303898909,-5.106349907637948,0.0,0.6688008808632637,0.1,0.005223989486694336,0.11010980606079102,0.047119275,0.16120586,-6.18347869337877,0.2963652153004783,-0.06862818962610107,0.0,1187,0.10279417037963867,0.0064692337760513426,0.005906828945454376,42608,-1.5741990244335504,0.0
31,1.5222735404968262,-4.202458634482702,0.521150580759862,-2.300454200545611,-6.406295133004758,0.0,0.6742933377145766,0.1,0.005224943161010742,0.11220550537109375,0.047186013,0.13812935,-5.985376687489163,0.3001840180832757,-0.06713194136725771,0.0,1222,0.1105661392211914,0.010073253103815152,0.009982763674387406,43830,-1.4028629977659306,0.0
32,1.5371017456054688,-4.029611024520517,0.5443557463370071,-2.4138600405754818,-5.978156191939053,0.0,0.6448654729597538,0.1,0.00498509407043457,0.10930371284484863,0.048437096,0.15978192,-5.7898001211922985,0.30953198790205866,-0.06366585581125542,0.0,1209,0.10550713539123535,0.012908039680284318,0.011284605522613797,45039,-1.3682490031303685,0.0
33,1.5213136672973633,-4.010063027237098,0.4585017722381404,-2.8902565764699477,-5.515548283731015,0.0,0.7027522337141581,0.1,0.0050868988037109375,0.11102128028869629,0.0473312,0.13267466,-5.611826411796779,0.30948821671164345,-0.06324776973264636,0.0,1228,0.11743879318237305,0.008944872077925931,0.008498353568360803,46267,-1.3617244183444526,0.0
34,1.563081979751587,-3.7175977750424942,0.4870886339752054,-1.948752614741093,-4.72702796969265,0.0,0.6668504662398642,0.1,0.0052127838134765625,0.11008310317993164,0.047547225,0.15156335,-5.42240354812135,0.3282598775143598,-0.057517136612138975,0.0,1277,0.12404966354370117,0.015766678975371408,0.010517550967836633,47544,-1.0301782275271458,0.0
35,1.7368793487548828,-3.4216068969457893,0.6487420852138694,-1.6739746232909245,-5.228994348623224,0.0,0.6799994525057729,0.1,0.0050237178802490234,0.11205410957336426,0.04553738,0.14347723,-5.222323883003794,0.3427426883781252,-0.05170335759336284,0.0,1319,0.133270263671875,0.022095211100182057,0.018497262902691356,48863,-0.967753333134471,0.0
36,1.7340493202209473,-3.3961661250653066,0.8635071607236238,-1.4606017470523724,-7.2795672463548655,0.0,0.7139964291998908,0.1,0.0054094791412353516,0.11211252212524414,0.049403556,0.13080812,-5.039708107209945,0.3413449590477211,-0.05116941349380099,0.0,1362,0.15007591247558594,0.032476912782514404,0.03137946878018269,50225,-0.21119221073826822,0.0
37,1.7868852615356445,-3.0634299396948066,1.0634551253005067,0.4926122289232788,-7.106106759940049,0.0,0.7514532885025011,0.1,0.0052034854888916016,0.11384844779968262,0.04428266,0.12126463,-4.842080290458432,0.3602191364700417,-0.044133229210697955,0.0,1430,0.16377830505371094,0.057284800219120156,0.05372027727441675,51655,-0.12016671394764256,0.0
38,1.7826039791107178,-2.6843526333403163,0.9608302368970334,-0.004248569408857428,-6.326414601143927,0.0,0.7323933925592815,0.1,0.0054798126220703125,0.11713480949401855,0.04951937,0.13662511,-4.62630752474662,0.37687159465967873,-0.0370309999578757,0.0,1448,0.1663990020751953,0.06991749767886145,0.05310467281649215,53103,0.6368650322942937,0.0
39,1.9194598197937012,-2.1112191608997786,1.185440878488479,0.8678475075292242,-7.248795601145094,0.0,0.7235969897486992,0.1,0.005591630935668945,0.11957836151123047,0.04690976,0.13621753,-4.374798688361936,0.40358864565994174,-0.02551691168885506,0.0,1535,0.17536592483520508,0.09653627489780735,0.08663586082702007,54638,1.9832397519616922,0.0
40,1.9031453132629395,-1.7379326029760265,1.0402162071595045,2.564680243529895,-4.233442063469122,0.0,0.7246909300085655,0.1,0.00565338134765625,0.12002134323120117,0.04882592,0.14409228,-4.111112079823345,0.41873208099510933,-0.018127979521102924,0.0,1591,0.1934676170349121,0.08180084848206882,0.07486418024439899,56229,3.898001960689836,0.0
41,1.8914515972137451,2.1935546789149103,33.92186324701323,332.53646477142485,-4.586433321213437,0.0,0.4812059762894297,0.1,0.005182743072509766,0.11343836784362793,0.0507658,0.5939046,-3.480645403949519,0.4379568413509118,0.06051873428645769,0.0,1702,0.21365928649902344,1.0263727609221578,0.9807105143371556,57931,4.495534171736038,0.0
42,1.8860182762145996,-1.0923702189591247,1.1953113756820433,2.512584413165796,-3.9202383065705213,0.0,0.7414573944320668,0.1,0.005335807800292969,0.11365795135498047,0.047110815,0.1300439,-3.2418178854504798,0.4411204628789656,-0.0052493471982846375,0.0,1723,0.20946264266967773,6.994002929333955,1.0379590055317567,59654,4.065212056763949,0.0
43,1.8636093139648438,5.753375089048369,66.5502700644753,654.2915034516375,-3.804376176141039,1.0416666666666667,0.5098336275024783,0.1,0.005160093307495117,0.11292147636413574,0.05039208,0.56321573,-2.3422985880005953,0.44729871766294843,0.13167245092793353,1.0416666666666667,1742,0.21436834335327148,0.9986710019743553,0.9616169423123788,61396,3.470827815407911,0.0
44,1.877948522567749,0.45857414669593416,14.316967938724225,139.36012720256238,-3.7075776736280885,0.0,0.5781490264507629,0.1,0.005150556564331055,0.1123969554901123,0.04902571,0.3461477,-2.062211314530942,0.4509743456464457,0.02592676242750815,0.0,1745,0.21557331085205078,1.2999118243700678,0.9379770295715941,63141,3.6751086536776274,0.0
45,2.020447015762329,-1.1492770176542066,1.2200387957792356,2.8645142966358357,-3.9613240536831205,0.0,0.7701867114417389,0.1,0.005375385284423828,0.11987447738647461,0.046573546,0.109311745,-1.9709178848432687,0.4452270360324979,-0.006524327620425859,0.0,1669,0.20824122428894043,3.2112799534859287,0.81878112377566,64810,4.723204144613717,0.0
46,1.711254358291626,5.452565611741885,61.226436761439984,602.0792385040083,-6.285918267728341,1.0416666666666667,0.587441372410826,0.1,0.005816221237182617,0.11994647979736328,0.048537675,0.34481984,-1.2285695351847532,0.4544657345045631,0.12576146116892264,1.0416666666666667,1819,0.2282266616821289,0.9912280808196015,0.9494577393842893,66629,4.2278543222911695,0.0
47,1.7517578601837158,-0.656010245080148,1.4170443756521534,3.4366916790088684,-5.572903050716904,0.0,0.8104551584122818,0.1,0.0052068233489990234,0.11138057708740234,0.048301686,0.109012894,-1.1713136061742926,0.46395198830115564,0.003570134104008296,0.0,1792,0.22485637664794922,23.928825181275553,1.6287030576446782,68421,17.763302269779576,0.0
48,1.7213530540466309,6.427533218904716,67.48348939625286,663.9363545939776,-4.0169966430848225,1.0416666666666667,0.7670296321923753,0.1,0.005316734313964844,0.11548304557800293,0.050083343,0.17826639,-0.41142892366639183,0.4708522254913901,0.14511897289623726,1.0416666666666667,1844,0.2306208610534668,0.9756689590444129,0.9218154669129378,70265,19.10503633008164,0.0
49,1.7214586734771729,5.863565428997208,62.25518473881731,612.5174094901595,-3.9181249648341545,1.0416666666666667,0.5905425656551937,0.1,0.005526304244995117,0.11535501480102539,0.047276765,0.36380142,0.21607051159996815,0.47069410070898093,0.1338663902389337,1.0416666666666667,1837,0.23569583892822266,0.9465189728398326,0.9256854275727753,72102,53.592563051726756,0.0
50,1.7130212783813477,7.1138908889265124,54.352709791591536,484.2110128541349,-3.5484490939328412,1.0416666666666667,0.6194706228853053,0.1,0.005338191986083984,0.1153252124786377,0.050369065,0.3418816,0.9058525493326226,0.47786385312553264,0.159013643893149,1.0416666666666667,1892,0.2450399398803711,0.8554919379290572,0.8197240143115498,73994,224.44318637043983,0.0
51,1.769502878189087,14.819063575268258,89.61695840895605,723.9493931202209,-3.4627959522203966,1.0416666666666667,0.7110781058645116,0.1,0.0054323673248291016,0.11577892303466797,0.049677487,0.20646124,2.2971736519261863,0.47988399347310784,0.3131101017376204,1.0416666666666667,1915,0.24750256538391113,0.8756132858732331,0.852461352228103,75909,224.67658438201755,0.0
52,1.725778341293335,6.748606350854537,56.61739230215447,540.0557504723369,-3.2612129765292917,1.0416666666666667,0.7096802561615907,0.1,0.005374431610107422,0.11950302124023438,0.049782727,0.16371492,2.7423169218190213,0.4800692543580684,0.15161808706809596,1.0416666666666667,1875,0.251354455947876,0.9697730093551641,0.9206977359624104,77784,285.08820264643924,0.0
53,1.7801530361175537,6.251982646925598,45.427617235121865,329.3104485248619,-4.3666571159820675,0.0,0.6189037523907629,0.1,0.0054645538330078125,0.12125086784362793,0.04894123,0.1765762,3.0932834943296794,0.47523261000086126,0.14172838284026237,0.0,1916,0.2501218318939209,0.9259118505329602,0.9083975063767655,79700,345.85673957009857,0.0
54,1.778294563293457,-0.4119495544495992,1.357386481374334,5.352456940688074,-3.3873908171074305,0.0,0.6050353576133783,0.1,0.005402088165283203,0.11680793762207031,0.0507017,0.08244949,2.7427601894517517,0.4716161038548603,0.008471840488985112,0.0,1838,0.24016380310058594,13.543405184729181,3.6312316347143168,81538,345.9639969269508,0.0
55,1.7845301628112793,12.290568541088078,81.72677846663348,602.8091977099722,-4.610675190885397,2.0833333333333335,0.7448116074111308,0.1,0.005633115768432617,0.11801791191101074,0.048295997,0.22339064,3.6975410246153846,0.4701655731748655,0.2625428820530426,2.0833333333333335,1919,0.24988102912902832,0.9318463412838703,0.8834284042204876,83457,406.44338937490215,0.0
56,1.8535215854644775,28.611767469681514,122.90115736403291,642.0676152613679,-4.528364356861528,5.208333333333333,0.7842521812683855,0.1,0.005487203598022461,0.12149572372436523,0.0499637,0.14324722,6.188963669121998,0.4930894274422055,0.5888454543387682,5.208333333333333,2066,0.28256726264953613,0.8482234277423587,0.8162166563647117,85523,477.00448367538536,100.0
57,1.8295176029205322,35.39550378913252,139.25312783923508,763.8727432239706,-5.669416454933469,6.25,0.7530660676025827,0.1,0.005644321441650391,0.12225341796875,0.04937476,0.142121,9.109617681123051,0.49595727954985386,0.724495839806087,6.25,2083,0.27933239936828613,0.7987849630865742,0.7775898653273702,87606,118.82880199308562,0.0
58,1.8436782360076904,27.726211950741316,121.29528005958558,722.7594749532905,-3.856788196628976,4.166666666666667,0.7166558871525479,0.1,0.005707502365112305,0.12164831161499023,0.049673248,0.14409441,10.971277108084879,0.5024545689505105,0.5715123366845963,4.166666666666667,2055,0.2814302444458008,0.850774319628345,0.8310170721806974,89661,101.78336873982191,0.0
59,1.8930168151855469,49.012154836545676,146.081666532687,782.948782741804,-5.020247893052712,8.333333333333334,0.7741815348865,0.1,0.00576019287109375,0.1260688304901123,0.0501425,0.13417073,14.775364880930958,0.5189046442073937,0.9969059489777804,8.333333333333334,2246,0.30991315841674805,0.8196890277281811,0.7942287935307076,91907,91.85643664123849,0.0
60,1.9029240608215332,52.384702006433606,141.44791578127962,672.5607930413097,-3.2400794957283385,7.291666666666667,0.7048721196662329,0.1,0.005466938018798828,0.12250804901123047,0.045836333,0.12072757,18.536298593481224,0.5242741584329949,1.0658857855235568,7.291666666666667,2275,0.30554962158203125,0.7840360008925205,0.7718000473739342,94182,20.64023991539409,0.0
61,1.9480249881744385,52.08152345026491,151.1255392618056,653.0421362365917,-3.0363486099637216,8.333333333333334,0.8755591315820572,0.1,0.005372524261474609,0.12017679214477539,0.04802062,0.11843875,21.890821079159593,0.5370563317200123,1.058310843278561,8.333333333333334,2322,0.31320667266845703,0.7842748953852455,0.7775697773095717,96504,19.78046324804609,0.0
62,1.949049472808838,41.56728801083951,130.1417178585853,732.6303807734809,-3.814888591882142,5.208333333333333,0.8733073001634198,0.1,0.005665779113769531,0.1235811710357666,0.04821459,0.12789063,23.858467772327586,0.5162715833662532,0.8478538157198665,5.208333333333333,2328,0.31938672065734863,0.8767978211777219,0.8417727341535525,98832,19.74307061104735,0.0
63,2.024109363555908,17.298427549372544,79.28203643482762,532.9336670520206,-3.222984998560812,2.0833333333333335,0.8788573530579596,0.1,0.0055882930755615234,0.12038350105285645,0.04976076,0.14293136,23.202463750032084,0.5151517432448692,0.3625895526093023,2.0833333333333335,2229,0.3031587600708008,0.9636164689667418,0.8920975586874603,101061,19.684479631348125,0.0
64,2.0970613956451416,85.60728086018322,181.66096138270316,731.7732058047093,-6.174940264055136,10.416666666666666,0.907899903778485,0.1,0.006468772888183594,0.12494993209838867,0.050127503,0.1173013,29.4429454610472,0.5345248412619257,1.7283450896361592,10.416666666666666,2516,0.34972262382507324,0.8481852894534144,0.720223421755332,103577,18.96203824025805,0.0
65,2.044903039932251,68.92708293046844,175.08815886614852,710.2707489686821,-6.920396412525286,10.416666666666666,0.8675869276472545,0.1,0.0058193206787109375,0.13007712364196777,0.049484298,0.13508444,33.391359207989325,0.5490191845118156,1.4066097729801406,10.416666666666666,2489,0.34424781799316406,0.8192861691886104,0.7963558803897093,106066,17.773721044800872,0.0
66,2.225628614425659,132.56501012298708,217.39996800470786,722.4084544026385,-5.803978522542148,19.791666666666668,0.5736824372196451,0.1,0.005830526351928711,0.12528109550476074,0.02213745,0.058553576,43.3087242994891,0.5738914086790583,2.6670915554567287,19.791666666666668,2823,0.39642858505249023,0.7023342055488587,0.6443345681553132,108889,17.92000735756173,0.0
67,2.2726757526397705,142.31939225493525,212.06225200677875,720.5969555026256,-2.0069985303232825,19.791666666666668,0.9667025267141931,0.1,0.0059816837310791016,0.12678194046020508,0.04664437,0.10445351,53.209791095033715,0.5869981865516812,2.863330420176858,19.791666666666668,2891,0.40749430656433105,0.6293692124435443,0.6113364972680267,111780,17.70663609782781,0.0
68,2.242478847503662,123.63122504727646,213.01274403563465,763.2010255811695,-5.7938752458933,14.583333333333334,1.0388710674011408,0.1,0.005539894104003906,0.12611079216003418,0.049956776,0.10331597,60.251934490257995,0.5889657626879617,2.489409616353458,14.583333333333334,2872,0.39539623260498047,0.6949567600335849,0.6796866709818384,114652,17.490941479117357,0.0
69,2.3442752361297607,189.23455775571753,249.91985942475196,842.6780293298272,-3.4244791511485557,25.0,1.1011588233200562,0.1,0.0057981014251708984,0.1279308795928955,0.05039012,0.09288375,73.15019681680394,0.6110976937315117,3.801365656461021,25.0,3121,0.43096184730529785,0.6217453979738806,0.5856063093610709,117773,17.120351907063046,0.0
70,2.284771203994751,202.77047240050288,244.0346445358037,752.2379103406465,-2.4272382756885316,31.25,0.9586331019452906,0.1,0.005671977996826172,0.12617993354797363,0.05022398,0.100796096,86.11222437517384,0.5547135673684552,4.070198197134793,31.25,3014,0.41950535774230957,0.544513711576549,0.5354738192204797,120787,16.381289038191845,0.0
71,2.465021848678589,264.27594257834625,265.57599465615334,854.8357823762193,-10.030429515591862,36.458333333333336,0.6880750722185114,0.1,0.005906581878662109,0.13356804847717285,0.025738135,0.058205303,103.92859619549108,0.6311900802524927,5.301807210611048,36.458333333333336,3289,0.4563453197479248,0.5126374237847665,0.49314956651739594,124076,16.589807383272195,0.0
72,2.4940128326416016,262.06582938399487,251.11917866615093,833.4267864540678,-1.7722666162687388,38.541666666666664,0.8776303215542162,0.1,0.005815744400024414,0.13193655014038086,0.049107566,0.07586437,119.74231951434147,0.640974294151612,5.2581526801144385,38.541666666666664,3261,0.4534292221069336,0.4879408416204514,0.4808472158733171,127337,114.87245384658026,0.0
73,2.438438892364502,8.985044730581572,2615.6591929417077,1033.276384627998,-25357.394652922838,40.625,0.36806524632518994,0.1,0.005934715270996094,0.13028264045715332,0.045592166,0.046966463,108.66659203596548,-12.830976340560634,0.19635772953804378,40.625,3279,0.4512214660644531,1.0096147686449108,1.0003478879989787,130616,85.50000039906864,0.0
74,2.4671061038970947,274.48887537221236,251.85625588082374,852.7803639541977,-519.5109142629353,38.541666666666664,0.73378669028224,0.1,0.0060427188873291016,0.1302480697631836,0.03792839,0.067036755,125.24882036959018,0.23429548881061804,5.518885326043146,38.541666666666664,3278,0.4448111057281494,0.8452354732993382,0.5393106846354704,133894,125.00185358654224,0.0
75,2.6446163654327393,379.95226233118973,244.8744457446206,831.8324706977323,-5.107400595206444,59.375,0.7634530564034644,0.1,0.005810737609863281,0.1322782039642334,0.054876648,0.083320245,150.71916456575013,0.6551595507693276,7.6156321871047155,59.375,3499,0.49033403396606445,0.49412397505065875,0.3311775864840099,137393,124.7704849223796,0.0
76,2.5267038345336914,364.29725376476745,247.62355248707823,951.0530372777705,-3.2066953979494928,55.208333333333336,0.7249593290430261,0.1,0.0059735774993896484,0.13401293754577637,0.03886896,0.07029543,172.07697348565188,0.6566950537535492,7.302811529781216,55.208333333333336,3289,0.4664452075958252,0.3462633631395518,0.3378982595514136,140682,134.87006553739715,0.0
77,2.562764883041382,417.2253125935402,227.06373975636438,762.8085720052744,-1.3810038933067572,64.58333333333333,0.8185124109734226,0.1,0.0056459903717041016,0.1244957447052002,0.047969244,0.08765113,196.59180739644071,0.6657683385987392,8.361135512597926,64.58333333333333,3461,0.4791898727416992,0.2932496649532631,0.2825504266544523,144143,394.00284676160516,0.0
78,2.630032539367676,432.5350357371033,264.35660155992525,952.8090595521654,-1.0450387766309488,63.541666666666664,0.9970697200143177,0.1,0.006314516067504883,0.13576030731201172,0.048238333,0.119581684,220.186130230507,0.6669196536904645,8.667955797627016,63.541666666666664,3351,0.46434617042541504,0.3087283683323298,0.3034729847058677,147494,578.0050454731756,100.0
79,2.7148118019104004,420.4192430280065,228.35708833366544,772.1852504899264,-0.11756343470252695,64.58333333333333,0.6747946644131553,0.1,0.005804300308227539,0.1349475383758545,0.039214484,0.08042132,240.20944151025694,0.6692031642045286,8.425222890904664,64.58333333333333,3339,0.46468210220336914,0.3057309721996103,0.29412395433556043,150833,633.0526304594556,100.0
80,2.6818981170654297,432.2889919865905,229.55408552342575,891.7282139679841,-1.6784124409784877,66.66666666666667,0.678387570814712,0.1,0.006360769271850586,0.13446426391601562,0.033788387,0.078071624,259.4173965578903,0.6831327463435658,8.663136116712446,66.66666666666667,3351,0.46898412704467773,0.2723513707696746,0.2674218436171389,154184,630.3600338403452,100.0
81,2.624302864074707,470.9678540915552,201.92811110618766,971.8353044806496,0.12191056738958483,75.0,0.5886881849291454,0.1,0.005737781524658203,0.12998318672180176,0.035153065,0.06862728,280.5724423112568,0.6889903875086513,9.4365060007863,75.0,3341,0.46544909477233887,0.23952460550304824,0.23153682241457132,157525,591.042168983455,100.0
82,2.8244450092315674,483.0469503469314,209.76860832602168,1165.6209661777898,-55.39604265076218,72.91666666666667,0.8028055218507087,0.1,0.006086587905883789,0.13271808624267578,0.049254384,0.08691894,300.81989311482425,0.6940993927851151,9.811121304358855,72.91666666666667,3326,0.4646575450897217,0.22143393687722368,0.21755564436562838,160851,580.5350581766264,100.0
83,2.5370240211486816,489.21256538604575,204.45798800901795,974.1971426721897,-0.10144250829947765,77.08333333333333,0.8491289629519617,0.1,0.005957126617431641,0.13387846946716309,0.047090035,0.10652756,319.6591603419464,0.6898022289491138,9.801804851140462,77.08333333333333,3365,0.4715282917022705,0.20388390523280608,0.2014683392009676,164216,580.7759967383533,100.0
84,2.497180938720703,144.7513336520599,3238.0137534392143,1055.5860797460446,-31202.624772264622,79.16666666666667,0.60702788652319,0.1,0.0059642791748046875,0.12825298309326172,0.04866829,0.04564022,302.1683776729578,-7.659105219881789,2.9583422688207435,79.16666666666667,3323,0.4586467742919922,1.009603815268264,0.9994604067677685,167539,628.5640521968629,100.0
85,2.565650224685669,475.0385657942,396.4655203370232,1175.7919977638726,-2090.578803661882,83.33333333333333,0.5656906309998329,0.1,0.005822420120239258,0.1288766860961914,0.047610246,0.06985836,319.455396485082,-1.2331826712990954,9.51859208799596,83.33333333333333,3322,0.4539918899536133,0.6929107368368013,0.5038940047176199,170861,561.2876776766032,100.0
86,2.5264039039611816,526.0180100291792,187.7549881643836,1288.0240810840726,-2.5242609162109924,84.375,0.8918497566910489,0.1,0.0059163570404052734,0.12972307205200195,0.04984204,0.09157794,340.1116578394917,0.6829665685424368,10.538265312930514,84.375,3328,0.4646763801574707,0.2088715540952839,0.1839535482805712,174189,580.2249948881791,100.0
87,2.412583827972412,542.8998022357945,161.3760537276117,934.1951735765971,-11.05777599836384,89.58333333333333,0.8319623942099411,0.1,0.00702357292175293,0.13275861740112305,0.049655836,0.096963525,360.39047227912204,0.5676703808894695,10.882704978222733,89.58333333333333,3131,0.43784427642822266,0.14303653086056056,0.13404164032300492,177320,580.2549653212218,100.0
88,2.4983692169189453,557.8880185194021,150.50131829499884,1195.3580280919846,17.18418276815518,90.625,0.7707524855755147,0.1,0.005997896194458008,0.13382863998413086,0.047330946,0.096283436,380.14022690315005,0.6908084285448656,11.1732565448879,90.625,3280,0.4655153751373291,0.1435638762635774,0.13801436184420837,180600,564.9045658303515,100.0
89,2.4299888610839844,556.8693500650147,128.71783429461559,844.9427003337897,101.84241842448475,94.79166666666667,0.743921016439908,0.1,0.006129026412963867,0.1308300495147705,0.046100657,0.12169131,397.8131392193365,0.6447845206594549,11.154743372446724,94.79166666666667,3211,0.4472968578338623,0.10729980651189991,0.10390278440468223,183811,508.797424315819,100.0
90,2.44920015335083,57.42033379442478,4727.844692954355,1034.448665443442,-45988.973662797376,84.375,0.552762957920312,0.1,0.005736827850341797,0.1285076141357422,0.046188693,0.046472915,363.77385867684535,-20.47817384886046,1.1983407071533978,84.375,3229,0.4416961669921875,1.0101583337606543,0.9996035045290915,187040,568.8538137230487,100.0
91,2.446204900741577,551.0068254156091,154.5931120600305,902.1195104434785,7.902052307810477,89.58333333333333,0.8498795084421285,0.1,0.005935192108154297,0.1293470859527588,0.047078222,0.09556047,382.4971553507217,0.6951475512619724,11.036726138150406,89.58333333333333,3217,0.43396878242492676,0.6329119681862406,0.1734789279434514,190257,569.6059502249906,100.0
92,2.456773519515991,586.048898460514,136.233655673944,984.691915000369,-3.0847117829562762,98.95833333333333,0.7862015300583289,0.1,0.005892753601074219,0.1289212703704834,0.045641962,0.080159836,402.852329661701,0.5035242286055427,11.736420985194561,98.95833333333333,3174,0.4304637908935547,0.17992520754458438,0.10666407898368488,193431,568.0582771450926,100.0
93,2.444873332977295,570.5307089869403,198.7564519083614,1286.655877919544,-231.73748918351168,93.75,0.7699077763931419,0.1,0.00591731071472168,0.13096928596496582,0.046741426,0.09397438,419.62016759422494,0.6749720972558638,11.593887305950147,93.75,3213,0.4383697509765625,0.18066847836397967,0.17782360642765427,196644,508.72422566586357,100.0
94,2.318814516067505,600.2367646758912,114.86136899507014,974.2763465670251,355.9530531448872,97.91666666666667,0.745976720375813,0.1,0.00564122200012207,0.12812352180480957,0.04526101,0.09101573,437.6818273023915,0.6942633748730408,12.043498165245447,97.91666666666667,3168,0.42858123779296875,0.09160657367301847,0.0872810659212414,199812,508.72855218289357,100.0
95,2.2972142696380615,569.4365488170176,157.27879718560328,963.9173002505507,-11.04758392100001,89.58333333333333,0.7419518611379967,0.1,0.005686759948730469,0.12982845306396484,0.030699298,0.07576732,450.8572994538542,0.5373275388775441,11.410003944857138,89.58333333333333,3202,0.4426603317260742,0.11261995970296278,0.10914670093247772,203014,571.6913316486125,100.0
96,2.3991732597351074,610.6978956212018,195.20420143526465,1314.578369760245,5.948770495812511,92.70833333333333,0.7500622971759441,0.1,0.006083488464355469,0.13221406936645508,0.048878577,0.08232816,466.84135907058896,0.6975985075930092,12.25254546965582,92.70833333333333,3216,0.45285511016845703,0.14902339460283737,0.1434028695502387,206230,568.5791243880552,100.0
97,2.2888543605804443,577.523127964873,174.60777133490734,985.5013516282113,6.079813066154312,91.66666666666667,0.9590011423964048,0.1,0.005848884582519531,0.12989425659179688,0.049510557,0.12745638,477.90953596001737,0.6835665693615255,11.564312982784864,91.66666666666667,3208,0.4441349506378174,0.12543412450432986,0.12325318535815544,209438,508.748080054887,100.0
98,2.3889243602752686,561.341187830591,190.07027490317307,974.4518375669965,-2.0893522582220507,87.5,0.8389831436486282,0.1,0.005819559097290039,0.12890863418579102,0.048636705,0.102652356,486.25270114707473,0.6896753092673121,11.246178542329611,87.5,3200,0.44406914710998535,0.15161362528413622,0.1477759058780775,212638,508.7491111938912,100.0
99,2.453300714492798,580.3142120576332,151.04663656436605,1063.8386148775303,9.349670032149497,95.83333333333333,0.7998239716899547,0.1,0.005645036697387695,0.12582159042358398,0.048846215,0.11690046,495.6588522381306,0.6920841510672627,11.62314010525767,95.83333333333333,3214,0.44148802757263184,0.11068783029883376,0.10779356058526454,215852,508.7743084063503,100.0
100,2.3519461154937744,582.2050123504765,130.02850381485027,963.287757259707,0.7968133749014186,94.79166666666667,0.6823585849738508,0.1,0.0054967403411865234,0.12573957443237305,0.0462499,0.09455268,504.3134682493652,0.6786326947445995,11.660576230892028,94.79166666666667,3120,0.4309673309326172,0.08495180463448002,0.08260463968327815,218972,558.7666497175641,100.0
101,2.390328884124756,531.3056628823647,162.42441650950775,946.4416525563973,-0.46813396767311577,89.58333333333333,0.9297518234908849,0.1,0.006529808044433594,0.13262295722961426,0.045358665,0.11871138,507.0126877126652,0.6532744842924508,10.648926974937188,89.58333333333333,3175,0.4396085739135742,0.1336095107623695,0.12181172872831383,222147,557.5036320655922,100.0
102,2.3927173614501953,577.059184570321,126.90943538659698,1014.334756536571,-9.996457885001433,94.79166666666667,0.8559766762072107,0.1,0.0057163238525390625,0.12462496757507324,0.044792175,0.13113277,514.0173373984308,0.6847419140013761,11.567186582465174,94.79166666666667,3124,0.4216325283050537,0.08688715731896998,0.08027838455593914,225271,558.648031297212,100.0
103,2.364518404006958,565.3281557260602,140.26833484303464,891.5204819976204,-3.1125149841519377,95.83333333333333,0.8960405021210764,0.1,0.005805253982543945,0.12677216529846191,0.047130816,0.107342206,519.1484192311938,0.6901602137552771,11.3290709140251,95.83333333333333,3135,0.4225735664367676,0.095383164787005,0.0917547339312006,228406,519.3969358691728,100.0
104,2.339890480041504,592.3599530696541,139.88154366061286,1055.1263932192746,6.640262793322975,96.875,0.9200521627249517,0.1,0.005772113800048828,0.1253206729888916,0.048564192,0.09700959,526.4695726150399,0.6684106219519714,11.88200203966604,96.875,3104,0.4247105121612549,0.0892648439738392,0.08525364549550475,231510,508.8167545369274,100.0
105,2.5485217571258545,586.7305218544288,116.46329932283682,832.298104903509,45.84120199641495,96.875,0.8751793118821556,0.1,0.006020545959472656,0.12361884117126465,0.050296396,0.10201601,532.4956675389788,0.6920481909339312,11.751031097485237,96.875,3108,0.42200565338134766,0.07453643756812696,0.07232472202908861,234618,571.5735376123548,100.0
106,2.5370731353759766,569.4343720920753,239.1273165223813,1216.7138145325075,-948.6365850170887,96.875,0.8908532050766715,0.1,0.005976438522338867,0.17015862464904785,0.0496678,0.089997664,536.1895379942885,-0.3188140053436783,11.40499701425766,96.875,3102,0.43053674697875977,0.21132326103450474,0.20828155456225136,237720,569.3907510269038,100.0
107,2.5890355110168457,325.358473259899,2470.320993036465,951.6362733756753,-23709.21261995345,93.75,0.9453000611461537,0.1,0.00585484504699707,0.1282038688659668,0.049190953,0.053477522,515.1064315208496,-5.479686514612246,6.524169901913943,93.75,3175,0.42272496223449707,0.9973664320397936,0.9875382400710463,240895,-1264.663513425896,100.0
108,2.574716091156006,557.6559917572027,384.7657825212402,1046.3715244934726,-2971.3461446505057,96.875,0.847056605252455,0.1,0.005832195281982422,0.12918758392333984,0.04857995,0.06242758,519.361387544485,-0.9588367876286555,11.170816646456894,96.875,3124,0.42427754402160645,0.5404772825951836,0.37557405609133443,244019,568.4495016686055,100.0
109,2.575631618499756,594.8436095050452,153.38924204455822,1034.2965059669805,16.15973396607729,93.75,0.9171021783428739,0.1,0.005671501159667969,0.12586545944213867,0.048470724,0.09631782,526.909609740541,0.6984874472657809,11.913583641188195,93.75,3178,0.41980886459350586,0.09528662193417975,0.090007383245289,247197,520.1576670223583,100.0
110,2.5502030849456787,589.1468138562187,142.29918608446386,963.2446242653906,8.054264701506659,96.875,0.7728187711847302,0.1,0.005563259124755859,0.13695144653320312,0.048623305,0.087405615,533.1333301521088,0.4870298325326794,11.79855545808956,96.875,3153,0.4348576068878174,0.08741754622213872,0.08589230155066337,250350,581.0102479101904,100.0
111,2.6624860763549805,634.73942225892,156.31070380981004,1264.9718389855477,5.520876817855128,96.875,0.8886825589422059,0.1,0.0058519840240478516,0.12845063209533691,0.046964835,0.111993186,543.29393936279,0.7073079556029485,12.715348073340886,96.875,3174,0.422715425491333,0.08993891101896294,0.08204598182497586,253524,566.8144778182667,100.0
112,2.4211490154266357,619.241800399711,153.15714084692277,1045.6310409174675,10.668311094791509,96.875,0.9327541410120319,0.1,0.006063699722290039,0.12677311897277832,0.05049743,0.10214584,550.8887254664821,0.7070403467355385,12.401422311011293,96.875,3210,0.43021392822265625,0.08407074225610985,0.08248255859575523,256734,519.8437772205777,100.0
113,2.4039390087127686,613.003690066837,173.47113799580015,1217.678944566753,7.569712016608346,92.70833333333333,0.9565363092840392,0.1,0.005651950836181641,0.12603521347045898,0.049375374,0.09403129,557.1002219265176,0.7034692255793994,12.276650595901975,92.70833333333333,3171,0.41652870178222656,0.10243081015629661,0.10106674355620986,259905,581.3977915226881,100.0
114,2.394104480743408,644.6319112093041,322.75691092192443,1667.1285982238637,-1977.7895182032933,100.0,0.8594572411930967,0.1,0.005743980407714844,0.1274399757385254,0.051440354,0.07767231,565.8533908547963,-0.3206101919232025,12.909349105558398,100.0,3178,0.4190654754638672,0.2563095234359063,0.25020667848792505,263083,581.5080546891634,100.0
115,2.397569417953491,672.7621074009343,157.87900002541517,1367.4087341146026,410.63879091595004,100.0,0.9774705686434246,0.1,0.005753040313720703,0.12557315826416016,0.051109437,0.096517995,576.5442625094101,0.7164570365825135,13.471821658122233,100.0,3222,0.4261488914489746,0.07266783238319034,0.06946301780229848,266305,572.1069090856872,100.0
116,2.385056734085083,607.2279676440374,214.42648835490385,1346.5281259999529,2.8266463651947307,90.625,0.9424008383179091,0.1,0.005673646926879883,0.12635064125061035,0.04747674,0.099595234,579.6126330228728,0.7072504604639637,12.205384941197615,90.625,3160,0.41577696800231934,0.16196529716134975,0.14413455872991435,269465,571.5942977463828,100.0
117,2.3904013633728027,647.0020871951831,184.4703053309728,1446.7456520059036,3.838694365440932,96.875,1.032060954753031,0.1,0.005942583084106445,0.12890052795410156,0.049666867,0.093345106,586.3515784401038,0.7048092149325539,12.95651491299885,96.875,3162,0.42168235778808594,0.10043569750018588,0.09374444580181394,272627,124.52040496272627,100.0
118,2.447600841522217,650.4376438263913,240.14693576166167,1253.9562375200999,-1117.7917919902816,97.91666666666667,0.9745715510428569,0.1,0.005886554718017578,0.12727689743041992,0.048863582,0.08430149,592.7601849787326,0.12779114796886282,13.028956096105256,97.91666666666667,3305,0.4310908317565918,0.15647270217078235,0.15477196055593115,275932,567.850999703094,100.0
119,2.4780945777893066,627.8869564901817,202.07890072953055,1193.8556866217093,4.996529482131631,90.625,0.9663428972773742,0.1,0.0057220458984375,0.12444519996643066,0.046223205,0.09139527,596.2728621298775,0.5837827498678244,12.574014126681151,90.625,3259,0.4241671562194824,0.12387447996690051,0.119500717405656,279191,569.3027373919845,100.0
120,2.417476177215576,540.0600908541137,1120.3085440446769,1136.3658220710481,-10223.673396854456,94.79166666666667,0.8768432770246273,0.1,0.005811929702758789,0.12663578987121582,0.05171391,0.04801312,590.6515850023011,-2.1225390234300012,10.81783414546701,94.79166666666667,3211,0.41845273971557617,0.849745360847996,0.8418510907324687,282402,571.5617219583718,100.0
121,2.355836868286133,631.8284941606813,203.45371157778573,1496.1371235985482,4.609334530700206,94.79166666666667,0.9557569627251737,0.1,0.006095170974731445,0.12944579124450684,0.0495232,0.10289202,594.7692759181392,0.678936398166892,12.668307222139186,94.79166666666667,3171,0.42243504524230957,0.17422306389367895,0.12114583535015955,285573,571.3995515278016,100.0
122,2.5948376655578613,617.3136271886756,220.20515892834587,1595.706473038832,3.990821216555327,90.625,0.9752130794637919,0.1,0.005864143371582031,0.13026714324951172,0.049523726,0.09786477,597.0237110451928,0.7043367631892116,12.362961041751333,90.625,3197,0.42010498046875,0.1404005271167408,0.1382413878276747,288770,571.6387028589132,100.0
123,2.3996775150299072,581.7671581504728,645.8999190605892,965.3480632614117,-5546.779686463577,98.95833333333333,0.7595980855820911,0.1,0.005789041519165039,0.12941575050354004,0.05016508,0.048572484,595.4980557557209,-1.6236025523185287,11.651791958152309,98.95833333333333,3157,0.4159724712371826,0.6466074624823273,0.6408039986748698,291927,581.1769617221331,100.0
124,2.434818744659424,644.195147117959,155.47136964902577,1144.525571857656,4.945375611577945,96.875,0.9349396857411966,0.1,0.005855083465576172,0.13297486305236816,0.04878843,0.10247906,600.3677648919447,0.6161762609595955,12.907341973949748,96.875,3143,0.4136538505554199,0.08284368495662212,0.07234795685705629,295070,546.9825133491236,100.0
125,2.4306836128234863,617.9018362763798,327.5981981661862,1316.654676277532,-2160.9698373572774,95.83333333333333,0.6857764512668457,0.1,0.005749702453613281,0.1320803165435791,0.04187571,0.05933009,602.1211720303882,-0.0080500015796335,12.374527123600798,95.83333333333333,3231,0.4263167381286621,0.25781124121107496,0.254847819399421,298301,582.1739848453471,100.0
126,2.4258689880371094,622.0276724968828,225.29870645465783,1144.7613071323933,-1185.5342486969694,98.95833333333333,0.8878140191000936,0.1,0.005648612976074219,0.12579870223999023,0.048473228,0.069198065,604.1118220770376,0.15967749553191302,12.45749296928963,98.95833333333333,3147,0.41592979431152344,0.14400487701271508,0.14239914424994482,301448,506.3795630525422,100.0
127,2.3734018802642822,652.8620965605763,139.83329093599204,962.0853422991543,5.561671563328381,97.91666666666667,0.8512242340141472,0.1,0.00565791130065918,0.1251835823059082,0.043862842,0.28804168,608.9868495253914,0.6857056199032224,13.07370769431318,97.91666666666667,3186,0.4140970706939697,0.06208060065650485,0.05911116348928408,304634,519.9219709766571,100.0
128,2.3752052783966064,643.783522880512,172.7484738974279,1035.3530061979602,-15.075714453467963,94.79166666666667,0.8601226755712968,0.1,0.00574040412902832,0.1272737979888916,0.036526944,0.43780795,612.4665168609035,0.7088295938075905,12.892505039657058,94.79166666666667,3205,0.41719865798950195,0.09099705025455164,0.0890725431511341,307839,541.5770910669899,100.0
129,2.3750295639038086,636.9284892503669,163.19711886576448,1061.9186324927346,6.644824934281718,93.75,1.0302161475972913,0.1,0.005662202835083008,0.12813711166381836,0.047661453,0.09040188,614.9127140998498,0.7236163715862777,12.754843332484675,93.75,3085,0.4053947925567627,0.07990632507559912,0.07930505260678869,310924,581.2780652136252,100.0
130,2.3301894664764404,674.7013035176575,154.28997956383589,1104.1493074226653,5.6709659013551255,95.83333333333333,0.9853648455035539,0.1,0.005799770355224609,0.13094878196716309,0.04854658,0.08861977,620.8915730416306,0.7325735975280433,13.510543657253173,95.83333333333333,3143,0.417095422744751,0.06464322060413973,0.06104052167298781,314067,521.0879097422015,100.0
131,2.416781425476074,686.4544931730449,178.9258663094123,1455.5807683118617,5.3895769083931855,96.875,0.811501646893618,0.1,0.005838632583618164,0.13163542747497559,0.047321018,0.10214918,627.4478650547721,0.7221158344782724,13.745264847907578,96.875,3239,0.42932605743408203,0.08415731692694454,0.08241515199168944,317306,515.2005979139395,100.0
132,2.3767712116241455,693.0660619225009,163.43929075785778,1363.931849068863,56.353467483781536,96.875,1.0192312796149994,0.1,0.006026268005371094,0.13297724723815918,0.04928123,0.09314781,634.009684741545,0.7334750528954904,13.877977535032473,96.875,3221,0.44124579429626465,0.06476384322965521,0.06243035863191147,320527,566.198079821469,100.0
133,2.445697546005249,707.3196158722271,156.74014002912085,1122.7458925298035,199.02854683455882,96.875,0.911110002775393,0.1,0.005801200866699219,0.1250457763671875,0.050067168,0.14444892,641.3406778546132,0.7224179649728928,14.163229734160225,96.875,3259,0.4254424571990967,0.059552033896592284,0.05820076707579651,323786,509.8226604747073,100.0
134,2.3835482597351074,674.171008724805,156.75616806127368,1075.3529694176552,85.3206535719734,95.83333333333333,0.9710159377878258,0.1,0.02981281280517578,0.12706542015075684,0.043511495,0.10606184,644.6237109416325,0.6394083931974244,13.49976138623721,95.83333333333333,3202,0.41366004943847656,0.06927045045785743,0.06618156995824832,326988,566.2133630696405,100.0
135,2.524867296218872,664.6709233818074,203.47952344347684,1123.4840357156952,5.408876964338106,93.75,1.0064550427293983,0.1,0.005877017974853516,0.12737584114074707,0.050672103,0.08998621,646.6284321856499,0.6951335305943788,13.30976163552152,93.75,3210,0.4203305244445801,0.10692401055968813,0.10358484394582755,330198,520.7799463078203,100.0
136,2.5859830379486084,712.9090109097177,162.6461078517105,1085.267167878671,45.736735462870286,98.95833333333333,0.9959303922726449,0.1,0.005691051483154297,0.12628602981567383,0.044581566,0.098210946,653.2564900580567,0.4838451202339722,14.274501776667051,98.95833333333333,3252,0.4267716407775879,0.06351975874139423,0.0567385996114871,333450,566.2376009684865,100.0
137,2.5905771255493164,709.6954956591541,212.97580623218857,1293.9126668229135,4.544191750156984,94.79166666666667,1.0511125154803915,0.1,0.0061113834381103516,0.1346147060394287,0.050319925,0.09292138,658.9003906181664,0.7155619019215136,14.210332179538677,94.79166666666667,3215,0.42586493492126465,0.0981246048449287,0.09655554223832381,336665,581.6722355834584,100.0
138,2.6252591609954834,763.1643452951657,172.71037706235794,1186.7727865873749,131.9363465597075,98.95833333333333,1.064965738050855,0.1,0.0058972835540771484,0.1366415023803711,0.05076122,0.093943335,669.3267860858663,0.7425041406434407,15.279436107865195,98.95833333333333,3261,0.42252039909362793,0.06470110555333308,0.056318530668265365,339926,570.5797347292684,100.0
139,2.692034959793091,749.9348676445543,246.16461621211076,1536.8799083272627,3.5074988315299462,94.79166666666667,0.9966098987072693,0.1,0.0060498714447021484,0.13877439498901367,0.050372884,0.09445356,677.3875942417351,0.7183725206956852,15.015361244916138,94.79166666666667,3297,0.43166613578796387,0.10846665272683191,0.10660395454939185,343223,520.7416466981805,100.0
140,2.4413442611694336,704.239655805165,279.93006730264995,1215.1091221927747,5.6305816731878435,86.45833333333333,0.982450478656017,0.1,0.005937814712524414,0.12710046768188477,0.04154639,0.09592128,680.072800398078,0.7370638327483636,14.097855993945098,86.45833333333333,3328,0.42812395095825195,0.17974656099453382,0.1661642831374548,346551,528.7901753060602,100.0
141,2.4554808139801025,760.1333212939804,241.80691707164965,1355.1477293155826,4.168155025689416,92.70833333333333,1.0488682335841877,0.1,0.005580902099609375,0.1217801570892334,0.050044067,0.08714389,688.0788524876682,0.736502899156655,15.217738552724489,92.70833333333333,3362,0.4320049285888672,0.1179957847676596,0.1101340638277316,349913,591.5945031026334,100.0
142,2.4359130859375,711.3316220357679,215.3947184361721,1324.9151166627685,5.160337485957412,93.75,1.0574417576766475,0.1,0.0060024261474609375,0.13705062866210938,0.04886735,0.09108864,690.4041294424783,0.7374382913380698,14.24281499880027,93.75,3244,0.42194700241088867,0.10854664304097421,0.1035129097756234,353157,591.9473290826538,100.0
143,2.480497121810913,786.3061521406656,189.1045617091296,1446.6713902895506,18.876119008243744,97.91666666666667,1.0499725556516784,0.1,0.007005929946899414,0.1360337734222412,0.047571845,0.09460683,699.994331712297,0.7441575291909174,15.741512565742182,97.91666666666667,3354,0.4402337074279785,0.08013331266259333,0.07102471572682081,356511,566.2341560756547,100.0
144,2.409515619277954,756.6455139661894,227.35539122190445,1305.1021231680522,3.3425688955545603,92.70833333333333,1.0317298526276948,0.1,0.005897045135498047,0.1298656463623047,0.049522243,0.09037262,705.6594499376862,0.746290178106613,15.148386019649394,92.70833333333333,3220,0.42783141136169434,0.10007668818801829,0.09515299857968691,359731,568.7060476178832,100.0
145,2.4475831985473633,779.4026692583666,214.95677235926973,1274.8378557241153,10.384869168908857,95.83333333333333,0.9208264892771719,0.1,0.005974292755126953,0.13123774528503418,0.04632866,0.20735055,713.0337718697542,0.7449928041324388,15.604241482466017,95.83333333333333,3307,0.4233736991882324,0.08449872791880435,0.08247748543721106,363038,581.1608452192304,100.0
146,2.4679832458496094,773.4090905273998,247.75389971114737,1315.3611431126888,7.26980409972356,93.75,1.0221090109732287,0.1,0.005634784698486328,0.12370753288269043,0.04946139,0.0985913,719.0713037355189,0.612388015245488,15.484369921117569,93.75,3377,0.4261133670806885,0.11192936447111947,0.10933331244361313,366415,581.0332102422221,100.0
147,2.529578924179077,830.2385871578726,187.70641489482244,1386.2745474294347,316.8935542255916,98.95833333333333,1.0396959670752548,0.1,0.006088972091674805,0.13250064849853516,0.049597964,0.095527835,730.1880320777542,0.7549708642152101,16.619976929208956,98.95833333333333,3331,0.4419732093811035,0.060128744347267636,0.05450387105481623,369746,581.2694255554144,100.0
148,2.4394619464874268,817.505113224111,256.75037449798117,1424.6921193857067,5.1850665314064175,94.79166666666667,1.0211454209788444,0.1,0.0060732364654541016,0.128587007522583,0.04975195,0.096606724,738.91974019239,0.750602746940365,16.366470665790402,94.79166666666667,3254,0.41765785217285156,0.10125284045493219,0.0987026713567478,373000,581.4779761555518,100.0
149,2.52032208442688,798.7346158505558,265.8604792277596,1314.9498872977742,3.341474903738815,90.625,1.0915030756542525,0.1,0.0055468082427978516,0.12610530853271484,0.050555605,0.08294095,744.9012277582066,0.7443487086866624,15.996060972467967,90.625,3395,0.4326598644256592,0.11561646272644259,0.11110807124107565,376395,581.9161383760834,100.0
150,2.454359531402588,823.4850163298552,164.0044712113827,1225.863338034524,131.4731237389849,97.91666666666667,1.0089662371668862,0.1,0.005922079086303711,0.13364267349243164,0.04965238,0.102463245,752.7596066153715,0.7529867630713186,16.485677452964108,97.91666666666667,3297,0.4156453609466553,0.049472447261870514,0.047204370986652484,379692,581.8969397869179,100.0
151,2.461235761642456,801.6409472621341,227.36523679073835,1547.2911651739853,7.682279580924367,94.79166666666667,1.100177959837551,0.1,0.0059490203857421875,0.1350085735321045,0.049393505,0.087100066,757.6477406800477,0.7532577852550403,16.049261941493032,94.79166666666667,3338,0.4373338222503662,0.08628402393496527,0.08470749258585862,383030,592.1722689530233,100.0
152,2.5214245319366455,854.6888509441379,205.49045699317176,1416.9397077840588,7.137820559524866,95.83333333333333,1.0445844130463091,0.1,0.005769491195678711,0.12743067741394043,0.04925837,0.18357545,767.3518517064567,0.754461042138082,17.107791826429718,95.83333333333333,3456,0.4511747360229492,0.06888700155892419,0.0640531330379818,386486,592.0329964792734,100.0
153,2.4975249767303467,819.4755267001307,227.17918841766777,1253.965613613049,17.60601624125243,93.75,1.0851834238239693,0.1,0.00568079948425293,0.12542462348937988,0.04434509,0.08578994,772.5642192058242,0.7519300915688311,16.405497990397354,93.75,3436,0.4409317970275879,0.08835382381527544,0.08474406458187857,389922,592.2895980290881,100.0
154,2.501836061477661,845.3812358200903,251.3675187935421,1580.0091109501284,1.7163650490685436,95.83333333333333,1.049992952720431,0.1,0.005771160125732422,0.12646722793579102,0.049986504,0.086699605,779.8459208672508,0.7362102610274338,16.923748870157183,95.83333333333333,3390,0.4382936954498291,0.08880881494332228,0.08507798146811624,393312,642.3526066747496,100.0
155,2.540999174118042,893.9521011011498,219.17857616826845,1486.606623584273,69.73216181018003,96.875,1.1139895030026528,0.1,0.0057599544525146484,0.12761712074279785,0.04788242,0.087476544,791.2565388906407,0.7598034310013295,17.894203199935475,96.875,3497,0.44675469398498535,0.07274486575506009,0.06465164326649615,396809,592.2922045456113,100.0
156,2.5431597232818604,811.3372556459661,279.67625090859906,1355.788603572533,5.045263591602126,90.625,1.0685356261439822,0.1,0.005520343780517578,0.12418508529663086,0.048940632,0.0883996,793.2646105661732,0.7548252218590444,16.242851404280195,90.625,3460,0.440901517868042,0.14218338988769755,0.11724217851881039,400269,592.3354618882692,100.0
157,2.4570584297180176,854.3123496474527,264.1226816531057,1476.5002732382632,3.9842372174183263,92.70833333333333,1.042461818241516,0.1,0.005631208419799805,0.12932372093200684,0.049372062,0.08969183,799.3693844743012,0.7570619303200266,17.101103003568713,92.70833333333333,3409,0.43411803245544434,0.09600860373573493,0.09184870680918432,403678,592.2800870917881,100.0
158,2.560051202774048,857.5503643397806,229.11575289899588,1668.6860866540094,16.57139650513265,96.875,1.1217195329552714,0.1,0.0055768489837646484,0.12134528160095215,0.04894948,0.08703402,805.1874824608492,0.7613884089301143,17.153416448177495,96.875,3372,0.4316728115081787,0.08065678353637946,0.07816901497436676,407050,531.4609932116635,100.0
159,2.619436502456665,877.2501929689776,237.44382321621134,1366.5184317989836,4.27893169204313,96.875,1.0878050823143128,0.1,0.005727529525756836,0.12554168701171875,0.049034674,0.083740376,812.393753511662,0.7289684365259309,17.559942041244877,96.875,3373,0.43224310874938965,0.07063229123396265,0.06826813299974392,410423,531.413352688249,100.0
160,2.650317668914795,867.4153448244119,246.08981794242226,1477.07869024096,6.043298267476725,96.875,1.08831474626254,0.1,0.005640983581542969,0.12491464614868164,0.050157063,0.09002152,817.8959126429371,0.7585685830305652,17.364228841211734,96.875,3382,0.4390885829925537,0.08343932697610901,0.08120812014200705,413805,581.4449980610165,100.0
161,2.667551279067993,892.7413124639825,212.73401637380147,1608.294161195294,88.35989064862407,96.875,1.1244811612749233,0.1,0.005736827850341797,0.12874770164489746,0.050111964,0.089938715,825.3804526250417,0.7632810716314667,17.86772788569061,96.875,3498,0.4563155174255371,0.06715603446834957,0.06540958856004854,417303,531.4427964416141,100.0
162,2.513233184814453,901.7652462362348,223.7932342935272,1438.9532868179972,7.171918103532,96.875,1.03312107483225,0.1,0.005877017974853516,0.12697315216064453,0.049438033,0.3186284,833.0189319861611,0.7621541305753802,18.04920293296671,96.875,3371,0.4452652931213379,0.06178525212394851,0.05953348943552043,420674,581.5355818371638,100.0
163,2.4318809509277344,883.2839036174623,177.51622788498105,1257.9693725925486,58.20074985118041,97.91666666666667,1.0820934658255226,0.1,0.006003856658935547,0.13081622123718262,0.049550522,0.08460942,838.0454291492913,0.762813277548695,17.68163866154541,97.91666666666667,3299,0.4416921138763428,0.04756031682179326,0.04498616004886383,423973,531.4991079868961,100.0
164,2.5564651489257812,887.6397432371992,211.94671720622148,1607.4045830846524,3.75273306668079,96.875,1.0417159686734572,0.1,0.005992889404296875,0.12643933296203613,0.048931282,0.090017736,843.0048605580821,0.7593775487382084,17.767785402301715,96.875,3468,0.4607717990875244,0.06377820321417292,0.06160746199001689,427441,531.3979700789804,100.0
165,2.4869353771209717,940.4112193613524,243.63992967683848,1537.261593585329,79.16752711122287,95.83333333333333,1.081576132619665,0.1,0.006528377532958984,0.1247556209564209,0.048003353,0.09017652,852.7454964384092,0.7693471474310538,18.824040006581566,95.83333333333333,3406,0.4464890956878662,0.0701107790657384,0.06615749051727202,430847,581.3782864414217,100.0
166,2.448373317718506,903.2631450577369,221.08698596248388,1547.807886433548,6.7272697046033425,96.875,1.1328962871574089,0.1,0.005770444869995117,0.13433384895324707,0.049877185,0.0845748,857.7972613003419,0.7637639231941087,18.08112600511628,96.875,3329,0.4378175735473633,0.06840603369988618,0.062093631328834865,434176,581.9339064216182,100.0
167,2.5289535522460938,915.50685109124,203.09840582458432,1315.637516392264,140.92214461018855,95.83333333333333,1.1575636600014994,0.1,0.005827426910400391,0.1241295337677002,0.050190013,0.0812823,863.5682202794317,0.7679802457549584,18.325911401241225,95.83333333333333,3403,0.4667785167694092,0.0542439039436169,0.053096246267376336,437579,532.1070033132011,100.0
168,2.5085039138793945,891.6668155212205,183.32448127329374,1460.2884789343693,5.691678377693339,98.95833333333333,1.0579472662306115,0.1,0.005940675735473633,0.12222814559936523,0.046664197,0.08545278,866.3780798036106,0.7615186051448594,17.849321265878828,98.95833333333333,3403,0.45153188705444336,0.047807432814219626,0.04611789687973842,440982,582.028845324468,100.0
169,2.450061321258545,937.7125403590063,221.5587814722421,1598.0146695863305,379.88992938421967,97.91666666666667,1.0749995241433747,0.1,0.005788564682006836,0.12586236000061035,0.048798013,0.092059396,873.5115258591502,0.7663644100678334,18.770159942761694,97.91666666666667,3371,0.4434034824371338,0.06311598168165082,0.05502421497143272,444353,581.8619872591371,100.0
170,2.5110104084014893,958.1167309077582,219.36701002581188,1518.1021999374261,161.08171802256967,97.91666666666667,1.1146162144756886,0.1,0.005705833435058594,0.12425088882446289,0.04950685,0.08810932,881.972046364011,0.7678796843525841,19.177114054340148,97.91666666666667,3450,0.45343732833862305,0.06098446104280137,0.05746142999674034,447803,531.8187774274605,100.0
171,2.540286064147949,969.6082632983313,212.88633430497063,1589.2702967468865,150.09401423203263,97.91666666666667,1.0701570313629143,0.1,0.005814790725708008,0.12577176094055176,0.04909852,0.090732604,890.735668057443,0.770541132552006,19.407879285252914,97.91666666666667,3435,0.463381290435791,0.05052530116234012,0.04914084610939881,451238,531.7943698345846,100.0
172,2.4805853366851807,954.7705927827184,253.34260765100666,1668.2866395105361,162.37904340970178,95.83333333333333,1.0845244790012403,0.1,0.006053447723388672,0.12970662117004395,0.04765792,0.08972746,897.1391605299707,0.7718381173209455,19.110197663501506,95.83333333333333,3463,0.4755842685699463,0.07404714356770806,0.07136578738376982,454701,581.8733643475955,100.0
173,2.4852054119110107,948.9033692039735,224.31881259350294,1548.5019080294933,172.80761328514768,96.875,1.0619782504026258,0.1,0.005799770355224609,0.1265089511871338,0.04954255,0.09270643,902.3155813973709,0.7695250555449382,18.994028410930305,96.875,3446,0.46549201011657715,0.06200731156695075,0.060169740783904364,458147,582.0587641483075,100.0
174,2.531954288482666,934.4265751216358,273.9247807865945,1718.9464116826496,62.195178786279186,94.79166666666667,1.0919495620267172,0.1,0.006044864654541016,0.1291804313659668,0.04788819,0.087513484,905.5266807697974,0.7683426876676878,18.70446040899601,94.79166666666667,3466,0.4772210121154785,0.08397351719755278,0.08141816506816049,461613,581.8955224407372,100.0
175,2.556715726852417,953.8681710399611,217.29522720030081,1596.6674701747338,80.8073820811472,97.91666666666667,1.1001326212181353,0.1,0.0057392120361328125,0.12544584274291992,0.048478514,0.08788778,910.3608297968138,0.7697464673687185,19.09315417332246,97.91666666666667,3371,0.4593017101287842,0.056078385676291635,0.0543503153056491,464984,591.9224589643418,100.0
176,2.605687141418457,956.9670380302488,272.76313143557263,1778.073656271284,31.47866727360271,95.83333333333333,1.2054120268530506,0.1,0.005871295928955078,0.12917757034301758,0.04936487,0.08141811,915.0214506201573,0.770724770261875,19.148817258057782,95.83333333333333,3574,0.4926109313964844,0.08293707738997942,0.07979730577698727,468558,581.7648852395243,100.0
177,2.525844097137451,984.2123054418552,212.77925613550795,1689.0649911124415,150.56392379017794,97.91666666666667,1.0425467827325907,0.1,0.0057370662689208984,0.12782955169677734,0.04650109,0.09430841,921.9405361023271,0.7721730058599586,19.69902258257402,97.91666666666667,3371,0.46050333976745605,0.0490978816543845,0.047832855213103556,471929,642.0560493614396,100.0
178,2.65105938911438,997.3817657728123,241.49563011977884,1750.3402441242135,282.93143592690706,97.91666666666667,1.1132198166975404,0.1,0.005837678909301758,0.12603449821472168,0.046078343,0.088718005,929.4846590693757,0.7747713742815062,19.96230314992874,97.91666666666667,3461,0.47254252433776855,0.06538711928858434,0.06304075126241376,475390,581.8594470377238,100.0
179,2.5840017795562744,1033.6375897488044,219.57766608150104,1658.4623292123445,312.23446757869306,98.95833333333333,1.1427967464181588,0.1,0.0058841705322265625,0.12546682357788086,0.048859768,0.08598801,939.8999521373185,0.777790002668478,20.673900816620414,98.95833333333333,3537,0.47974467277526855,0.054757853461297856,0.05110069077689622,478927,641.9629412137598,100.0
180,2.582690477371216,1012.3991702206899,240.5527466097462,1537.1815048707704,163.16747340265906,97.91666666666667,1.1935984259822712,0.1,0.005594730377197266,0.12624859809875488,0.046046805,0.0772954,947.1498739456556,0.7735062478856914,20.263689695919158,97.91666666666667,3566,0.4759647846221924,0.06298153507008182,0.060190260855558245,482493,641.953774546789,100.0
181,2.58160138130188,1070.6718927120507,230.57795731796512,1709.1833027389796,452.13676094806067,100.0,1.151911746861214,0.1,0.0059452056884765625,0.12733221054077148,0.047542617,0.08573376,959.5020758222951,0.7791308759636076,21.429100428325764,100.0,3490,0.4871351718902588,0.05062454178269234,0.04454264938164485,485983,651.9990325217046,100.0
182,2.6708271503448486,1022.7256704080072,288.6856090574114,1718.2406254171042,7.712342891136087,96.875,1.089739319571473,0.1,0.0057070255279541016,0.12985563278198242,0.049331836,0.08850914,965.8244352808663,0.7764760107193082,20.455812964277168,96.875,3588,0.49602437019348145,0.08669219400678199,0.07871550320548192,489571,641.8897937478959,100.0
183,2.789893388748169,1033.5983128954654,316.5591117474028,1678.5728412338342,6.307779701370293,94.79166666666667,1.1237906664053698,0.1,0.005602836608886719,0.1303730010986328,0.049701665,0.09596684,972.6018230423263,0.7753287262036865,20.68776346345514,94.79166666666667,3618,0.4955286979675293,0.09234684866364327,0.08841566064895706,493189,702.0211940780366,100.0
184,2.7697269916534424,1053.186596880802,252.8728703763309,1779.3935982627563,212.30389909725537,97.91666666666667,1.1125603644483602,0.1,0.005732536315917969,0.12605547904968262,0.049415916,0.089264266,980.6603004261739,0.778359773354742,21.07945959056602,97.91666666666667,3541,0.48975563049316406,0.05911547082096674,0.056810374040426964,496730,702.0524247672013,100.0
185,2.778820514678955,1062.048744845674,246.3453292730259,1668.4544868757664,408.76522989197036,100.0,1.0717645133314782,0.1,0.005793333053588867,0.13089346885681152,0.05021011,0.094437204,988.7991448681239,0.7793439649207673,21.25657299976476,100.0,3582,0.49339842796325684,0.053533998026701786,0.050404784154381696,500312,702.1290409693087,100.0
186,2.8324835300445557,1096.134925163358,276.4915818233117,1840.216269885085,474.3802053722471,100.0,1.227210419041797,0.1,0.005764961242675781,0.12908029556274414,0.04924445,0.08199998,999.5327228976473,0.7801344813916932,21.938381463457002,100.0,3625,0.4998183250427246,0.06642542376354271,0.06302339455440564,503937,712.7014377905944,100.0
187,2.7250258922576904,1074.508742904825,329.2481220805219,1849.6884750227068,10.189885970281347,95.83333333333333,1.1767625235329502,0.1,0.00580596923828125,0.1324481964111328,0.049696002,0.08309502,1007.030324898365,0.77782465746421,21.49262525434513,95.83333333333333,3795,0.5279958248138428,0.09219832171975424,0.08595111992684089,507732,712.0371203653108,100.0
188,2.6912481784820557,1043.7182096358938,311.38646810750106,1607.1893255200196,3.28423120820473,94.79166666666667,1.2107358253038654,0.1,0.005708217620849609,0.1299889087677002,0.04821785,0.07569018,1010.699113372118,0.7794917873991719,20.887219399990652,94.79166666666667,3727,0.51706862449646,0.08093361555282792,0.0785134654210082,511459,712.0521760198266,100.0
189,2.648712635040283,1132.5413211155153,324.1167202114742,1778.99661226223,97.11433717245775,95.83333333333333,1.1866841373747514,0.1,0.005978584289550781,0.12978363037109375,0.050912417,0.08680132,1022.8833341464576,0.7848301649325219,22.66458218995949,95.83333333333333,3744,0.5132551193237305,0.08286389024049312,0.07478985719462418,515203,712.0514248951494,100.0
190,2.6874334812164307,1099.494091228813,264.06776908886314,1679.171261161838,382.75734173083316,97.91666666666667,1.1262936626599966,0.1,0.00590062141418457,0.1291971206665039,0.044818632,0.14270118,1030.5444098546932,0.7505389233162875,21.992086683735465,97.91666666666667,3727,0.5116398334503174,0.059794000240135654,0.056874693795558075,518930,711.982800516252,100.0
191,2.6885838508605957,1123.459263729538,299.8214109183795,1899.8715048134309,422.88950553695685,100.0,1.1406572591762687,0.1,0.005959510803222656,0.13037514686584473,0.047578875,0.08290388,1039.8358952421777,0.7822151508007483,22.484938531626614,100.0,3734,0.5323019027709961,0.0744000605209022,0.06764094578846785,522664,771.9615848716438,100.0
192,2.717867374420166,1054.2121327991347,317.2152602670692,1729.377774085703,182.41909752048855,95.83333333333333,1.1816469448432265,0.1,0.005979299545288086,0.1358945369720459,0.04856798,0.083305486,1041.2735189978735,0.7820171392508866,21.085458686552236,95.83333333333333,3831,0.5378577709197998,0.0940425964205676,0.08237490001180547,526495,651.7829247271911,100.0
193,2.719965696334839,1105.439850836027,302.65513062586666,1718.0608926130426,7.334343350642984,96.875,1.1878585524167156,0.1,0.0057735443115234375,0.12876582145690918,0.04579956,0.077529356,1047.690152181689,0.7841824231465478,22.123661487983487,96.875,3730,0.5275774002075195,0.07565444128540302,0.06925375414108903,530225,771.9663824955716,100.0
194,2.7836005687713623,1186.899637259842,290.0718919874954,1839.5886472008608,495.5096600853693,100.0,1.1973316243866428,0.1,0.007035017013549805,0.1356964111328125,0.04459356,0.078034185,1061.6111006895044,0.789076810339958,23.753841648963846,100.0,3879,0.5454988479614258,0.06857149805627472,0.061216557774346,534104,721.8780999673877,100.0
195,2.721179962158203,1144.191412324932,310.34813619742954,1778.5982695128218,8.21625492864362,95.83333333333333,1.2792181778251066,0.1,0.0061969757080078125,0.13152766227722168,0.048760165,0.07659915,1069.8691318530473,0.7868379006409104,22.88505618926276,95.83333333333333,3772,0.5273666381835938,0.0735936065432995,0.06722942517638968,537876,772.0086044040336,100.0
196,2.7309858798980713,1112.2556599564784,329.8876429472721,1719.500034949291,113.87199702864444,94.79166666666667,1.1643931117195958,0.1,0.005655765533447266,0.1306595802307129,0.049507413,0.08187475,1074.1077846633905,0.7836571047029436,22.24728038025205,94.79166666666667,3767,0.521970272064209,0.08413240483162232,0.0813339025684373,541643,772.7474879792564,100.0
197,2.6720166206359863,1139.4156849181684,281.54996348697966,1789.1009749171685,16.651237097969577,97.91666666666667,1.2615597211171885,0.1,0.005755424499511719,0.12674713134765625,0.049323887,0.07587773,1080.6385746888682,0.7859791932631888,22.790522689870357,97.91666666666667,3644,0.5073204040527344,0.05981772759030617,0.05715429077215092,545287,772.0633944880943,100.0
198,2.7615597248077393,1155.7375164331468,286.1862925286243,1789.3079555618056,142.65477349942282,98.95833333333333,1.108091009774557,0.1,0.006169795989990234,0.1326580047607422,0.04880151,0.08906428,1088.148468863296,0.7891706507007997,23.130386011845925,98.95833333333333,3740,0.533519983291626,0.06069995705242728,0.05772946531768391,549027,782.9103296417693,100.0
199,2.7529001235961914,1157.4414697069476,260.3840582421369,1729.1681423554303,293.62402821779995,97.91666666666667,1.192547979450455,0.1,0.0059473514556884766,0.1303386688232422,0.048976023,0.082325086,1095.0777689476613,0.7883409221030094,23.160354653926394,97.91666666666667,3768,0.5304834842681885,0.05461570126996306,0.051587845414730986,552795,652.043170552805,100.0
200,2.686187267303467,1083.8266217274488,281.0438115247787,1720.1585939752424,8.738406860738872,96.875,1.1246833961173701,0.1,0.005827903747558594,0.12517523765563965,0.04944215,0.08519583,1093.9526542256401,0.7818059890363739,21.691197164819272,96.875,3560,0.4987008571624756,0.06293720945017811,0.057146870051809566,556355,772.7906414675911,100.0
201,2.735039472579956,1157.835374031624,301.5415579582139,1658.5467635225666,82.48870744421114,95.83333333333333,0.8625917674094625,0.1,0.005842685699462891,0.13179659843444824,0.047983907,91.67634,1100.3409262062385,0.7864222609836796,23.17129847550604,95.83333333333333,3749,0.532794713973999,0.06642697612073985,0.062452383717044965,560104,772.911460627903,100.0
202,2.7869069576263428,1180.3393201091742,329.4756083191509,1718.3812671009812,81.67194326283034,95.83333333333333,1.1230488831251926,0.1,0.00651860237121582,0.13570046424865723,0.047109414,0.08152671,1108.340765596532,0.7901341377701453,23.605805362827294,95.83333333333333,3872,0.5413670539855957,0.06543422284521096,0.06346002100352022,563976,712.0717087974739,100.0
203,2.8985209465026855,1186.23476327748,302.322961480681,1779.4494149338204,10.497809429186848,96.875,1.3786902364078228,0.1,0.005814552307128906,0.13155293464660645,0.047378298,0.06825618,1116.130165364627,0.7897375224796536,23.726937219050512,96.875,3783,0.5319750308990479,0.056471901795590446,0.055751240481502,567759,652.022125016699,100.0
204,2.9000775814056396,1200.6516861581292,254.8755985516219,1778.732006908753,372.0587937354892,98.95833333333333,1.2428815455092943,0.1,0.005827903747558594,0.13077354431152344,0.048251133,0.07852868,1124.5823174439772,0.7912227813154636,24.02866032871455,98.95833333333333,3749,0.5334954261779785,0.048372994734891865,0.04602871861627111,571508,652.0687405178594,100.0
205,2.8856072425842285,1216.6478729997714,285.7153081491081,1778.6439673615387,78.14691101997978,97.91666666666667,1.2114827039862777,0.1,0.00582432746887207,0.12704086303710938,0.049462166,0.07871746,1133.7888729995566,0.792578755142248,24.348566181369687,97.91666666666667,3722,0.5194511413574219,0.05444550925669483,0.052034957662757196,575230,712.8350146521074,100.0
206,3.0436689853668213,1169.1069775293254,278.9361590783325,1659.1656010684385,96.84207418426017,96.875,1.2142506052677835,0.1,0.005724430084228516,0.13054180145263672,0.050330408,0.08168111,1137.3206834525336,0.7891733015370214,23.396945349167044,96.875,3737,0.5176126956939697,0.06016788173394732,0.05523046197665203,578967,712.8149641204201,100.0
207,2.823524236679077,1238.5852408966766,348.9437373168264,1859.9133930346618,180.8941198139225,98.95833333333333,1.2094753724236191,0.1,0.005842685699462891,0.13612580299377441,0.047080025,0.079305276,1147.447139196948,0.7910789900564819,24.784464316650865,98.95833333333333,3883,0.5432271957397461,0.07487451388956859,0.06789897029204987,582850,772.7238397617275,100.0
208,2.7684857845306396,1186.095242439669,343.1205719971902,1850.7692682688294,63.645441388629074,94.79166666666667,1.1464480115007007,0.1,0.0058443546295166016,0.1308591365814209,0.04704367,0.15767014,1151.3119495212202,0.789547391043642,23.733511490028928,94.79166666666667,3912,0.5536260604858398,0.07699252437980504,0.0735506294386468,586762,782.7968108802514,100.0
209,2.827709913253784,1216.3164867170265,313.7380589593688,1778.8706920821637,5.703289461995511,96.875,1.246633572602941,0.1,0.005856752395629883,0.13608479499816895,0.048882347,0.07520702,1157.8124032408007,0.7918463031089938,24.34197641246601,96.875,3891,0.5374789237976074,0.058482688920299106,0.05644749621707803,590653,772.7119127682815,100.0
210,2.778367519378662,1222.5038180239878,279.63713276722495,1719.1084361138146,287.59622071346473,97.91666666666667,1.2454067797586568,0.1,0.005957841873168945,0.13880681991577148,0.049965482,0.08033614,1164.2815447191194,0.7946360357154006,24.452219869435265,97.91666666666667,3801,0.5439631938934326,0.0521743597131316,0.05023678895293638,594454,772.8201671763652,100.0
211,3.005405902862549,1248.0027285908334,258.33091338309896,1679.1183192733781,608.2713331699116,100.0,1.2151417467449024,0.1,0.006313800811767578,0.13574528694152832,0.049660835,0.07821581,1172.6536631062909,0.793851580022792,24.962280529257924,100.0,3803,0.5368390083312988,0.041191173689939256,0.03924643809911339,598257,832.9493712648242,100.0
212,3.0942330360412598,1226.841157821865,365.1014862106245,1789.0294875592735,11.203240626668205,93.75,1.164638960978452,0.1,0.006100177764892578,0.14700818061828613,0.048372258,0.07910474,1178.0724125778484,0.7923511834041568,24.539048216746437,93.75,3785,0.5378797054290771,0.06928161516187825,0.06259105117936718,602042,773.5190550422049,100.0
213,3.116781711578369,1318.2503835659584,269.4418970550111,1779.200708110019,242.4511190257757,97.91666666666667,1.1604511777083784,0.1,0.006189107894897461,0.1460280418395996,0.048916288,0.07955962,1192.0902096766592,0.7993953516818756,26.366096669293068,97.91666666666667,3911,0.5700318813323975,0.04008369146932755,0.036040350679764695,605953,774.1735045578408,100.0
214,3.1376354694366455,1266.4151812657535,312.04265860837967,1729.145610178378,342.4653288974923,96.875,1.1475139585536467,0.1,0.0062694549560546875,0.14519119262695312,0.049348243,0.08145348,1199.5227068355687,0.7967647029228208,25.34408210360249,96.875,4007,0.5654773712158203,0.05850854476612277,0.055056043252871556,609960,975.1920108519212,100.0
215,3.2074739933013916,1309.4906228328987,285.34364311477856,1788.9032417194276,20.61413746122593,98.95833333333333,1.2632243988546568,0.1,0.0063018798828125,0.14092230796813965,0.048296526,0.07351154,1210.5194984353016,0.7981764880015163,26.190992144541408,98.95833333333333,3990,0.5590958595275879,0.0471544525743311,0.04441493618450148,613950,1075.903905247119,100.0
216,3.1067824363708496,1296.4984362879025,263.4873622220268,1778.7128484266154,361.22204436134444,98.95833333333333,0.9952030662372762,0.1,0.0060198307037353516,0.1411280632019043,0.048825644,0.07644669,1219.1173922205617,0.7975359076632405,25.945716374635413,98.95833333333333,3898,0.5404517650604248,0.04013896414576415,0.03785274900375569,617848,712.9976884151732,100.0
217,3.102933406829834,1319.4150221779316,276.14033371859546,1667.6755166141652,147.57694389036652,97.91666666666667,1.205380121886131,0.1,0.005942583084106445,0.13834333419799805,0.050580114,0.07623962,1229.1471552162986,0.7997192909468446,26.404004235935492,97.91666666666667,3857,0.530383825302124,0.040326825982808824,0.03708288081304303,621705,1025.7136213689225,100.0
218,3.1725354194641113,1322.7353984321596,325.1388258627103,1970.9250315457543,6.641330156191991,97.91666666666667,1.1639721353214736,0.1,0.006453752517700195,0.1439356803894043,0.04870375,0.07568362,1238.5059795378847,0.7976432848114737,26.45688488084724,97.91666666666667,3984,0.5426101684570312,0.04685545603026763,0.04391338793619591,625689,975.7246975154602,100.0
219,3.1572306156158447,1362.4031325419621,294.21184230520385,1838.7159347375687,50.832461153255416,98.95833333333333,1.1193235265809034,0.1,0.005997419357299805,0.14133977890014648,0.048764978,0.084739104,1250.8956948382927,0.7993282678186974,27.26064838588204,98.95833333333333,4000,0.5456523895263672,0.04229302160797844,0.04017745428143248,629689,712.6084608445456,100.0
220,3.1488494873046875,1372.6622426484018,277.59315971682224,1789.2429072192722,40.563915570502644,98.95833333333333,1.163774853325826,0.1,0.006239652633666992,0.14194798469543457,0.04939063,0.0813358,1263.0723496193036,0.8020083829132538,27.469013262853835,98.95833333333333,3955,0.5214405059814453,0.03642361747500961,0.03443107968921783,633644,774.0258392852768,100.0
221,3.1548500061035156,1309.6711868632383,330.9505371244801,1800.0065117520671,8.020821506552396,97.91666666666667,1.1850396430115109,0.1,0.006501197814941406,0.14378118515014648,0.049159534,0.081048764,1267.732233343697,0.7980359570690009,26.192622998456084,97.91666666666667,3968,0.533646821975708,0.058898185970717096,0.05596652819947347,637612,975.6827622017298,100.0
222,3.1777002811431885,1358.5635438091856,332.52158943544634,1899.6659618483054,5.496027467408894,96.875,1.2081831061867956,0.1,0.0060732364654541016,0.14352798461914062,0.04854412,0.072884776,1276.815364390246,0.8000346711124742,27.187151532836662,96.875,3985,0.5353236198425293,0.05026486618047572,0.04523903023846464,641597,834.0688445380894,100.0
223,3.364938259124756,1358.9244452552778,303.85116771956206,1778.7253563772992,5.029214831891881,97.91666666666667,0.9180608757213455,0.1,0.006363391876220703,0.1400151252746582,0.04749595,15.997233,1285.0262724767492,0.7999811260174106,27.191143862423484,97.91666666666667,4018,0.5219438076019287,0.0436318804242472,0.04219414716630434,645615,784.0945571778783,100.0
224,3.2994983196258545,1394.567197415341,263.0548265641952,1839.0440599753053,382.18787359231084,98.95833333333333,1.2781578904967579,0.1,0.006184577941894531,0.1405794620513916,0.050106075,0.07273776,1295.9803649706084,0.8030530029775509,27.907162823744628,98.95833333333333,3999,0.5171587467193604,0.03691435215222441,0.035304188489605995,649614,773.9581985229792,100.0
225,3.312284231185913,1340.0398429942582,323.801948097643,1779.1118037409522,78.75981075672698,96.875,1.2082280467727347,0.1,0.005830049514770508,0.14269089698791504,0.04891929,0.07420542,1300.3863127729735,0.8012424409206194,26.81247355105643,96.875,4014,0.5128355026245117,0.053914922149068845,0.049298131780624393,653628,773.9784741217553,100.0
226,3.443246364593506,1341.2065417716706,270.1938698905055,1838.4303276494602,668.5082650373371,100.0,1.302459262981145,0.1,0.0065021514892578125,0.1402277946472168,0.048928086,0.07375156,1304.4683356728433,0.8001672810108857,26.84008273209837,100.0,3982,0.5115189552307129,0.041224445996139336,0.03959961181231977,657610,1529.7529085299025,100.0
227,3.18683123588562,1295.8299130329444,399.458091901228,1849.8014454565243,8.581899970574721,94.79166666666667,0.8204718145142352,0.1,0.006076812744140625,0.1427016258239746,0.023015928,0.6503698,1303.6044934088534,0.7906107380072097,25.931373593352465,94.79166666666667,4064,0.5238513946533203,0.07789342905301992,0.0709032548917854,661674,1529.752775001191,100.0
228,3.179828643798828,1323.8442974545635,310.0131928213279,1718.7088026643632,108.47663099245591,96.875,1.2110848055356775,0.1,0.005986213684082031,0.14381837844848633,0.046041384,0.06924683,1305.6284738134245,0.798170204049279,26.479319858145118,96.875,4041,0.5164008140563965,0.048813357085429075,0.04671689513749188,665715,1529.6352900544548,100.0
229,2.974432945251465,1332.4362075751676,326.79803088442793,1829.3064643827229,10.041437523942479,96.875,1.1812501465297738,0.1,0.006684064865112305,0.14474010467529297,0.049014732,0.07821749,1308.3092471895989,0.79965620246649,26.664578378538994,96.875,3865,0.5003552436828613,0.04404017500813271,0.042393809471125816,669580,1529.717841723183,100.0
230,2.9926180839538574,1355.50734729192,282.5144688295513,1921.2679919969771,17.883865001998913,98.95833333333333,1.269818294132542,0.1,0.006373405456542969,0.13966631889343262,0.048987277,0.07338446,1313.0290571998312,0.8029258350743653,27.122808384086408,98.95833333333333,3928,0.5082509517669678,0.03757043178601303,0.036055965652367385,673508,1479.0376338148164,100.0
231,3.0128233432769775,1408.9266490479786,215.78254882848796,1839.4734437426728,798.6750994142385,100.0,1.2600597309854351,0.1,0.006124258041381836,0.14400577545166016,0.049422838,0.07961332,1322.618816384646,0.8049587128266866,28.194290778553214,100.0,3903,0.506866455078125,0.026713796095584524,0.021938117510665062,677411,1539.8234599454868,100.0
232,3.0566048622131348,1417.524114245379,217.75951872286055,1959.5642323194734,710.8174112615852,100.0,1.2404601279765977,0.1,0.006095170974731445,0.13908123970031738,0.049973585,0.07456309,1332.1093461707194,0.8060037308378836,28.36623888056769,100.0,3990,0.5238766670227051,0.022167735889963437,0.020899872272583858,681401,1539.829098190254,100.0
233,3.1118199825286865,1389.7958916787975,232.78590546226044,1839.441709410661,543.441769659203,100.0,1.1104904416001824,0.1,0.006242275238037109,0.14268064498901367,0.04678899,0.08104424,1337.8780007215273,0.8034198155632953,27.808596290845326,100.0,3953,0.521355390548706,0.026683060296350126,0.025466339456575147,685354,1600.545054324649,100.0
234,3.2202541828155518,1393.175743119941,253.1707180657804,1778.9567908919998,469.7064279403102,100.0,1.1590008932799567,0.1,0.006308317184448242,0.1453402042388916,0.048923757,0.08110789,1343.4077749613687,0.8048343087122757,27.879385893551824,100.0,4027,0.54433274269104,0.034282178258759774,0.0323555480064449,689381,1600.3544557142927,100.0
235,3.2206809520721436,1408.951468452847,256.2066382776068,1779.3398034876861,182.56206449172964,98.95833333333333,1.2329471495714137,0.1,0.006439924240112305,0.1425461769104004,0.049406532,0.075721405,1349.9621443105166,0.8063705307264799,28.19489570204389,98.95833333333333,4072,0.5464088916778564,0.03510074129112702,0.034103152460468245,693453,1600.4924411603222,100.0
236,3.1468942165374756,1426.6702772520102,212.0785413817173,1899.639640110147,831.2080291803468,100.0,1.2000169662258982,0.1,0.0062482357025146484,0.13976168632507324,0.049242213,0.07834831,1357.632957604666,0.8064980998370269,28.549252889842094,100.0,3970,0.5343403816223145,0.023216410470035594,0.022078039945525832,697423,1650.9467966701,100.0
237,3.163224697113037,1405.3632405873238,301.2688577346049,1788.7077359207078,127.8440029178966,97.91666666666667,1.2172285291493488,0.1,0.006493806838989258,0.14867568016052246,0.048263546,0.076385625,1362.405985902932,0.8053982049065072,28.109572378849986,97.91666666666667,4051,0.5327787399291992,0.041773351699568,0.03720574224739372,701474,1651.0945025535004,100.0
238,3.1855199337005615,1457.8296123827379,197.9891332907843,1828.8196996634,781.6601958403458,100.0,1.19378579095699,0.1,0.0061187744140625,0.14470791816711426,0.050353225,0.07938783,1371.9483485509127,0.808591807957077,29.172386352698044,100.0,3985,0.5186269283294678,0.022102368184172657,0.01763002156402073,705459,1590.5715992532519,100.0
239,3.2466297149658203,1425.0839935509364,242.77775005209307,1839.0052101618307,478.63073681811846,100.0,1.244974163245162,0.1,0.006049633026123047,0.14227890968322754,0.048197895,0.074561894,1377.2619130509152,0.8070454221804607,28.517457291715786,100.0,4093,0.504831075668335,0.03284315308446724,0.03137394734935242,709552,1590.6878516817626,100.0
240,3.2757112979888916,1476.9027124090283,227.41519511699784,1839.5576622562198,667.4571898345807,100.0,1.1309980380166214,0.1,0.006188631057739258,0.14504337310791016,0.04741553,0.079647414,1387.2259929867264,0.8093156885651052,29.553878142225027,100.0,4126,0.5149195194244385,0.025273844204940547,0.024362657961434626,713678,1600.757201090071,100.0
241,3.1672322750091553,1459.752183967065,218.75346826280477,1839.2423207321253,646.9852069569835,100.0,1.1914346454371363,0.1,0.0059778690338134766,0.13997411727905273,0.05035871,0.07477187,1394.4786120847602,0.809118153177872,29.210848641295026,100.0,3964,0.5000970363616943,0.02328244178903278,0.020884406041726887,717642,1651.5824954117556,100.0
242,3.3740122318267822,1474.2620463695964,232.0377355200901,1899.2161564681742,361.3047952614127,98.95833333333333,1.2963367000770527,0.1,0.006312131881713867,0.14297151565551758,0.05027093,0.07149929,1402.4569555132439,0.808565712869818,29.501033480400896,98.95833333333333,4026,0.50937819480896,0.025596262795088635,0.023980024635121316,721668,1651.508428615469,100.0
243,3.351151466369629,1520.2134612359534,201.5630801743882,1890.069703709621,831.2869724091046,100.0,1.1462248331939195,0.1,0.006388187408447266,0.14259958267211914,0.05066662,0.08221153,1414.2326060855148,0.8091289959594988,30.42010640084274,100.0,4093,0.5098276138305664,0.019525968233560616,0.01785077318671159,725761,1661.3689611282448,100.0
244,3.4322023391723633,1464.6106841586388,271.34314634166077,1898.4749822326348,8.570062419086295,98.95833333333333,1.2632589432251875,0.1,0.00606846809387207,0.14472293853759766,0.04805309,0.07084248,1419.2704138928273,0.8078840111559632,29.30811329695943,98.95833333333333,4103,0.5148568153381348,0.03094630522525491,0.028612306428457957,729864,1600.954419705503,100.0
245,3.584902286529541,1516.8820004164475,187.2269381024893,1960.252618814313,913.4523471439802,100.0,1.2556519112936224,0.1,0.006560802459716797,0.14461231231689453,0.046947792,0.07388029,1429.0315725451892,0.8123594840941282,30.35352733251897,100.0,4104,0.5140619277954102,0.018699718933547882,0.017801706778769053,733968,1522.2532320121632,100.0
246,3.2804312705993652,1488.6677741638348,240.43206567802545,1959.9025292088022,728.933206359807,100.0,1.1785602334183498,0.1,0.006129741668701172,0.1446080207824707,0.049719367,0.08009942,1434.9951927070538,0.8106321219642253,29.789286201294374,100.0,4062,0.5184948444366455,0.026626391976987223,0.024438414055856773,738030,1472.3339395054236,100.0
247,3.352820873260498,1531.526994342079,183.80444074115644,1840.3824470839472,940.047875596002,100.0,1.2430206107159218,0.1,0.006098270416259766,0.1451098918914795,0.049680956,0.07682502,1444.6483728705564,0.8112579808558827,30.646348261050367,100.0,4154,0.5284230709075928,0.01988497560872944,0.017433300582809827,742184,1372.1243140568865,100.0
248,3.2744665145874023,1508.0317121156477,214.54214874814414,1899.8388574903015,824.5487830348121,100.0,1.2095920499779476,0.1,0.006905078887939453,0.1406717300415039,0.04650687,0.07661484,1450.9867067950656,0.8114468445818601,30.162916608346624,100.0,4180,0.5364062786102295,0.023527586299231875,0.021867273206661385,746364,1222.0309564264476,100.0
249,3.3022196292877197,1487.7284619741233,248.5101817441363,1899.4761834938845,672.2799890002524,100.0,1.1930701987842045,0.1,0.006410360336303711,0.1477196216583252,0.0486424,0.076949485,1454.6608823129714,0.8094353111726944,29.7703977824594,100.0,4108,0.5424807071685791,0.024227048118353762,0.02241800562166376,750472,1522.315431578944,100.0
250,3.2905657291412354,1498.1076305196966,212.75897771954732,1838.9582912716066,913.0827100146972,100.0,1.2597271589401433,0.1,0.006238460540771484,0.14290285110473633,0.049615894,0.07878544,1459.0055571336438,0.8110185931573262,29.978015567903157,100.0,4097,0.5301783084869385,0.023575092936170744,0.022167043002284822,754569,1422.1033019531872,100.0
251,3.277235984802246,1498.2189998369352,250.56183293247875,1839.6534498326557,554.318987768129,98.95833333333333,1.2016784723058054,0.1,0.006160259246826172,0.1413724422454834,0.048507843,0.07659584,1462.926901403973,0.8103401409055698,29.966689434838724,98.95833333333333,4146,0.5355839729309082,0.029279551465131882,0.027821356480153322,758715,1321.9440041223315,100.0
252,3.2733161449432373,1520.6662501180151,252.8251219553422,1839.7483748088798,95.74234059016098,97.91666666666667,1.2417898189892735,0.1,0.006032466888427734,0.14088702201843262,0.049067188,0.0698599,1468.7008362753772,0.8107253120551743,30.4291522937568,97.91666666666667,4083,0.5318689346313477,0.02377915415691642,0.021736440143604575,762798,1321.9825631918768,100.0
253,3.288909435272217,1513.7839607978513,242.25172096333208,1839.6153499471257,416.99170729090486,100.0,1.297860749725275,0.1,0.0060617923736572266,0.14034223556518555,0.049599007,0.073498204,1473.2091487276246,0.8116650151646297,30.27795324238764,100.0,4133,0.5461034774780273,0.02514690656550079,0.02405984592945591,766931,1271.9379901685145,100.0
254,3.2879867553710938,1536.374079122443,227.13417544928234,1889.3177759654081,255.95664186929503,98.95833333333333,1.147686921647957,0.1,0.006381511688232422,0.1358942985534668,0.04734523,0.07262668,1479.5256417671064,0.8124748323010563,30.743369724675713,98.95833333333333,4123,0.541118860244751,0.021479529438695483,0.019800006848852303,771054,1271.9036618797595,100.0
255,3.3455307483673096,1550.4575498691886,177.45439931570866,1839.016483130167,842.6273228979081,100.0,1.3032910195887166,0.1,0.0060079097747802734,0.14518451690673828,0.04896462,0.07263677,1486.6188325773146,0.8136842768634658,31.025042649262208,100.0,4096,0.5415680408477783,0.01548388730288898,0.014465137949214408,775150,1321.9419513909365,100.0
256,3.3605308532714844,1549.3044394116503,173.03450657539994,1779.5646603932857,959.3706855721695,100.0,1.3535921183266733,0.1,0.005900859832763672,0.13853192329406738,0.048672743,0.07038497,1492.8873932607482,0.8127058160535201,31.00189702806749,100.0,4131,0.5426349639892578,0.014699769609274233,0.01464371627501519,779281,1472.0732420338318,100.0
257,3.32429838180542,1577.788850031243,185.54607818497524,1970.3680788111708,738.762264401218,100.0,1.2563509903863772,0.1,0.006529808044433594,0.14032912254333496,0.04836099,0.073053576,1501.3775389377977,0.8124421261313569,31.571586746511098,100.0,4186,0.5537183284759521,0.01781542386158226,0.01544018245990518,783467,1661.514762142272,100.0
258,3.243816614151001,1541.0591874881409,215.55181752572744,1840.0964341333797,773.8262101613482,100.0,1.3064017140889432,0.1,0.006016254425048828,0.1400740146636963,0.049714252,0.070296384,1505.345703792832,0.8110096183141794,30.83706918230574,100.0,4083,0.5369601249694824,0.020364419019937508,0.01870276485876479,787550,1661.7646542890047,100.0
259,3.455538272857666,1566.9330988918055,171.31259048393676,1839.7216303950463,902.5466518893365,100.0,1.2171164118005653,0.1,0.0059375762939453125,0.14267277717590332,0.04851337,0.07552877,1511.5044433027292,0.8137980209323361,31.354494678890564,100.0,4103,0.5547220706939697,0.014431819955771552,0.013396886658976672,791653,1661.687651689061,100.0
260,3.4467828273773193,1594.8272639835084,158.63693037511274,1909.7173582280707,1019.0387964675011,100.0,1.189300512222283,0.1,0.0061054229736328125,0.14133358001708984,0.048638828,0.0775952,1519.8367253708072,0.8136412638407569,31.912316576935847,100.0,4145,0.5510091781616211,0.013124905248500537,0.012032324115737602,795798,1661.8688381879194,100.0
261,3.5070626735687256,1604.519038583265,136.5115068889346,1839.3723932793648,1109.193832624582,100.0,1.2458064964634976,0.1,0.006022214889526367,0.13909101486206055,0.0489752,0.07974128,1528.3049566920529,0.8145763968498506,32.10621101890519,100.0,4162,0.5689828395843506,0.010774360573373743,0.01007398207026989,799960,1661.8636200079086,100.0
262,3.671609878540039,1572.7675650677968,218.91404649594188,1960.6971697404308,655.4243501984487,100.0,1.2032714769774588,0.1,0.005763530731201172,0.1392204761505127,0.049056593,0.072934546,1532.7512175296274,0.8125123560465441,31.4712174304119,100.0,4204,0.5653512477874756,0.020368343858998935,0.018868371446254043,804164,1661.810415703851,100.0
263,3.308110475540161,1584.4329746298106,201.9940046680401,1839.521536853676,648.4884805935876,100.0,1.2808335870286618,0.1,0.0061931610107421875,0.13873982429504395,0.04913705,0.072185606,1537.9193932396458,0.8135491319247651,31.704472826659813,100.0,4209,0.5657052993774414,0.017585891482535476,0.016512551131159493,808373,1601.2639491740808,100.0
264,3.332632303237915,1582.9069430313878,212.53875518729797,1900.1790764485822,794.9818650180423,100.0,1.2790791976846405,0.1,0.006241559982299805,0.14148283004760742,0.04926752,0.07076748,1542.41814821882,0.8118666286926853,31.67087062809172,100.0,4198,0.5657103061676025,0.020269655430473116,0.01923271149057616,812571,1601.266025998085,100.0
265,3.335693359375,1591.194528439578,214.14259955993617,2020.111298356401,724.7827769203352,100.0,1.207467033504765,0.1,0.006051063537597656,0.1360468864440918,0.04754332,0.07368312,1547.295786240896,0.8139615979381931,31.83976007089227,100.0,4204,0.565434455871582,0.020103822647865536,0.01912637459099398,816775,1601.4225744497128,100.0
266,3.326880693435669,1607.29702365986,148.6124270066305,1900.6551034023203,995.1946356586425,100.0,1.2107926892961847,0.1,0.006091117858886719,0.1437690258026123,0.048126172,0.07692957,1553.2959099827924,0.8164273550629092,32.16170967130097,100.0,4130,0.5625457763671875,0.010317187589830976,0.009389644671066517,820905,1601.5172053054011,100.0
267,3.335693597793579,1562.987155013938,184.66163237186416,1839.8002719439125,792.9930215462483,100.0,1.1587749999544454,0.1,0.006456613540649414,0.13992881774902344,0.04754722,0.07856037,1554.265034485907,0.8135892273811013,31.275485929607814,100.0,4143,0.5420546531677246,0.016737921864268115,0.015501040369366652,825048,1601.532725070869,100.0
268,3.054396390914917,1617.6972206541197,147.043782600985,1899.3925972438833,769.4623901294941,100.0,1.264375800955893,0.1,0.006204128265380859,0.13823246955871582,0.049045324,0.074536,1560.6082531027284,0.8164275701524834,32.36974981361153,100.0,4150,0.5410647392272949,0.011201095938433171,0.0098715066756337,829198,1540.622346766465,100.0
269,3.1530380249023438,1612.403956805568,192.5547317538756,2081.0857651341285,989.3963016863385,100.0,1.2774002853886075,0.1,0.00594019889831543,0.13633036613464355,0.04887609,0.07662844,1565.7878234730124,0.8149652534140189,32.26386577515746,100.0,4186,0.544985294342041,0.020434617203992436,0.016536518030740615,833384,1540.648673014674,100.0
270,3.0525197982788086,1571.0219142054182,258.19300246534493,1959.891821980311,527.33349669503,100.0,1.2450955955739216,0.1,0.0058307647705078125,0.1346571445465088,0.04742371,0.07176179,1566.311232546253,0.8137571086176411,31.436260866404865,100.0,4156,0.5388352870941162,0.031391248183178636,0.027670264834684346,837540,1601.352809600746,100.0
271,3.0539090633392334,1531.6698204899087,263.98617983315484,1840.3257213611075,373.9041676025957,98.95833333333333,1.2090053129466467,0.1,0.005873203277587891,0.13487696647644043,0.048651617,0.07044443,1562.8470913406186,0.8121675977198365,30.64921890352441,98.95833333333333,4149,0.5335690975189209,0.02902661661537904,0.025395953362620977,841689,1601.4057879125037,100.0
272,3.0468709468841553,1611.7758435813937,187.0971700555343,1899.5154701375257,820.2310686101774,100.0,1.293051711372368,0.1,0.0059053897857666016,0.1301100254058838,0.048639078,0.070354745,1567.7399665646963,0.8146135354235597,32.2512722051951,100.0,4207,0.5773124694824219,0.018095991032681207,0.01562270503162413,845896,1601.5048118296297,100.0
273,2.994656562805176,1603.835468079854,199.61298100312638,1899.779118590078,652.6833159965669,100.0,1.2141571781143259,0.1,0.0063152313232421875,0.13935422897338867,0.049581476,0.0730354,1571.349516716212,0.813218979093432,32.07899524898714,100.0,4161,0.5477170944213867,0.017764007163027028,0.015577921835451574,850057,1601.4084683205385,100.0
274,3.0585691928863525,1615.370351198071,147.58833473507394,1900.2977406140365,1068.8395797913993,100.0,1.2729652187106029,0.1,0.005980014801025391,0.13476324081420898,0.049474303,0.07649596,1575.751600164398,0.8152451189681814,32.323079796752495,100.0,4118,0.5497407913208008,0.010248974723466909,0.009158255090885444,854175,1601.3889870562978,100.0
275,3.2185463905334473,1642.6119465672928,170.42515942942103,1961.1739815625892,622.1055599267677,100.0,1.301678309078658,0.1,0.006195783615112305,0.1401832103729248,0.0487271,0.06801617,1582.4376348046876,0.816101838478639,32.86791095720033,100.0,4185,0.5568361282348633,0.01193453753752707,0.011456857702655377,858360,1601.5438879349197,100.0
276,3.2244985103607178,1599.376424756545,207.70055170540525,1910.5814112211733,667.6305068868475,100.0,1.2973642025009766,0.1,0.00621795654296875,0.1382911205291748,0.04952389,0.0677525,1584.1315137998733,0.8128267332097279,32.0032463625414,100.0,4177,0.5462362766265869,0.02370894123260485,0.019790609682869633,862537,1601.5251262158718,100.0
277,3.3219385147094727,1604.4455979601923,258.5620965931732,1900.5180475713096,122.0946289194924,97.91666666666667,1.2173413495303729,0.1,0.005997657775878906,0.13508176803588867,0.049993835,0.071055636,1586.1629222159054,0.8136555490907572,32.101506003154014,97.91666666666667,4173,0.5576364994049072,0.022036729439212196,0.020724041707099235,866710,1601.5266298485465,100.0
278,3.0229485034942627,1633.6314751695318,172.5461217289721,2011.9597808625108,984.2672508482926,100.0,1.2600156858217206,0.1,0.005986690521240234,0.13422822952270508,0.04958285,0.07395803,1590.909777511268,0.8151928452233367,32.688352724282865,100.0,4189,0.5539166927337646,0.014585359251508116,0.01345861762371699,870899,1601.3953472297803,100.0
279,2.989766836166382,1614.711605584036,181.355909443209,1910.541655281862,759.6255744096189,100.0,0.7349691583259869,0.1,0.00603485107421875,0.1376795768737793,0.05071552,0.053693485,1593.289960318545,0.8138953182357337,32.309958435115846,100.0,4143,0.5418300628662109,0.01572346492807258,0.014430577746780792,875042,1601.3964504888218,100.0
280,3.079958200454712,1633.010005948785,179.18301986292047,1890.0508342759792,928.2866033453521,100.0,1.2521220835836,0.1,0.006132841110229492,0.13734984397888184,0.050321933,0.07485114,1597.261964881569,0.8152344868602605,32.67591001133722,100.0,4201,0.5295627117156982,0.01634784580701365,0.0146940497874613,879243,1601.3381388224132,100.0
281,3.0405097007751465,1652.0144713788222,160.07629553907313,1949.9064036103362,894.2807550003506,100.0,1.1565550031881422,0.1,0.005980491638183594,0.13410043716430664,0.050526045,0.13745323,1602.7372155312944,0.8144434484308462,33.05605244111416,100.0,4190,0.5323655605316162,0.012538171959870417,0.010492904383432278,883433,1601.470782692319,100.0
282,3.01600980758667,1632.8896920996376,181.14106951401018,2097.063293160657,905.0711638748945,100.0,1.2522151162907131,0.1,0.005980491638183594,0.1340484619140625,0.049095,0.07617237,1605.7524631881288,0.816819484567065,32.67352260067512,100.0,4147,0.5175731182098389,0.014827478641488081,0.013373601568924911,887580,1601.2850072126387,100.0
283,3.02571702003479,1616.2870343229642,174.16523955493633,1889.2084407912187,853.0880529544655,100.0,1.226905793086623,0.1,0.006021738052368164,0.13767480850219727,0.047690473,0.072966576,1606.8059203016123,0.8149964052235138,32.341518874376725,100.0,4175,0.5425715446472168,0.015732013928768086,0.014210925570122124,891755,1601.350440448249,100.0
284,3.0553436279296875,1638.6315423818266,196.48091973483955,1900.5387005057044,771.3511600557499,100.0,1.3095239137613546,0.1,0.00616002082824707,0.14129185676574707,0.049741186,0.06948636,1609.9884825096337,0.815525495602419,32.788481833629824,100.0,4172,0.5402100086212158,0.014804683416976284,0.012945468341212817,895927,1601.4673571174435,100.0
285,3.0483157634735107,1638.2820313863058,231.73110342219894,2021.1333678348612,17.43717158123911,98.95833333333333,1.1355350982367218,0.1,0.0061490535736083984,0.13835453987121582,0.0495559,0.07091338,1612.817837397301,0.8158293986601185,32.78144382397465,98.95833333333333,4167,0.5312910079956055,0.016557484889524677,0.015322515677196925,900094,1601.4722642960664,100.0
286,3.0469086170196533,1607.5230841909042,188.43192647048423,1840.003048771577,757.8281877310171,100.0,1.2116619856871735,0.1,0.006077289581298828,0.13738489151000977,0.049772017,0.07461678,1612.2883620766613,0.8156342412193469,32.16627560586449,100.0,4165,0.5231921672821045,0.016472681375300457,0.013841868621435742,904259,1601.4274402117837,100.0
287,2.8821702003479004,1667.5216585226528,172.4388192568732,2097.0633455437483,833.6410384389758,100.0,1.22063165895763,0.1,0.006255149841308594,0.14098453521728516,0.04904966,0.07907055,1617.8116917212606,0.8174123174447171,33.36519424112529,100.0,4187,0.5208649635314941,0.01832762939300365,0.013639411440973656,908446,1601.4641989229078,100.0
288,3.11752986907959,1668.4558609191772,178.3555118657108,2080.698732752121,883.1980892107854,100.0,1.2419938881993835,0.1,0.006030082702636719,0.13538241386413574,0.05010252,0.07324141,1622.8761086410523,0.8167535644644474,33.38179124635123,100.0,4173,0.5171728134155273,0.013704151407510454,0.012700841543012887,912619,1601.4039236092726,100.0
289,2.9947524070739746,1660.8640285735921,159.53735890416303,1921.2025382153108,913.0665870861562,100.0,1.2513182005420498,0.1,0.006125450134277344,0.14113712310791016,0.047739994,0.07382082,1626.6749006343064,0.818369668665467,33.23304216852671,100.0,4131,0.511894941329956,0.011675787375802686,0.010610380794626152,916750,1601.4118866158983,100.0
290,3.0676891803741455,1647.7744835294063,230.82827076786597,2010.8420767393661,628.950218925533,100.0,1.2302809346708432,0.1,0.006108760833740234,0.13695263862609863,0.04799242,0.070200466,1628.7848589238163,0.8148037453712121,32.97124328924615,100.0,4187,0.5113141536712646,0.021635406779332924,0.017958872648948184,920937,1601.2137467757527,100.0
291,3.091005802154541,1626.840544363914,206.7831027409535,2081.6771922265343,793.1685447875647,100.0,1.1853509820637909,0.1,0.0060193538665771484,0.13102364540100098,0.05004959,0.08058642,1628.590427467826,0.816339420290713,32.53902713825065,100.0,4223,0.5080468654632568,0.019303904059349584,0.018141040226846587,925160,1601.2585613634408,100.0
292,3.1259965896606445,1624.4097662555505,214.93203088444363,1959.8323518522711,659.6627499354585,100.0,1.238860560631289,0.1,0.0062181949615478516,0.13863468170166016,0.048746552,0.07331616,1628.1723613465986,0.8145373978282779,32.50399320863101,100.0,4182,0.5102987289428711,0.022295923513512176,0.01935733008915709,929342,1601.187376102048,100.0
293,3.2498762607574463,1642.7039919335705,199.57027016954308,1982.6452000434938,902.9337736536551,100.0,1.2713795910931496,0.1,0.006105184555053711,0.13844585418701172,0.04971146,0.07487836,1629.6255244052957,0.8160904263607036,32.86981567961969,100.0,4166,0.5055942535400391,0.016581765667077752,0.014215724740961827,933508,1661.8234099007373,100.0
294,2.944528579711914,1659.008704616049,175.52370876750058,1960.7881030134222,873.1673740043013,100.0,1.3227505760251688,0.1,0.006090402603149414,0.13539838790893555,0.0500272,0.07015042,1632.563842426371,0.8164328378855178,33.195961122902226,100.0,4232,0.5046699047088623,0.015913975231989713,0.013258135700174423,937740,1661.8294318498438,100.0
295,2.979843854904175,1615.5636848664096,214.33876859481865,1899.8798097447252,664.3182408249185,100.0,1.1633871011514518,0.1,0.006047725677490234,0.12815499305725098,0.048480224,0.07744406,1630.8638266703747,0.8146202015170871,32.313469440547394,100.0,4255,0.5093874931335449,0.021801542538465765,0.019290609607301733,941995,1601.157530422097,100.0
296,2.973710775375366,1613.946227972988,281.1147557475043,1956.351356715898,116.86125106577617,97.91666666666667,1.1571678232944924,0.1,0.005872964859008789,0.1338658332824707,0.046592053,0.071403705,1629.172066800636,0.8145613586488253,32.294673805510605,97.91666666666667,4194,0.5027744770050049,0.02523743346753746,0.023213023163739514,946189,1601.0688022059087,100.0
297,2.9517409801483154,1657.294383720416,168.7805911324991,1960.1708530885332,886.0069642617761,100.0,1.2373138072127954,0.1,0.006016969680786133,0.13591551780700684,0.04823343,0.07695169,1631.984298492614,0.8185901837207803,33.16171811715112,100.0,4195,0.5078549385070801,0.013215231845064693,0.01180713650868631,950384,1600.9615161647846,100.0
298,2.9507339000701904,1639.3812528888666,210.51731588588666,1961.0122616054327,618.2674505385121,100.0,1.2038214999377905,0.1,0.005944013595581055,0.13638019561767578,0.049763754,0.07313099,1632.7239939322394,0.8166471909772057,32.789867044736866,100.0,4181,0.523280143737793,0.017908307344538268,0.016585302511709026,954565,1550.8528084269897,100.0
299,2.9811482429504395,1671.8256304644995,143.78036921850344,2206.9866335012316,925.4138575828919,100.0,1.293680698644514,0.1,0.005993366241455078,0.1331806182861328,0.048785836,0.07424277,1636.6341575854656,0.8183896092063462,33.45216123991806,100.0,4172,0.5151321887969971,0.009927337137141785,0.009012304415462748,958737,1600.8965685269593,100.0
300,3.040151357650757,1624.2641499897156,230.53039808144308,2131.800098609209,842.9471642767563,100.0,1.2473923732083707,0.1,0.006267070770263672,0.13654661178588867,0.04908585,0.07388805,1635.3971568258905,0.8152934511684108,32.501083293998754,100.0,4243,0.5365593433380127,0.025200780571252322,0.02293219188134173,962980,1500.7973246666431,100.0
301,2.9932937622070312,1667.4958515605429,186.71200866524,2010.9095884469782,529.4346617135359,98.95833333333333,1.2932602377586426,0.1,0.006232261657714844,0.1359114646911621,0.048933413,0.06855437,1638.6070262993558,0.8176212190520834,33.36561108212695,98.95833333333333,4194,0.5256688594818115,0.013958149953969325,0.01182126610629486,967174,1600.9017371190232,100.0
302,3.00968074798584,1665.3464661263652,170.77718829767574,1900.35189630152,589.8154519181023,100.0,1.1887771545471597,0.1,0.0059719085693359375,0.14433550834655762,0.049199067,0.072733946,1641.2809702820568,0.8172840632055415,33.32263181382246,100.0,4206,0.5323843955993652,0.012466621923667045,0.011093993883109535,971380,1550.8532716385982,100.0
303,3.003727912902832,1683.2055614674955,152.14109604153091,2092.273372826776,1109.0029335436157,100.0,1.1381655754031272,0.1,0.005898714065551758,0.1356966495513916,0.04795764,0.08226439,1645.4734294006007,0.818124360625703,33.67982064978907,100.0,4226,0.531325101852417,0.011797702762690015,0.01035902108855232,975606,1511.5277646846482,100.0
304,3.0030722618103027,1668.5696307679593,184.57469455660438,1840.1773950864815,489.64333284605357,100.0,1.3438669369803067,0.1,0.0058820247650146484,0.14188528060913086,0.048025023,0.06354866,1647.7830495373366,0.8188839122699783,33.38713501754436,100.0,4208,0.5231497287750244,0.015099992697953245,0.013629258755820028,979814,1500.7491344158584,100.0
305,3.0013177394866943,1666.250889355176,136.72910106816587,2020.481732541466,1215.8762049547734,100.0,1.2591923481298488,0.1,0.0060732364654541016,0.13674139976501465,0.04907982,0.078912556,1649.6298335191207,0.8180969383723808,33.340720907983126,100.0,4196,0.5254368782043457,0.009371970252981044,0.008559646344917965,984010,1650.8632201416376,100.0
306,3.0442090034484863,1695.1163637963575,125.227183226967,1900.7160126456415,1308.2443343520806,100.0,1.1587500762888303,0.1,0.006224155426025391,0.14113950729370117,0.048910696,0.08322422,1654.1784865468444,0.8194588953323638,33.91802180131638,100.0,4199,0.5331699848175049,0.007922840699687034,0.0073505676679295265,988209,1601.0282037940153,100.0
307,3.2856760025024414,1666.15963046231,154.69188463077933,1960.2964082059793,1128.5461739262685,100.0,1.256192264709447,0.1,0.00600743293762207,0.13718533515930176,0.049317446,0.07443155,1655.376600938391,0.8187049526615674,33.33889229989381,100.0,4186,0.5358846187591553,0.012316975813955085,0.011247657002519026,992395,1601.0796723233013,100.0
308,2.993030071258545,1651.8038183240667,168.32619425416442,1960.888742455587,1138.5128703719095,100.0,1.3467357571549796,0.1,0.006040811538696289,0.13303256034851074,0.049453367,0.07082584,1655.0193226769586,0.8173429387142219,33.05178058270267,100.0,4232,0.5320980548858643,0.014582530328540688,0.013639945000255836,996627,1601.1574387064186,100.0
309,3.4023823738098145,1707.90697019043,159.17158047707377,2020.9573594098215,842.4579046864967,100.0,1.261708668107625,0.1,0.005980968475341797,0.13411951065063477,0.04927491,0.07409241,1660.308087428306,0.8177965009618542,34.17391396256883,100.0,4244,0.5357856750488281,0.012358015059832134,0.009777180514567649,1000871,1601.2390171100308,100.0
310,3.068157911300659,1692.7976129879419,191.46878006079243,1949.9131530174732,497.7257161265015,100.0,1.2919348719472625,0.1,0.006316661834716797,0.13483548164367676,0.049292207,0.0678533,1663.5570399842697,0.8189315035362549,33.871711047286645,100.0,4227,0.5411458015441895,0.015005703896647633,0.013669549101600951,1005098,1601.1142472595852,100.0
311,3.114375114440918,1694.4265603248016,209.42536372148626,2141.4884644229396,878.4176852575887,100.0,1.3358087429035599,0.1,0.005835294723510742,0.13654708862304688,0.049215864,0.069980174,1666.643992018323,0.817319386136246,33.904283552365804,100.0,4206,0.5245254039764404,0.01821378091036511,0.017030550209550844,1009304,1601.1045645114361,100.0
312,2.9876549243927,1677.1112527395562,164.22105102212333,1959.371736592114,978.2190329877122,100.0,1.2159476439089034,0.1,0.005977630615234375,0.14022517204284668,0.05004154,0.07659615,1667.6907180904464,0.8197076014503568,33.55794337717838,100.0,4190,0.528557538986206,0.012455509423219071,0.011571487273065475,1013494,1651.2380254331842,100.0
313,2.992213249206543,1656.8961105365045,235.21301150314974,2146.9489929130773,356.6056351436224,98.95833333333333,1.298256083214701,0.1,0.0060427188873291016,0.1319584846496582,0.049836595,0.06685821,1666.6112573350522,0.8172116063931929,33.153717943064926,98.95833333333333,4140,0.5144350528717041,0.018077054909591345,0.016651939898676364,1017634,1600.976465354934,100.0
314,3.0360770225524902,1716.3669289808302,150.43651163606725,2206.619775272259,984.6964767835858,100.0,1.175856633481178,0.1,0.005962371826171875,0.13683080673217773,0.049377907,0.18847759,1671.58682449963,0.8204531695594884,34.343080056470846,100.0,4245,0.5232694149017334,0.012006272919071451,0.009458121927541648,1021879,1461.5527368508222,100.0
315,2.9894227981567383,1707.4213862524684,144.27822620468206,2081.061952069301,1138.8358636772753,100.0,1.201829314023752,0.1,0.005941867828369141,0.13018131256103516,0.049378533,0.078659445,1675.170280674914,0.8204332633541629,34.16420041435302,100.0,4216,0.5190470218658447,0.01058715476841709,0.009666131704683834,1026095,1361.5559706105064,100.0
316,2.9697840213775635,1670.0434066819373,219.32976448529342,2011.0492068795309,848.2191996608587,100.0,1.3087404201217994,0.1,0.006057262420654297,0.1333937644958496,0.048874635,0.070225626,1674.6575932756164,0.8185785950402537,33.41354683231912,100.0,4264,0.5399031639099121,0.02280025674843575,0.020214082680472194,1030359,1600.981941608816,100.0
317,2.9829039573669434,1695.674700726904,158.1033597177705,1992.364928611888,903.9923420583793,100.0,1.2816945701259301,0.1,0.005861997604370117,0.13425588607788086,0.04906119,0.07264166,1676.7593040207453,0.8210354404780716,33.92929040026224,100.0,4171,0.5242857933044434,0.011135749648622396,0.009877129770009969,1034530,1601.0964645289362,100.0
318,2.967132568359375,1685.6377345316166,179.21531790451604,1960.9698214834784,1005.5409765949579,100.0,1.159865853649448,0.1,0.005903959274291992,0.1350092887878418,0.049461737,0.23701014,1677.6471470718325,0.8204580334786901,33.72848216873336,100.0,4168,0.5240280628204346,0.012697600606805273,0.012045553710738541,1038698,1600.9547043097677,100.0
319,2.995302200317383,1671.3333372899713,240.99086436410775,2096.319429048967,477.4290766048534,98.95833333333333,1.2337184304460973,0.1,0.006048679351806641,0.13818931579589844,0.049522273,0.07240055,1677.0157660936463,0.8197139084848567,33.44250193229343,98.95833333333333,4199,0.5204610824584961,0.02018578656293283,0.018772868390574137,1042897,1150.8487862144798,100.0
320,3.0194430351257324,1689.170132442702,246.15486024274082,2081.3893865726027,509.3615150529168,98.95833333333333,1.1785989601282094,0.1,0.023454904556274414,0.13778376579284668,0.048905123,0.075101696,1678.231202728552,0.8178777467980097,33.799105159732726,98.95833333333333,4217,0.5257465839385986,0.02034821442891177,0.019175894052190952,1047114,1100.8007867039912,100.0
321,3.0306921005249023,1706.0771826864973,173.93647850922451,2011.0471202059414,892.8945041325183,100.0,1.3098140477287685,0.1,0.006036281585693359,0.13395380973815918,0.049323574,0.075412534,1681.0158007243465,0.8198774684082388,34.137309060663696,100.0,4211,0.5309450626373291,0.012113857204657394,0.010440313077160888,1051325,1150.7668650603955,100.0
322,2.9964683055877686,1694.3618919206885,197.6894486882634,2020.5379682180094,773.6099767644115,100.0,1.2836790827679947,0.1,0.005944252014160156,0.13194894790649414,0.049598526,0.0738073,1682.3504098439807,0.81891543251466,33.88945711604935,100.0,4262,0.5400421619415283,0.01722400065284811,0.01573520179746949,1055587,1111.4161326203205,100.0
323,3.1803884506225586,1732.681448414058,172.90108080629545,2081.4529015105068,974.2391446867337,100.0,1.2824024500263227,0.1,0.006066083908081055,0.1318211555480957,0.0500111,0.073433205,1687.3835137009885,0.8206987170809957,34.66937303260491,100.0,4291,0.5428845882415771,0.01299466755888777,0.012159860709101904,1059878,1461.545470804987,100.0
324,3.2280497550964355,1696.9429484506802,222.41032918195205,2080.3615813645565,823.4435947883146,100.0,1.1634320363624227,0.1,0.005887269973754883,0.13113045692443848,0.048295625,0.076674804,1688.3394571759577,0.8170402729568477,33.94110564425984,100.0,4259,0.528437614440918,0.022569727419930942,0.02085174422106681,1064137,1511.5587870372653,100.0
325,3.18631911277771,1723.3195387684966,205.47792882207864,2207.120689904631,977.010018007437,100.0,1.3011511903311535,0.1,0.005884647369384766,0.13443565368652344,0.050181806,0.073543936,1691.8374653352116,0.8201844329776563,34.48214728293373,100.0,4250,0.5466146469116211,0.017122804708876074,0.016259273560804935,1068387,1200.7280826863978,100.0
326,3.273989200592041,1746.170390826094,169.73725753184286,1959.9603633717238,547.1017277466963,100.0,1.2454651437763435,0.1,0.006000518798828125,0.13252902030944824,0.050133135,0.06817748,1697.2707578842999,0.8201532080450392,34.93915902347731,100.0,4260,0.5411796569824219,0.009303406912817383,0.008537863620937352,1072647,1661.6680749996365,100.0
327,3.043851852416992,1751.3430750459665,168.6114451064842,2256.9423669289367,1039.6341212701298,100.0,1.3124524045822081,0.1,0.0062367916107177734,0.13298749923706055,0.049061745,0.068952374,1702.6779896004664,0.8197702102813746,35.02909166697754,100.0,4278,0.5590982437133789,0.01144213335651085,0.010970311788190485,1076925,1601.008810426611,100.0
328,3.0558278560638428,1733.318323087602,175.84777227661536,2020.5437016264734,1188.4082411447196,100.0,1.2642088963430598,0.1,0.00734400749206543,0.13464641571044922,0.049565546,0.07504906,1705.74202294918,0.8193179374017022,34.682191907254584,100.0,4291,0.5495481491088867,0.014034166635865347,0.012212881872952165,1081216,1601.0183493883087,100.0
329,3.0354135036468506,1745.261942652167,213.28059095784545,2021.6417515349128,904.7971669001719,100.0,1.3048821758282314,0.1,0.005988121032714844,0.13398385047912598,0.047370188,0.06784463,1709.6940149194786,0.8189035204244334,34.92106768042061,100.0,4287,0.5411276817321777,0.018507819277023198,0.01689994072392123,1085503,1601.1300914540652,100.0
330,3.0719830989837646,1730.8714269043965,207.05594887011827,2021.6691609588229,1043.8120385819032,100.0,0.7406864343239692,0.1,0.006026744842529297,0.1359720230102539,0.049764104,175.69885,1711.8117561179704,0.8175614414583854,34.61970295738991,100.0,4321,0.5509335994720459,0.020040223675457394,0.017790867312732897,1089824,1601.2346347957691,100.0
331,3.0520544052124023,1706.312320317623,223.324088519403,1961.0898189001086,417.02514762722046,98.95833333333333,1.2669614180031674,0.1,0.005919933319091797,0.13515853881835938,0.048931986,0.07073662,1711.2618125379356,0.8183319643605769,34.141935434136435,98.95833333333333,4259,0.5308289527893066,0.018572305592935066,0.0170054250190055,1094083,1601.3411562497522,100.0
332,3.0514631271362305,1716.207433818383,232.92540591225153,2141.437196825672,743.5657479401223,100.0,1.1651229368296059,0.1,0.006139039993286133,0.13771605491638184,0.04937908,0.07673073,1711.7563746659805,0.8165649590672844,34.339909645405015,100.0,4312,0.5518937110900879,0.020853059796975406,0.019199098301938573,1098395,1601.3891703027289,100.0
333,3.0390191078186035,1714.7623302912068,192.3674277859461,2021.1537029927144,642.3037309393764,100.0,1.2680663703277542,0.1,0.0061740875244140625,0.1300950050354004,0.049570806,0.06892446,1712.0569702285031,0.8180889690206921,34.31095838847358,100.0,4227,0.5337123870849609,0.013920467713964345,0.012783729719276255,1102622,1601.134662155661,100.0
334,3.129307746887207,1729.902230625564,167.17757761743331,2046.5530946273254,1209.9272713693374,100.0,1.3013076702310913,0.1,0.005848407745361328,0.13149499893188477,0.049095634,0.072897606,1713.8414962682093,0.8197407094446253,34.600229644054444,100.0,4269,0.5292813777923584,0.011926898087588242,0.011519903250392063,1106891,1461.8721845213847,100.0
