iteration,time_sampling,stoc_pol_mean,stoc_pol_std,stoc_pol_max,stoc_pol_min,rollout_success,alpha,delta,time_vpg,time_npg,kl_dist,surr_improvement,running_score,rwd_sparse,rwd_dense,success_percentage,num_samples,time_VF,VF_error_before,VF_error_after,env_samples,eval_score,eval_success
0,1.3434336185455322,0.2162066674165921,0.009621817070042645,0.2308987225478305,0.20595946381657335,0.0,0.1623926842679328,0.1,0.053122758865356445,0.06336307525634766,0.05606203,1.7933022,0.2162066674165921,0.0,0.0030894204334256715,0.0,300,0.08598518371582031,1.3336661419731406,0.523712176623264,300,0.20720165866813298,0.0
1,1.2990198135375977,0.22455050763558795,0.02191744798985118,0.26233877829371455,0.20925128831115053,0.0,0.14952944041312846,0.1,0.003926753997802734,0.06418538093566895,0.04953709,1.9742281,0.2170410514384917,0.0,0.003209967621474484,0.0,300,0.04439091682434082,0.559163160740225,0.3023423959715314,600,0.21064256484113444,0.0
2,1.2995965480804443,0.21587045921063572,0.013845606416940735,0.23517265330949866,0.19612485932175858,0.0,0.1543453273230136,0.1,0.0031294822692871094,0.0607755184173584,0.055657,2.924113,0.21692399221570613,0.0,0.0030887792686523923,0.0,300,0.022170066833496094,0.33017419565853856,0.28383506117464735,900,0.21379295345717594,0.0
3,1.3539059162139893,0.22429013545317425,0.021588294125426507,0.250194333121858,0.19634489835801056,0.0,0.15243572254205712,0.1,0.011651277542114258,0.06985712051391602,0.05193332,2.345941,0.21766060653945296,0.0,0.0032068924612320138,0.0,300,0.030949115753173828,0.2782895204550135,0.24810175320743522,1200,0.21397572243641913,0.0
4,1.3515880107879639,0.23863400634348964,0.024570544663991074,0.2712377434374211,0.20386853994528348,0.0,0.14146347468961107,0.1,0.005122661590576172,0.061933040618896484,0.052810654,2.9143183,0.21975794651985664,0.0,0.003386109121602532,0.0,300,0.038924455642700195,0.2781634528731787,0.20651939112831838,1500,0.2162173992654743,0.0
5,1.3258607387542725,0.22503033617931986,0.011375566258393583,0.2387133141595383,0.20784244767538562,0.0,0.13435662930628053,0.1,0.003123760223388672,0.06076645851135254,0.05354984,34.541153,0.22028518548580298,0.0,0.0032157762492475983,0.0,300,0.0635373592376709,0.20833972665454703,0.16448643733082988,1800,0.211942641678023,0.0
6,1.3818538188934326,0.2358803774848866,0.050793826602390395,0.32373913137732113,0.2022872251930672,0.0,0.15080404536828906,0.1,0.003312349319458008,0.06406569480895996,0.048514824,1.9843491,0.22184470468571135,0.0,0.0033296458653182346,0.0,300,0.03900313377380371,0.2932338956085972,0.26626067250364854,2100,0.23106801359134357,0.0
7,1.3798272609710693,0.21012242370703357,0.010445987861131914,0.2280620280781127,0.20226313112951422,0.0,0.12605501231381347,0.1,0.004662990570068359,0.05897879600524902,0.04600101,20.72427,0.22067247658784356,0.0,0.003005418601815996,0.0,300,0.042575836181640625,0.19739786691800415,0.16619375697137237,2400,0.23428888840819892,0.0
8,1.5759470462799072,0.2282525502026937,0.02791414538818419,0.2737613629190141,0.20076296501837002,0.0,0.14887203764023024,0.1,0.003422975540161133,0.060230255126953125,0.052678403,3.75782,0.22143048394932857,0.0,0.0032495796068904297,0.0,300,0.0592648983001709,0.20589870752267295,0.18998253642601426,2700,0.22961050537331842,0.0
9,1.3026318550109863,0.2424562975487225,0.016830656863591125,0.26992339466546134,0.22806849336199747,0.0,0.13494386147674234,0.1,0.003072023391723633,0.05888724327087402,0.05193952,10.897109,0.22353306530926798,0.0,0.0034452662260477445,0.0,300,0.041216135025024414,0.1843390044156206,0.16831733998077805,3000,0.23461704247286652,0.0
10,1.376044750213623,0.2438365141933247,0.044521695734895825,0.3170628452071651,0.20209853338440795,0.0,0.13698331681787218,0.1,0.0030808448791503906,0.06122612953186035,0.052384216,10.810417,0.22556341019767365,0.0,0.0034593654298213632,0.0,300,0.032065629959106445,0.2635265845281744,0.2101883430672388,3300,0.2097262604361242,0.0
11,1.4138720035552979,0.23373250275592194,0.026133830985034398,0.27378110193609834,0.2043407179981021,0.0,0.14540850526926014,0.1,0.004750728607177734,0.05988049507141113,0.05131211,22.072027,0.22638031945349849,0.0,0.0033264570188045214,0.0,300,0.039252281188964844,0.13851319682627627,0.1266100739315008,3600,0.23309159304790758,0.0
12,1.4123847484588623,0.2443920361408781,0.03207035980410981,0.29650060761516595,0.2089811363180979,0.0,0.1547176107614689,0.1,0.003274202346801758,0.06143546104431152,0.048613302,5.7077994,0.22818149112223643,0.0,0.0034503500158559997,0.0,300,0.06262922286987305,0.23926058008284296,0.2231191068605102,3900,0.23474941418679177,0.0
13,1.5245614051818848,0.248115447611297,0.0461052394868556,0.32740301311163456,0.2137160896997565,0.0,0.14436213997843647,0.1,0.0033278465270996094,0.059496402740478516,0.05047877,5.537764,0.2301748867711425,0.0,0.00351969767660303,0.0,300,0.026753902435302734,0.25103854745715204,0.22100586754961288,4200,0.25577264659855153,0.0
14,1.5401384830474854,0.2787354423120809,0.059756358227759085,0.3771575738544918,0.21579710092761517,0.0,0.15877689383148505,0.1,0.003532886505126953,0.06722521781921387,0.049873058,1.983929,0.23503094232523636,0.0,0.003919956405024686,0.0,300,0.04036068916320801,0.3158252525137695,0.23983179772453966,4500,0.29237487772888043,0.0
15,1.3817105293273926,0.2674519808070386,0.04327591945416933,0.3391109741976388,0.22322159229175859,0.0,0.14468990349703983,0.1,0.0031397342681884766,0.06504201889038086,0.05012523,7.9167104,0.23827304617341657,0.0,0.0037789260908417496,0.0,300,0.04685688018798828,0.21468918767999567,0.20786028871178505,4800,0.3208336578066139,0.0
16,1.5626513957977295,0.2970574940258407,0.04959928739044146,0.37405797831419446,0.2376036887215588,0.0,0.1543320391991608,0.1,0.0453188419342041,0.06066250801086426,0.049615964,3.5417032,0.244151490958659,0.0,0.004168138997932217,0.0,300,0.02535271644592285,0.16781119810198358,0.1457600194633728,5100,0.3714286526821479,0.0
17,1.374176025390625,0.3281315816942051,0.09608142781063818,0.48639546637294206,0.2357033604094791,0.0,0.1610413433518959,0.1,0.0033216476440429688,0.06676745414733887,0.050224274,1.4786847,0.2525495000322136,0.0,0.0045689146239179775,0.0,300,0.03184151649475098,0.3000222406460116,0.25139902893740346,5400,0.3173734371469973,0.0
18,1.3957993984222412,0.2988303053495983,0.056033383041242744,0.3527010207513503,0.2100900237178034,0.0,0.15347979373623138,0.1,0.004970073699951172,0.06601762771606445,0.051316682,1.9928241,0.25717758056395207,0.0,0.004181712480007321,0.0,300,0.031270503997802734,0.2465258043964387,0.19297786877478765,5700,0.32012748454376194,0.0
19,1.5196692943572998,0.3745691283106023,0.14284166132896822,0.6042819150720826,0.2277981831189804,0.0,0.1509504908535643,0.1,0.003333568572998047,0.06074881553649902,0.051697046,1.9139081,0.2689167353386171,0.0,0.005207866799151886,0.0,300,0.06477856636047363,0.46489204143521823,0.2913748957600031,6000,0.33244800894225884,0.0
20,1.406611680984497,0.3226488178003834,0.12209322564371315,0.5326244673290835,0.23260322759671226,0.0,0.15919397851115955,0.1,0.0032062530517578125,0.07772421836853027,0.049829606,1.480488,0.27428994358479375,0.0,0.004493135251230825,0.0,300,0.03914141654968262,0.5702099003675877,0.3667143389680267,6300,0.335828570220672,0.0
21,1.45880126953125,0.3148612901805744,0.051466130615195844,0.3631302136043288,0.23077025607816357,0.0,0.15421467264347008,0.1,0.0031087398529052734,0.06069016456604004,0.048951693,1.8453943,0.2783470782443718,0.0,0.0043738819443638575,0.0,300,0.06097555160522461,0.10815321056214247,0.2044693144694524,6600,0.3231600234946629,0.0
22,1.3908331394195557,0.3420796144609186,0.10905552787962444,0.48214902783760616,0.22916606715493035,0.0,0.15713750072819876,0.1,0.003169536590576172,0.0617680549621582,0.05044758,3.1630826,0.28472033186602647,0.0,0.004766651989455411,0.0,300,0.02768230438232422,0.38134299683254513,0.2748841577093465,6900,0.3698133644933547,0.0
23,1.4335947036743164,0.30550936861686756,0.06428153966183521,0.414189426717208,0.24649462830111554,0.0,0.16368859652149548,0.1,0.0030121803283691406,0.05870628356933594,0.05150109,1.3363706,0.2867992355411106,0.0,0.004290116589348793,0.0,300,0.03398561477661133,0.20825386016830902,0.24018799801508095,7200,0.41281608960105426,0.0
24,1.4632108211517334,0.3960195794581793,0.13150188519790373,0.5861290220618489,0.2685768555341814,0.0,0.15078223461475462,0.1,0.005432844161987305,0.07321357727050781,0.04953001,1.9508816,0.2977212699328175,0.0,0.0054859111109639425,0.0,300,0.049073219299316406,0.30359238490562807,0.24826614130162586,7500,0.3722476324983748,0.0
25,1.4096293449401855,0.2853798880603492,0.02672086502523191,0.3124552372461887,0.24314339061098708,0.0,0.16749548157608193,0.1,0.0029451847076416016,0.06307482719421387,0.04895321,1.4128636,0.2964871317455707,0.0,0.0040176185628278726,0.0,300,0.028035640716552734,0.5371492973288702,0.17640001263304586,7800,0.360646922934659,0.0
26,1.5352997779846191,0.32342971762836115,0.07813174223762745,0.442208138450787,0.25154059261506934,0.0,0.16182593415659613,0.1,0.0051403045654296875,0.0766301155090332,0.048908073,0.8611928,0.2991813903338497,0.0,0.004507435274486314,0.0,300,0.02621006965637207,0.21326564199660922,0.23321503161291127,8100,0.49194773024632005,0.0
27,1.567434549331665,0.3713465686530875,0.08125269930735184,0.4921814115202836,0.26317479072760724,0.0,0.16827441969378198,0.1,0.0032205581665039062,0.06160378456115723,0.050619308,0.989953,0.3063979081657735,0.0,0.005112912443259323,0.0,300,0.08972549438476562,0.30402391922356153,0.18018294961231604,8400,0.3091948712755462,0.0
28,1.552316665649414,0.36165211819746024,0.10692531717230731,0.5319505915482238,0.2603507191741829,0.0,0.1495057319233017,0.1,0.003184080123901367,0.059993743896484375,0.0501625,4.5850024,0.31192332916894216,0.0,0.00502799586116876,0.0,300,0.026690959930419922,0.284020234835127,0.27930088981567885,8700,0.45155705442896305,0.0
29,1.4135680198669434,0.40916226173164416,0.15045333280315776,0.6536599634966896,0.27195236209031204,0.0,0.16159630992569288,0.1,0.00554203987121582,1.3760182857513428,0.051089283,1.4671495,0.3216472224252124,0.0,0.005651119288500321,0.0,300,0.04948735237121582,0.34215865430791964,0.2992825343221223,9000,0.36960440861421695,0.0
30,1.4244611263275146,0.46339343507994246,0.153402310451023,0.721750803055829,0.31882196303253907,0.0,0.16415263421135043,0.1,0.06228065490722656,0.06120944023132324,0.050310925,1.3856611,0.3358218436906854,0.0,0.0063809380860931205,0.0,300,0.03345060348510742,0.30093896138084164,0.21643155232564323,9300,0.4197710612684508,0.0
31,1.433976650238037,0.35786726508451816,0.03057419018816859,0.4039079732789421,0.3185622392208434,0.0,0.17142027489751782,0.1,0.005285501480102539,0.06430578231811523,0.050123595,0.88067883,0.3380263858300687,0.0,0.004984892368233191,0.0,300,0.03575706481933594,0.4365469674910939,0.14745174822540427,9600,0.4894221947332953,0.0
32,1.445723295211792,0.35298471774108825,0.06821314741675837,0.46474369658148384,0.28046950418091154,0.0,0.16760003979072485,0.1,0.0031232833862304688,0.29276347160339355,0.05053648,0.66296,0.3395222190211707,0.0,0.004891380243361872,0.0,300,0.036315202713012695,0.26632117111015796,0.21536116737310504,9900,0.5157164765196968,0.0
33,1.4955651760101318,0.5440113746803246,0.20841031329013265,0.8994904758926073,0.3907795636131118,0.0,0.1463481047309885,0.1,0.0031044483184814453,0.06891870498657227,0.051424406,2.0804338,0.3599711345870861,0.0,0.007444285938112493,0.0,300,0.03965878486633301,0.5111107713221236,0.3186212350075298,10200,0.400517284534333,0.0
34,1.5133366584777832,0.44901092403501675,0.13523803682408359,0.6437180454271657,0.2821398388883957,0.0,0.155149137712214,0.1,0.003184080123901367,0.06301712989807129,0.04954006,1.104274,0.3688751135318792,0.0,0.006189088830144712,0.0,300,0.022104978561401367,0.2373337959878761,0.24888295811568664,10500,0.49479242722890215,0.0
35,1.461033821105957,0.4763666687277197,0.17664192504668577,0.7762911365479886,0.32403514434731484,0.0,0.16440918868988869,0.1,0.0034003257751464844,0.07402181625366211,0.049832728,1.5595804,0.37962426905146324,0.0,0.006537520275369345,0.0,300,0.03286123275756836,0.2677337780741924,0.20803963568445444,10800,0.4774366599258497,0.0
36,1.4634675979614258,0.43080731210094164,0.19831440311797396,0.7548108121672904,0.21558904460077985,0.0,0.1640436191999469,0.1,0.0030565261840820312,0.06505799293518066,0.04968931,1.7119339,0.38474257335641104,0.0,0.0059384684868460085,0.0,300,0.035926103591918945,0.36440153024515703,0.35547685129032297,11100,0.745210688631411,0.0
37,1.5379104614257812,0.4203013340287992,0.09553119111304732,0.5848951024813792,0.35168860775795313,0.0,0.1585659815541697,0.1,0.0031321048736572266,0.06035661697387695,0.050296947,1.0958394,0.3882984494236499,0.0,0.005795919125056416,0.0,300,0.029172897338867188,0.2020623086542974,0.19503613703079392,11400,0.51380396024893,0.0
38,1.4774830341339111,0.552525203093585,0.2344438622770822,0.9233695305752112,0.3137267209739396,0.0,0.15699629271177998,0.1,0.002955198287963867,0.0689840316772461,0.049780693,1.8248562,0.4047211247906434,0.0,0.007577009363781494,0.0,300,0.04642677307128906,0.3821915566474037,0.27965457917077163,11700,0.7049538173278996,0.0
39,1.515868902206421,0.5227830658056623,0.2808530604446867,0.9906817037216079,0.24352376587917351,0.0,0.15950870767321806,0.1,0.003293752670288086,0.06169581413269043,0.048104644,1.1539056,0.41652731889214534,0.0,0.007147005838288686,0.0,300,0.045627593994140625,0.3705684913985201,0.3910515203768193,12000,0.47414462587397765,0.0
40,1.4741394519805908,6.332421802604229,9.927815437213606,23.52721605908995,0.4668716032662555,0.0,0.14879890985399186,0.1,0.0035774707794189453,0.0610966682434082,0.048878867,6.4205303,1.0081167672633538,0.0,0.08462922183061856,0.0,300,0.02731156349182129,0.9712273457761954,0.9182180896820156,12300,0.43779621686766773,0.0
41,1.5078222751617432,0.696873338874856,0.47388025046605403,1.5127010904427889,0.34538911897636587,0.0,0.1590606759361229,0.1,0.003050088882446289,0.0609438419342041,0.0499453,1.4959677,0.976992424424504,0.0,0.009493341195833336,0.0,300,0.021162986755371094,1.5812900080797243,4.5017787697346625,12600,0.6594758780523653,0.0
42,1.5586800575256348,0.40556289324431216,0.0805301950924705,0.48415730171995547,0.27543613054051613,0.0,0.16492950498747855,0.1,0.003012418746948242,0.06885099411010742,0.050393347,2.7841208,0.9198494713064848,0.0,0.005613359642036819,0.0,300,0.047161102294921875,44.732468550279606,22.81795372813032,12900,0.5410743575033569,0.0
43,1.4955229759216309,0.5643691555988479,0.22031310915274738,0.9433643862381375,0.4052391715194865,0.0,0.16766244290545854,0.1,0.0029909610748291016,0.05987977981567383,0.050192386,1.3685486,0.8843014397357212,0.0,0.007729408763799869,0.0,300,0.04271817207336426,6.458319566080356,1.9505301296514845,13200,0.4886890664695895,0.0
44,1.4662792682647705,0.41858653103317095,0.08914663911343622,0.5131086510960889,0.29390115635274144,0.0,0.1653463223591496,0.1,0.00492548942565918,0.06089138984680176,0.049388714,1.5825566,0.8377299488654661,0.0,0.005789630019473978,0.0,300,0.03430938720703125,6.503825493432766,1.6275257580756837,13500,0.5412982425478113,0.0
45,1.4573523998260498,0.42254655150978215,0.0792720118344105,0.5123390461585285,0.29822917853392866,0.0,0.16248722756940484,0.1,0.00546574592590332,0.05948662757873535,0.04974244,1.2172954,0.7962116091298979,0.0,0.0057983107265983744,0.0,300,0.06671452522277832,1.6218836912708932,0.22288931006029877,13800,0.46025453409979344,0.0
46,1.451434850692749,0.5048424939983056,0.19253689546786223,0.7224860100322986,0.2243866852329957,0.0,0.16459038878630008,0.1,0.0031626224517822266,0.059419870376586914,0.049492434,1.0620829,0.7670746976167386,0.0,0.006927876121188569,0.0,300,0.04342341423034668,0.35087999875717535,0.49475173704133246,14100,0.504249734469351,0.0
47,1.456035852432251,0.3986322552659881,0.12268186985563752,0.5434060897281392,0.24803733165470743,0.0,0.1681523769510686,0.1,0.007306814193725586,0.06252217292785645,0.050204113,0.9820588,0.7302304533816636,0.0,0.005519317638003405,0.0,300,0.03682279586791992,0.3037725196627947,0.31837931060206004,14400,0.6158715324607559,0.0
48,1.5447733402252197,0.5493680321589443,0.3112638968927369,1.074002082028482,0.25922339256897065,0.0,0.16870097835622516,0.1,0.00588226318359375,0.061426639556884766,0.049594767,1.1269715,0.7121442112593916,0.0,0.007523729912763598,0.0,300,0.026744365692138672,0.6327551760848577,0.5391528966577774,14700,0.6157906464250312,0.0
49,1.491605281829834,0.46342410021014324,0.08737193197318938,0.5583906706504442,0.3470998698545189,0.0,0.16937669405521288,0.1,0.0032045841217041016,0.059090614318847656,0.049323525,1.040145,0.6872722001544669,0.0,0.006358975202387315,0.0,300,0.02898573875427246,0.21837308471000438,0.14961754823789336,15000,0.61197848506509,0.0
50,1.4818882942199707,0.738952114212092,0.573045667119316,1.6923615558041571,0.2874799516161703,0.0,0.1548442465930507,0.1,0.003152608871459961,0.05924582481384277,0.04971766,1.3254017,0.6924401915602294,0.0,0.010030826508888277,0.0,300,0.028652191162109375,0.6504355723325265,0.5878408468557625,15300,0.4864439085357333,0.0
51,1.4776930809020996,0.4363818447769479,0.16457060645679022,0.7049071741031638,0.2606521209802541,0.0,0.1602497044325866,0.1,0.012302160263061523,0.07035207748413086,0.049714666,1.5664575,0.6668343568819013,0.0,0.005970879051540609,0.0,300,0.059462785720825195,0.440458557674559,0.5078437196609858,15600,0.43268200457681344,0.0
52,1.8059732913970947,0.5074290054955726,0.20246057633219716,0.8402834187943147,0.3374009748721395,0.0,0.15577544626649822,0.1,0.003329753875732422,0.060646772384643555,0.049708728,1.4525781,0.6508938217432684,0.0,0.0069442544557961365,0.0,300,0.023072481155395508,0.33856215489170327,0.30678542690992433,15900,0.5361147211213569,0.0
53,1.5218093395233154,0.5652301714803493,0.16504902015081704,0.7632343536940865,0.35651776300810517,0.0,0.15616721625361074,0.1,0.00471043586730957,0.05937933921813965,0.049465545,2.8476517,0.6423274567169766,0.0,0.00771878964405235,0.0,300,0.01930546760559082,0.19570612744963195,0.17803039811454385,16200,0.5495775198742823,0.0
54,1.5248608589172363,0.648898365568493,0.20266377982337175,0.8509539361732861,0.4139068260765381,0.0,0.148354445935086,0.1,0.0031638145446777344,0.06081366539001465,0.048900966,2.5837672,0.6429845476021282,0.0,0.008842660013683454,0.0,300,0.028129100799560547,0.2528102417989578,0.23636803629612876,16500,0.44836260634179964,0.0
55,1.5925986766815186,0.6032272525580602,0.2474484649936375,0.9496061082808294,0.26184113029569267,0.0,0.15312610268787122,0.1,0.00517582893371582,0.06634712219238281,0.04943036,1.2921548,0.6390088180977215,0.0,0.008253995200895873,0.0,300,0.06641912460327148,0.28700851273692596,0.27019551018863486,16800,0.7310316315360955,0.0
56,1.5198442935943604,0.4770984289786167,0.11393632094707191,0.5857387884535057,0.31449033678231086,0.0,0.15406067445357244,0.1,0.003139019012451172,0.06054806709289551,0.049810655,0.7796709,0.6228177791858109,0.0,0.00655980093618299,0.0,300,0.022220611572265625,0.15759184871581702,0.15983192528521958,17100,0.6712992281785156,0.0
57,1.5300474166870117,0.42535084980105986,0.10348282993993768,0.5747076531676776,0.31027644665552184,0.0,0.16318148544356995,0.1,0.0031816959381103516,0.06034731864929199,0.050160777,1.1634624,0.6030710862473359,0.0,0.0058549346592893965,0.0,300,0.02847456932067871,0.3800008279019774,0.2896117655607353,17400,0.7914107994476162,0.0
58,1.571232557296753,0.47022268107404597,0.1341049620935567,0.6329986093135919,0.2612538220194406,0.0,0.14840947543270855,0.1,0.0040128231048583984,0.06082463264465332,0.048766512,2.30783,0.5897862457300069,0.0,0.006447341598959594,0.0,300,0.018122196197509766,0.21115001449022933,0.20107158375336054,17700,0.68380482050853,0.0
59,1.5198380947113037,0.665042867695698,0.22618940632650822,1.0347794410924882,0.43088276108660406,0.0,0.15407520936992494,0.1,0.0030603408813476562,0.0649254322052002,0.04994837,1.2530006,0.5973119079265761,0.0,0.009059754045463527,0.0,300,0.04192852973937988,0.33459850793633206,0.28417403408304526,18000,0.6873744340212141,0.0
60,1.5606956481933594,0.4521290838673465,0.23375806342609548,0.8560108357853133,0.2968987749872168,0.0,0.15226366843833955,0.1,0.0031707286834716797,0.060659170150756836,0.049662247,1.3071151,0.5827936255206532,0.0,0.006187119110952833,0.0,300,0.021998167037963867,0.40074985127001994,0.42162534505354843,18300,0.7228635139726166,0.0
61,2.2580785751342773,0.8284822687056386,0.24007768943551736,1.1558001317466122,0.4863166073217621,0.0,0.17599040736633786,0.1,0.005990505218505859,0.07821798324584961,0.04959061,1.0210459,0.6073624898391516,0.0,0.011260045556435457,0.0,300,0.06304049491882324,0.3440783102135656,0.29834087551648786,18600,1.1944428082444403,0.0
62,1.5524044036865234,0.6566256971835314,0.3423248366229843,1.2407389590329958,0.38006029963460836,0.0,0.1632583371402196,0.1,0.009435176849365234,0.06493306159973145,0.049873672,1.5591931,0.6122888105735896,0.0,0.00890797385143765,0.0,300,0.07373189926147461,0.4012454991784707,0.40025143510387595,18900,1.2229498621065795,0.0
63,1.5371387004852295,0.4206617125017706,0.06108533596222051,0.4820642097456499,0.3475141137835843,0.0,0.15722300166367387,0.1,0.0032553672790527344,0.061217308044433594,0.04963541,6.8768954,0.5931261007664078,0.0,0.005819763462621214,0.0,300,0.01784515380859375,0.635860561585407,0.5427866858739933,19200,0.8927036984858266,0.0
64,1.464259147644043,0.5638299586394276,0.09203653418874408,0.6723370079437474,0.43159049065731575,0.0,0.17276820985390057,0.1,0.0034027099609375,0.06112813949584961,0.04905221,0.83498174,0.5901964865537098,0.0,0.007697951811703631,0.0,300,0.02883744239807129,0.1447686641948357,0.14825422238809874,19500,0.5156703146522386,0.0
65,1.4813916683197021,0.8831330934081569,0.35513621753181623,1.3875558719415715,0.5487915255254001,0.0,0.14706896124946398,0.1,0.0033464431762695312,0.05957198143005371,0.049533922,2.3434365,0.6194901472391545,0.0,0.011989350060424264,0.0,300,0.055947065353393555,0.33897829277782293,0.3274042884232242,19800,1.3736097981370243,0.0
66,1.4859557151794434,0.6387703095825414,0.19283687807366617,0.9709008221480582,0.4953085147253163,0.0,0.1476305627516786,0.1,0.003027200698852539,0.05907940864562988,0.049410056,2.6260457,0.6214181634734932,0.0,0.008727206049813448,0.0,300,0.020072460174560547,0.16331551431248073,0.15884219734489077,20100,0.5079951538143518,0.0
67,1.5019915103912354,0.578942877555028,0.21616454839026097,0.8777767228767739,0.2791716575330544,0.0,0.1596380046831047,0.1,0.0052525997161865234,0.06460690498352051,0.04982008,1.2521993,0.6171706348816467,0.0,0.00792690679374766,0.0,300,0.07289767265319824,0.21355666495205403,0.20960080726678507,20400,0.4821877632183886,0.0
68,1.5470731258392334,0.7160551432819982,0.14539624175885438,0.9090691928933629,0.5598360914693078,0.0,0.16513027761032864,0.1,0.0032982826232910156,0.0634620189666748,0.049773335,1.070283,0.6270590857216819,0.0,0.00975342338712541,0.0,300,0.18920469284057617,0.1205943257985548,0.11022038832525734,20700,0.9530144893452644,0.0
69,1.51607084274292,0.5601177916883018,0.21513736707329692,0.9128622193989785,0.3346591679645486,0.0,0.1521067090140485,0.1,0.08655309677124023,0.35447025299072266,0.050159078,1.675949,0.6203649563183439,0.0,0.007684037182772397,0.0,300,0.03516578674316406,0.27513021863155834,0.2767690079619709,21000,0.6038778159858216,0.0
70,1.5169885158538818,0.4336512389496746,0.11134534534796602,0.5633791684455369,0.2980023637079839,0.0,0.15576834503570658,0.1,0.0033371448516845703,0.06129169464111328,0.04959262,0.6643703,0.601693584581477,0.0,0.0059905346183848455,0.0,300,0.03702402114868164,0.6069618995100399,0.4801245943967847,21300,1.2624335990157598,0.0
71,1.5295097827911377,0.6498183430577233,0.2276831754349716,1.0425872625540806,0.4911457675007373,0.0,0.14913424142379128,0.1,0.0032203197479248047,0.05899643898010254,0.049480885,1.6483984,0.6065060604291017,0.0,0.008860245206976671,0.0,300,0.02167963981628418,0.18778327645574577,0.19244802252008614,21600,1.2428305689453807,0.0
72,1.5929243564605713,6.068698417001507,9.165785583430948,21.935532598183837,0.4896008358666016,0.0,0.18177097935554476,0.1,0.00307464599609375,0.05963897705078125,0.052215274,1.0572941,1.1527252960863423,0.0,0.07779714516751464,0.0,300,0.02557969093322754,0.9707674753582376,0.9333042791356561,21900,1.4860555395697264,0.0
73,1.5594253540039062,0.5479897806584708,0.21712267238396116,0.9148118649540129,0.3587896349558669,0.0,0.16180225606234858,0.1,0.003301382064819336,0.06281518936157227,0.04968529,1.4543741,1.0922517445435553,0.0,0.007499767849301425,0.0,300,0.03217673301696777,1.5544315361147378,5.831271062460576,22200,0.6557359565890967,0.0
74,1.5689060688018799,1.0111980923977633,0.184739901166595,1.3168506939000786,0.8202069427418127,0.0,0.15793628916892016,0.1,0.003076791763305664,0.06827640533447266,0.050482415,1.2617671,1.084146379328976,0.0,0.01369818180281074,0.0,300,0.02884387969970703,0.776623984816705,0.8975384108272517,22500,0.9312462384514862,0.0
75,1.5920851230621338,0.601215103424323,0.2503375520596786,1.0319975574447628,0.41126684927563,0.0,0.16311238783300128,0.1,0.003289937973022461,0.06058382987976074,0.049418714,1.4981198,1.0358532517385108,0.0,0.008045663785427919,0.0,300,0.03181934356689453,5.019601990025646,3.1361917160644506,22800,0.9027271167279234,0.0
76,1.6058731079101562,0.8449616368714513,0.4098312748247082,1.474245422877102,0.33846529055452973,0.0,0.16258974425120765,0.1,0.003357410430908203,0.07226681709289551,0.049596064,1.3845931,1.016764090251805,0.0,0.011445812143718854,0.0,300,0.037953853607177734,0.9725866379530435,0.5163427151097835,23100,0.8138520345428453,0.0
77,1.6488347053527832,0.6530521391923274,0.4275485236053606,1.297464886289776,0.20781642718055954,0.0,0.15425167367498863,0.1,0.005373954772949219,0.06535100936889648,0.049514633,1.9379307,0.9803928951458571,0.0,0.008924897192506696,0.0,300,0.06415820121765137,1.1653413293708843,0.587041016048267,23400,21.960192688576004,0.0
78,1.5513768196105957,0.6762932659665933,0.46797254417251166,1.4762943271383464,0.3126032952209079,0.0,0.14683875710597016,0.1,0.005143165588378906,0.06108713150024414,0.049753834,1.9612291,0.9499829322279307,0.0,0.009226028123714414,0.0,300,0.05446648597717285,0.5642690429520231,0.4806144053865637,23700,0.9977471611119699,0.0
79,1.5749804973602295,0.7196511353428091,0.19650682022909263,0.967124574364941,0.4833443245925545,0.0,0.16594119908054322,0.1,0.0033783912658691406,0.0637807846069336,0.04986234,1.1264536,0.9269497525394186,0.0,0.009806973147415727,0.0,300,0.03242659568786621,0.2647954844287935,0.30255569596043896,24000,1.3105079301619773,0.0
80,1.4902820587158203,0.8048680247206731,0.5521385086398629,1.759370300370204,0.4320732318119355,0.0,0.14659504204587925,0.1,0.0033864974975585938,0.061229705810546875,0.049063206,2.5456827,0.914741579757544,0.0,0.010943937858835675,0.0,300,0.02994084358215332,0.5048324236692749,0.46414155374790567,24300,0.6353914025696017,0.0
81,1.510495901107788,0.6065289124812727,0.18571283229284286,0.9049959143688515,0.3964808251036277,0.0,0.17011935517627236,0.1,0.0032143592834472656,0.05957984924316406,0.050125554,0.8855715,0.8839203130299168,0.0,0.008259333308952902,0.0,300,0.01982736587524414,0.23153735555793642,0.2392555678939953,24600,0.7797409788189915,0.0
82,1.5903637409210205,0.7785824131750523,0.6004288334673283,1.812316970100471,0.33000498925725086,0.0,0.14865930548067902,0.1,0.03231644630432129,0.06986665725708008,0.049695056,2.2152357,0.8733865230444304,0.0,0.01058941215756533,0.0,300,0.044267892837524414,0.4736605518568665,0.459536197753797,24900,0.6308956402556005,0.0
83,1.519773244857788,0.7821854872780734,0.3165514435319865,1.1087043600419135,0.4434930258859083,0.0,0.14974374990207637,0.1,0.0032482147216796875,0.061350345611572266,0.049671125,1.2315338,0.8642664194677947,0.0,0.010626039532554917,0.0,300,0.026781082153320312,0.23451878427005005,0.21334750965719856,25200,0.7790275927178042,0.0
84,1.5355055332183838,1.278586513732426,0.47166179869992847,1.8781375443717174,0.7250142516905124,0.0,0.15083461923900882,0.1,0.023995637893676758,0.07409787178039551,0.049669653,1.8024225,0.9056984288942579,0.0,0.017257448564693745,0.0,300,0.024509191513061523,0.3672611611024878,0.27498177281940533,25500,1.392034881089814,0.0
85,1.5683701038360596,5.141168030269769,7.915428731356046,18.846107420712645,0.25323539810980783,0.0,0.16350087157514903,0.1,0.0032851696014404297,0.06458473205566406,0.049569964,1.314454,1.329245389031809,0.0,0.06539302498942051,0.0,300,0.05442070960998535,0.9474847600400854,0.9016770244585537,25800,0.8123478777513747,0.0
86,1.5258283615112305,0.5691481236210918,0.2174644083571716,0.915075017961055,0.33431103980182003,0.0,0.15898042958858563,0.1,0.0031778812408447266,0.07128715515136719,0.050111517,1.8575454,1.2532356624907375,0.0,0.007776014507998377,0.0,300,0.03253912925720215,4.845063021976075,10.389392839650617,26100,19.086243402191368,0.0
87,1.5423288345336914,0.9275228021389142,0.557257606746731,1.8924951164827148,0.5870132318402009,0.0,0.15601067712587927,0.1,0.007242918014526367,0.06858205795288086,0.05029881,1.744728,1.2206643764555551,0.0,0.012574377509461816,0.0,300,0.03958582878112793,1.967918143735879,1.4348084342695093,26400,0.7977001550127198,0.0
88,1.539945363998413,1.0749173243316228,0.4614829640622569,1.7388607395697868,0.5003390175945739,0.0,0.15271704274882822,0.1,0.0031762123107910156,0.06331729888916016,0.050114267,1.5125493,1.206089671243162,0.0,0.014419215072812302,0.0,300,0.027366161346435547,0.7895494608299866,0.4299507144653671,26700,0.8719952070316257,0.0
89,1.5711283683776855,8.33562598998292,13.164020911051594,31.133794815558453,0.5209469837567192,0.0,0.18063175338541063,0.1,0.003664731979370117,0.061916351318359375,0.04981642,1.0260102,1.9190433031171379,0.0,0.10801533847688868,0.0,300,0.09294581413269043,0.9326629110982916,0.889245129167914,27000,1.6989920876115019,0.0
90,1.5907056331634521,0.9410501630703947,0.5779293223707936,1.9014973955206373,0.3905204975501438,0.0,0.15732849827650194,0.1,0.0029990673065185547,0.058983802795410156,0.05003952,1.4219842,1.8212439891124634,0.0,0.012753716414553843,0.0,300,0.03759574890136719,2.7159544291357016,6.501909253068676,27300,0.8424789515336054,0.0
91,1.6203558444976807,0.39231310525258156,0.117779781869866,0.593542551646983,0.29804897188970453,0.0,0.14679562873587063,0.1,0.003107309341430664,0.060292720794677734,0.049852382,5.5770154,1.6783509007264754,0.0,0.005400402221547906,0.0,300,0.050445556640625,98.45973473067706,63.806357370216695,27600,1.5797974109750859,0.0
92,1.6974494457244873,0.722196880014759,0.5017632174412954,1.5782397647941901,0.32168850116671094,0.0,0.16122302701823965,0.1,0.0056192874908447266,0.08215451240539551,0.049849376,1.3242745,1.5827354986553037,0.0,0.009777912793885917,0.0,300,0.04030418395996094,7.674485302596256,3.063966573562884,27900,0.8251987617038918,0.0
93,1.5316767692565918,1.0158245726478539,0.47748773080414825,1.506612256486302,0.23354043086952214,0.0,0.16128614903698374,0.1,0.0032863616943359375,0.06009387969970703,0.050138526,0.9519928,1.5260444060545588,0.0,0.013754603164972784,0.0,300,0.03799104690551758,1.1932942806853897,0.4403230344469182,28200,20.083324157891436,0.0
94,1.5606849193572998,6.208461818963935,8.96568240162744,21.72372023422653,0.557045881052522,0.0,0.16057552699054028,0.1,0.008186578750610352,0.06119966506958008,0.04986126,1.4695972,1.9942861473454965,0.0,0.07966220970331582,0.0,300,0.029643774032592773,0.9058234120122624,0.8850860323405207,28500,1.413893135230176,0.0
95,1.6348607540130615,6.53620275339096,9.252650073346999,22.54982707554361,0.8161149673339962,0.0,0.18244074154003603,0.1,0.00543522834777832,0.0652000904083252,0.04944318,1.1053845,2.448477807950043,0.0,0.08402893020940123,0.0,300,0.025621652603149414,0.8813025143684273,0.8099152845459655,28800,0.8751312140808173,0.0
96,1.5698652267456055,11.388779702228607,9.6650155135489,24.18554950932477,1.9774198288699456,0.0,0.18679929959682476,0.1,0.0031795501708984375,0.06086134910583496,0.050003055,0.7238572,3.3425079973778997,0.0,0.14540045838905272,0.0,300,0.027280569076538086,0.7991270821349278,0.6233654648381398,29100,0.8343157613160751,0.0
97,1.6173815727233887,0.5796448119152421,0.18827543173073902,0.8437396355087808,0.3551701577144141,0.0,0.1648499604149127,0.1,0.005913972854614258,0.0666818618774414,0.04958357,1.3330325,3.066221678831634,0.0,0.007938284480700742,0.0,300,0.04181265830993652,121.78978387768171,188.09131363521408,29400,1.4758297805796758,0.0
98,1.6188409328460693,0.8844946482744599,0.43293974863258283,1.577203387826531,0.38368926845130236,0.0,0.16213158899259505,0.1,0.0036106109619140625,0.07180070877075195,0.049210187,1.0137901,2.848048975775917,0.0,0.011996596095844948,0.0,300,0.04937267303466797,49.80369558944359,22.33673746711832,29700,1.691531773381801,0.0
99,1.6137266159057617,8.761940804619469,12.384218544912237,30.19560683513089,0.8271426668137919,0.0,0.16736223080992457,0.1,0.0029587745666503906,0.06105160713195801,0.04947728,1.440582,3.439438158660272,0.0,0.11370260795570651,0.0,300,0.022477388381958008,0.7409669728881122,0.7486467345553335,30000,1.2988945887256766,0.0
100,1.685152530670166,7.295524992838665,11.1785176145117,26.64959707278379,0.5637197759026683,0.0,0.17577662474460726,0.1,0.003250598907470703,0.05982565879821777,0.049707513,1.4762299,3.8250468420781116,0.0,0.0974745795377772,0.0,300,0.026177406311035156,0.7880533839970304,0.7647000062486049,30300,0.7010229256777034,0.0
101,1.5697028636932373,0.8826176407259574,0.38014511365801856,1.1590130089421715,0.22705512085095045,0.0,0.16047290873022296,0.1,0.0036623477935791016,0.06474900245666504,0.049975514,0.7527871,3.530803921942896,0.0,0.011937226332617453,0.0,300,0.040679931640625,29.171988910972775,26.532327113579456,30600,21.0587099467667,0.0
102,1.6058018207550049,1.0271827534361615,0.5804443584008891,2.023268908950069,0.611117292099364,0.0,0.15224825184312624,0.1,0.0032393932342529297,0.06087946891784668,0.04986924,2.028281,3.280441805092223,0.0,0.013896921164926846,0.0,300,0.026188373565673828,15.247740336589892,8.589344658977568,30900,2.796508192071396,0.0
103,1.624535083770752,0.916384248837716,0.5746994434705761,1.8880268935552182,0.4863046607186388,0.0,0.1563715919969043,0.1,0.004835605621337891,0.05908536911010742,0.050126426,0.7039204,3.044036049466772,0.0,0.01241098486322655,0.0,300,0.05228996276855469,11.207956713825011,5.427823560784894,31200,1.5252224314080267,0.0
104,1.587472915649414,0.5025605149797084,0.22254343947595506,0.8142070548291446,0.2814026002477534,0.0,0.1512277182887057,0.1,0.003088712692260742,0.05944657325744629,0.049171392,0.5553597,2.789888496018066,0.0,0.006885601535229384,0.0,300,0.047086238861083984,31.24438167720181,15.527467614053238,31500,0.9251670966820705,0.0
105,1.6084880828857422,1.2044544175476575,1.221412178635102,3.2925243981171977,0.3216361673505579,0.0,0.15752627003619685,0.1,0.0030417442321777344,0.0606234073638916,0.04997594,0.82891095,2.631345088171025,0.0,0.016230684956133203,0.0,300,0.02109074592590332,0.7912114834038434,0.5482789313616357,31800,1.0429530770338646,0.0
106,1.6181788444519043,0.8559516572075206,0.2225540642829152,1.1809171287604578,0.5910927365354224,0.0,0.16337219151910506,0.1,0.0033147335052490234,0.06654238700866699,0.050164577,0.71128225,2.4538057450746744,0.0,0.011588866237715633,0.0,300,0.04859042167663574,1.4665709334781716,0.7020532696193458,32100,1.3085838886378796,0.0
107,1.6272122859954834,1.552770206357122,0.7836268516925736,2.369349362410679,0.5781527778740478,0.0,0.15872116601460884,0.1,0.0031278133392333984,0.062142372131347656,0.049655557,1.0407163,2.3637021912029192,0.0,0.020904781555611828,0.0,300,0.033606529235839844,0.24387915022478096,0.27715772604925304,32400,1.7618422701399805,0.0
108,1.5350611209869385,0.8137286890292013,0.30006156535949585,1.3287351858165404,0.5825314421742493,0.0,0.16245396044959734,0.1,0.004307746887207031,0.06193113327026367,0.04970662,0.5448459,2.208704840985548,0.0,0.010989659338912116,0.0,300,0.040673255920410156,0.6822210143579042,0.5430893105375044,32700,18.621356153990792,0.0
109,1.562621831893921,0.9095186409468773,0.47522578796576487,1.6901548710923036,0.5024933460874549,0.0,0.15542754961102406,0.1,0.0033698081970214844,0.06052994728088379,0.049686767,0.91490775,2.078786220981681,0.0,0.01231486214379598,0.0,300,0.05284285545349121,0.39085981778938317,0.3815831625109606,33000,0.8404035952003014,0.0
110,1.5757958889007568,8.321637590042963,11.006893432712813,27.357576220520738,1.0223206438910626,0.0,0.19188877048101013,0.1,0.0032045841217041016,0.0612034797668457,0.051791437,1.0481025,2.703071357887809,0.0,0.11117068293475568,0.0,300,0.03069329261779785,0.9392980761526397,0.8986373282888319,33300,1.7834219097639663,0.0
111,1.5760879516601562,8.034952783840222,12.39040354760338,29.492128803187985,0.5338124737580102,0.0,0.18958356401460585,0.1,0.003194093704223633,0.06103253364562988,0.050778512,1.2898387,3.2362595004830506,0.0,0.1072698096408784,0.0,300,0.1513512134552002,0.9215366618004154,0.8566121783186277,33600,3.0517782190698823,0.0
112,1.5801234245300293,10.004935744602715,15.841007362363152,37.433762180685534,0.4588309151297624,0.0,0.1851657353868587,0.1,0.004926204681396484,0.06176638603210449,0.05021389,1.3155638,3.9131271248950172,0.0,0.1302366704147439,0.0,300,0.0350039005279541,0.8463500417451524,0.7602114118530777,33900,0.6658398888709247,0.0
113,1.6188571453094482,0.9744559235008314,0.347323067456948,1.3644080720823781,0.4852410785182549,0.0,0.16178542810604127,0.1,0.003159046173095703,0.06072354316711426,0.050002202,0.64792824,3.6192600047555987,0.0,0.013091922568912498,0.0,300,0.048526763916015625,12.424995560166279,23.992297443765032,34200,1.1022019793306779,0.0
114,1.5926644802093506,8.525279618087445,13.448695825667638,31.814020489087294,0.37834961480812973,0.0,0.19383251564825993,0.1,0.003074169158935547,0.0600886344909668,0.052815292,1.1585852,4.109861966088784,0.0,0.1105018832395477,0.0,300,0.07243895530700684,0.7257512392315932,0.6956886321228226,34500,0.7223520764334639,0.0
115,1.6963143348693848,0.9201367672143705,0.498544129754527,1.7776373909504584,0.5435153335675313,0.0,0.15777787739366775,0.1,0.0056531429290771484,0.08425593376159668,0.04992927,0.92035216,3.7908894462013425,0.0,0.01246587500317024,0.0,300,0.03813958168029785,32.648526107402084,30.072464809704208,34800,1.0857530377679423,0.0
116,1.6063096523284912,8.111964688432145,13.156041514706432,30.898394212254722,0.40785616160531546,0.0,0.18705957923287642,0.1,0.003137350082397461,0.059308767318725586,0.049803242,1.0704226,4.222996970424423,0.0,0.10502204692336133,0.0,300,0.033185720443725586,0.7046461954637961,0.6988479594420428,35100,0.5300406295032084,0.0
117,1.6288573741912842,8.481592074036435,13.284869530135536,31.48075642785123,0.2956650146316734,0.0,0.17824458229847165,0.1,0.0052335262298583984,0.0599522590637207,0.050475743,2.1480293,4.648856480785624,0.0,0.1099501174477829,0.0,300,0.05488443374633789,0.6643403181166683,0.6407041739281618,35400,0.918054325064528,0.0
118,1.618501901626587,7.084859884383841,11.436889759386458,26.89392087801373,0.40041791599861815,0.0,0.17570586444561803,0.1,0.0036470890045166016,0.06556177139282227,0.050260536,1.2396721,4.892456821145446,0.0,0.09133493427785361,0.0,300,0.025272369384765625,0.6956444343094014,0.6831834751069153,35700,0.8499316184889695,0.0
119,1.6989526748657227,6.4928755089382255,6.9674051383349545,18.199223975568017,0.36378433246861497,0.0,0.1837271095525991,0.1,0.005320310592651367,0.06446623802185059,0.049583863,0.8856437,5.0524986899247235,0.0,0.0801192397940293,0.0,300,0.06394481658935547,0.60967173065863,0.5974873254673784,36000,0.603287939981109,0.0
120,1.655104160308838,8.57369192537353,13.81668355688744,32.49909692092582,0.31123809827740573,0.0,0.1971949726429346,0.1,0.0031991004943847656,0.06367087364196777,0.051933076,1.0223361,5.404618013469605,0.0,0.11118362110462393,0.0,300,0.028063297271728516,0.6520449534844226,0.6427297710499328,36300,0.8341156352908857,0.0
121,1.6401982307434082,6.288584983803613,9.842341469394311,23.328780488952646,0.36385981312212146,0.0,0.1838087325956332,0.1,0.01920175552368164,0.0637514591217041,0.049515802,1.0856024,5.493014710503006,0.0,0.08072692469157415,0.0,300,0.03472399711608887,0.7262215032653798,0.7135487846603704,36600,0.5273406836250311,0.0
122,1.6602318286895752,8.578262005486776,13.976281914933718,32.784301840241476,0.25676683096370956,0.0,0.18181552075984045,0.1,0.0031447410583496094,0.058301687240600586,0.049917903,1.1938583,5.801539440001383,0.0,0.1112161555548023,0.0,300,0.03167724609375,0.6280681203068875,0.6210585848715434,36900,0.5422513906922045,0.0
123,1.6935336589813232,8.88289835346322,14.249236052857396,33.55200477358751,0.28425902391612584,0.0,0.16549638410710504,0.1,0.005353450775146484,0.07094693183898926,0.04904579,1.3982277,6.109675331347567,0.0,0.11528732166328935,0.0,300,0.05983138084411621,0.5921389856756097,0.5680082072026728,37200,27.08896180674896,0.0
124,1.5827460289001465,0.6550577576661398,0.259165870874113,1.0769506945998808,0.41380465328176436,0.0,0.16033453258636987,0.1,0.0037317276000976562,0.06196951866149902,0.048835315,0.6053099,5.5642135739794245,0.0,0.008949807301583249,0.0,300,0.03961062431335449,191.19586540151963,124.32589921903997,37500,14.271643078406727,0.0
125,1.6476128101348877,0.7283301543601981,0.38135496641491734,1.3465628073094087,0.3483826886558068,0.0,0.16857653812961962,0.1,0.002967357635498047,0.07117724418640137,0.05053519,0.56607246,5.080625232017502,0.0,0.009903950962966803,0.0,300,0.028417110443115234,72.46895308509822,26.422871814594714,37800,0.6081483311432001,0.0
126,1.6130151748657227,16.99656113985514,16.812646007988047,38.31362561681959,0.2952253745088515,0.0,0.19909327973443722,0.1,0.003080606460571289,0.06132197380065918,0.050288163,0.70844734,6.272218822801266,0.0,0.220089870648362,0.0,300,0.025609254837036133,0.6876927750277315,0.6398835309177981,38100,36.004737300587536,0.0
127,1.606015920639038,1.1186453179142657,0.3005494010820218,1.4129279048746635,0.6979124339830284,0.0,0.1614515681079124,0.1,0.003086090087890625,0.0610051155090332,0.04996293,0.5125306,5.756861472312566,0.0,0.015107467006922101,0.0,300,0.019848108291625977,18.50908410349528,29.434894963056557,38400,27.97439609976728,0.0
128,1.6469035148620605,9.468887549586402,14.984593616127208,35.41855270412867,0.4661722175599451,0.0,0.17555392455443072,0.1,0.017691373825073242,0.06286740303039551,0.04964533,1.3135879,6.128064080039949,0.0,0.12642992200024677,0.0,300,0.04788470268249512,0.636013858852078,0.6178024624608516,38700,24.352825133005506,0.0
129,1.663684368133545,14.962609417915111,14.982909527603214,35.25358632853109,0.57037653679161,0.0,0.19007597834334589,0.1,0.0029115676879882812,0.06683206558227539,0.050013043,0.76552635,7.011518613827465,0.0,0.19630642248898716,0.0,300,0.021707534790039062,0.5482778389578886,0.49310937894280266,39000,29.19786368461649,0.0
130,1.6869862079620361,15.979034167210914,11.339802364528051,31.22966126791095,0.9216054970099856,0.0,0.197088437455956,0.1,0.003251314163208008,0.062088727951049805,0.050162327,0.5688963,7.90827016916581,0.0,0.2065338359997353,0.0,300,0.05039620399475098,0.46079787788779136,0.42045312495117654,39300,21.972702318796,0.0
131,1.679938554763794,7.5209788363808,12.025547345900144,28.347010894965507,0.29965313877145083,0.0,0.18255174347917885,0.1,0.003142833709716797,0.062145233154296875,0.049912743,0.9714035,7.869541035887309,0.0,0.09711900579001603,0.0,300,0.08006691932678223,0.723672318249692,0.6739878164504144,39600,5.43217521431223,0.0
132,1.7025270462036133,8.549424218966891,11.660548849332121,28.73473478938379,1.3412518549397583,0.0,0.1758702338187864,0.1,0.0032968521118164062,0.07739543914794922,0.051560774,1.1419672,7.937529354195267,0.0,0.11085225960324102,0.0,300,0.04956531524658203,0.6264439831517662,0.5562312589100068,39900,5.473297191508084,0.0
133,1.674133062362671,13.311530704526533,11.937996059590892,25.80341419410679,0.4954405989157632,0.0,0.2027165929580534,0.1,0.00463557243347168,0.06329727172851562,0.04972715,0.6638629,8.474929489228394,0.0,0.1710376091796081,0.0,300,0.04677629470825195,0.4442322962242195,0.44694568969414694,40200,19.65309399095918,0.0
134,1.7099251747131348,11.146986045452303,14.150219212105641,35.37827855344288,1.124631552030986,0.0,0.19062210321193818,0.1,0.0033762454986572266,0.06611180305480957,0.049557436,0.7688644,8.742135144850785,0.0,0.14550948556436621,0.0,300,0.04424762725830078,0.690871155087326,0.6526836173090498,40500,28.573496966965525,0.0
135,1.6888747215270996,0.9683550207209022,0.4180295233127242,1.494001616036052,0.43315896107736485,0.0,0.16096419300804674,0.1,0.003102540969848633,0.06468343734741211,0.049988177,0.6036175,7.964757132437796,0.0,0.013111226960277729,0.0,300,0.06143617630004883,88.52411498351888,73.64109302486551,40800,6.427939181871974,0.0
136,1.6663966178894043,9.947902871339128,15.683332093914043,37.1084910444946,0.5777335768844908,0.0,0.18018996362946937,0.1,0.0031032562255859375,0.05904412269592285,0.048952773,1.201832,8.16307170632793,0.0,0.1294880168565669,0.0,300,0.025449275970458984,0.5698158407323948,0.5731760381854092,41100,9.979562201000393,0.0
137,1.6727523803710938,4.366027470111324,6.294757049702065,15.256612570622142,0.4730117786797011,0.0,0.179551995365984,0.1,0.003123760223388672,0.05900311470031738,0.04998486,0.84417605,7.78336728270627,0.0,0.055094799021611476,0.0,300,0.05194878578186035,0.7046219488338977,0.6612153996117052,41400,18.67074156527826,0.0
138,1.7202043533325195,26.668382535375542,15.435897293686123,40.64159779629666,0.5774987423233344,0.0,0.2208901720863379,0.1,0.004354715347290039,0.06204843521118164,0.050258324,0.52311647,9.671868807973198,0.0,0.34912918592078,0.0,300,0.029807329177856445,0.5086327568709356,0.40597508120532777,41700,29.09002867195385,0.0
139,1.5524687767028809,19.699691988305368,14.258572076930648,37.844682886064454,0.8170245011591566,0.0,0.17672720539377762,0.1,0.0032308101654052734,0.06583333015441895,0.049214378,0.88766307,10.674651126006415,0.0,0.2562102650513381,0.0,300,0.030691862106323242,0.42312540609852467,0.3666280031636849,42000,14.04816258075048,0.0
140,1.6200306415557861,27.551006972496808,14.421168172918296,39.05021593343875,2.815761964619852,0.0,0.21355200241519287,0.1,0.0033707618713378906,0.06119203567504883,0.049854945,0.49972168,12.362286710655454,0.0,0.36089594220521204,0.0,300,0.05991983413696289,0.29794730259474755,0.2471929636898579,42300,3.2967224101881967,0.0
141,1.6384093761444092,27.151066228714235,8.174178627565826,36.00637383265606,17.867579808854618,0.0,0.2137564173113176,0.1,0.0031495094299316406,0.06153082847595215,0.051833615,0.48483422,13.841164662461333,0.0,0.348896616644025,0.0,300,0.024001359939575195,0.20599390590765754,0.1546738528445045,42600,29.826939606638167,0.0
142,1.6774389743804932,15.694394851274865,14.17144491470596,30.552822978129182,0.8168535223031658,0.0,0.1652702793152926,0.1,0.003087759017944336,0.0616917610168457,0.049467728,0.97432446,14.026487681342687,0.0,0.20612649233646288,0.0,300,0.06301426887512207,0.665169230142027,0.4994691318603949,42900,31.639806632689204,0.0
143,1.5956439971923828,28.016387131944132,15.580701478932381,38.439395774653065,1.1846430862248098,0.0,0.22890961129270038,0.1,0.0031363964080810547,0.05905914306640625,0.04979772,0.4502652,15.42547762640283,0.0,0.36371922892403885,0.0,300,0.12377500534057617,0.2732831516019916,0.2749556138469641,43200,3.4159468059001186,0.0
144,1.6395528316497803,27.086403352023503,15.213286818733094,39.63469947905102,1.184996864862966,0.0,0.20509198195013056,0.1,0.00298309326171875,0.05927920341491699,0.049960807,0.42970803,16.5915701989649,0.0,0.3513548638291511,0.0,300,0.042496681213378906,0.2678538016257598,0.2361440617249154,43500,36.901700886178396,0.0
145,1.7376582622528076,12.790731102437945,12.957352787326,31.550449871170912,0.4786016459490657,0.0,0.18079651446461428,0.1,0.005203723907470703,0.06063032150268555,0.049248822,0.7705179,16.2114862893122,0.0,0.16742682492138383,0.0,300,0.0377652645111084,0.7075600367459189,0.6422343405875706,43800,3.685690384633246,0.0
146,1.6290793418884277,27.274712604300742,3.6506784576708298,31.672409521050444,22.35704302964986,0.0,0.2224435274759254,0.1,0.0032210350036621094,0.06101369857788086,0.04895251,0.6130005,17.317808920811057,0.0,0.3538807047458602,0.0,300,0.028493165969848633,0.12264154496311083,0.1273412701266911,44100,18.966198953781532,0.0
147,1.7951970100402832,6.722591453101632,9.189118544837353,22.63797353219119,1.303959762789039,0.0,0.16071743344355258,0.1,0.003126382827758789,0.06082749366760254,0.049881816,1.1728345,16.258287174040117,0.0,0.0865158411379921,0.0,300,0.03922271728515625,1.7362677324652973,1.2957967654924845,44400,35.18918317487446,0.0
148,1.741710901260376,14.561878022650376,13.8679307112608,30.21781265805873,0.30152356829184707,0.0,0.1998559221342984,0.1,0.002983570098876953,0.06126880645751953,0.050062485,0.5968215,16.088646258901143,0.0,0.18770048413273344,0.0,300,0.029554128646850586,0.4071930064203231,0.4038616038412705,44700,15.621605380214044,0.0
149,1.693025827407837,31.567768270229763,5.056999683161681,38.38029357314344,24.85913213196679,0.0,0.2205348047741925,0.1,0.0035469532012939453,0.060968875885009766,0.04997739,0.5788748,17.636558460034006,0.0,0.41112144627378294,0.0,300,0.0355527400970459,0.27753704904401233,0.21055005847806685,45000,27.15712137949698,0.0
150,1.6779513359069824,13.872175290665343,13.244871822046345,31.23166267855111,0.6101184970516407,0.0,0.19084345761471166,0.1,0.002961397171020508,0.05924630165100098,0.04956561,0.6179879,17.26012014309714,0.0,0.18183031803676614,0.0,300,0.019913196563720703,0.40874880953694986,0.4479088025255758,45300,19.108386525077126,0.0
151,1.7027759552001953,34.810180349961655,2.316521877469025,37.76908486412259,31.306207041517332,0.0,0.21889019546940344,0.1,0.0030171871185302734,0.05963850021362305,0.050085682,0.45209014,19.01512616378359,0.0,0.45768668818580044,0.0,300,0.03248953819274902,0.16205324271690122,0.11886643068614144,45600,17.228060374760506,0.0
152,1.7322344779968262,23.21700974746534,13.300217689288585,33.54909236990075,0.5219447686730566,0.0,0.2115541284008495,0.1,0.003080129623413086,0.07709336280822754,0.050057326,0.496727,19.435314522151767,0.0,0.3031091338676053,0.0,300,0.05799508094787598,0.17527640669048147,0.179566825490534,45900,40.522852964584196,0.0
153,1.7446084022521973,38.929225551562624,3.2454923003348606,42.319529658774286,34.16506389479743,0.0,0.2202007077052929,0.1,0.0031180381774902344,0.06110644340515137,0.054018416,0.53296,21.384705625092856,0.0,0.5092709601776093,0.0,300,0.06211996078491211,0.1153479834431616,0.05877411804378804,46200,26.562767902239543,0.0
154,1.7744739055633545,19.86378324049785,19.25874145214085,40.89228528604718,0.6437579625852791,0.0,0.19014006915371334,0.1,0.005486249923706055,0.06523680686950684,0.05044286,0.7767569,21.232613386633357,0.0,0.26170634967690976,0.0,300,0.026094436645507812,0.5157845603642185,0.4686461684393853,46500,33.422100276927615,0.0
155,1.7487802505493164,35.24425749129179,3.762784440907402,39.51710042605866,29.463994151844282,0.0,0.21021585938852907,0.1,0.003293275833129883,0.059151649475097656,0.049676035,0.54749954,22.6337777970992,0.0,0.4634745714453959,0.0,300,0.028545141220092773,0.05036857031428564,0.059537077465681085,46800,34.42806412808795,0.0
156,1.6598145961761475,19.9455320858883,19.322245897474154,40.595237542968675,0.5094476355312825,0.0,0.19936491529433037,0.1,0.0032045841217041016,0.05975055694580078,0.049681958,0.49942195,22.36495322597811,0.0,0.25947316479708427,0.0,300,0.07047653198242188,0.4892146981853308,0.44393922668831465,47100,24.82070035169937,0.0
157,1.615544080734253,33.76021422982958,2.505269776573193,35.937635527838516,29.498374690746825,0.0,0.24828647677058205,0.1,0.0030574798583984375,0.0599522590637207,0.048025858,0.43479568,23.504479326363256,0.0,0.4370206558478583,0.0,300,0.026618003845214844,0.06625274877738963,0.06535273376146984,47400,3.72726941921721,0.0
158,1.7485628128051758,24.182671089848853,13.769596163073802,34.71973762425169,0.8699454604280338,0.0,0.21680552451390292,0.1,0.003213644027709961,0.06051182746887207,0.049685113,0.43967798,23.572298502711817,0.0,0.31597438448009063,0.0,300,0.03483295440673828,0.22223417191126033,0.22064352694921927,47700,1.6826026315469906,0.0
159,1.6962287425994873,19.01713434891731,17.418940154494656,40.13821159413543,1.3486988680895151,0.0,0.1966456125581744,0.1,0.005545377731323242,0.06282925605773926,0.04966598,0.49519032,23.116782087332368,0.0,0.2537593468362772,0.0,300,0.051567792892456055,0.48446007263351,0.4167756884444284,48000,2.117324452023378,0.0
160,1.6887426376342773,29.7613362115398,5.3167210595117345,36.08263304555821,21.474102527030478,0.0,0.22038516686959972,0.1,0.003206491470336914,0.061795711517333984,0.04978788,0.5574604,23.78123749975311,0.0,0.390368966171971,0.0,300,0.045514583587646484,0.07374679025052969,0.07960836230959088,48300,23.21403014093544,0.0
161,1.6600489616394043,35.878840528786476,3.5713869646261664,38.72029654024699,29.873580726972566,0.0,0.21335904399903086,0.1,0.0033953189849853516,0.05988264083862305,0.050464608,0.6452116,24.99099780265645,0.0,0.46860019047362655,0.0,300,0.042101144790649414,0.15966834220034098,0.10949177618656607,48600,2.076363020007277,0.0
162,1.7404136657714844,30.83593582706405,5.517959454743266,39.636075035434764,24.83458828784549,0.0,0.22332927976063632,0.1,0.0032036304473876953,0.05909109115600586,0.05006597,0.617391,25.575491605097213,0.0,0.40136323135418106,0.0,300,0.04637312889099121,0.11101672538967514,0.08915881030188871,48900,36.68579386649696,0.0
163,1.6641685962677002,27.53059631735567,15.838962001166776,40.81166298074851,0.5162712473062813,0.0,0.20132939956117352,0.1,0.0053789615631103516,0.06042146682739258,0.04857254,0.37484545,25.77100207632306,0.0,0.360616179698796,0.0,300,0.037381887435913086,0.1717798876941857,0.18012747974651333,49200,3.318010723349134,0.0
164,1.666165828704834,19.50238298466594,19.226987274291982,42.9052058421986,0.4526490615983206,0.0,0.1959542519240739,0.1,0.0031213760375976562,0.07239484786987305,0.050307095,0.831749,25.14414016715735,0.0,0.2535811713654392,0.0,300,0.032851457595825195,0.5236973316034429,0.4653424874260103,49500,2.6487794309232693,0.0
165,1.712228536605835,20.593671831589216,16.10602607200692,37.68495637865715,0.5265947895576606,0.0,0.21834400936447423,0.1,0.0032019615173339844,0.058901071548461914,0.049946558,0.44608143,24.68909333360054,0.0,0.268132888568533,0.0,300,0.0293886661529541,0.3983519935380686,0.3327933733568475,49800,3.5750957465251907,0.0
166,1.8698678016662598,34.01058127962963,5.478382839622127,39.30636104178873,24.90435258318958,0.0,0.22677616890126992,0.1,0.00531768798828125,0.0621187686920166,0.050609134,0.40649766,25.62124212820345,0.0,0.45035895358031075,0.0,300,0.056448936462402344,0.11002272113766047,0.12365131260090706,50100,3.3821157232259207,0.0
167,1.6844139099121094,24.208872009194373,13.615300678597077,35.127527489091186,0.8624602709221526,0.0,0.19270681015378444,0.1,0.0031409263610839844,0.0594029426574707,0.049836766,0.5380719,25.480005116302543,0.0,0.3195690364625473,0.0,300,0.03758811950683594,0.2253384933349594,0.22301337292205656,50400,2.6563094928756543,0.0
168,1.7639732360839844,35.204660964449786,4.69454576983135,39.501774594425044,28.20945803888727,0.0,0.1939955930523519,0.1,0.0031180381774902344,0.06095075607299805,0.04964223,1.0034853,26.45247070111727,0.0,0.4596133484475028,0.0,300,0.029156923294067383,0.13875071855944823,0.08895969399820822,50700,2.825652092295144,0.0
169,1.7322916984558105,16.46999830630417,16.094235696369037,33.96862080827658,0.37415093174000796,0.0,0.2129472427842401,0.1,0.0032956600189208984,0.06200265884399414,0.049567033,0.57367516,25.454223461635962,0.0,0.21315085260584635,0.0,300,0.05163693428039551,0.47115915863653274,0.48315697377923583,51000,2.17721305490922,0.0
170,1.6923110485076904,28.89574070483436,16.714784922133095,40.69231077511696,0.2740616930225549,0.0,0.22301753184964224,0.1,0.007421255111694336,0.06228160858154297,0.050436746,0.39712584,25.798375185955805,0.0,0.3788269675313132,0.0,300,0.06615900993347168,0.21472303579634977,0.21567593357319284,51300,3.130334155272871,0.0
171,1.8262617588043213,27.26854925380855,15.833979206535542,39.48484066367462,0.5387146835808283,0.0,0.19872223866137084,0.1,0.0032613277435302734,0.06134605407714844,0.04972467,0.45774072,25.945392592741083,0.0,0.3604547460856739,0.0,300,0.03820371627807617,0.18742516631312298,0.18492674130286404,51600,3.1619717244356447,0.0
172,1.817812442779541,25.695936919094116,14.54096038548686,39.06626030156216,1.1785458628220313,0.0,0.18135107976194503,0.1,0.0032143592834472656,0.06106138229370117,0.049666476,0.7473339,25.920447025376387,0.0,0.3394959841881843,0.0,300,0.06178140640258789,0.21570900100175333,0.2134317003892155,51900,3.5704040637008494,0.0
173,2.406327724456787,14.978372460514816,14.314466342733366,30.53442045546812,0.6364566664381861,0.0,0.18310848373396385,0.1,0.003471851348876953,0.061032772064208984,0.049989484,0.8742386,24.82623956889023,0.0,0.19659591137669624,0.0,300,0.04010367393493652,0.5965507115342288,0.5039029330948401,52200,2.9795382655861276,0.0
174,1.6592519283294678,28.12914098448244,11.860950431093853,38.79275199656481,8.418273407607968,0.0,0.2057506241488408,0.1,0.0031249523162841797,0.06083226203918457,0.050884165,0.4715924,25.156529710449455,0.0,0.3652730599733531,0.0,300,0.029677152633666992,0.15810909368726056,0.16960884423663403,52500,2.128660354651815,0.0
175,1.7316539287567139,35.0774832594377,3.8230018368636904,40.557269594508234,31.37413437239582,0.0,0.2130350941661734,0.1,0.0032575130462646484,0.061509132385253906,0.050280668,0.6406722,26.14862506534828,0.0,0.4578943468099479,0.0,300,0.04291701316833496,0.13427350308346742,0.09066081823690336,52800,2.5612268933142417,0.0
176,1.6547625064849854,30.456581843815265,8.217191452437998,41.632275403112104,18.423968355930057,0.0,0.20695129594827683,0.1,0.0036058425903320312,0.06159377098083496,0.04957138,0.5868873,26.57942074319498,0.0,0.39630562700172395,0.0,300,0.06966471672058105,0.12178846619832955,0.11298443108233334,53100,1.7837727740789342,0.0
177,1.7990968227386475,35.0718296069619,8.077738471527578,40.54710900641791,21.1238643103367,0.0,0.20089733578697583,0.1,0.0033969879150390625,0.05985379219055176,0.049317263,0.7159221,27.428661629571675,0.0,0.45450849242196956,0.0,300,0.0291748046875,0.07824590597380988,0.06500881452927759,53400,2.515870340756265,0.0
178,1.7429866790771484,34.54788376194995,3.9227187043095832,38.856921195715486,28.648609206573283,0.0,0.22121138033685908,0.1,0.005178689956665039,0.06023526191711426,0.050337132,0.4909583,28.1405838428095,0.0,0.45752298468847663,0.0,300,0.021756649017333984,0.0420640405154368,0.03458538586452109,53700,1.4545781157568862,0.0
179,1.7203717231750488,23.14785283805621,15.826067617070576,39.53827456197875,1.4251936626763309,0.0,0.19883598227989188,0.1,0.003140687942504883,0.08063411712646484,0.04970129,0.40535778,27.64131074233417,0.0,0.30218866671503236,0.0,300,0.03489971160888672,0.40973030298977486,0.35969738995403705,54000,2.3278928311018072,0.0
180,1.797008991241455,32.57736553061119,3.9126589206277034,39.17632846530315,29.110167056676076,0.0,0.20317603292090533,0.1,0.0033528804779052734,0.07001352310180664,0.049883634,0.6762386,28.134916221161873,0.0,0.42458273803339663,0.0,300,0.0625460147857666,0.052718408687345945,0.06015808950425971,54300,2.260777679321944,0.0
181,1.7811622619628906,31.262887014872273,4.14588992645666,34.56977786424218,24.282696067614662,0.0,0.22343916023159682,0.1,0.0030739307403564453,0.06657695770263672,0.049730506,0.58060783,28.447713300532914,0.0,0.4103896771175782,0.0,300,0.03986024856567383,0.04003423313058563,0.03886945581088698,54600,2.703369893352901,0.0
182,1.6885554790496826,32.97639615333912,5.060586707263476,41.722343194435105,29.6870992891945,0.0,0.23632225401769325,0.1,0.0033686161041259766,0.07468128204345703,0.04902094,0.71370393,28.900581585813534,0.0,0.4332363393567514,0.0,300,0.024600744247436523,0.04555413197035935,0.03910472686037973,54900,2.5695046399236072,0.0
183,1.7566852569580078,38.0805564449127,3.292487165948086,43.595758015060845,34.882128540609486,0.0,0.21473815362014234,0.1,0.0030908584594726562,0.06511712074279785,0.05008531,0.5107916,29.81857907172345,0.0,0.5012916052347609,0.0,300,0.04506516456604004,0.05371965365779138,0.041963286291877684,55200,3.371334801474943,0.0
184,1.7093298435211182,28.09714515317683,15.477262064530645,41.98690601868987,1.9868661260308453,0.0,0.1998060476485802,0.1,0.003125429153442383,0.06115245819091797,0.049085256,0.40254584,29.646435679868787,0.0,0.3681661665593507,0.0,300,0.03253746032714844,0.22391341270034437,0.217985395326384,55500,3.23973011354985,0.0
185,1.8224825859069824,13.319610766652923,17.119264158754024,42.64330922636916,1.2950967178525723,0.0,0.16998015277395284,0.1,0.0031692981719970703,0.06780672073364258,0.050326236,0.5975246,28.0137531885472,0.0,0.17440739442527006,0.0,300,0.02566814422607422,1.0644449941760767,0.7991628674548152,55800,25.819541296294805,0.0
186,1.7265527248382568,17.887954507261274,17.906391248425706,40.329872989133186,0.27462721989602107,0.0,0.19949505040113502,0.1,0.005327939987182617,0.06212043762207031,0.050263677,0.5298657,27.001173320418605,0.0,0.23538735423176352,0.0,300,0.047594547271728516,0.5122858020378404,0.43211155274265367,56100,24.942465207138017,0.0
187,1.8455255031585693,38.14266255286833,3.4157965736678144,42.500466140047045,33.312433004688494,0.0,0.2297735620604161,0.1,0.0031321048736572266,0.06071734428405762,0.04971251,0.46975398,28.115322243663577,0.0,0.49544085950897376,0.0,300,0.02315545082092285,0.18446221551739278,0.1641350046807725,56400,24.00690411970321,0.0
188,1.8061463832855225,34.51705085154512,4.387381537437444,41.099781756525125,29.444414949632396,0.0,0.22838469433549463,0.1,0.0030612945556640625,0.05973076820373535,0.04993916,0.52213,28.755495104451732,0.0,0.45377802534434597,0.0,300,0.031975507736206055,0.11994786515646477,0.07023558012878918,56700,28.828171444436304,0.0
189,1.7195630073547363,15.537231942959469,15.145407033187377,30.864567494496743,0.3030490046797901,0.0,0.18149646223992627,0.1,0.003255605697631836,0.05987548828125,0.04985236,0.79070073,27.43366878830251,0.0,0.20737579822468377,0.0,300,0.048613548278808594,0.5063023471839406,0.5285469429136367,57000,24.08714600127168,0.0
190,1.7611215114593506,31.484285412674982,5.682972661058049,38.835743485389834,24.108898405958044,0.0,0.19961354024751848,0.1,0.0032186508178710938,0.06773042678833008,0.049536914,0.64470476,27.838730450739757,0.0,0.413341034734944,0.0,300,0.05340862274169922,0.07100870563204842,0.0708811341519982,57300,16.53363618103163,0.0
191,1.7411208152770996,15.053510612876586,14.554809062560915,32.27393004930656,0.31926951703600326,0.0,0.18089726445158133,0.1,0.0033380985260009766,0.0769965648651123,0.050047603,0.6039722,26.56020846695344,0.0,0.1975834384639786,0.0,300,0.043649911880493164,0.563289443029683,0.4915671524203986,57600,3.043837774911417,0.0
192,1.7028086185455322,18.496676747193483,18.1706382476266,37.6832701546198,0.3382117027585901,0.0,0.19388434705324445,0.1,0.0032720565795898438,0.061408281326293945,0.05036659,0.61222935,25.753855294977445,0.0,0.24350480826691565,0.0,300,0.057190656661987305,0.42974679658954074,0.39294633648093513,57900,2.054985865649908,0.0
193,1.6525781154632568,18.55961885062264,18.56670822793034,42.108400933227465,0.3651189603761791,0.0,0.19471496269752095,0.1,0.08687591552734375,0.08320760726928711,0.049749658,0.52539414,25.034431650541965,0.0,0.24433581120579306,0.0,300,0.03873038291931152,0.3815009996765654,0.37721245822812294,58200,1.4796432240993875,0.0
194,1.75950288772583,32.776280700322836,1.362825088408061,34.24547603128825,30.602847022469255,0.0,0.18116316303045327,0.1,0.003246784210205078,0.061190128326416016,0.049827073,1.074111,25.808616555520054,0.0,0.4305682545779833,0.0,300,0.018225908279418945,0.14224419446577138,0.12088413581585082,58500,1.1550232085779901,0.0
195,1.7694451808929443,34.703341256424565,4.409435067569181,41.74060397230144,30.409530826795812,0.0,0.2023784183558348,0.1,0.004781484603881836,0.06693530082702637,0.05017205,0.88810384,26.698089025610503,0.0,0.4594989684640152,0.0,300,0.01888895034790039,0.13928380495076828,0.09408738709738823,58800,1.8737206134375202,0.0
196,1.7108304500579834,21.579691553903334,17.100297427046694,41.34779057565764,0.23670090191483473,0.0,0.17800006389969453,0.1,0.07136225700378418,0.08006763458251953,0.050229274,0.67070115,26.186249278439785,0.0,0.2812804089272022,0.0,300,0.050074100494384766,0.29382229963571976,0.30590744020820276,59100,1.4420722788327154,0.0
197,1.7617392539978027,36.14909693117359,2.833033729055319,38.80004692018714,31.377241862445157,0.0,0.21499577166856962,0.1,0.0032024383544921875,0.0625462532043457,0.050196297,0.6233882,27.182534043713165,0.0,0.4788721559788316,0.0,300,0.025102853775024414,0.06761869404529795,0.05526548622813907,59400,1.17672717910458,0.0
198,1.7086851596832275,36.42648117011021,4.369898672812633,43.864245697108906,32.85492588891004,0.0,0.20615204966223388,0.1,0.0031690597534179688,0.06090283393859863,0.049787477,0.52680176,28.10692875635287,0.0,0.4792124319313128,0.0,300,0.01988363265991211,0.057129279943451974,0.04519372424990569,59700,1.5039390383891387,0.0
199,1.7452259063720703,25.50692746209816,14.461623269424729,35.90276736645098,0.5848297950859321,0.0,0.18727355502010326,0.1,0.0031630992889404297,0.06567955017089844,0.049971562,0.5462891,27.846928626927397,0.0,0.3403097932524418,0.0,300,0.06155252456665039,0.25226990981605174,0.22090369386288278,60000,2.3609280744477603,0.0
200,1.8083388805389404,36.673786141797464,4.560102306719536,41.98311335227843,29.391232932658145,0.0,0.22717924051248292,0.1,0.08641433715820312,0.1295948028564453,0.04942786,0.47285295,28.729614378414404,0.0,0.47918107245185504,0.0,300,0.04642748832702637,0.06768863131834034,0.06768996531330833,60300,2.3043302803143892,0.0
201,1.7346198558807373,24.08812646824968,14.160000080670995,38.03385860695638,0.4207563395441601,0.0,0.20285114818546499,0.1,0.0031549930572509766,0.07737851142883301,0.0495558,0.6309947,28.265465587397934,0.0,0.32134657985663156,0.0,300,0.031235694885253906,0.2511885499587651,0.24974576883028965,60600,1.530038105503303,0.0
202,1.7743186950683594,38.057026426684985,3.947469434180465,42.538399752281684,32.267545730839856,0.0,0.22713437344725834,0.1,0.003216981887817383,0.06580543518066406,0.050946154,0.47807053,29.24462167132664,0.0,0.5009774911986076,0.0,300,0.043047428131103516,0.05843130289560126,0.04921587522311442,60900,1.268016129498719,0.0
203,1.7270686626434326,29.61489688362924,4.1790717714368135,33.790334435975254,22.69069632435379,0.0,0.16168724107076926,0.1,0.0032393932342529297,0.06066632270812988,0.04944722,0.87030774,29.281649192556902,0.0,0.39508316187990344,0.0,300,0.06441950798034668,0.04034636993517714,0.0436641514871681,61200,1.160565109326317,0.0
204,1.7877047061920166,38.29177799813641,3.366783028382301,41.53850573310016,32.684878321174125,0.0,0.21523011607026263,0.1,0.002945423126220703,0.058786869049072266,0.04985795,0.776387,30.182662073114855,0.0,0.5040954981041789,0.0,300,0.032988786697387695,0.044113071634835695,0.03675373279169663,61500,1.2922379056969648,0.0
205,2.140003204345703,26.053309414361284,14.876801563067371,37.133486814573544,0.48774384303924356,0.0,0.18978779508217997,0.1,0.008406639099121094,0.06372714042663574,0.04974608,0.5026123,29.7697268072395,0.0,0.3442619072522507,0.0,300,0.03858327865600586,0.21486959953023668,0.20895617934718044,61800,2.426360170843281,0.0
206,1.6089575290679932,26.80728589949696,16.63756404715718,44.573235193620164,0.38810144366851784,0.0,0.18916747663956193,0.1,0.003380298614501953,0.0604093074798584,0.05003873,0.4273717,29.47348271646525,0.0,0.35431468040788766,0.0,300,0.04383993148803711,0.2528436519837032,0.23205209285682435,62100,1.6144354152083207,0.0
207,1.6304290294647217,32.08581515925066,7.53420103584354,39.87550343835797,20.74509994253059,0.0,0.20121427778820886,0.1,0.003314495086669922,0.06424832344055176,0.049975555,0.51767975,29.734715960743788,0.0,0.4180153927816247,0.0,300,0.04248833656311035,0.07840298382948993,0.07990225490490276,62400,22.040466839682107,0.0
208,1.7161717414855957,34.50210484101915,3.1036104230505335,38.69937554033976,31.276442176078355,0.0,0.20350589960246648,0.1,0.003185272216796875,0.06212735176086426,0.0501654,0.74744,30.211454848771325,0.0,0.45691260130625966,0.0,300,0.044464111328125,0.0318645513414844,0.030518573148206732,62700,1.3698240362021166,0.0
209,1.680415391921997,33.90457030550514,6.1921570779390995,41.78968444094584,26.285444093864058,0.0,0.20412278256989397,0.1,0.0031969547271728516,0.060930490493774414,0.05032242,0.51028407,30.58076639444471,0.0,0.4456018291703384,0.0,300,0.02898573875427246,0.057398769203905575,0.04556905830446599,63000,2.015388212993219,0.0
210,1.6573240756988525,36.13573629632919,2.789815130540834,38.2751166304168,31.34018539867464,0.0,0.19772387522388948,0.1,0.003135204315185547,0.06124258041381836,0.05012584,0.5419141,31.13626338463316,0.0,0.4786943195743878,0.0,300,0.025368690490722656,0.041860198084744164,0.026799769515001945,63300,1.0290967923534833,0.0
211,1.7665278911590576,34.81431633987125,5.188237589040165,40.626520759679025,29.447676289546756,0.0,0.19403651166865762,0.1,0.003276348114013672,0.0684969425201416,0.049887303,0.55666,31.50406868015697,0.0,0.45774199900040907,0.0,300,0.04023003578186035,0.04638815469020364,0.047576496591321966,63600,1.0996489709518789,0.0
212,1.7317118644714355,34.98396145535483,2.8782234785998644,38.847064505220374,31.895171662979394,0.0,0.18423259536615197,0.1,0.036937713623046875,0.061182260513305664,0.050131887,0.70280784,31.852057957676756,0.0,0.4666706878839393,0.0,300,0.07946515083312988,0.035706494536527425,0.030407168595529815,63900,1.039699023478047,0.0
213,1.853943109512329,34.661310493638666,4.545932898482509,39.69156819906725,29.94016839708508,0.0,0.21866761986209923,0.1,0.005378007888793945,0.06659150123596191,0.0494151,0.5601094,32.13298321127294,0.0,0.45560668619505923,0.0,300,0.033274173736572266,0.04230922158221111,0.03972910522090679,64200,0.802513798964895,0.0
214,1.7608585357666016,27.875161767423354,15.994758322022223,39.64000686943562,0.3344128486385287,0.0,0.20529534913092512,0.1,0.004496574401855469,0.0793907642364502,0.050165348,0.3841068,31.707201066887986,0.0,0.368552077690934,0.0,300,0.02127242088317871,0.2164586698815917,0.19709102590515334,64500,1.0867705867738575,0.0
215,1.799999713897705,38.58496052207066,3.708824006344243,42.148268045656295,32.77452175155952,0.0,0.21843270028122827,0.1,0.005361318588256836,0.07124781608581543,0.049992327,0.48101115,32.39497701240626,0.0,0.5080171542383562,0.0,300,0.03884458541870117,0.044163785728938816,0.04687141173301133,64800,0.8190250129055289,0.0
216,1.7584412097930908,38.66331611395607,3.4927910375185545,41.33738177665335,32.80640277398051,0.0,0.23055299538834115,0.1,0.0032606124877929688,0.06106281280517578,0.04930586,0.44062734,33.02181092256124,0.0,0.5057253903515238,0.0,300,0.058850765228271484,0.04130122618735558,0.028887790706228544,65100,1.048814962394085,0.0
217,1.7044050693511963,36.002356128650746,5.217847966528892,42.109280813733804,29.987464676566628,0.0,0.19624167779988794,0.1,0.0032165050506591797,0.06063985824584961,0.050575938,0.8214353,33.31986544317019,0.0,0.47689891703561543,0.0,300,0.018447399139404297,0.03338547418359875,0.034090634868026826,65400,1.6451484451178475,0.0
218,1.7786686420440674,30.203300933298934,17.037253698509417,43.05311575726433,1.2693819397311854,0.0,0.2025524401829135,0.1,0.0032699108123779297,0.062061309814453125,0.050091673,0.39566642,33.008208992183064,0.0,0.3962579020117577,0.0,300,0.03830909729003906,0.19539736634565516,0.18198817646776264,65700,1.4387501736175683,0.0
219,1.7662878036499023,32.99697802829771,2.138486569390697,36.64282172188788,31.303174166798247,0.0,0.20424962497505186,0.1,0.0033528804779052734,0.060671091079711914,0.050253805,0.65034765,33.00708589579453,0.0,0.43351090376024787,0.0,300,0.051360130310058594,0.020692484954777168,0.016389162095747648,66000,10.890416948551303,0.0
220,1.7662584781646729,20.057435811278484,13.350405584319128,32.80922881349544,0.43234817932428327,0.0,0.18658346661929176,0.1,0.003573894500732422,0.06656098365783691,0.049903106,0.51389784,31.712120887342927,0.0,0.26764940120840924,0.0,300,0.04610800743103027,0.4553968059041454,0.3406614005091562,66300,1.6902731094045915,0.0
221,1.789825677871704,26.32067451435134,15.123290494361118,38.567662207791294,0.4163114748464122,0.0,0.18194858055029067,0.1,0.0033583641052246094,0.06792712211608887,0.0504037,0.48376882,31.172976250043767,0.0,0.3478263340383652,0.0,300,0.06877398490905762,0.21029899575058167,0.21609061399967203,66600,2.2147289021111045,0.0
222,1.9101409912109375,35.75164357280235,3.901332297139746,39.97424218188551,29.7264444943092,0.0,0.21916956763592096,0.1,0.0033948421478271484,0.06182050704956055,0.05011589,0.520732,31.630842982319628,0.0,0.4702397830873667,0.0,300,0.04631757736206055,0.10504188150898605,0.08414341719263779,66900,1.9317104337318194,0.0
223,1.7368183135986328,24.741740900651422,15.107684514085435,40.66016799131722,0.30778504831408215,0.0,0.19404948043636108,0.1,0.0032186508178710938,0.06859779357910156,0.049592063,0.5138527,30.94193277415281,0.0,0.3267739360249925,0.0,300,0.05036139488220215,0.2446112866508013,0.2505643818040917,67200,1.8321154376697775,0.0
224,1.8104052543640137,30.818427382568174,17.52111241072637,41.6348204744464,0.48134407389953143,0.0,0.20747949225376527,0.1,0.0031943321228027344,0.06127810478210449,0.050012253,0.40687016,30.92958223499435,0.0,0.40445572091717985,0.0,300,0.04694104194641113,0.19039343526070465,0.18381025706482837,67500,2.132642100987247,0.0
225,1.734222173690796,32.84957283952667,2.095080313580786,36.17331286891762,30.453756910013297,0.0,0.20426000690060817,0.1,0.026625633239746094,0.07690310478210449,0.050415523,0.6099068,31.121581295447584,0.0,0.4382121729168396,0.0,300,0.06420588493347168,0.03751921470786027,0.03736492840129011,67800,2.205840485461603,0.0
226,1.779068946838379,37.08645837264294,3.1120419860302393,39.51287786498142,31.76905242754492,0.0,0.22247738757924143,0.1,0.003061532974243164,0.0655980110168457,0.049538475,0.46462667,31.718069003167123,0.0,0.48470397948301225,0.0,300,0.04165935516357422,0.04846144509537081,0.038937384061048824,68100,2.1119951819654834,0.0
227,1.8095297813415527,35.200106449827274,2.9613631727769305,39.160885443774646,31.15630553890298,0.0,0.2176904246783711,0.1,0.003275632858276367,0.0610654354095459,0.04980328,0.6327246,32.06627274783314,0.0,0.46955262275510234,0.0,300,0.02263474464416504,0.05356973904567177,0.044251827703418366,68400,2.573057119405448,0.0
228,1.8193817138671875,28.748025371908348,16.788154476802013,41.71686367092521,0.3943415359454773,0.0,0.19581737551644587,0.1,0.0038585662841796875,0.061374664306640625,0.049793802,0.40619433,31.734448010240662,0.0,0.38019130696359116,0.0,300,0.03677678108215332,0.19237444138537008,0.1933697331172465,68700,1.6575888110188661,0.0
229,1.8319270610809326,33.07528533469778,10.797998120549758,42.008640956301754,14.728960284790176,0.0,0.22208853551594807,0.1,0.003071308135986328,0.08281731605529785,0.04935651,0.40524232,31.868531742686375,0.0,0.4345498622509558,0.0,300,0.043372154235839844,0.08295994994934558,0.081553193669582,69000,1.761150175073191,0.0
230,1.9108860492706299,20.629442450336004,19.793916702930723,41.57247731929058,0.38797595418772973,0.0,0.1811301776995631,0.1,0.0031321048736572266,0.07317733764648438,0.05028284,0.42903993,30.744622813451336,0.0,0.26855632583578193,0.0,300,0.02948784828186035,0.5048392834713875,0.4418778937332133,69300,3.683707878478011,0.0
231,1.9276418685913086,42.390234750540515,2.1845210662768206,45.30765156117329,39.41373808979239,0.0,0.2183794578673407,0.1,0.0035347938537597656,0.06198287010192871,0.050352555,0.44966343,31.909184007160253,0.0,0.5519423007792584,0.0,300,0.04122519493103027,0.08200911205322549,0.06931239698995816,69600,1.2426288363341025,0.0
232,1.878702163696289,38.44523749238344,3.1716942993482755,41.88672863892648,33.27110269731009,0.0,0.2094919620747684,0.1,0.0033097267150878906,0.07996129989624023,0.050144896,0.6605209,32.56278935568257,0.0,0.5027939346491185,0.0,300,0.056389808654785156,0.043252310665974694,0.032458664896203436,69900,1.220359919676474,0.0
233,1.8548507690429688,28.964351429789367,17.09290001520214,45.964251122972605,0.47673589254325993,0.0,0.21481270073471337,0.1,0.002986431121826172,0.06032562255859375,0.049784973,0.42569134,32.202945563093245,0.0,0.37639026797415487,0.0,300,0.04345893859863281,0.231414078026803,0.23256462995861948,70200,1.6558143754514643,0.0
234,1.7306427955627441,32.02435595313784,2.92830039338655,36.78559032278518,29.233794734979707,0.0,0.19632192645514163,0.1,0.005651712417602539,0.07886409759521484,0.049797986,1.5029715,32.185086602097705,0.0,0.42387594785999533,0.0,300,0.02916431427001953,0.08470039387650527,0.051676579536766444,70500,1.9212679423736894,0.0
235,1.7501296997070312,28.26782384065965,16.249821699329015,40.33961919873792,0.2768668581222288,0.0,0.18825662190736095,0.1,0.003476381301879883,0.07117438316345215,0.04935045,0.39779577,31.7933603259539,0.0,0.37045469668484377,0.0,300,0.2592320442199707,0.20450062883363096,0.19407393952424032,70800,25.050948050629753,0.0
236,1.7741522789001465,36.97135184364105,3.6297885875288483,39.662818008566525,30.808133549488378,0.0,0.2217695164750965,0.1,0.003073453903198242,0.05976104736328125,0.049827587,0.46806026,32.31115947772261,0.0,0.48983589461100774,0.0,300,0.025788068771362305,0.047809524729538845,0.050438801633375524,71100,1.225645708081618,0.0
237,1.9012088775634766,31.678339585076984,0.9989707261755889,32.77163422917473,30.340470366789393,0.0,0.21767633274681164,0.1,0.003239154815673828,0.06290531158447266,0.05029829,0.77839535,32.24787748845805,0.0,0.41926196752241385,0.0,300,0.024405717849731445,0.023364305544883193,0.02134019767936172,71400,1.8551594316326148,0.0
238,1.8193538188934326,33.733733776678235,3.2746236120725905,39.36329140498486,31.403739356720237,0.0,0.19245213583461818,0.1,0.005494832992553711,0.06874394416809082,0.049865887,0.5509382,32.39646311728007,0.0,0.4466673654875114,0.0,300,0.032149553298950195,0.03096573310723036,0.027681701515746567,71700,1.7882036812567883,0.0
239,1.8921232223510742,35.36637365626294,6.570926433417444,41.77166870054729,26.250291350467485,0.0,0.2095920111985198,0.1,0.0033028125762939453,0.0751352310180664,0.04983773,0.5149072,32.69345417117836,0.0,0.46174000474487376,0.0,300,0.06888985633850098,0.04823647742587796,0.045768831370010234,72000,21.281024031092564,0.0
240,1.8637058734893799,37.87179621622194,4.152294734011611,43.02138525644537,31.72636162840134,0.0,0.21982009331933353,0.1,0.0032248497009277344,0.06700682640075684,0.050101582,0.72172767,33.21128837568271,0.0,0.49850848631426636,0.0,300,0.04215502738952637,0.032672013625872826,0.027545011854802494,72300,22.28808771666581,0.0
241,1.8426837921142578,28.594959027764162,15.442025850375943,39.35289682967842,1.9666819403227793,0.0,0.1800631997638787,0.1,0.0030045509338378906,0.1064310073852539,0.05021488,0.40818813,32.74965544089086,0.0,0.3781504386615028,0.0,300,0.03422880172729492,0.19513288143633936,0.18901580161129938,72600,16.253661392999565,0.0
242,1.881514310836792,37.000587198196804,3.3010599146562365,39.8545553611213,31.402472320717646,0.0,0.21030271159869038,0.1,0.003144502639770508,0.06409573554992676,0.05052895,0.58418334,33.17474861662146,0.0,0.4902256992733928,0.0,300,0.021653413772583008,0.026861632347064304,0.026165535732379987,72900,16.11665647416473,0.0
243,1.8553855419158936,35.20528672725459,2.0907904295777633,38.54761155114382,32.779269660750984,0.0,0.22734121909346952,0.1,0.0051250457763671875,0.06060147285461426,0.050041858,0.558971,33.37780242768477,0.0,0.46628826329175027,0.0,300,0.08057880401611328,0.025540708396897233,0.025044235284239363,73200,16.250586795688,0.0
244,1.8578734397888184,33.05209185800251,6.024148623285822,38.851866990259914,23.38992901435172,0.0,0.1888419297094889,0.1,0.0032927989959716797,0.06063699722290039,0.04999371,0.5335713,33.34523137071655,0.0,0.43757905354757826,0.0,300,0.03688359260559082,0.04510399892645974,0.04386476944508058,73500,28.92639537321236,0.0
245,1.8455538749694824,39.06729763207025,0.5278658496970824,39.68042836828977,38.5013051387481,0.0,0.205557052645789,0.1,0.0032339096069335938,0.06328725814819336,0.04831005,0.3364149,33.917437996851916,0.0,0.5111119315721019,0.0,300,0.02746891975402832,0.03406421555008361,0.027657671324382755,73800,28.921875749907716,0.0
246,1.934018611907959,29.61051083427841,10.384418452285091,41.498257819002326,13.068681812224396,0.0,0.18289221125174174,0.1,0.003351449966430664,0.0687100887298584,0.049846943,0.54026914,33.48674528059457,0.0,0.388357916662345,0.0,300,0.049312591552734375,0.1597429903437363,0.15411047215549786,74100,29.96679501870314,0.0
247,1.8791613578796387,34.53725789747045,5.701037670534864,41.10914120371634,26.718240282549086,0.0,0.19972763486683656,0.1,0.0034177303314208984,0.07073235511779785,0.05001548,0.5194172,33.59179654228216,0.0,0.45404797426715393,0.0,300,0.0599827766418457,0.038349702761165325,0.03638728929619133,74400,19.011031607316937,0.0
248,2.022573709487915,31.389400955854658,9.351741478483417,43.52625188660731,17.295919255396434,0.0,0.1874293311107821,0.1,0.003170490264892578,0.06639337539672852,0.04975243,0.5853168,33.371556983639415,0.0,0.40874321406414205,0.0,300,0.04410386085510254,0.0846885073210426,0.08190182858586412,74700,19.196330876546085,0.0
249,2.010244846343994,34.038248613340706,6.534585632371367,44.93431996668431,27.584328872000427,0.0,0.20109469989485254,0.1,0.006238698959350586,0.06081795692443848,0.049857475,0.6019962,33.438226146609544,0.0,0.44731268417721626,0.0,300,0.05312776565551758,0.04483718673536066,0.044210470787986546,75000,16.184915253461632,0.0
250,1.7822306156158447,33.92595734501581,8.23544042725982,40.786935585631994,20.24515839341901,0.0,0.1855008389695844,0.1,0.003242969512939453,0.07552170753479004,0.049780175,0.590907,33.48699926645017,0.0,0.4458892257868655,0.0,300,0.030943632125854492,0.05612014654084616,0.0525658433232734,75300,16.28236478008657,0.0
251,1.9116966724395752,35.88495774052345,4.62786292652195,41.44696289738248,31.046287138510994,0.0,0.20960913546964974,0.1,0.0031757354736328125,0.06382608413696289,0.05016587,0.4410065,33.7267951138575,0.0,0.4720173066157153,0.0,300,0.05827522277832031,0.04461993563856329,0.04255558421527929,75600,16.338389962567163,0.0
252,1.902815818786621,34.11829366791564,10.590962405444833,43.64414149999357,17.9039916323183,0.0,0.20330411257452255,0.1,0.003439664840698242,0.06522369384765625,0.050053317,0.4503551,33.765944969263316,0.0,0.44512845134899603,0.0,300,0.045928239822387695,0.07993460763205654,0.07873123210115418,75900,20.250389523168426,0.0
253,1.8852999210357666,35.5068615688798,5.16218248543279,42.58683913942846,30.473397937302718,0.0,0.22157300322998666,0.1,0.0031087398529052734,0.05959939956665039,0.049035635,0.5740664,33.94003662922496,0.0,0.4703093576721856,0.0,300,0.03951597213745117,0.04189101352439341,0.038029388606041076,76200,15.267859782417394,0.0
254,1.8586294651031494,23.546016986829578,13.446575083397843,32.13893813209997,0.27750084324709423,0.0,0.20589138891712683,0.1,0.0033583641052246094,0.06115221977233887,0.04956922,0.3907995,32.900634664985425,0.0,0.31416133570903143,0.0,300,0.1611471176147461,0.2905681948419143,0.2329763299902745,76500,23.287628597800985,0.0
255,1.8855383396148682,36.8037082925962,4.634155781165999,42.408693689527155,31.243611345641693,0.0,0.2136006520730781,0.1,0.003374814987182617,0.06134486198425293,0.050076313,0.5329804,33.2909420277465,0.0,0.48426731394965417,0.0,300,0.03065776824951172,0.07454940259120318,0.07669129965241506,76800,38.17769366259777,0.0
256,1.8404853343963623,28.426135424876705,16.649741208625212,43.43163761210684,0.3564276873917148,0.0,0.21274217694029335,0.1,0.003554821014404297,0.0635690689086914,0.049577925,0.5150383,32.804461367459524,0.0,0.37256590339827844,0.0,300,0.054075002670288086,0.19100968168069443,0.1852369249115245,77100,41.92367528804409,0.0
257,1.898756742477417,39.83417863357223,2.4855202002204217,42.992003778776464,36.976317104880124,0.0,0.2283311408726365,0.1,0.0031480789184570312,0.06201052665710449,0.04960598,0.6054699,33.5074330940708,0.0,0.5213369363371863,0.0,300,0.03154778480529785,0.04441157280065995,0.03184159311038748,77400,43.197140751297745,0.0
258,1.9128892421722412,38.70158822312843,1.2754581594969854,40.22513228324581,37.31334878118672,0.0,0.2626273280776505,0.1,0.0031893253326416016,0.060819387435913086,0.049687233,0.43174002,34.026848606976564,0.0,0.5062390216438206,0.0,300,0.048174381256103516,0.024725860473337184,0.020164109204126254,77700,25.860838138585862,0.0
259,1.863029956817627,39.460775936823005,5.644557897696143,44.31014799340852,29.84706295550557,0.0,0.22601085325929968,0.1,0.003215312957763672,0.06074333190917969,0.049564637,0.543309,34.570241339961214,0.0,0.5163320659103379,0.0,300,0.032790422439575195,0.04585490996595429,0.04007898361517647,78000,18.30486579913682,0.0
260,1.889322280883789,35.22920487095392,2.558621336525679,38.864769488238146,32.39962064443967,0.0,0.20434762551426644,0.1,0.003201007843017578,0.06990671157836914,0.0496043,0.5107378,34.63613769306048,0.0,0.4699275740412052,0.0,300,0.06900501251220703,0.04983997772572583,0.03687609547872062,78300,18.256785080185352,0.0
261,1.915114402770996,36.13454624571544,3.9116181991949754,41.851768985800796,31.212871882659236,0.0,0.19411129417167042,0.1,0.003254413604736328,0.059133052825927734,0.050292317,0.54686004,34.78597854832598,0.0,0.4786634233979025,0.0,300,0.026940345764160156,0.022237269650794752,0.01811948240349281,78600,30.861725712429507,0.0
262,1.9102323055267334,34.97462787562967,3.891653295295169,41.08922600668009,31.499296879728377,0.0,0.23251209443959736,0.1,0.003290414810180664,0.05914950370788574,0.051076785,0.4877102,34.80484348105635,0.0,0.4632128898805894,0.0,300,0.036042213439941406,0.04021176422896423,0.025717342685793176,78900,34.94610756832066,0.0
263,1.9522852897644043,35.85903858516059,3.772222995718102,40.98143486083177,31.33740047552533,0.0,0.21940224194088292,0.1,0.003470897674560547,0.06477475166320801,0.050094523,0.48505905,34.91026299146678,0.0,0.4750041538376032,0.0,300,0.03679060935974121,0.030508437300917148,0.03461481666360061,79200,38.60809866155358,0.0
264,1.9395012855529785,23.56544349144198,14.834966476161615,38.43377915457758,1.8776010743525944,0.0,0.21653450338347954,0.1,0.0031867027282714844,0.06043100357055664,0.0501135,0.355192,33.7757810414643,0.0,0.31106201189556415,0.0,300,0.03272199630737305,0.3473966267674217,0.29927571319734586,79500,43.98071502484839,0.0
265,1.9026362895965576,37.42332775289412,3.3226529007064474,40.41093010080528,32.28830203848284,0.0,0.21837131410679067,0.1,0.0032312870025634766,0.058655738830566406,0.049619555,0.48622885,34.14053571260728,0.0,0.4925288989925565,0.0,300,0.028527021408081055,0.044232600294727885,0.04534624951362966,79800,25.96578788218265,0.0
266,2.043780565261841,23.521570391177544,15.378110946258793,38.85298666098438,1.2585468307208656,0.0,0.18017658139963666,0.1,0.0034584999084472656,0.06156134605407715,0.04898755,0.42491472,33.07863918046431,0.0,0.31050453776270515,0.0,300,0.05344223976135254,0.3124127278756554,0.29628509155669636,80100,42.86273615691471,0.0
267,1.8941104412078857,24.950147563676975,14.85986837515043,38.519898941149805,1.040778612742186,0.0,0.21585041993705856,0.1,0.016144990921020508,0.0741269588470459,0.05016494,0.41590446,32.26579001878557,0.0,0.3228816253459932,0.0,300,0.062117815017700195,0.2300706430403522,0.2159609334270049,80400,23.269549214228352,0.0
268,1.817821979522705,39.13677489626033,1.734107637298619,41.423328965731486,36.92154632321822,0.0,0.21843934744944354,0.1,0.0032973289489746094,0.06427860260009766,0.05041115,0.67545766,32.95288850653305,0.0,0.5120415353405234,0.0,300,0.10874438285827637,0.06099487095852491,0.049790899317743956,80700,25.27586068022873,0.0
269,1.8959026336669922,34.866000180632106,4.930289979097632,43.286634217523506,31.380526024358463,0.0,0.20804270399231223,0.1,0.0030927658081054688,0.06301569938659668,0.049995504,0.5988591,33.14419967394296,0.0,0.46176453913066157,0.0,300,0.06085538864135742,0.05784721701604923,0.04281413115798489,81000,31.06446352292868,0.0
270,1.8667230606079102,36.738475161913925,3.130113379928184,40.68951765168618,33.010300953051356,0.0,0.20252511353601832,0.1,0.0031785964965820312,0.06708455085754395,0.04907856,0.6493034,33.50362722274006,0.0,0.4867308699319264,0.0,300,0.05489659309387207,0.03453345780089518,0.03065427078180117,81300,22.217826494988884,0.0
271,1.9188218116760254,34.36523053411849,4.044342717776368,39.712047068852016,29.9904205487643,0.0,0.22875650957542595,0.1,0.0033063888549804688,0.06395959854125977,0.050011527,0.7307751,33.5897875538779,0.0,0.45174638994960586,0.0,300,0.05560898780822754,0.04044393151155364,0.032999984624977365,81600,40.49708244630947,0.0
272,1.8679938316345215,32.47365956545091,5.439542429674435,40.28331677476211,25.01429204296961,0.0,0.22576474843260094,0.1,0.003161907196044922,0.061678409576416016,0.05172325,0.4688027,33.4781747550352,0.0,0.4298663007589833,0.0,300,0.032793521881103516,0.046449012160417934,0.03436503906651817,81900,23.467002996037838,0.0
273,2.0118370056152344,34.72890714156281,9.21896910769805,42.47558008831039,19.147360938241498,0.0,0.22164352892796263,0.1,0.011540889739990234,0.06423068046569824,0.050360605,0.50752276,33.60324799368796,0.0,0.449931161288051,0.0,300,0.05593585968017578,0.06793164624536768,0.0695619687413096,82200,20.31729819685571,0.0
274,1.8936612606048584,34.85538941168686,4.38472199233915,42.43921135015589,32.04306261065624,0.0,0.23576073670664627,0.1,0.0031006336212158203,0.06004023551940918,0.049621668,0.52153885,33.72846213548785,0.0,0.46162306206287607,0.0,300,0.030214309692382812,0.03255433914592212,0.03252434925843247,82500,37.42423606589393,0.0
275,1.94293212890625,35.673073154357624,7.646544627499306,41.70942743665576,22.71724259931682,0.0,0.20232195208669607,0.1,0.0032129287719726562,0.06083393096923828,0.05117404,0.4027469,33.92292323737483,0.0,0.46585883568072284,0.0,300,0.07067060470581055,0.057190955744550645,0.04970871743590544,82800,30.383296566189202,0.0
276,1.911755084991455,36.33832736273532,4.028005368938291,40.36264046388709,31.969129581810332,0.0,0.22253610193430273,0.1,0.0032465457916259766,0.060630083084106445,0.04986503,0.71069473,34.16446364991088,0.0,0.481395553743599,0.0,300,0.05292224884033203,0.029959782875777743,0.028989743370147234,83100,26.334622790545115,0.0
277,1.9311707019805908,39.01924931623119,1.048498198408182,40.600888892300844,37.78029271260859,0.0,0.23923217643942557,0.1,0.006930112838745117,0.05922889709472656,0.05002643,0.4650209,34.64994221654291,0.0,0.5171411878738665,0.0,300,0.02794504165649414,0.021133133879888685,0.01851085094574822,83400,23.285979485495776,0.0
278,1.9522173404693604,36.47354163177286,4.744105622222216,42.48551139808165,31.260744899396187,0.0,0.24649681633158213,0.1,0.0032618045806884766,0.06106829643249512,0.04985871,0.50864303,34.83230215806591,0.0,0.47986475747768353,0.0,300,0.0410914421081543,0.029661235125040004,0.028856218066580223,83700,23.2783857451867,0.0
279,1.917198896408081,34.95015288088245,4.529386337015804,41.758880772265236,30.800830000799053,0.0,0.2125319343110346,0.1,0.0031921863555908203,0.06100296974182129,0.0494777,0.572853,34.84408723034756,0.0,0.4628865749844392,0.0,300,0.048348188400268555,0.03565259583846055,0.03331928296660022,84000,29.16209572574458,0.0
280,1.9239304065704346,31.156569686835674,3.197990748557105,35.56597045108327,26.616185313575286,0.0,0.20688469830795225,0.1,0.0033736228942871094,0.061814069747924805,0.04924138,1.1036944,34.475335475996374,0.0,0.41230545546089786,0.0,300,0.04180312156677246,0.04438424057566099,0.029749090180967285,84300,16.086362796122977,0.0
281,1.9507787227630615,35.40974011042235,4.153985597877304,40.343597325389744,30.360013574870063,0.0,0.2157912565082556,0.1,0.0034101009368896484,0.06104540824890137,0.051201403,0.4772133,34.56877593943897,0.0,0.46568107023223626,0.0,300,0.028613805770874023,0.03820169045327111,0.0393311136489128,84600,26.062795646331903,0.0
282,1.899686574935913,39.39700813821466,4.797866098706297,43.38895334984718,31.618330732278668,0.0,0.25813593749860886,0.1,0.0032503604888916016,0.07760381698608398,0.061233077,0.48527476,35.05159915931654,0.0,0.5155113119320792,0.0,300,0.10778188705444336,0.053490609764183246,0.038475046860490074,84900,27.017249021131875,0.0
283,2.0149810314178467,35.61990069558099,4.950710319351985,43.75686575553098,31.532963259654977,0.0,0.22384381945073673,0.1,0.08235764503479004,0.06060433387756348,0.049458817,0.5089535,35.10842931294298,0.0,0.4717797116020634,0.0,300,0.06410741806030273,0.030738483942440935,0.03359724667296251,85200,22.138415415506568,0.0
284,1.922154188156128,34.0636185103149,4.743036380202115,42.276739717720005,31.21949673001475,0.0,0.2073797573107233,0.1,0.003290891647338867,0.05907869338989258,0.050010424,0.8414327,35.00394823268017,0.0,0.4510661168987026,0.0,300,0.04706883430480957,0.05167785077283533,0.04491542084942418,85500,19.13955446186494,0.0
285,1.997504472732544,40.26099593158719,1.5716004980379423,42.46457508981345,38.019840015665665,0.0,0.22552381444795394,0.1,0.003427267074584961,0.06949257850646973,0.05129167,0.6308913,35.529653002570875,0.0,0.5270311471789836,0.0,300,0.04570794105529785,0.016328288112786166,0.015563083986874423,85800,31.189744952863,0.0
286,1.8237614631652832,32.69958647652801,1.8273040008353607,34.5611015401563,29.667109599342474,0.0,0.21546458452690576,0.1,0.0048406124114990234,0.06559896469116211,0.04859885,0.4614023,35.24664634996659,0.0,0.43621235645167866,0.0,300,0.09584879875183105,0.023712187243447917,0.022224849273755915,86100,28.152787802406745,0.0
287,1.8715717792510986,38.84835602184829,2.8849738260193516,43.41416048406263,35.58547419136664,0.0,0.19078918299362682,0.1,0.0032193660736083984,0.06128215789794922,0.049256995,0.56276906,35.606817317154764,0.0,0.5148616870447426,0.0,300,0.1391739845275879,0.021891829664063486,0.02059945161179506,86400,27.091794814477982,0.0
288,1.8574395179748535,38.78468074661587,5.787686745238667,44.896820715957396,29.320180288911384,0.0,0.271662575948183,0.1,0.005309581756591797,0.08051705360412598,0.04963568,0.41014004,35.92460366010087,0.0,0.5073469171022381,0.0,300,0.05519580841064453,0.037944112084609884,0.03653468643864511,86700,26.1534849875294,0.0
289,1.9150502681732178,33.05287605552196,5.875918092211911,38.22107301512252,23.081118212101817,0.0,0.20804871537559394,0.1,0.0032804012298583984,0.11229729652404785,0.051185552,0.4082486,35.63743089964298,0.0,0.43758946506448015,0.0,300,0.05253481864929199,0.06506187951071113,0.054089786637185965,87000,24.11760149059945,0.0
290,1.867790937423706,40.689781444155635,5.3618974020017305,45.36851618570154,31.58194979703365,0.0,0.24675690105154868,0.1,0.003238201141357422,0.07093286514282227,0.05007041,0.46765468,36.14266595409424,0.0,0.5394144562848865,0.0,300,0.27554893493652344,0.035072704253661685,0.034616949932369016,87300,18.17926367011017,0.0
291,1.90269136428833,35.044505401038094,5.003544425251769,43.56733132029066,31.358976271346602,0.0,0.1990776461067252,0.1,0.003184080123901367,0.06428122520446777,0.05042841,0.85831887,36.032849898788626,0.0,0.464144608723533,0.0,300,0.04415464401245117,0.027581449069655387,0.028548724332731593,87600,21.096885401302803,0.0
292,1.8612511157989502,36.75213419903342,5.786039827844374,43.95961409914465,29.91207336882112,0.0,0.20702949766350656,0.1,0.003022432327270508,0.059340476989746094,0.05072422,0.66024345,36.10477832881311,0.0,0.4835783148881104,0.0,300,0.04037976264953613,0.07529096322377378,0.07379058285956941,87900,26.051521199301092,0.0
293,1.9043843746185303,32.287550437306614,0.45553193094473315,32.67850629338959,31.550520909643158,0.0,0.21262579251711006,0.1,0.003130197525024414,0.06641793251037598,0.04981185,0.71832395,35.72305553966247,0.0,0.43071854258808623,0.0,300,0.040915727615356445,0.03813083756041224,0.0222239012700127,88200,18.25548969228368,0.0
294,1.9285914897918701,35.47695122846023,5.131833619158894,40.887962941761465,27.03097856942957,0.0,0.19260514963410358,0.1,0.0031175613403320312,0.06356143951416016,0.049818352,0.54026043,35.698445108542245,0.0,0.4699054590081189,0.0,300,0.03701949119567871,0.03890681171699165,0.04162419881781471,88500,22.145108654108267,0.0
295,1.9053215980529785,33.737771071668384,5.537975436947364,40.52731030742629,25.5071578155884,0.0,0.19534651081857912,0.1,0.003509044647216797,0.06554985046386719,0.049914703,0.4767438,35.50237770485486,0.0,0.44338815043116364,0.0,300,0.057442665100097656,0.059101698893494294,0.05693395116051533,88800,27.990836382190935,0.0
296,1.9749987125396729,36.269890940257056,3.4069164418518705,40.55302966338745,31.833851546563356,0.0,0.2545979428396282,0.1,0.0033218860626220703,0.0666799545288086,0.050216194,0.3897543,35.57912902839508,0.0,0.48381637275478795,0.0,300,0.06108903884887695,0.02700846400948008,0.02605369142623496,89100,22.057174586361437,0.0
297,1.9609980583190918,35.36833055009815,4.232044981188959,42.64910232618358,32.238372354749735,0.0,0.22914226519292757,0.1,0.003214120864868164,0.06519293785095215,0.05016525,0.63143736,35.55804918056539,0.0,0.46832231385837436,0.0,300,0.05945944786071777,0.03751233313587869,0.03656050961984384,89400,19.11254088848832,0.0
298,1.939087152481079,34.205398717955674,6.328765370167699,44.36190289463496,26.98869944786887,0.0,0.19557507028208784,0.1,0.0032045841217041016,0.07390689849853516,0.04987854,0.93456066,35.42278413430442,0.0,0.4529565196567664,0.0,300,0.03863859176635742,0.0433543010699574,0.042128398913715774,89700,32.13482651939178,0.0
299,2.03475022315979,17.80982426326105,10.96690767038072,30.60371155433875,0.34066342713269443,0.0,0.18295623208916872,0.1,0.0032651424407958984,0.06008315086364746,0.04952757,0.535122,33.66148814720009,0.0,0.2343488026490117,0.0,300,0.03507113456726074,0.661745915678915,0.46737696327092004,90000,17.166760593161737,0.0
300,2.001711845397949,31.532358683551443,9.717633689624824,44.68704526017726,17.280408894361646,0.0,0.20324850959431903,0.1,0.003104686737060547,0.0676572322845459,0.049857434,0.48841432,33.44857520083522,0.0,0.4173158415135678,0.0,300,0.06628203392028809,0.09857897863441864,0.10755346757668965,90300,28.10170771877891,0.0
301,1.9973657131195068,38.4327658823741,3.9541563308903385,42.9743399119156,32.42845126460949,0.0,0.22569268318772506,0.1,0.0031342506408691406,0.06801176071166992,0.050811645,0.42216706,33.94699426898911,0.0,0.5093133563278898,0.0,300,0.04225921630859375,0.10969359652553928,0.08581440261649266,90600,26.050635250780303,0.0
302,2.006970167160034,37.57943973922126,5.550601587618813,45.90815217334046,32.04085005618943,0.0,0.22664292379844483,0.1,0.003182649612426758,0.05914044380187988,0.05126074,0.42228708,34.31023881601232,0.0,0.49789892630247756,0.0,300,0.06183218955993652,0.07816091587916152,0.05312216487948393,90900,32.049652048069404,0.0
303,1.9058268070220947,38.271924033819715,5.01278060339446,45.393224337426034,31.309955313961407,0.0,0.23772188762046936,0.1,0.01077890396118164,0.07511591911315918,0.050004795,0.45907348,34.70640733779307,0.0,0.507175872696451,0.0,300,0.04949545860290527,0.04545807765789196,0.02530749066770154,91200,26.055820326981472,0.0
304,1.939960241317749,30.10615116550477,17.170132696178186,40.83618010846382,0.38048003526364277,0.0,0.19166018769919185,0.1,0.0033228397369384766,0.061875343322753906,0.049835354,0.39226943,34.24638172056424,0.0,0.3982973777604091,0.0,300,0.04671001434326172,0.2224344160023029,0.2244564045934474,91500,30.019381066579673,0.0
305,1.9092657566070557,39.14153496746522,4.936572476481731,43.34410759249027,30.731744156208386,0.0,0.2113930791469,0.1,0.003423452377319336,0.06235003471374512,0.05034303,0.42836034,34.73589704525433,0.0,0.5121049803316631,0.0,300,0.03204679489135742,0.03735290807546678,0.03496627975648982,91800,31.0662769160558,0.0
306,1.9877052307128906,26.732864009568438,10.460568430694275,41.516443440385096,15.019147300962617,0.0,0.2021585780945261,0.1,0.0033588409423828125,0.061412811279296875,0.049530968,0.4396907,33.93559374168574,0.0,0.3499893808042053,0.0,300,0.06328272819519043,0.21772882682581696,0.16572927821287645,92100,34.871831973945284,0.0
307,2.026742458343506,38.22971696324472,3.641345140857002,44.52518700361908,35.84756826517636,0.0,0.2254175967154198,0.1,0.006701946258544922,0.06370067596435547,0.050160114,0.785295,34.36500606384164,0.0,0.5032357594140796,0.0,300,0.04219198226928711,0.040473247070190274,0.049290808831661245,92400,33.87892672002068,0.0
308,1.9747343063354492,28.84242251068545,16.82939461342197,41.35223517333469,0.3354164535286493,0.0,0.20509597220416698,0.1,0.0034034252166748047,0.061124563217163086,0.049802057,0.39883322,33.81274770852602,0.0,0.38143931166490774,0.0,300,0.044995784759521484,0.19858556129496568,0.19464055358335983,92700,21.086193871927822,0.0
309,2.012880325317383,35.29572181786248,4.351114670575005,42.72128950480309,31.606856083766665,0.0,0.1832599201862716,0.1,0.0031905174255371094,0.06132245063781738,0.049661316,0.72016084,33.96104511945966,0.0,0.4708274922162059,0.0,300,0.04808163642883301,0.03101509315263368,0.02703309631250019,93000,28.073531576549225,0.0
310,2.0546796321868896,38.37925614505721,4.413662034817095,43.447484536389844,31.592019207610523,0.0,0.1988660050202129,0.1,0.004795551300048828,0.059906721115112305,0.050520565,1.0155216,34.40286622201942,0.0,0.5052660192165638,0.0,300,0.04384016990661621,0.03343787876668919,0.029725110192890453,93300,30.08972578146994,0.0
311,1.9873125553131104,31.28349526071065,2.2531812368581217,33.59392694860508,27.587694165151166,0.0,0.22082942558908264,0.1,0.003229379653930664,0.062493324279785156,0.050323416,0.45296592,34.09092912588854,0.0,0.4173311402409858,0.0,300,0.06085968017578125,0.04863060931517172,0.03545806683619928,93600,19.128467299526598,0.0
312,2.0148746967315674,31.092988488949995,7.814193918208287,40.70190527239322,19.08940897430992,0.0,0.17980219831039976,0.1,0.003425121307373047,0.06128406524658203,0.05027528,0.5480465,33.79113506219469,0.0,0.4147909994369112,0.0,300,0.05797576904296875,0.06913991197068227,0.053380374609701325,93900,29.997785968250373,0.0
313,2.152601480484009,24.610491923565004,14.055852530650744,34.37664814908712,0.43498149657469626,0.0,0.18319952335130296,0.1,0.0030477046966552734,0.059186458587646484,0.05029363,0.46327513,32.87307074833172,0.0,0.32835775353581415,0.0,300,0.03930068016052246,0.22869597551150705,0.1894097374724942,94200,23.973893509152045,0.0
314,2.09936785697937,35.49293137419469,3.3724545802135206,41.13390604849756,32.46804747103789,0.0,0.19765182698942724,0.1,0.09177994728088379,0.17531991004943848,0.04945078,0.6913858,33.135056810918016,0.0,0.47012334475139816,0.0,300,0.09979605674743652,0.04597034674195895,0.05149965722171989,94500,28.909689400705314,0.0
315,2.0184290409088135,33.749796005010595,2.282658589601858,37.55588200719552,31.62491654531875,0.0,0.21493342556890993,0.1,0.0033240318298339844,0.06104159355163574,0.050207973,0.636241,33.196530730327275,0.0,0.45021514969526,0.0,300,0.047582149505615234,0.0481789197437433,0.03396317582669414,94800,28.963450111992646,0.0
316,2.045400619506836,37.287597166931484,6.76385027254337,44.637552612391914,27.9841967918259,0.0,0.20900089778308226,0.1,0.003228425979614258,0.06189870834350586,0.049906548,0.49587086,33.6056373739877,0.0,0.49071916547878247,0.0,300,0.03520846366882324,0.06179703012754531,0.03760167276900705,95100,31.905947668646334,0.0
317,2.0562870502471924,30.609107130234833,8.985843486616156,42.3348434931281,17.20900818690981,0.0,0.18878231018646996,0.1,0.007798671722412109,0.05843400955200195,0.049483202,0.5419077,33.30598434961241,0.0,0.4050058076504155,0.0,300,0.13146281242370605,0.1010764512535621,0.10880472155393199,95400,31.94431837687971,0.0
318,2.174351930618286,37.01865916773515,5.338980637246379,42.38545998618776,30.861814966001145,0.0,0.21410056591719914,0.1,0.0033850669860839844,0.06032705307006836,0.04934271,0.5223671,33.677251831424684,0.0,0.4871296020703032,0.0,300,0.04863381385803223,0.03743479855842919,0.03603960791552818,95700,18.892220352024996,0.0
319,1.9865069389343262,35.91383495764879,5.465447468372552,41.65061335595656,28.575536382722134,0.0,0.19819116123946326,0.1,0.003468036651611328,0.061799049377441406,0.050467968,0.60940707,33.900910144047096,0.0,0.47240193468681313,0.0,300,0.052602529525756836,0.04322046236474592,0.042951602403819615,96000,31.98596632516218,0.0
320,2.0393707752227783,35.02118354027001,7.795873524608546,42.4260909824121,22.567941590227974,0.0,0.19235647720425306,0.1,0.0032317638397216797,0.06183767318725586,0.050661582,0.4738514,34.01293748366939,0.0,0.4604206883648136,0.0,300,0.047574520111083984,0.05049013925372046,0.04744554521831533,96300,32.004113388335725,0.0
321,1.9607622623443604,33.91839440715843,2.6310115142610755,37.36510973384275,30.00516058990562,0.0,0.20349219673000007,0.1,0.003330230712890625,0.06175684928894043,0.050116323,0.62601984,34.00348317601829,0.0,0.4491297948625359,0.0,300,0.05791115760803223,0.024223383457945797,0.01766985164298915,96600,31.951661776523924,0.0
322,1.9732592105865479,31.618164671260185,3.5543235363677415,37.33883742997594,27.582401477339648,0.0,0.18210902591084552,0.1,0.0031321048736572266,0.06297636032104492,0.04946497,1.678466,33.764951325542484,0.0,0.41846006362922533,0.0,300,0.04641270637512207,0.04835925247960294,0.03206813049274651,96900,30.978583198427376,0.0
323,1.9777157306671143,35.507657119935416,4.848941080172063,43.7315505910988,31.904912751746004,0.0,0.19885642401100712,0.1,0.003281831741333008,0.06363224983215332,0.049336907,0.595071,33.93922190498178,0.0,0.4703190419916023,0.0,300,0.08273935317993164,0.03288272966216528,0.036494562903947404,97200,32.83016466603399,0.0
324,1.99098801612854,35.12351346683818,4.116925912837879,39.803778477435024,30.52284252478681,0.0,0.2042112905829699,0.1,0.0031595230102539062,0.061647653579711914,0.049914416,0.6036311,34.05765106116742,0.0,0.4685192918153197,0.0,300,0.04406380653381348,0.03153087965653885,0.02817087624631564,97500,13.985162815821235,0.0
325,1.9853193759918213,34.270884260297635,4.494114632802193,41.44502926062302,29.09813943644245,0.0,0.2079809993714329,0.1,0.003197908401489258,0.06313514709472656,0.050040763,0.6302153,34.07897438108044,0.0,0.45716299334120747,0.0,300,0.029717683792114258,0.026685157610734603,0.027121296696210218,97800,35.75954004288065,0.0
326,1.9807353019714355,26.778459283198465,9.375090745968453,41.30722045467377,18.246368594115562,0.0,0.17996269670752016,0.1,0.005563020706176758,0.0665137767791748,0.04997903,0.562425,33.348922871292245,0.0,0.3539305667982006,0.0,300,0.2289113998413086,0.18696701923003156,0.15804688494156113,98100,15.028290545688316,0.0
327,1.9880046844482422,30.48858881883318,8.504131197959621,40.747608705924215,17.115277303364955,0.0,0.19028577365914437,0.1,0.08707761764526367,0.059897661209106445,0.0502034,0.479722,33.062889466046336,0.0,0.40339904546621286,0.0,300,0.08667778968811035,0.07359642005847679,0.06847941234340273,98400,18.792024285873925,0.0
328,2.0708186626434326,35.704671520098415,4.327291071336349,42.7829332514402,31.024943790265535,0.0,0.20883977426850625,0.1,0.003325223922729492,0.058943748474121094,0.05065926,0.5816573,33.327067671451545,0.0,0.4729049784764347,0.0,300,0.041632890701293945,0.05273990740214363,0.04924070457055447,98700,21.659769634238717,0.0
329,1.9809167385101318,30.642365764593606,17.62827220857395,43.530722914561416,0.35025928371578835,0.0,0.21462825800762425,0.1,0.003171205520629883,0.0679323673248291,0.0496572,0.34126344,33.05859748076575,0.0,0.40544553735834726,0.0,300,0.030497074127197266,0.1973210936393762,0.1905491473412071,99000,19.744419133702994,0.0
330,2.0392589569091797,37.49544867481404,5.281545390866254,44.328506170828085,32.29006041442196,0.0,0.2126374705016945,0.1,0.003170490264892578,0.059534549713134766,0.048822723,0.54309064,33.502282600170574,0.0,0.4934905190953087,0.0,300,0.033535003662109375,0.06809128720599347,0.04883302768564712,99300,18.809070984669514,0.0
331,2.0806567668914795,32.461534002270916,2.0975546231269924,35.345595765144346,29.424517079194853,0.0,0.21616892957745143,0.1,0.0031745433807373047,0.0630331039428711,0.050175097,0.5622463,33.398207740380606,0.0,0.4330383234617435,0.0,300,0.04164481163024902,0.030277178157472478,0.03790566715516123,99600,32.68185865473583,0.0
332,2.1037280559539795,35.5965872887525,9.402994471635315,44.5433136543972,21.59673760862957,0.0,0.2158308452017562,0.1,0.0032415390014648438,0.060674428939819336,0.048964314,0.47013596,33.618045695217795,0.0,0.46817236372305315,0.0,300,0.03034496307373047,0.09364003380338101,0.08717963417913248,99900,14.730087164927768,0.0
333,2.0626370906829834,25.7205504645653,15.680788670611397,42.74958538154935,0.32627966454135154,0.0,0.20462821510005572,0.1,0.003313302993774414,0.06055927276611328,0.050411627,0.43689793,32.82829617215255,0.0,0.33979718388362506,0.0,300,0.035219669342041016,0.2652926163990171,0.24176218062110774,100200,22.668933229249998,0.0
334,2.1292004585266113,37.3372024716054,3.820352335591024,41.80543556176115,33.28918859896188,0.0,0.1964286051340401,0.1,0.003144502639770508,0.05929756164550781,0.049604855,0.66511196,33.27918680209783,0.0,0.4947127275095702,0.0,300,0.08558368682861328,0.02770477360173077,0.032558191535792945,100500,23.60721640303078,0.0
335,2.1823713779449463,37.92171123673215,3.698355961080453,41.627747400203724,33.86445238600041,0.0,0.19369325120359995,0.1,0.01799774169921875,0.06901335716247559,0.049390223,0.81168383,33.74343924556126,0.0,0.4958380936468469,0.0,300,0.05746579170227051,0.04116205337243668,0.03138951944454333,100800,14.98241757198911,0.0
336,2.174625873565674,34.136403285477584,6.056829443969927,41.53436078271047,24.81198739142549,0.0,0.21830018185397543,0.1,0.0034055709838867188,0.06123185157775879,0.049840987,0.52628356,33.7827356495529,0.0,0.4520123513730534,0.0,300,0.05851316452026367,0.045376129414918115,0.045123845001238,101100,21.561771716064843,0.0
337,2.1348466873168945,36.123963742278406,5.384508823657226,43.94870275200822,28.8814543341658,0.0,0.20374162186740546,0.1,0.005716085433959961,0.07378959655761719,0.051648427,0.55880827,34.016858458825446,0.0,0.47853402150812935,0.0,300,0.07407665252685547,0.049684137163511326,0.042477898646911434,101400,27.693678498877258,0.0
338,1.8805911540985107,33.77431430717098,5.472981520995117,41.36040120060539,25.887978523935626,0.0,0.20276586697789786,0.1,0.004885673522949219,0.0629739761352539,0.0502511,0.56930035,33.99260404366,0.0,0.44720871121400985,0.0,300,0.05639290809631348,0.04591777742451851,0.03997284217040429,101700,18.782312582647755,0.0
339,2.0326027870178223,38.41796609792057,6.450306643505319,43.48240196230565,27.69296869016489,0.0,0.20554804527684675,0.1,0.003318309783935547,0.06184864044189453,0.050323848,0.4489071,34.43514024908606,0.0,0.5057870121477073,0.0,300,0.040059804916381836,0.03717684469978996,0.03642020548309936,102000,19.77969340465985,0.0
340,2.0479013919830322,33.47302850871658,5.9612671136701865,41.38606552452181,25.102378178174654,0.0,0.21112917383589094,0.1,0.003280162811279297,0.06271100044250488,0.05027941,0.43304357,34.338929075049116,0.0,0.44319158351034893,0.0,300,0.06347322463989258,0.04078413605066131,0.04093227313066287,102300,24.70401235354309,0.0
341,2.0524210929870605,34.20774401115136,2.4676361371885673,38.08932602616734,31.783730298330653,0.0,0.2137299575223257,0.1,0.0034437179565429688,0.06667590141296387,0.049729496,0.9303697,34.32581056865934,0.0,0.45632112219667775,0.0,300,0.04577016830444336,0.023148696874179343,0.01714327694234971,102600,17.877548847753125,0.0
342,2.018615245819092,34.06529516664522,4.827424292479194,41.988681571949364,28.91099074705739,0.0,0.2066525326945596,0.1,0.003276824951171875,0.062032461166381836,0.049296197,0.6581065,34.29975902845793,0.0,0.45108827220423975,0.0,300,0.05368995666503906,0.049395258207042075,0.04914165354004206,102900,19.889984054440276,0.0
343,2.0514862537384033,37.174726932985564,4.732139674255168,41.860927504746776,31.473753432773762,0.0,0.20914581601140103,0.1,0.003367900848388672,0.0749673843383789,0.050596938,1.6550884,34.58725581891069,0.0,0.4892142291965086,0.0,300,0.05592799186706543,0.0348418062323955,0.03254670122750561,103200,22.964337471264088,0.0
344,1.9812891483306885,39.4915365276299,3.3747874211328903,42.747176063904085,33.83162360618402,0.0,0.2347912223607208,0.1,0.005201578140258789,0.0641028881072998,0.04903697,0.47588637,35.07768388978261,0.0,0.5234382822166069,0.0,300,0.03807425498962402,0.03839949027275747,0.02356921474677439,103500,24.687813101396774,0.0
345,1.9989333152770996,34.33381537004854,3.6857991040108735,40.693742155160436,31.72108352115665,0.0,0.2152334441009613,0.1,0.0033483505249023438,0.0611112117767334,0.049741518,0.55032396,35.003297037809205,0.0,0.45800207420512296,0.0,300,0.04774975776672363,0.026869740641260825,0.03203963909207065,103800,15.831701344157075,0.0
346,2.079906463623047,39.707650950092734,5.86021185164482,45.598168838284316,29.99062191580773,0.0,0.25641425333783524,0.1,0.003179788589477539,0.06092405319213867,0.04950529,0.44579056,35.473732429037554,0.0,0.5229865295694351,0.0,300,0.03632330894470215,0.04058773985446261,0.039916268206696096,104100,21.697514007695855,0.0
347,1.9653518199920654,38.15842620616442,6.23731038907051,45.41017998775007,31.604928455123808,0.0,0.2567670739479081,0.1,0.005663871765136719,0.13169264793395996,0.04971076,0.42690134,35.74220180675024,0.0,0.5023294382341165,0.0,300,0.06405186653137207,0.04188487825588526,0.041515838446889955,104400,24.76043880232344,0.0
348,2.0871059894561768,26.965688521504536,5.608857414149247,33.64506594351583,18.08842828315597,0.0,0.1720506333218092,0.1,0.003147602081298828,0.06001114845275879,0.04904621,0.5450597,34.864550478225674,0.0,0.35976038364334356,0.0,300,0.04128623008728027,0.20675455037837012,0.11654217780386664,104700,23.835131215719134,0.0
349,2.0447165966033936,35.462400247412425,9.223729675212798,43.68941458217556,21.088194369280405,0.0,0.18750140433380427,0.1,0.0031714439392089844,0.058485984802246094,0.050212283,0.5266435,34.92433545514435,0.0,0.4662576105587135,0.0,300,0.037618160247802734,0.06301826870680487,0.07346847697243898,105000,20.80181979905945,0.0
350,2.029834508895874,41.120934194693305,3.595923906724535,46.38106471332825,37.59583572244431,0.0,0.22053738763211492,0.1,0.003094911575317383,0.05858635902404785,0.049202025,0.5780628,35.543995329099246,0.0,0.5418302609383796,0.0,300,0.049814462661743164,0.067268651561446,0.04581298660177809,105300,17.791079255814672,0.0
351,2.0654256343841553,38.56558745899059,4.185848711003656,43.12045406541012,32.299252063307094,0.0,0.21813121009101247,0.1,0.005283355712890625,0.062305450439453125,0.05027752,0.63271385,35.846154542088385,0.0,0.5077525569076617,0.0,300,0.05705618858337402,0.03462028921580162,0.02330831242089392,105600,20.764383269369176,0.0
352,2.0735387802124023,38.92903603456074,3.242031217982321,43.30332294399678,35.331772966638674,0.0,0.2155252100803391,0.1,0.003206014633178711,0.058528900146484375,0.05008344,0.4882636,36.154442691335625,0.0,0.5192298384500418,0.0,300,0.06181192398071289,0.021173619791725145,0.018510246014025702,105900,15.811981537701113,0.0
353,2.0624828338623047,30.524685778981823,10.708139458542837,43.008116225236954,13.440537734210464,0.0,0.18398145113773592,0.1,0.003298521041870117,0.06055712699890137,0.049633685,0.7382134,35.591467000100245,0.0,0.4038721036706158,0.0,300,0.04268765449523926,0.19775668593540696,0.16816571465134617,106200,23.762116684152712,0.0
354,2.144294500350952,35.241558829875565,9.155594015102087,43.87226171268842,21.21500362652772,0.0,0.1929986184991159,0.1,0.0031614303588867188,0.06084156036376953,0.0499487,0.51797193,35.55647618307778,0.0,0.4633977452512923,0.0,300,0.03321051597595215,0.0719779558231306,0.06702576622247033,106500,13.630414022613392,0.0
355,2.104349136352539,32.53766588787947,8.132452066249094,41.608694582024576,20.100823727277632,0.0,0.18708000248044682,0.1,0.003271341323852539,0.060454607009887695,0.049938425,1.022805,35.25459515355795,0.0,0.4240533942536102,0.0,300,0.057348012924194336,0.06711921924647153,0.06599862409916192,106800,21.724849291429226,0.0
356,2.090808629989624,35.545458125553196,4.287558804753438,42.28046216743054,31.731973134840036,0.0,0.22382084590146725,0.1,0.008006572723388672,0.09478497505187988,0.04984703,0.598177,35.28368145075748,0.0,0.46749028740446336,0.0,300,0.05837678909301758,0.05350235957506389,0.05228805256398442,107100,20.747838357045502,0.0
357,2.076692819595337,38.08347904768378,3.3678295572261914,41.51007340488628,32.59713067531324,0.0,0.2272829094468281,0.1,0.0032618045806884766,0.05990743637084961,0.049774144,0.51085997,35.56366121045011,0.0,0.5046642560028176,0.0,300,0.03954434394836426,0.027704963967800107,0.02212565592935355,107400,16.723034448424585,0.0
358,2.0717580318450928,36.02764488874931,4.134248475579848,41.76135015837924,30.369851251370207,0.0,0.21496052435903465,0.1,0.0047664642333984375,0.060662031173706055,0.048924178,0.5144431,35.61005957828003,0.0,0.47725305458760336,0.0,300,0.03696465492248535,0.037381619636858196,0.03322287035024243,107700,16.797018679670852,0.0
359,2.081326961517334,33.9452173458847,6.081398225619087,42.31302188678158,25.170815043876,0.0,0.20425174796022125,0.1,0.0030863285064697266,0.058452606201171875,0.050275747,0.5102855,35.4435753550405,0.0,0.45282076513479386,0.0,300,0.03589582443237305,0.05105561938402177,0.04795802081140066,108000,19.2699976314781,0.0
360,2.1063966751098633,36.132805332587324,3.200044129912502,40.80127930168982,31.858006706917582,0.0,0.21287457432779303,0.1,0.0031557083129882812,0.058339595794677734,0.049723867,0.5300275,35.512498352795184,0.0,0.47864757726585294,0.0,300,0.04316377639770508,0.017311119681837475,0.017224514766740525,108300,21.69678691603198,0.0
361,2.06949520111084,35.900091427344826,5.096673795091262,42.364272052226575,30.316998730831223,0.0,0.24132140274328104,0.1,0.015318632125854492,0.06329941749572754,0.050701316,0.5139408,35.55125766025015,0.0,0.4755516567310287,0.0,300,0.05272936820983887,0.0317546124851596,0.030791267816812556,108600,20.680226205487063,0.0
362,1.9965016841888428,36.17108024499627,4.061974974051281,40.419270416396216,29.593146182747454,0.0,0.20677917788320038,0.1,0.0030868053436279297,0.05989956855773926,0.05017805,0.5576485,35.613239918724766,0.0,0.4824957061674606,0.0,300,0.042617082595825195,0.023959802535729137,0.023119179661381793,108900,18.66688768683966,0.0
363,2.050992965698242,34.15056810018332,5.407820409504425,43.37574840709767,29.692706241006874,0.0,0.2292650426141644,0.1,0.003284931182861328,0.061537742614746094,0.048970193,0.7792535,35.46697273687062,0.0,0.4521591315888085,0.0,300,0.043085336685180664,0.0477173103212836,0.04648427332249124,109200,20.726334336565262,0.0
364,2.0546233654022217,35.084289668624685,8.520814555036269,45.92300217615909,23.34179477310582,0.0,0.21064280989739126,0.1,0.011928558349609375,0.06054282188415527,0.05034422,0.451225,35.42870443004603,0.0,0.4613389204591587,0.0,300,0.044363975524902344,0.06480374943162182,0.0637440071927739,109500,43.66211518493639,0.0
