iteration,time_sampling,stoc_pol_mean,stoc_pol_std,stoc_pol_max,stoc_pol_min,rollout_success,alpha,delta,time_vpg,time_npg,kl_dist,surr_improvement,running_score,rwd_sparse,rwd_dense,success_percentage,num_samples,time_VF,VF_error_before,VF_error_after,env_samples,eval_score,eval_success
0,1.183232307434082,69.3141879378496,0.8329278723087841,70.084925799286,68.06570786520479,0.0,0.1673823189036568,0.1,0.10749340057373047,0.10861897468566895,0.052147,0.5192563,69.3141879378496,0.0,0.9108434755404918,0.0,300,0.16449761390686035,0.9963196704620307,0.989502765631203,300,70.05260621430979,0.0
1,1.15505051612854,69.56803122495992,0.861382641460384,70.08717031028985,68.07625920234618,0.0,0.1822595747038867,0.1,0.002318859100341797,0.04366302490234375,0.054648824,0.55444944,69.33957226656064,0.0,0.917575604772891,0.0,300,0.04717564582824707,0.9894182575719394,0.9786044723124789,600,70.05104281170648,0.0
2,1.2766218185424805,70.05966924726738,0.01807990304694955,70.08025527520907,70.03214073705749,0.0,0.17565549918905995,0.1,0.013554573059082031,0.04909253120422363,0.051302016,0.4623433,69.41158196463131,0.0,0.9207867986474406,0.0,300,0.2617318630218506,0.9794112647921814,0.9615981380073182,900,70.0489942230207,0.0
3,1.1614680290222168,62.81717974285149,12.544329163075952,70.1007564361059,41.08981203238508,0.0,0.16845243555363035,0.1,0.0140838623046875,0.049912214279174805,0.051590092,0.546325,68.75214174245333,0.0,0.827565813166929,0.0,300,0.07648706436157227,0.9592291905350834,0.9269218788883038,1200,70.05148901301678,0.0
4,1.3057794570922852,66.59927412618762,6.048286961635159,70.1541319501552,56.12355491550513,0.0,0.17066577778472217,0.1,0.09992194175720215,0.044638633728027344,0.049805153,0.48269644,68.53685498082676,0.0,0.877958489081779,0.0,300,0.4168994426727295,0.928957363319736,0.8782448536006718,1500,70.05650147827802,0.0
5,1.3262484073638916,52.114903126386494,20.541735751565668,70.21455779623567,20.142255520584,0.0,0.16791808774594982,0.1,0.002533435821533203,0.04968881607055664,0.05084295,0.60705876,66.89465979538274,0.0,0.6881800668517978,0.0,300,0.12416839599609375,0.8712744261531794,0.7974338442811917,1800,70.0491948441089,0.0
6,1.3333797454833984,60.58966977766425,15.335065224605424,70.03850341618498,34.05907316196354,0.0,0.1765254099597781,0.1,0.03868556022644043,0.04385018348693848,0.05108255,0.54324615,66.2641607936109,0.0,0.7977625554522693,0.0,300,0.17414188385009766,0.8026675246938083,0.7029489293107054,2100,70.05525415621857,0.0
7,1.2618067264556885,60.05289752467382,17.321761778977926,70.0600007792531,30.05072708793592,0.0,0.1651758093729219,0.1,0.03323173522949219,0.1986100673675537,0.049697265,0.5591975,65.6430344667172,0.0,0.7906725477399529,0.0,300,0.21968936920166016,0.7046581727445951,0.5817619317271128,2400,70.04521295926466,0.0
8,1.2780139446258545,61.08329315735823,15.521754199508008,70.06929817173017,34.19883925052291,0.0,0.1682783050920963,0.1,0.0026023387908935547,0.0538938045501709,0.050769273,0.5837438,65.1870603357813,0.0,0.8044358339365956,0.0,300,0.2011091709136963,0.5748663633477576,0.44152350871138346,2700,70.04615237488896,0.0
9,1.214142084121704,68.3134614791283,3.0404612388357104,70.08650323936365,63.04727197154017,0.0,0.17083950962379593,0.1,0.17605900764465332,0.6411430835723877,0.050346743,0.62150264,65.499700450116,0.0,0.9008462634387618,0.0,300,0.21926546096801758,0.434240024424164,0.2946726691485534,3000,70.05541865979828,0.0
10,1.338608980178833,70.07448380448155,0.05190677421316346,70.16063807584669,70.03142747170872,0.0,0.17775371689474406,0.1,0.002248525619506836,0.057161808013916016,0.051219232,0.632063,65.95717878555256,0.0,0.9209802958724771,0.0,300,0.09932756423950195,0.29553245559343316,0.19400686838819542,3300,70.04922477667637,0.0
11,1.404571771621704,70.06330630748016,0.018965909624360254,70.08768363544534,70.03495651052049,0.0,0.17881845112741745,0.1,0.002565145492553711,0.048128604888916016,0.049994074,0.65043074,66.36779153774532,0.0,0.9208106697328379,0.0,300,0.07014632225036621,0.19188951859006365,0.15286469018265111,3600,70.05499552335479,0.0
12,1.215423822402954,63.883115634590936,10.860718492445669,70.2801856385162,45.07231177046274,0.0,0.17241214749235328,0.1,0.0025048255920410156,0.04507613182067871,0.051303357,0.761801,66.11932394742988,0.0,0.8416863503363388,0.0,300,0.254610538482666,0.21916378413323495,0.21294775405631758,3900,70.07007255034911,0.0
13,1.1975746154785156,70.05953787473109,0.015514642370934315,70.0856572509782,70.04521077675467,0.0,0.1656241356690582,0.1,0.005208730697631836,0.04318714141845703,0.05170311,0.7111775,66.51334534016,0.0,0.9207879889919496,0.0,300,0.2341461181640625,0.1552578619983623,0.13499009119185548,4200,70.10653516201455,0.0
14,1.2797772884368896,60.94156643682452,15.945012927505358,70.29366227453568,33.324432892412695,0.0,0.15948346913028047,0.1,0.0027811527252197266,0.049430131912231445,0.0501063,0.68859345,65.95616744982645,0.0,0.8025285517000372,0.0,300,0.12855839729309082,0.2608393897319958,0.21548636229017007,4500,70.12902813248961,0.0
15,1.2514762878417969,62.563040063925754,7.520497271000153,70.06027288670892,54.05689069699235,0.0,0.16743424944172292,0.1,0.16889715194702148,0.6218235492706299,0.04984514,0.9645574,65.61685471123639,0.0,0.8275098608910529,0.0,300,0.11042165756225586,0.1877371544726937,0.1569217103724193,4800,70.12097927748094,0.0
16,1.3605380058288574,66.14747152104272,4.777140947359826,70.06548995968855,58.35945498878301,0.0,0.16711253389018008,0.1,0.002386808395385742,0.04395461082458496,0.0507597,0.96147215,65.66991639221702,0.0,0.8719520867952685,0.0,300,0.3910653591156006,0.1383921534591117,0.13551816802709873,5100,70.10911211348629,0.0
17,1.2726905345916748,61.789912696612916,14.292292036651824,70.04999973934218,37.03493847569779,0.0,0.16062968906593086,0.1,0.002217531204223633,0.04316067695617676,0.050267424,0.7218381,65.28191602265662,0.0,0.8138641292354026,0.0,300,0.21013426780700684,0.17357218176410563,0.1622529861531663,5400,70.0998384345992,0.0
18,1.2619364261627197,63.82348615743777,10.820425664655609,70.09978946816236,45.08198604017971,0.0,0.16394103454870543,0.1,0.1715083122253418,0.187025785446167,0.050324623,0.9377946,65.13607303613473,0.0,0.8409335071379958,0.0,300,0.07158017158508301,0.13828819861598485,0.1277580254098375,5700,70.07788254341679,0.0
19,1.2441649436950684,69.06454917921992,1.7430549878293529,70.09371153662569,66.04559088327527,0.0,0.1674019612530484,0.1,0.08975672721862793,0.04381704330444336,0.050450824,0.8848802,65.52892065044325,0.0,0.9108654513712119,0.0,300,0.21387553215026855,0.10342590194813622,0.08827503969496778,6000,70.1303971800679,0.0
20,1.3911898136138916,56.08500203543765,14.605847306473668,70.05013460275472,36.0536673256503,0.0,0.1755772772462592,0.1,0.002374887466430664,0.04576420783996582,0.050848637,1.5797743,64.58452878894269,0.0,0.7411130459016723,0.0,300,0.05282235145568848,0.24079195912640156,0.21976983526908664,6300,70.10967641329783,0.0
21,1.3193631172180176,65.34109586738754,8.248836079676094,70.1897777251117,51.05405752778815,0.0,0.16348975373482905,0.1,0.10952925682067871,0.043590545654296875,0.050476972,0.9106235,64.66018549678718,0.0,0.8611145676661076,0.0,300,0.21781277656555176,0.10279811313213273,0.10387894400356008,6600,39.14642520860729,0.0
22,1.407691478729248,48.35107425946492,21.693634409250144,70.06191434047341,26.22194917580566,0.0,0.16864142810044416,0.1,0.0024149417877197266,0.04323863983154297,0.049783185,0.977021,63.02927437305496,0.0,0.6380093566713098,0.0,300,0.20932364463806152,0.4149505805699739,0.3612331124000746,6900,70.07361498199586,0.0
23,1.3380582332611084,52.58865205949441,17.603052477645402,70.03152038137537,26.213290695366265,0.0,0.17064824594572292,0.1,0.019167184829711914,0.04343605041503906,0.0505581,0.8861799,61.98521214169891,0.0,0.6978482750830307,0.0,300,0.31734156608581543,0.22611020891588868,0.20447347043473207,7200,70.04600144607569,0.0
24,1.3550503253936768,57.60251791543595,16.0794039355865,70.05606291305682,30.08960161560666,0.0,0.17223034455675043,0.1,0.010308027267456055,0.4759538173675537,0.0494442,0.66184986,61.54694271907262,0.0,0.7613657104174703,0.0,300,0.224442720413208,0.17797315413766665,0.18240183313525796,7500,70.04702830044428,0.0
25,1.529510736465454,70.04154217395572,0.008829663238833023,70.05442179360314,70.02974243923275,0.0,0.186990079513795,0.1,0.0025141239166259766,0.059134721755981445,0.04989789,1.0083143,62.39640266456093,0.0,0.9205595105509774,0.0,300,0.4616219997406006,0.16193021877837743,0.12403692218226688,7800,70.06000079443194,0.0
26,1.3881568908691406,62.56119300659963,12.957422402240413,70.05995545604083,40.11828905221069,0.0,0.17160255792524529,0.1,0.1669175624847412,0.04293060302734375,0.049601156,0.99256533,62.4128816987648,0.0,0.8241482054835564,0.0,300,0.13605475425720215,0.13923374396965899,0.12645083359797604,8100,70.05230938403088,0.0
27,1.3014016151428223,70.04613168877128,0.008325423685738789,70.05732703411933,70.03496422148461,0.0,0.1781216683758024,0.1,0.10363006591796875,0.04475879669189453,0.050741404,0.8155106,63.17620669776545,0.0,0.920607368843146,0.0,300,0.09837794303894043,0.08541326081346505,0.07257578049759279,8400,70.0936964933659,0.0
28,1.2800705432891846,66.04764218094124,6.936388350467207,70.07120118176148,54.033495851541424,0.0,0.15898303544616257,0.1,0.0025680065155029297,0.044507503509521484,0.0492971,1.2841294,63.46335024608303,0.0,0.8706260894559745,0.0,300,0.20589637756347656,0.11326627184265063,0.11585491976914464,8700,70.10561509866262,0.0
29,1.3795783519744873,63.81660849317015,10.8214924088293,70.1018829450765,45.07329537281306,0.0,0.16192310390645112,0.1,0.002444744110107422,0.04521751403808594,0.05019566,1.2214943,63.498676070791745,0.0,0.8408137223236064,0.0,300,0.2084345817565918,0.1335140625239523,0.12178817472308259,9000,70.04709186765227,0.0
30,1.3252661228179932,61.81552531366933,14.254762569560054,70.06251768641272,37.125559054239424,0.0,0.15530972213508507,0.1,0.0026252269744873047,0.04433274269104004,0.050154068,1.8750818,63.3303609950795,0.0,0.814204753468106,0.0,300,0.33867669105529785,0.15588161328910427,0.14518625505228586,9300,70.05434265198654,0.0
31,1.2059779167175293,70.04697011687861,0.0113497797692511,70.06504370883424,70.0339818519382,0.0,0.17884210147557805,0.1,0.15320682525634766,0.04433560371398926,0.04988359,0.978041,64.00202190725942,0.0,0.9206278894534851,0.0,300,0.13038110733032227,0.08909634978373573,0.08535289646560419,9600,70.05415881059062,0.0
32,1.295762538909912,70.05677987273933,0.02555328527778083,70.09644866880714,70.02681414559228,0.0,0.18430919178081842,0.1,0.002711772918701172,0.050185203552246094,0.050359305,0.7146448,64.60749770380741,0.0,0.9207512242418149,0.0,300,0.20568060874938965,0.07498200843736084,0.06147102157047817,9900,70.044748908806,0.0
33,1.31125807762146,57.09143347077637,13.063950697132185,70.21087753955514,43.04249665326204,0.0,0.16371154338378618,0.1,0.0025069713592529297,0.07115793228149414,0.05033662,2.5807018,63.85589128050431,0.0,0.7545149480975216,0.0,300,0.024604320526123047,0.19414218964713553,0.18157995385594483,10200,70.04968528146523,0.0
34,1.317955493927002,68.03658126735726,3.4601980836556496,70.03995444052953,62.04334537332793,0.0,0.15791331987804658,0.1,0.17695951461791992,0.14958977699279785,0.049745996,1.8496891,64.27396027918961,0.0,0.8971588508689676,0.0,300,0.3382441997528076,0.0653342111408535,0.06695914101158122,10500,30.04240254309941,0.0
35,1.426664113998413,70.06587658207408,0.01828693953545886,70.08432853295415,70.03646687296462,0.0,0.17111437183357292,0.1,0.002831697463989258,0.04857969284057617,0.049744014,1.940778,64.85315190947806,0.0,0.9208228937594484,0.0,300,0.05967092514038086,0.06839503215475214,0.06062482750662795,10800,70.05012581493538,0.0
36,1.3418149948120117,70.09246250385179,0.03265169084074491,70.12400525661785,70.03783002003365,0.0,0.15034884803880982,0.1,0.0716104507446289,0.04376029968261719,0.050276168,9.767452,65.37708296891543,0.0,0.9211257933721818,0.0,300,0.14130640029907227,0.06176214493553732,0.05484790101631677,11100,70.08105047297741,0.0
37,1.3849270343780518,58.09540903573818,20.805716230821858,70.12837221225918,22.05885851547321,0.0,0.16047485462910613,0.1,0.14811325073242188,0.2786843776702881,0.048445173,1.3187082,64.6489155755977,0.0,0.7645343675316723,0.0,300,0.06542015075683594,0.2283417072445492,0.20901335876670088,11400,70.09080393840601,0.0
38,1.4251720905303955,67.3437076829959,2.7932460967647743,70.15865950460962,64.06975874041784,0.0,0.16676004511739834,0.1,0.0027081966400146484,0.10944056510925293,0.049940977,2.586776,64.91839478633752,0.0,0.8879132709273243,0.0,300,0.17818617820739746,0.05537566203479737,0.056906967757605384,11700,70.13353978639361,0.0
39,1.3494305610656738,69.13755107224813,1.7679205265018614,70.31764781360434,66.0802194963898,0.0,0.15861641746850444,0.1,0.1670820713043213,0.25313282012939453,0.04952305,1.9534835,65.34031041492858,0.0,0.9117221235013138,0.0,300,0.11870503425598145,0.06545206925249232,0.061948921836711995,12000,66.05233428407233,0.0
40,1.3174328804016113,63.8428803797338,10.846121583552696,70.17999786146046,45.05704213662721,0.0,0.166435470886078,0.1,0.11412668228149414,0.04306173324584961,0.050035406,0.96657926,65.1905674114091,0.0,0.8412290259543296,0.0,300,0.3416564464569092,0.1045757471868434,0.10304513227826005,12300,68.0450597712023,0.0
41,1.4742400646209717,49.84837061047317,14.509547757073856,70.0402147882929,35.064728915541394,0.0,0.1611159971528811,0.1,0.006540536880493164,0.04497027397155762,0.04976336,2.1347969,63.65634773131551,0.0,0.6613050947196888,0.0,300,0.250626802444458,0.3030129351817628,0.22316605875049092,12600,67.03918694759578,0.0
42,1.3250854015350342,70.03909966460748,0.0071679114521890925,70.051481322835,70.03427329598439,0.0,0.17277582716384562,0.1,0.16644835472106934,0.17724204063415527,0.04935663,2.017353,64.29462292464471,0.0,0.9205244530913594,0.0,300,0.2677755355834961,0.07949054162435276,0.08800714195303982,12900,70.05724168523007,0.0
43,1.3331820964813232,58.584603365439804,19.867272153535687,70.06906431917729,24.17348336806779,0.0,0.1673529828813236,0.1,0.002226114273071289,0.04293179512023926,0.05030139,0.8880487,63.72362096872422,0.0,0.7711297833819923,0.0,300,0.2137467861175537,0.17007009505986223,0.16700590929789597,13200,70.05754189664378,0.0
44,1.3457958698272705,62.61113701476249,12.973775303627148,70.12947909975229,40.13993704774511,0.0,0.15908690936592992,0.1,0.0023980140686035156,0.30466222763061523,0.04963295,1.9249042,63.612372573328045,0.0,0.8248014778654573,0.0,300,0.2064523696899414,0.10544273023150054,0.10227868174911914,13500,70.05160280984924,0.0
45,1.2835588455200195,70.13323678737203,0.06532350757246208,70.20290751161178,70.05767128026991,0.0,0.1668253718816564,0.1,0.0024826526641845703,0.04836082458496094,0.05057633,0.9760349,64.26445899473245,0.0,0.9217289690586921,0.0,300,0.4578855037689209,0.07204294244030762,0.05443356909690989,13800,70.04676066544287,0.0
46,1.2453408241271973,68.58681969702495,2.558224726214989,70.08817863545144,64.15600996539838,0.0,0.1629135989699854,0.1,0.0024080276489257812,0.04351449012756348,0.050428327,1.5810874,64.6966950649617,0.0,0.9044796593501705,0.0,300,0.22704529762268066,0.06631898362351046,0.0656946987955831,14100,70.0936352216904,0.0
47,1.3816382884979248,70.07950246685658,0.024332496420950218,70.12120237411219,70.06031293938935,0.0,0.16555878123907677,0.1,0.007365226745605469,0.21802306175231934,0.049850095,1.7271026,65.2349758051512,0.0,0.9210335919476202,0.0,300,0.05636334419250488,0.04767989326218622,0.04620341420420845,14400,70.04505664629677,0.0
48,1.2998714447021484,67.83341596878317,3.911668213900965,70.1573864102193,61.0585700909221,0.0,0.14396772730755725,0.1,0.002483367919921875,0.044545888900756836,0.04931767,9.064077,65.4948198215144,0.0,0.8944333458468963,0.0,300,0.11034440994262695,0.04638121851650288,0.045176705179377906,14700,70.03493876555231,0.0
49,1.3332290649414062,70.05098139129339,0.014479828194692875,70.06750688437685,70.02772401351959,0.0,0.15747842617862545,0.1,0.0025413036346435547,0.07095098495483398,0.050679743,2.3115623,65.9504359784923,0.0,0.9206777391683881,0.0,300,0.08979439735412598,0.0440037383737673,0.04228357651075318,15000,70.03407339033423,0.0
50,1.3353862762451172,69.57968981277259,0.8584188782986889,70.15182289178571,68.09514415922686,0.0,0.18333436902800207,0.1,0.0025691986083984375,0.04481911659240723,0.05047307,1.195194,66.31336136192033,0.0,0.9143930900633968,0.0,300,0.4005591869354248,0.039777940394795416,0.037347416464556235,15300,70.03458495376775,0.0
51,1.3132760524749756,69.31101408196227,1.3038674863272488,70.07511445622653,67.0526863966576,0.0,0.15808615452510671,0.1,0.0024411678314208984,0.043115854263305664,0.048980094,4.265327,66.61312663392452,0.0,0.9107915424588879,0.0,300,0.2010636329650879,0.03848746287914571,0.037390190642423896,15600,70.03973873971708,0.0
52,1.3416242599487305,58.5816169435958,17.656100848063215,70.03306099184401,28.058100878925217,0.0,0.15614142494734748,0.1,0.0022940635681152344,0.09618210792541504,0.04920026,1.2295334,65.80997566489165,0.0,0.7710948608080708,0.0,300,0.19749999046325684,0.15222783122926864,0.13666671551142634,15900,70.04007254252109,0.0
53,1.5129995346069336,67.79678652688645,3.8922409954644293,70.06306948150169,61.05526611187305,0.0,0.1787809189059862,0.1,0.04172158241271973,0.04295992851257324,0.050259337,2.4827383,66.00865675109114,0.0,0.8939581514074361,0.0,300,0.21148014068603516,0.036780568090676834,0.038103046676071554,16200,70.03625297948838,0.0
54,1.4580774307250977,70.04695117454806,0.010142034032164134,70.05735131899503,70.03026164704534,0.0,0.17385501714752977,0.1,0.0021905899047851562,0.042738914489746094,0.049594834,3.3938425,66.41248619343683,0.0,0.9206271505723131,0.0,300,0.09748411178588867,0.04409779323847158,0.03549354662953006,16500,70.03810054874508,0.0
55,1.3051977157592773,64.55655210390003,9.51158370466028,70.06637834324658,48.08201732648864,0.0,0.15903738527306918,0.1,0.0023698806762695312,0.09587597846984863,0.050909832,1.624336,66.22689278448316,0.0,0.8507590520876189,0.0,300,0.46280384063720703,0.07421588252348525,0.07411075242754843,16800,70.04397981887236,0.0
56,1.2665579319000244,69.32158251196066,1.2920301384183401,70.08076600095556,67.0838216019754,0.0,0.14713568590314535,0.1,0.1845264434814453,0.3232450485229492,0.05005466,3.7036154,66.5363617572309,0.0,0.9142711902735512,0.0,300,0.40248632431030273,0.02926619961018129,0.02796667311558794,17100,70.03894053753221,0.0
57,1.493927240371704,67.55320833386095,4.317281207265395,70.08097823298134,60.07555128134358,0.0,0.14911521817340476,0.1,0.06296443939208984,0.11464476585388184,0.04914601,8.69694,66.63804641489392,0.0,0.8907161349002004,0.0,300,0.3591327667236328,0.03899435615081253,0.03792853812136119,17400,70.04695906405142,0.0
58,1.416172742843628,60.07341867988391,15.63926780574672,70.06997106100064,33.066224313313484,0.0,0.1583106194721243,0.1,0.002214670181274414,0.15116119384765625,0.04915439,4.7455935,65.98158364139292,0.0,0.7943160927684018,0.0,300,0.29299402236938477,0.1335196082182889,0.12470585483218698,17700,70.0444808988648,0.0
59,1.3908236026763916,59.78786410373141,17.75074457080802,70.04523908903877,29.042674109841116,0.0,0.17142374576226063,0.1,0.0025997161865234375,0.053075551986694336,0.05031551,0.76336527,65.36221168762677,0.0,0.7871650190424624,0.0,300,0.06092715263366699,0.13997789621357176,0.13069961921362797,18000,70.04233881547292,0.0
60,1.5502641201019287,70.03038668554224,0.004974389045608102,70.03519660144288,70.02241585090523,0.0,0.16069417422975563,0.1,0.0027778148651123047,0.18724799156188965,0.04989035,20.69633,65.82902918741831,0.0,0.920409822119662,0.0,300,0.09257030487060547,0.05327834968290588,0.046578024188290386,18300,70.0406886584783,0.0
61,1.447117805480957,70.0355169173395,0.01194673822977596,70.05424454942214,70.0227344472094,0.0,0.15156236130268494,0.1,0.07474684715270996,0.04880809783935547,0.04931366,7.255523,66.24967796041044,0.0,0.9204790960706055,0.0,300,0.07142829895019531,0.044396331751314314,0.027490553570388203,18600,70.02797008429094,0.0
62,1.376450777053833,65.05441277926754,8.666868890223592,70.06174401396788,50.042956623836254,0.0,0.15979401175727684,0.1,0.16970062255859375,0.0731971263885498,0.050087873,2.529216,66.13015144229615,0.0,0.8573951959809574,0.0,300,0.2205948829650879,0.06237658119728838,0.06790939645481223,18900,70.0280411320732,0.0
63,1.5495727062225342,68.79721884220737,2.1663332907910533,70.08228641824213,65.04519685479364,0.0,0.14748905456165148,0.1,0.0027840137481689453,0.05291414260864258,0.04879196,13.959681,66.39685818228727,0.0,0.9073002893414548,0.0,300,0.3361363410949707,0.03448378555750754,0.030020060235183436,19200,70.03723387943333,0.0
64,1.4594240188598633,70.07365740237927,0.07368297081420551,70.2005962607599,70.02092745171984,0.0,0.1667126828421803,0.1,0.1702880859375,0.11578369140625,0.048932627,1.551533,66.76453810429648,0.0,0.9209793875864964,0.0,300,0.11510372161865234,0.03968065598290105,0.0377686355689263,19500,70.03403654372933,0.0
65,1.3546950817108154,70.03565180905755,0.010449745525008705,70.05010810763166,70.02132218409128,0.0,0.13952168948545215,0.1,0.0023071765899658203,0.043936967849731445,0.049730353,15.843519,67.09164947477258,0.0,0.9204725844264549,0.0,300,0.20782065391540527,0.023394158040139508,0.022830374244612643,19800,70.03004635936848,0.0
66,1.3301677703857422,68.302888901069,2.9984730039288325,70.04070243515096,63.10939057087459,0.0,0.13569255762547855,0.1,0.0024912357330322266,0.04448866844177246,0.048805255,1.6049865,67.21277341740222,0.0,0.9006858045593737,0.0,300,0.2657277584075928,0.05914128005401659,0.05024723614173734,20100,70.03595964674754,0.0
67,1.368729829788208,70.03997160387453,0.013148113854226805,70.05921681617819,70.02573579007814,0.0,0.14757899262753207,0.1,0.08830785751342773,0.04851984977722168,0.05152366,5.46524,67.49549323604946,0.0,0.9205363234477892,0.0,300,0.18981146812438965,0.025123068021333055,0.02443576783952662,20400,70.03825741189519,0.0
68,1.3184776306152344,70.03349121707228,0.008933693261467169,70.04891107610166,70.02722504327183,0.0,0.14338184201596882,0.1,0.003309011459350586,0.18000102043151855,0.048984185,17.339153,67.74929303415173,0.0,0.920448205617352,0.0,300,0.13034963607788086,0.02825541461968977,0.02602630891330088,20700,70.045297821012,0.0
69,1.4083607196807861,70.03327998178955,0.008866679296668864,70.04347741681254,70.02011059408122,0.0,0.15656291776128267,0.1,0.0732114315032959,0.05015826225280762,0.05053766,2.4193597,67.97769172891552,0.0,0.9204484053217442,0.0,300,0.06423687934875488,0.020494528868247406,0.019421645044593625,21000,70.0362657433159,0.0
70,1.3624489307403564,70.03772029071644,0.022841264178277417,70.07673699443926,70.02072142276033,0.0,0.17357390764183284,0.1,0.06308341026306152,0.04545092582702637,0.04848127,1.6149565,68.18369458509561,0.0,0.9205089626969706,0.0,300,0.09116339683532715,0.022951003861266136,0.022316691118796503,21300,70.03346260431432,0.0
71,1.38397216796875,70.03289953069003,0.005582472993652784,70.04078804668045,70.0262145935373,0.0,0.1507631702214956,0.1,0.002352476119995117,0.0825967788696289,0.050089624,6.299501,68.36861507965506,0.0,0.9204431610533044,0.0,300,0.4157841205596924,0.022362858017925164,0.021163739042683632,21600,70.031886218297,0.0
72,1.4581975936889648,61.32762072773643,15.143808052939752,70.07885652456778,35.09778098807265,0.0,0.1576720075074586,0.1,0.0028030872344970703,0.08879518508911133,0.05036122,1.5533166,67.6645156444632,0.0,0.8076850493978125,0.0,300,0.13683104515075684,0.1480375058943138,0.11085583901538429,21900,70.02478233639364,0.0
73,1.4497566223144531,70.03403545100217,0.009843304756143721,70.04805001848742,70.02026769093177,0.0,0.15748654612884413,0.1,0.1860802173614502,0.08246159553527832,0.050030287,2.9115477,67.90146762511709,0.0,0.920460165850169,0.0,300,0.2637937068939209,0.02917032447916931,0.03634128529460074,22200,70.02195026535911,0.0
74,1.4107861518859863,70.04852064955723,0.029691661103945822,70.09520784451522,70.02067176682526,0.0,0.16417461100739433,0.1,0.0023415088653564453,0.044141530990600586,0.049840216,3.919953,68.11617292756111,0.0,0.9206472295919926,0.0,300,0.197831392288208,0.03235322361027251,0.020124921335811903,22500,70.02667623491779,0.0
75,1.3766474723815918,70.03500257772825,0.016410547691065064,70.06291930315248,70.02084564646636,0.0,0.16601420693781394,0.1,0.0023267269134521484,0.04290771484375,0.049395442,1.8011255,68.30805589257783,0.0,0.9204707985690763,0.0,300,0.2679097652435303,0.025320366043026545,0.020713776009160318,22800,70.02086342119811,0.0
76,1.4531099796295166,70.07381456076357,0.07471110035088067,70.20267853352001,70.02452083299504,0.0,0.15421582688312638,0.1,0.0023789405822753906,0.13629913330078125,0.050351728,5.5449038,68.48463175939641,0.0,0.920969655697799,0.0,300,0.26035165786743164,0.017187330077374413,0.018532315107552638,23100,70.02979237993027,0.0
77,1.458660364151001,68.03457223536618,3.4670381545709756,70.0477700155046,62.02949847247077,0.0,0.15392221941086245,0.1,0.18023443222045898,0.25124216079711914,0.050086457,2.3500142,68.43962580699338,0.0,0.8971341971012066,0.0,300,0.1843242645263672,0.05029794449053336,0.03720063917450474,23400,70.03835576033863,0.0
78,1.4465861320495605,70.05428387036899,0.014383066482293644,70.07163980217092,70.03439695981874,0.0,0.1606135008741323,0.1,0.0022284984588623047,0.04434967041015625,0.05009043,3.4227612,68.60109161333094,0.0,0.9207062022474674,0.0,300,0.16468358039855957,0.01657895715816522,0.017666080792673913,23700,70.02772092106126,0.0
79,1.4942078590393066,70.03237350403325,0.008575904053485139,70.044650065517,70.02362003225882,0.0,0.1530702688772796,0.1,0.0026199817657470703,0.04377007484436035,0.04961568,14.169602,68.74421980240118,0.0,0.920437333205262,0.0,300,0.21905279159545898,0.019132301938231584,0.018233982052309666,24000,70.01936166995425,0.0
80,1.4629127979278564,70.04280280859899,0.014723191025468886,70.05976891340718,70.01968035513063,0.0,0.15142042821401905,0.1,0.03766322135925293,0.0429537296295166,0.04903811,5.119794,68.87407810302096,0.0,0.9205771343200062,0.0,300,0.45046067237854004,0.01789603996862887,0.015086374663782728,24300,70.01977810513316,0.0
81,1.5608646869659424,70.06125387059339,0.02382514730501793,70.09061153375299,70.02643766295292,0.0,0.16976479941526593,0.1,0.002939939498901367,0.04897928237915039,0.04971881,1.7767711,68.99279567977821,0.0,0.9208040850786444,0.0,300,0.19074440002441406,0.0205777553118887,0.019962784923113236,24600,70.01931729928775,0.0
82,1.4558539390563965,70.03477708753557,0.01388507292593277,70.05867767738947,70.02546200914944,0.0,0.1635977249489783,0.1,0.037094831466674805,0.044679880142211914,0.050421555,3.6184797,69.09699382055395,0.0,0.9204448450378683,0.0,300,0.2214200496673584,0.018680491338164865,0.01719245924705035,24900,70.01911922254011,0.0
83,1.4690039157867432,70.02701626339514,0.001709691173511675,70.02874202817065,70.0242275757286,0.0,0.15907587122160385,0.1,0.17756009101867676,0.1391160488128662,0.049280036,2.512929,69.18999606483807,0.0,0.9203665520248769,0.0,300,0.17486858367919922,0.012480446778657426,0.012274483765981836,25200,70.01921933039547,0.0
84,1.5335078239440918,70.0451634635138,0.036113586789296055,70.10766903026808,70.02295534173847,0.0,0.16718712169581232,0.1,0.002339601516723633,0.044003963470458984,0.050840616,14.434321,69.27551280470564,0.0,0.9206074712368416,0.0,300,0.1592881679534912,0.023422333580320687,0.022775748017907108,25500,70.01969703452059,0.0
85,1.4114537239074707,70.03835621534009,0.014986128499158516,70.06242749221175,70.02127682260316,0.0,0.1669635352080762,0.1,0.002416849136352539,0.04937434196472168,0.04932498,2.798648,69.3517971457691,0.0,0.9205161317212787,0.0,300,0.2238173484802246,0.023079381458674875,0.021787067147561425,25800,70.02225112958845,0.0
86,1.5046474933624268,70.02858619295704,0.0067908917228261065,70.04021956293124,70.02325824590672,0.0,0.1656521869916411,0.1,0.17068719863891602,0.20408964157104492,0.05053636,3.9378088,69.41947605048789,0.0,0.9203869315105745,0.0,300,0.2162487506866455,0.014443881446022256,0.01375951468841876,26100,70.04930694235438,0.0
87,1.3478734493255615,70.03936384781113,0.010891763282108063,70.0558614416619,70.02753351618074,0.0,0.16759876583786698,0.1,0.07641816139221191,0.04387974739074707,0.050049473,2.708694,69.4814648302202,0.0,0.920530676556518,0.0,300,0.22272038459777832,0.015966491137835832,0.015880383831843557,26400,70.06128184332138,0.0
88,1.397407054901123,70.06092007455804,0.027475606482984673,70.10603546644393,70.0352058467242,0.0,0.15825944451033433,0.1,0.003116130828857422,0.07218265533447266,0.049845617,5.708661,69.53941035465398,0.0,0.9208184299960513,0.0,300,0.29779744148254395,0.016001165333192895,0.015398274793915746,26700,70.10725711570925,0.0
89,1.479567289352417,67.06904647297864,5.216755268426795,70.13552231917372,58.03358896103449,0.0,0.14338349358955177,0.1,0.0030956268310546875,0.050018310546875,0.049877353,1.4429593,69.29237396648645,0.0,0.8842584234938704,0.0,300,0.14732599258422852,0.042600582238777183,0.03322046400763811,27000,70.05987752227803,0.0
90,1.4822466373443604,70.030604035286,0.007233521955418636,70.03896344650234,70.02224253575503,0.0,0.18214776457290316,0.1,0.002446413040161133,0.04369688034057617,0.049446918,1.1797787,69.36619697336641,0.0,0.9204142843083655,0.0,300,0.21031808853149414,0.029397206793732835,0.0227333580543224,27300,70.02746769372492,0.0
91,1.512324571609497,70.03680324760984,0.017057537750237994,70.06472813093924,70.01916419476798,0.0,0.14541481689084995,0.1,0.0022406578063964844,0.04450201988220215,0.050253857,32.55302,69.43325760079075,0.0,0.9204909374342808,0.0,300,0.1247565746307373,0.011056618862072083,0.012933443719625987,27600,70.02753050280121,0.0
92,1.4446699619293213,61.06334010551961,15.537376999298859,70.04546962905133,34.151816601243404,0.0,0.17143912699233418,0.1,0.002627849578857422,0.04307985305786133,0.04984455,0.7049244,68.59626585126364,0.0,0.8041832004666701,0.0,300,0.10403585433959961,0.13278412919459281,0.10424839904669889,27900,70.02081524676454,0.0
93,1.5553433895111084,70.03771745696694,0.020946895894516416,70.07352538519505,70.0202751642802,0.0,0.16373752451750162,0.1,0.0023283958435058594,0.13242626190185547,0.050112613,3.345536,68.74041101183397,0.0,0.9205088218617772,0.0,300,0.23436808586120605,0.01947258934465779,0.025451809720774113,28200,70.02473537731976,0.0
94,1.3887686729431152,69.56276283952721,0.7982623435099888,70.02534608950043,68.18013446887375,0.0,0.1692285468053564,0.1,0.09056925773620605,0.045440673828125,0.04932112,2.3047817,68.8226461946033,0.0,0.9141741534467669,0.0,300,0.2011096477508545,0.027889884125742923,0.017388015980351033,28500,70.01984899184076,0.0
95,1.4289517402648926,68.30883609461252,2.979472805801273,70.03485288377065,63.148245618095494,0.0,0.16789210787103953,0.1,0.002593517303466797,0.047887325286865234,0.049376592,1.5826771,68.77126518460422,0.0,0.900790401367108,0.0,300,0.14837002754211426,0.016218569931976668,0.017798552594525188,28800,70.02300581480428,0.0
96,1.4910099506378174,70.04235123881837,0.017269860781179446,70.07161075629817,70.0267671679051,0.0,0.15313855084738523,0.1,0.002371549606323242,0.0706794261932373,0.04953989,4.1083965,68.89837379002563,0.0,0.9205569010377906,0.0,300,0.21950578689575195,0.014427839396425533,0.011305347917796686,29100,70.02816404125736,0.0
97,1.507378339767456,70.03383232167903,0.012927560579874783,70.05586205680527,70.02384190986278,0.0,0.16206535855400886,0.1,0.010450363159179688,0.04941272735595703,0.05018485,2.194922,69.01191964319096,0.0,0.9204485358791059,0.0,300,0.2099475860595703,0.014856142061751978,0.01511974322413379,29400,70.04558898287472,0.0
98,1.5282330513000488,62.05877886479277,13.826055094684225,70.06625981336042,38.11136377368061,0.0,0.1697104027286903,0.1,0.0024390220642089844,0.04735970497131348,0.05059934,0.78939927,68.31660556535114,0.0,0.8174519206458154,0.0,300,0.11619973182678223,0.10940875333015244,0.08147135123144908,29700,70.07474835098184,0.0
99,1.5308003425598145,70.03907027519281,0.028281921394392652,70.08805566054585,70.0226143623618,0.0,0.15412811735737927,0.1,0.0023517608642578125,0.0749356746673584,0.050345242,6.556127,68.4888520363353,0.0,0.9205267162249197,0.0,300,0.10149812698364258,0.025489475346342282,0.025953325469463554,30000,70.05545424714383,0.0
100,1.4769487380981445,70.03520868308212,0.01140881305412348,70.05286092188655,70.02279797375019,0.0,0.1699479318069907,0.1,0.002161741256713867,0.04521441459655762,0.049087565,5.600408,68.64348770100999,0.0,0.9204454483855011,0.0,300,0.45781683921813965,0.02921309202285117,0.011158917994742947,30300,70.21414050779606,0.0
101,1.680109977722168,70.06053394810866,0.04979850967767413,70.14666128253079,70.02748553184409,0.0,0.17388585191491016,0.1,0.0027201175689697266,0.04686546325683594,0.050342813,0.97840726,68.78519232571986,0.0,0.9208130783316897,0.0,300,0.09911346435546875,0.012052983850116862,0.016571720202045684,30600,70.09619520388627,0.0
102,1.564021110534668,70.07201135016791,0.07742603901381918,70.20578494927892,70.02097060904441,0.0,0.17206843702310637,0.1,0.002918243408203125,0.05340170860290527,0.050298527,1.7892407,68.91387422816467,0.0,0.9209666601756298,0.0,300,0.05660510063171387,0.031580233627137175,0.02165482601777357,30900,70.04194700370797,0.0
103,1.382718801498413,70.04205483389612,0.026318394193561367,70.08729270412022,70.02182016822138,0.0,0.17193674642694307,0.1,0.0024280548095703125,0.04419136047363281,0.05104288,2.0896025,69.02669228873782,0.0,0.9205663246806581,0.0,300,0.21525120735168457,0.010955987235524977,0.011621337908016111,31200,70.0645002591151,0.0
104,1.485107421875,70.05332740671976,0.027956674782359824,70.08930485868207,70.02165295190842,0.0,0.1619241717885637,0.1,0.0024688243865966797,0.04341578483581543,0.05011367,4.30656,69.12935580053602,0.0,0.9207072213240408,0.0,300,0.21127676963806152,0.016593555658604483,0.013389532341020256,31500,70.14840146363191,0.0
105,1.676645278930664,70.06060776199308,0.0365030146690458,70.11737809306518,70.02279281559822,0.0,0.15846736485781476,0.1,0.002388477325439453,0.04420804977416992,0.049753264,4.5189667,69.22248099668172,0.0,0.9208105624152868,0.0,300,0.4106786251068115,0.013215158703661465,0.014268759282475585,31800,70.03297275515438,0.0
106,1.4798345565795898,70.03256207928922,0.0032739637268679673,70.03677656480859,70.02803843593713,0.0,0.1824401986211981,0.1,0.0031790733337402344,0.0502009391784668,0.05024681,1.6459733,69.30348910494247,0.0,0.9204344196848808,0.0,300,0.16091251373291016,0.01454116026576766,0.014355503397925346,32100,70.13025719672336,0.0
107,1.4684154987335205,67.78827623122143,3.9021580085743985,70.06457904384553,61.02959544677771,0.0,0.16940246527318878,0.1,0.002578258514404297,0.04512763023376465,0.049369585,1.6901629,69.15196781757037,0.0,0.8938436769496472,0.0,300,0.1420602798461914,0.020698034677757726,0.016156524146737065,32400,70.02181784520778,0.0
108,1.5682563781738281,70.03788632471235,0.013890713657807531,70.05688817553205,70.01931666678858,0.0,0.17240651470545326,0.1,0.004928112030029297,0.04510092735290527,0.049403172,1.5751512,69.24055966828456,0.0,0.9205099153830633,0.0,300,0.06437134742736816,0.010864082801945252,0.011804731389769132,32700,70.17205276434217,0.0
109,1.635124683380127,70.04690488507015,0.01693920242430931,70.06750902046555,70.02465124861024,0.0,0.18977838345709275,0.1,0.0023267269134521484,0.04471731185913086,0.049911216,0.9691479,69.32119418996312,0.0,0.9206312479242879,0.0,300,0.12021207809448242,0.01516072576602239,0.0140596162543131,33000,70.11038753811091,0.0
110,1.6058251857757568,70.04331394583274,0.026547838008848558,70.08901799540163,70.02543325222233,0.0,0.17563858690482587,0.1,0.023914813995361328,0.1858675479888916,0.049680896,1.2995187,69.39340616555009,0.0,0.9205832001977646,0.0,300,0.2390596866607666,0.01070626300257974,0.00888149769702178,33300,70.16435878384935,0.0
111,1.480137586593628,68.06065060277551,3.445396838411553,70.08071368018088,62.093141024563984,0.0,0.15920459389690803,0.1,0.002355337142944336,0.044029951095581055,0.0505646,0.8744176,69.26013060927264,0.0,0.8974528406373281,0.0,300,0.25038886070251465,0.030132791403289172,0.029334023804889725,33600,70.0321304038408,0.0
112,1.5635743141174316,70.02583937523983,0.00382823146562086,70.0311090068277,70.02030679360374,0.0,0.17411205229982205,0.1,0.08034539222717285,0.04587292671203613,0.04897983,5.8852224,69.33670148586936,0.0,0.920350446993525,0.0,300,0.418353796005249,0.02198393487541422,0.01736099466046537,33900,70.01900001598719,0.0
113,1.4891510009765625,70.02372509054427,0.004648649933649457,70.0312421575612,70.01869654390062,0.0,0.18794676280287778,0.1,0.12755799293518066,0.046158552169799805,0.049473975,1.0632806,69.40540384633685,0.0,0.9203225116041941,0.0,300,0.16146111488342285,0.013012418535185442,0.01304538463786874,34200,70.0229579721945,0.0
114,1.526951551437378,63.311746309571575,11.631744948529118,70.03881532156953,43.164976815499635,0.0,0.17184090322631182,0.1,0.1827082633972168,0.5158090591430664,0.049765185,1.0438923,68.79603809266032,0.0,0.8341621234651844,0.0,300,0.2143549919128418,0.06385791100185512,0.0564365087225439,34500,70.01915449384111,0.0
115,1.588374137878418,70.025073366214,0.003572930156375992,70.02949572037834,70.02005633751234,0.0,0.18055776157147604,0.1,0.0024292469024658203,0.04407382011413574,0.04996518,1.429365,68.9189416200157,0.0,0.9203407023191456,0.0,300,0.21117854118347168,0.026009411968761297,0.01922242517939234,34800,70.01891025967383,0.0
116,1.535844087600708,70.0235331394602,0.003600765016743571,70.02877016190313,70.0198686514335,0.0,0.16497679243900587,0.1,0.0022552013397216797,0.043802738189697266,0.049731776,1.6521658,69.02940077196016,0.0,0.9203202441971656,0.0,300,0.2658348083496094,0.019295697349936934,0.01181177670345825,35100,70.01894512616948,0.0
117,1.7004444599151611,70.03288767156079,0.00939541770212431,70.04865600855804,70.02406937165642,0.0,0.1797024012114042,0.1,0.0024785995483398438,0.04715466499328613,0.05016924,1.1844568,69.12974946192023,0.0,0.9204388342857954,0.0,300,0.21100926399230957,0.009854775831530223,0.012134183341596105,35400,70.01900957856624,0.0
118,1.645190715789795,70.03039521914664,0.009179365403343883,70.04506431769215,70.02057208484688,0.0,0.17647026183616651,0.1,0.0022253990173339844,0.047087907791137695,0.049955796,3.0108838,69.21981403764286,0.0,0.9204110945089699,0.0,300,0.18741393089294434,0.023657751900002813,0.01599104501017682,35700,70.01899574078392,0.0
119,1.5327749252319336,69.55047623414524,0.8284211234606635,70.03248741120873,68.11561824293182,0.0,0.17563729510534068,0.1,0.002371072769165039,0.043402910232543945,0.04962826,0.9584456,69.2528802572931,0.0,0.9173464556432737,0.0,300,0.09878158569335938,0.012570712551169145,0.013522063598355892,36000,70.01875646258803,0.0
120,1.5807287693023682,70.03105489010262,0.009759237242400872,70.04495146258519,70.02143617787236,0.0,0.16727653249379018,0.1,0.16616106033325195,0.04757809638977051,0.04949594,3.5257435,69.33069772057405,0.0,0.9204204537398467,0.0,300,0.2896912097930908,0.010162266072251522,0.009416322905119965,36300,70.01879872556354,0.0
121,1.3519797325134277,66.05168152259508,6.88055270966093,70.02582072567033,54.13421479898917,0.0,0.16965232116267157,0.1,0.05405569076538086,0.04402613639831543,0.050211977,1.6596676,69.00279610077615,0.0,0.8706943764264303,0.0,300,0.22800350189208984,0.03129853211921705,0.024877668875085187,36600,70.01911200829576,0.0
122,1.418456792831421,70.0379607895826,0.013886958917061015,70.05908889821701,70.0210615883111,0.0,0.19550957627907,0.1,0.002788066864013672,0.049584388732910156,0.050012775,0.5954977,69.10631256965681,0.0,0.9205120906114292,0.0,300,0.21829676628112793,0.012759694066008761,0.01302082145310614,36900,70.01869996067299,0.0
123,1.4022047519683838,70.08405156895556,0.08940235288636506,70.23791869683937,70.01882441896964,0.0,0.18415905013072853,0.1,0.04652070999145508,0.04552721977233887,0.04974401,0.99582237,69.20408646958668,0.0,0.9211246264554269,0.0,300,0.19075465202331543,0.014896299569741075,0.01218800792707938,37200,70.01866531459453,0.0
124,1.5050396919250488,70.02168491308223,0.0025525618110080147,70.02602262777934,70.01960112989278,0.0,0.1649639740464903,0.1,0.008641958236694336,0.09892535209655762,0.049872722,1.4844693,69.28584631393623,0.0,0.9202955992674198,0.0,300,0.0584559440612793,0.012318916399494116,0.010853944599642687,37500,70.01864196179417,0.0
125,1.6960885524749756,70.04057317845141,0.021477500377662523,70.06558949918035,70.01892420812904,0.0,0.17822664796999155,0.1,0.1327517032623291,0.044780731201171875,0.05030917,1.2309098,69.36131900038775,0.0,0.9205471080324266,0.0,300,0.20793390274047852,0.009311659566105834,0.007731847492973824,37800,70.0185648508839,0.0
126,1.4059176445007324,70.02600560965298,0.00590842788479169,70.0343798590461,70.01973497840989,0.0,0.1752240434538012,0.1,0.007009744644165039,0.09051704406738281,0.05023983,1.501101,69.42778766131428,0.0,0.9203531990165984,0.0,300,0.21907687187194824,0.00909327537063418,0.008932732509488667,38100,70.01857879740655,0.0
127,1.49582839012146,70.02382545983704,0.005544172611370904,70.03340694524088,70.0201408878798,0.0,0.18492239158348167,0.1,0.0027053356170654297,0.04463839530944824,0.049863026,0.9855642,69.48739144116657,0.0,0.9203240929018695,0.0,300,0.016907453536987305,0.007584218988771154,0.0068863304041935774,38400,70.01850974361797,0.0
128,1.6637308597564697,70.0327672036763,0.01778508233825327,70.06326172481845,70.01997314949989,0.0,0.18219731318786933,0.1,0.0025169849395751953,0.04412055015563965,0.049815502,1.2202301,69.54192901741754,0.0,0.92044322562908,0.0,300,0.1229560375213623,0.011791333908706915,0.011187543969604242,38700,70.01849725285004,0.0
129,1.569718837738037,70.02082146475419,0.0018882921227166573,70.02408443790361,70.01961996454972,0.0,0.17748726416149888,0.1,0.024268627166748047,0.06131100654602051,0.049788143,0.85609764,69.58981826215121,0.0,0.9202840009660215,0.0,300,0.10847043991088867,0.009350510276580608,0.00881373999705713,39000,70.01848288869326,0.0
130,1.5327210426330566,60.02714488104786,17.31644247008653,70.03098161795799,30.034187434425863,0.0,0.17559180964590135,0.1,0.0026328563690185547,0.05530428886413574,0.05019265,0.5853488,68.63355092404088,0.0,0.7903678205921328,0.0,300,0.11266636848449707,0.13666141469173604,0.1068522987054203,39300,70.01850696421866,0.0
131,1.4579625129699707,69.77482483690247,0.4316679317543751,70.02619974711862,69.02715755492218,0.0,0.1859983697613471,0.1,0.016289949417114258,0.04875946044921875,0.049798124,0.5126577,68.74767831532704,0.0,0.9170038017149017,0.0,300,0.12679243087768555,0.021072034783311284,0.022887070327794443,39600,70.01866577571012,0.0
132,1.6038541793823242,70.04371425403761,0.027204858760180636,70.08819269398997,70.01961198222514,0.0,0.18626034115832343,0.1,0.023524045944213867,0.08344435691833496,0.049527403,0.63891053,68.8772819091981,0.0,0.9205726474596178,0.0,300,0.07056903839111328,0.032915818406118874,0.0070218331993369635,39900,70.01858281977545,0.0
133,1.5795860290527344,70.03215276564475,0.011778346253161915,70.05242363451049,70.02361460738965,0.0,0.1785736234921192,0.1,0.03275918960571289,0.04378318786621094,0.04987152,1.1848004,68.99276899484278,0.0,0.9204349585963202,0.0,300,0.19055771827697754,0.015343890782056075,0.020335269414389626,40200,70.01867013569357,0.0
134,1.5966429710388184,70.02058246733702,0.0013881212467351097,70.02219932595443,70.01888987363937,0.0,0.17223354814706676,0.1,0.0029876232147216797,0.04350471496582031,0.04931515,1.2952356,69.0955503420922,0.0,0.9202804816420882,0.0,300,0.18002867698669434,0.009872012391833654,0.006545960630097369,40500,70.01869567428717,0.0
135,1.5414512157440186,70.02583750312886,0.002391047246046889,70.02821183965463,70.02276609649074,0.0,0.175871063860975,0.1,0.13830971717834473,0.04589200019836426,0.049731895,0.6901686,69.18857905819586,0.0,0.9203506576951098,0.0,300,0.29744815826416016,0.008674570737365175,0.008831130555548912,40800,70.01869821954337,0.0
136,1.4556596279144287,70.03141669430393,0.008803392070415087,70.04093895310004,70.02031482424022,0.0,0.18652328336602828,0.1,0.10479545593261719,0.1504654884338379,0.050521933,1.4096472,69.27286282180667,0.0,0.920422354580503,0.0,300,0.22342419624328613,0.006927454244631885,0.006723644268394836,41100,70.01872653233171,0.0
137,1.6941683292388916,70.02346796575382,0.003582451859211228,70.0273910640351,70.01868274700495,0.0,0.18658390024908555,0.1,0.0028460025787353516,0.0513308048248291,0.05033043,0.66865623,69.34792333620139,0.0,0.9203188715462609,0.0,300,0.11795639991760254,0.00873383112751196,0.008094878352104998,41400,70.0187724314675,0.0
138,1.6825153827667236,70.03244889766894,0.004642097988045796,70.03923239338035,70.02627757829138,0.0,0.17836268435758082,0.1,0.11403036117553711,0.05170726776123047,0.049485445,1.3413057,69.41637589234814,0.0,0.9204375917203478,0.0,300,0.15436625480651855,0.008442067906755571,0.007971851663683827,41700,70.0188186065062,0.0
139,1.5583298206329346,70.0245012173665,0.002967064448230374,70.02827612483614,70.01998500303579,0.0,0.1875625789974304,0.1,0.037339210510253906,0.19609975814819336,0.05025421,1.2641829,69.47718842484997,0.0,0.9203331093457905,0.0,300,0.06091713905334473,0.009769864952620732,0.008789625935927354,42000,70.01890055995128,0.0
140,1.5515992641448975,70.0327484594601,0.014188154398429981,70.05637280167088,70.01872591929424,0.0,0.1827268303946167,0.1,0.0025577545166015625,0.0475616455078125,0.050298788,0.767553,69.53274442831099,0.0,0.9204419702870357,0.0,300,0.042702674865722656,0.007833821629268833,0.007641326149399931,42300,70.018967439706,0.0
141,1.504500389099121,70.09606862904312,0.11975210186454775,70.30333372664236,70.02227913609143,0.0,0.184502340684044,0.1,0.0025305747985839844,0.0456995964050293,0.049529057,1.5152768,69.58907684838421,0.0,0.9212576263627497,0.0,300,0.1604292392730713,0.006935001992246874,0.0062084786728418264,42600,70.01895011275872,0.0
142,1.6175742149353027,70.02316739031389,0.0034028432715654663,70.02884799897517,70.01982479847656,0.0,0.18638361451921037,0.1,0.008541107177734375,0.05516314506530762,0.05031735,0.94516104,69.63248590257717,0.0,0.9203152094086602,0.0,300,0.08150839805603027,0.009158626988944108,0.009001806039462254,42900,70.01894693190182,0.0
143,1.6234679222106934,70.02633925310232,0.007184097772219312,70.03794194003035,70.01853520809945,0.0,0.17984105013816176,0.1,0.003823518753051758,0.044189453125,0.050339792,0.7124803,69.67187123762969,0.0,0.9203544087846565,0.0,300,0.07766962051391602,0.007196673290112717,0.006374524288395884,43200,70.0196648114131,0.0
144,1.5989463329315186,70.02945133977138,0.008842868379963391,70.04476586744437,70.02415732546731,0.0,0.17674395365975987,0.1,0.0025000572204589844,0.04790306091308594,0.050669868,1.1891233,69.70762924784385,0.0,0.9203991445175665,0.0,300,0.2715613842010498,0.0052107142276421265,0.004708393153892159,43500,70.02014465266753,0.0
145,1.6222484111785889,70.02636521712631,0.004018027315717246,70.0328217475365,70.0217742509422,0.0,0.17062717815383374,0.1,0.002748250961303711,0.09168028831481934,0.049718846,0.9752317,69.7395028447721,0.0,0.9203575849939316,0.0,300,0.06848692893981934,0.009278973490535749,0.007462591640488067,43800,70.01975336521116,0.0
146,1.6323857307434082,70.02564691733107,0.0038289160041504117,70.02983929962905,70.01997990515964,0.0,0.17804765574533302,0.1,0.04513907432556152,0.2936403751373291,0.049922574,1.3360878,69.768117252028,0.0,0.9203484539747058,0.0,300,0.1142113208770752,0.008523453302885835,0.00825917770772484,44100,70.01984969422638,0.0
147,1.5439021587371826,70.02993541795558,0.009131178921196793,70.04140785588658,70.0193619736579,0.0,0.18471162477684008,0.1,0.02898097038269043,0.04303884506225586,0.050407942,0.7990227,69.79429906862076,0.0,0.920405374610175,0.0,300,0.2161552906036377,0.007486253983759284,0.006031723896443625,44400,70.0202127048906,0.0
148,1.6645328998565674,70.07285457852689,0.05280857042860364,70.14733162753402,70.0202031356026,0.0,0.1878737164888598,0.1,0.15364646911621094,0.05730795860290527,0.049987543,0.93965065,69.82215461961138,0.0,0.920975224871345,0.0,300,0.21179842948913574,0.006157668759626993,0.0058671580649184,44700,70.02077150089876,0.0
149,1.618464708328247,70.02981332977872,0.00046718617446031183,70.03021193512507,70.02902214174405,0.0,0.1819154084245502,0.1,0.0024390220642089844,0.04544973373413086,0.05102152,0.7806072,69.84292049062812,0.0,0.920403987599684,0.0,300,0.2626938819885254,0.009894617212741553,0.009622039226982765,45000,70.02068305175611,0.0
150,1.6518819332122803,70.02541136048339,0.0031432531393045817,70.03038776189615,70.0220416919618,0.0,0.1731080502394518,0.1,0.002553224563598633,0.04846954345703125,0.05000801,1.4551708,69.86116957761365,0.0,0.9203451923922634,0.0,300,0.10911726951599121,0.005635765531393688,0.004981944945961032,45300,70.02063595589061,0.0
151,1.6502749919891357,70.03103645374112,0.013111274116841739,70.05353804801656,70.02176521238982,0.0,0.16888482588664577,0.1,0.16868853569030762,0.20219016075134277,0.049542874,2.0087805,69.87815626522641,0.0,0.920420278312993,0.0,300,0.07721900939941406,0.004123570383193481,0.004173857578488055,45600,70.02019142041492,0.0
152,1.5678226947784424,70.04516335873345,0.02172802646720859,70.07601556427839,70.02164671898137,0.0,0.18240640965385888,0.1,0.15529322624206543,0.19468116760253906,0.04921836,0.85527056,69.89485697457711,0.0,0.9206077947203005,0.0,300,0.12508082389831543,0.00744356197060573,0.007147452171887722,45900,70.02088775464121,0.0
153,1.583690881729126,70.02945625036935,0.003565799969137656,70.03540739681803,70.02599802097367,0.0,0.18976956794941352,0.1,0.015428304672241211,0.048065185546875,0.050268408,0.8402167,69.90831690215633,0.0,0.9203991421337551,0.0,300,0.048670053482055664,0.005835304661802015,0.005032822177646598,46200,70.02123789942807,0.0
154,1.5259761810302734,70.0272610477277,0.00902105411448075,70.04248262631305,70.01930754643628,0.0,0.1792786844737254,0.1,0.04564046859741211,0.04426288604736328,0.049371596,0.8642862,69.92021131671348,0.0,0.9203699558453873,0.0,300,0.22080302238464355,0.006672794832672586,0.006364587173123185,46500,70.02149473802203,0.0
155,1.5566380023956299,63.77878112956698,10.823006948516467,70.03076911772847,45.03278386081732,0.0,0.1587803343300801,0.1,0.0024785995483398438,0.04528307914733887,0.048810046,0.38718852,69.30606829799883,0.0,0.8403904708259005,0.0,300,0.029833078384399414,0.11851179395851544,0.08982088326796876,46800,70.02116490097396,0.0
156,1.506563663482666,70.02465916571143,0.002355782386934174,70.02804386567404,70.02199044714288,0.0,0.19588393207421312,0.1,0.007029294967651367,0.06699490547180176,0.049325045,0.45508167,69.37792738477009,0.0,0.9203351767064742,0.0,300,0.06293582916259766,0.028139558952585988,0.021507531040686968,47100,70.02144642639654,0.0
157,1.8056929111480713,70.03309199208039,0.008548285468456616,70.04625238217916,70.02371015618988,0.0,0.18954420448430484,0.1,0.0026650428771972656,0.04559731483459473,0.050667826,0.6543227,69.44344384550112,0.0,0.9204456482750434,0.0,300,0.15464282035827637,0.00905727962933075,0.011229219453964918,47400,70.02090405388957,0.0
158,1.6147868633270264,68.03614524165931,3.4429810398234046,70.02915315306586,62.07273020947634,0.0,0.17361861610824467,0.1,0.0023849010467529297,0.04370903968811035,0.050539136,0.93659747,69.30271398511694,0.0,0.8971545311595505,0.0,300,0.20945262908935547,0.014228306141322564,0.011554704712018275,47700,70.02144353331417,0.0
159,1.6177875995635986,70.02855450884346,0.0029058862848682734,70.03292777060047,70.02523068073272,0.0,0.1846969993970186,0.1,0.10332441329956055,0.09958791732788086,0.05012714,0.63479424,69.37529803748959,0.0,0.9203870094519242,0.0,300,0.12315607070922852,0.007755242656917455,0.008155683027640134,48000,70.02201002496905,0.0
160,1.5715186595916748,70.04391732866469,0.022686106014596818,70.07985278059834,70.02322719604668,0.0,0.18773165685801244,0.1,0.17934775352478027,0.04524517059326172,0.050247174,0.5760316,69.4421599666071,0.0,0.9205919912409113,0.0,300,0.14598584175109863,0.006751421812099818,0.006366892231891885,48300,70.02224462785121,0.0
161,1.5861072540283203,70.02995002426525,0.006611822577245639,70.04117732903283,70.02449230083813,0.0,0.2018124243949071,0.1,0.0023164749145507812,0.21789813041687012,0.049903482,0.5923318,69.50093897237291,0.0,0.920405742568949,0.0,300,0.14209890365600586,0.00814004375802968,0.007298738712190368,48600,70.02296213030321,0.0
162,1.7697579860687256,70.02622023126423,0.0061402356630413935,70.0362013033244,70.02073254437302,0.0,0.18513783777975926,0.1,0.05143332481384277,0.11502718925476074,0.049905088,0.60558635,69.55346709826205,0.0,0.9203559406308646,0.0,300,0.11934947967529297,0.008609169456294358,0.006708454388841352,48900,70.02419533547335,0.0
163,1.5902082920074463,70.04354345058293,0.013778675591799976,70.05910461503471,70.02833554661697,0.0,0.18091928560123702,0.1,0.0023338794708251953,0.04301619529724121,0.050211165,0.8108626,69.60247473349413,0.0,0.9205863261515679,0.0,300,0.4137897491455078,0.007908571485154382,0.005746098393565295,49200,70.02460196384607,0.0
164,1.634418249130249,70.02885379953668,0.00590494307041651,70.03523764526764,70.0192052712781,0.0,0.1970378608638066,0.1,0.0024368762969970703,0.3287026882171631,0.04942422,0.90852475,69.64511264009839,0.0,0.9203899587296906,0.0,300,0.4734766483306885,0.005798240211670811,0.006297782035028421,49500,70.02317888972422,0.0
165,1.6727430820465088,70.04694418521419,0.019754915293123863,70.07456961574951,70.02567247983212,0.0,0.19713678799349502,0.1,0.002553701400756836,0.06340742111206055,0.04978067,0.61554766,69.68529579460997,0.0,0.9206316531481582,0.0,300,0.35796213150024414,0.010798317330071331,0.008128769903450322,49800,70.02533777397613,0.0
166,1.6153531074523926,70.03239945599495,0.007750594186366493,70.0385248006588,70.01913351238208,0.0,0.1842174574566693,0.1,0.002557039260864258,0.15553808212280273,0.049198925,0.7108259,69.72000616074847,0.0,0.9204384542881092,0.0,300,0.13967347145080566,0.007425585651477515,0.00713360185368243,50100,70.02378100849582,0.0
167,1.787670612335205,70.02447648155558,0.003272944709488245,70.02918562294813,70.0202387200579,0.0,0.19043346014872808,0.1,0.0030541419982910156,0.050988197326660156,0.051120237,0.72443295,69.75045319282918,0.0,0.9203328313486248,0.0,300,0.1551804542541504,0.011241822431768026,0.005666997557943827,50400,70.02326652059988,0.0
168,1.6073622703552246,70.02735015016161,0.009975092260990038,70.04446538964542,70.0201119587159,0.0,0.18103277250848032,0.1,0.1637711524963379,0.1271684169769287,0.049798,0.58333784,69.77814288856243,0.0,0.9203711520707152,0.0,300,0.09542274475097656,0.010543506454749722,0.009508986692696082,50700,70.02361718223241,0.0
169,1.4748644828796387,70.02503869665864,0.0024786777418523377,70.02917050113173,70.02268377966455,0.0,0.18843326399127194,0.1,0.052800655364990234,0.04565906524658203,0.050345823,0.68549937,69.80283246937205,0.0,0.9203402295934012,0.0,300,0.06267380714416504,0.011320071615480048,0.010083285397962221,51000,70.02350182604415,0.0
170,1.5590300559997559,70.03237499748607,0.015585674676398282,70.05901265732037,70.01949111355435,0.0,0.18977133584091813,0.1,0.11971259117126465,0.043778181076049805,0.050290108,0.66449636,69.82578672218345,0.0,0.9204378121514514,0.0,300,0.13297343254089355,0.007197065701148755,0.006988513690067273,51300,70.02304637984457,0.0
171,1.6023528575897217,70.02574801901511,0.0030466689754826207,70.02906508935624,70.02238292405569,0.0,0.16856137784237438,0.1,0.0022110939025878906,0.046547889709472656,0.050133172,1.0706387,69.84578285186662,0.0,0.9203495523236181,0.0,300,0.24716615676879883,0.005965470316403137,0.004852606289325558,51600,70.02375927305728,0.0
172,1.6595113277435303,70.03865932753187,0.008266100786519882,70.05202508394385,70.02936540954089,0.0,0.18654079984658054,0.1,0.0025801658630371094,0.0655972957611084,0.050266303,0.62646544,69.86507049943314,0.0,0.9205212180914484,0.0,300,0.2918086051940918,0.011870094112369715,0.011198890637195211,51900,70.02314783611358,0.0
173,1.6208457946777344,70.02900158969794,0.00585029296908541,70.03578499440822,70.0229347937865,0.0,0.1834279532429775,0.1,0.0026209354400634766,0.04440641403198242,0.049911633,0.81991446,69.88146360845963,0.0,0.9203922799838755,0.0,300,0.11380529403686523,0.004691460576075256,0.004305454361959017,52200,70.02201659687191,0.0
174,1.5685741901397705,70.03189140854751,0.011502242984797946,70.0509298331266,70.02002831333589,0.0,0.1871505558744973,0.1,0.0025534629821777344,0.04437756538391113,0.050089754,0.62498254,69.89650638846842,0.0,0.9204306258244477,0.0,300,0.21190714836120605,0.005265139283298303,0.004514819180126579,52500,70.0239070755185,0.0
175,1.5062732696533203,70.03419584209995,0.008764128714839593,70.04564063125883,70.02505042380395,0.0,0.1808227698081756,0.1,0.002683401107788086,0.10011172294616699,0.050093982,0.56047666,69.91027533383158,0.0,0.9204621740530207,0.0,300,0.27820348739624023,0.007819582881712455,0.007533374262533734,52800,70.02292518456532,0.0
176,1.5832669734954834,70.05131210295349,0.026370119710157364,70.09012139592846,70.02657630817788,0.0,0.18115325490890757,0.1,0.0023860931396484375,0.04352831840515137,0.050080143,0.7692518,69.92437901074378,0.0,0.9206903071595457,0.0,300,0.07384991645812988,0.007429865160412995,0.0063295025655015465,53100,70.0227484396928,0.0
177,1.5156095027923584,61.02640177420892,15.592168001081257,70.03381493900059,34.01997617815556,0.0,0.16424533732466137,0.1,0.00240325927734375,0.044461965560913086,0.050150253,0.39465776,69.03458128709029,0.0,0.8036919014832822,0.0,300,0.26828551292419434,0.12257731365931349,0.09496705118122388,53400,70.0228295875793,0.0
178,1.5486960411071777,70.04503243850839,0.015595216033319701,70.06503834994417,70.02160423314679,0.0,0.19079116167561996,0.1,0.002294778823852539,0.044756412506103516,0.050042275,0.51263845,69.1356264022321,0.0,0.9206065383320917,0.0,300,0.15192747116088867,0.022860995608210737,0.01710234828326672,53700,70.02117905931858,0.0
179,1.8049232959747314,70.03262981704955,0.008978496307024561,70.04810086682707,70.02657952765124,0.0,0.1854201564029755,0.1,0.0027112960815429688,0.05007362365722656,0.049956392,0.53570753,69.22532674371385,0.0,0.9204412325451642,0.0,300,0.15598440170288086,0.014488587539958048,0.007287637694787337,54000,70.0230791926085,0.0
