Iter | Sampling Pol | Evaluation Pol | Best (Sampled) 
   0  0.04  0.04 -100000000.00 
   1  0.04  0.04  0.04 
   2  0.05  0.04  0.04 
   3  0.04  0.04  0.05 
   4  0.09  0.05  0.05 
   5  0.07  0.07  0.09 
   6  0.04  0.08  0.09 
   7  0.05  0.08  0.09 
   8  0.13  0.09  0.09 
   9  0.07  0.10  0.13 
  10  0.04  0.08  0.13 
  11  0.10  0.07  0.13 
  12  0.10  0.09  0.13 
  13  0.17  0.10  0.13 
  14  0.27  0.09  0.17 
  15  0.06  0.09  0.27 
  16  0.07  0.09  0.27 
  17  0.09  0.13  0.27 
  18  0.28  0.12  0.27 
  19  0.10  0.11  0.28 
  20  0.11  0.13  0.28 
  21  0.08  0.17  0.28 
  22  0.36  0.24  0.28 
  23  0.13  0.31  0.36 
  24  0.25  0.38  0.36 
  25  0.09  0.37  0.36 
  26  0.13  0.34  0.36 
  27  0.08  0.40  0.36 
  28  0.15  0.38  0.36 
  29  0.16  0.36  0.36 
  30  0.14  0.35  0.36 
  31  0.26  0.34  0.36 
  32  0.09  0.31  0.36 
  33  0.30  0.29  0.36 
  34  0.15  0.36  0.36 
  35  0.20  0.42  0.36 
  36  0.19  0.36  0.36 
  37  0.06  0.37  0.36 
  38  0.14  0.38  0.36 
  39  0.13  0.32  0.36 
  40  0.23  0.33  0.36 
  41  0.37  0.39  0.36 
  42  0.28  0.38  0.37 
  43  0.42  0.48  0.37 
  44  0.43  0.49  0.42 
  45  0.24  0.56  0.43 
  46  0.26  0.51  0.43 
  47  0.35  0.53  0.43 
  48  0.45  0.62  0.43 
  49  0.27  0.65  0.45 
  50  0.23  0.68  0.45 
  51  0.43  0.66  0.45 
  52  0.21  0.70  0.45 
  53  0.29  0.81  0.45 
  54  0.39  0.83  0.45 
  55  0.25  0.76  0.45 
  56  0.28  0.82  0.45 
  57  0.41  0.75  0.45 
  58  0.37  0.71  0.45 
  59  0.34  0.70  0.45 
  60  0.19  0.73  0.45 
  61  0.29  0.68  0.45 
  62  0.56  0.71  0.45 
  63  0.31  0.80  0.56 
  64  0.23  0.80  0.56 
  65  0.53  0.85  0.56 
  66  0.60  0.90  0.56 
  67  0.59  0.95  0.60 
  68  0.64  0.45  0.60 
  69  0.50  0.29  0.64 
  70  0.41  0.41  0.64 
  71  0.45  0.23  0.64 
  72  0.92  0.16  0.64 
  73  0.69  0.24  0.92 
  74  0.35  0.23  0.92 
  75  0.29  0.17  0.92 
  76  0.51  0.17  0.92 
  77  0.50  0.30  0.92 
  78  0.42  0.28  0.92 
  79  0.55  0.25  0.92 
  80  0.46  0.37  0.92 
  81  0.53  0.43  0.92 
  82  0.21  0.40  0.92 
  83  0.68  0.39  0.92 
  84  0.46  0.43  0.92 
  85  0.78  0.46  0.92 
  86  0.63  0.48  0.92 
  87  0.40  0.38  0.92 
  88  0.54  0.56  0.92 
  89  0.75  0.44  0.92 
  90  0.41  0.45  0.92 
  91  0.35  0.41  0.92 
  92  0.41  0.38  0.92 
  93  0.56  0.50  0.92 
  94  0.56  0.69  0.92 
  95  0.54  0.53  0.92 
  96  1.01  0.60  0.92 
  97  0.66  0.84  1.01 
  98  0.84  0.72  1.01 
  99  0.85  0.53  1.01 
 100  0.43  0.97  1.01 
 101  0.51  0.71  1.01 
 102  0.78  0.83  1.01 
 103  0.80  0.90  1.01 
 104  0.64  0.89  1.01 
 105  0.51  0.81  1.01 
 106  0.59  0.86  1.01 
 107  0.84  0.97  1.01 
 108  0.37  0.71  1.01 
 109  0.41  0.73  1.01 
 110  0.98  0.72  1.01 
 111  0.80  0.69  1.01 
 112  0.47  0.90  1.01 
 113  0.63  0.90  1.01 
 114  0.88  0.93  1.01 
 115  0.76  0.83  1.01 
 116  0.74  0.81  1.01 
 117  0.55  0.86  1.01 
 118  0.76  0.65  1.01 
 119  0.71  0.81  1.01 
 120  0.88  0.78  1.01 
 121  0.65  0.33  1.01 
 122  0.62  0.76  1.01 
 123  0.60  0.62  1.01 
 124  0.50  0.53  1.01 
 125  0.74  0.21  1.01 
 126  0.32  0.23  1.01 
 127  1.06  0.21  1.01 
 128  0.76  0.15  1.06 
 129  0.71  0.56  1.06 
 130  0.67  0.53  1.06 
 131  0.64  0.53  1.06 
 132  0.37  0.60  1.06 
 133  0.74  0.60  1.06 
 134  0.85  0.88  1.06 
 135  0.38  1.14  1.06 
 136  0.82  1.30  1.06 
 137  0.57  1.87  1.06 
 138  1.13  1.02  1.06 
 139  0.85  0.79  1.13 
 140  0.54  0.85  1.13 
 141  0.49  0.94  1.13 
 142  0.39  0.83  1.13 
 143  0.40  1.00  1.13 
 144  0.61  1.12  1.13 
 145  0.93  1.08  1.13 
 146  0.61  1.26  1.13 
 147  0.41  1.23  1.13 
 148  0.66  1.25  1.13 
 149  1.06  0.92  1.13 
 150  0.70  0.80  1.13 
 151  0.62  0.73  1.13 
 152  0.85  0.61  1.13 
 153  1.07  0.69  1.13 
 154  0.72  0.71  1.13 
 155  0.61  0.82  1.13 
 156  0.69  0.70  1.13 
 157  0.66  0.74  1.13 
 158  0.88  0.90  1.13 
 159  0.90  0.88  1.13 
 160  0.99  0.98  1.13 
 161  1.16  1.00  1.13 
 162  0.65  1.13  1.16 
 163  1.33  1.32  1.16 
 164  1.25  0.88  1.33 
 165  1.26  0.98  1.33 
 166  1.05  1.03  1.33 
 167  0.41  1.32  1.33 
 168  1.15  1.28  1.33 
 169  1.06  0.93  1.33 
 170  1.02  1.33  1.33 
 171  0.70  1.18  1.33 
 172  1.02  0.79  1.33 
 173  1.13  0.90  1.33 
 174  0.87  1.16  1.33 
 175  0.84  1.65  1.33 
 176  1.06  1.25  1.33 
 177  0.98  0.97  1.33 
 178  0.78  0.73  1.33 
 179  0.74  0.64  1.33 
 180  0.63  0.80  1.33 
 181  1.09  0.91  1.33 
 182  0.87  0.94  1.33 
 183  0.64  0.94  1.33 
 184  0.81  0.96  1.33 
 185  0.62  0.57  1.33 
 186  1.23  0.83  1.33 
 187  0.78  0.71  1.33 
 188  1.64  0.76  1.33 
 189  0.85  0.84  1.64 
 190  0.85  0.79  1.64 
 191  1.10  0.77  1.64 
 192  0.44  0.79  1.64 
 193  1.49  1.09  1.64 
 194  1.00  0.76  1.64 
 195  0.67  0.81  1.64 
 196  0.79  0.62  1.64 
 197  1.05  0.67  1.64 
 198  1.10  1.21  1.64 
 199  0.81  1.55  1.64 
 200  0.66  0.83  1.64 
 201  0.95  0.82  1.64 
 202  1.32  0.71  1.64 
 203  0.88  0.59  1.64 
 204  1.03  0.56  1.64 
 205  1.22  0.48  1.64 
 206  0.90  0.42  1.64 
 207  0.83  0.62  1.64 
 208  0.98  0.59  1.64 
 209  0.91  0.98  1.64 
 210  1.18  1.32  1.64 
 211  1.48  0.93  1.64 
 212  0.61  1.08  1.64 
 213  1.14  1.11  1.64 
 214  1.09  1.15  1.64 
 215  1.20  1.27  1.64 
 216  1.03  1.20  1.64 
 217  1.02  0.80  1.64 
 218  0.65  0.79  1.64 
 219  0.99  1.19  1.64 
 220  0.81  1.04  1.64 
 221  0.71  0.91  1.64 
 222  1.03  0.89  1.64 
 223  1.15  1.01  1.64 
 224  0.91  0.78  1.64 
 225  1.13  1.00  1.64 
 226  1.22  0.93  1.64 
 227  0.70  1.57  1.64 
 228  0.72  1.34  1.64 
 229  0.88  0.68  1.64 
 230  0.95  0.78  1.64 
 231  0.94  1.49  1.64 
 232  1.04  0.89  1.64 
 233  0.55  1.42  1.64 
 234  1.17  1.78  1.64 
 235  1.31  0.93  1.64 
 236  1.25  0.95  1.64 
 237  0.95  0.68  1.64 
 238  1.10  0.85  1.64 
 239  1.26  1.21  1.64 
 240  1.31  1.24  1.64 
 241  1.32  0.86  1.64 
 242  1.22  1.00  1.64 
 243  0.97  1.09  1.64 
 244  1.04  1.40  1.64 
 245  1.47  1.36  1.64 
 246  0.72  1.22  1.64 
 247  1.27  1.09  1.64 
 248  0.94  1.35  1.64 
 249  1.00  0.99  1.64 
 250  0.73  0.96  1.64 
 251  1.32  0.97  1.64 
 252  1.23  1.10  1.64 
 253  1.16  0.77  1.64 
 254  0.80  0.99  1.64 
 255  1.05  1.03  1.64 
 256  0.73  1.25  1.64 
 257  0.86  1.21  1.64 
 258  1.14  0.83  1.64 
 259  0.71  0.79  1.64 
 260  1.23  1.16  1.64 
 261  1.06  0.89  1.64 
 262  1.08  1.04  1.64 
 263  1.07  1.32  1.64 
 264  1.03  0.85  1.64 
 265  0.98  0.94  1.64 
 266  1.35  0.88  1.64 
 267  0.94  1.37  1.64 
 268  1.48  0.92  1.64 
 269  1.05  1.79  1.64 
 270  1.06  1.12  1.64 
 271  1.11  1.13  1.64 
 272  0.79  1.88  1.64 
 273  1.04  1.89  1.64 
 274  1.25  1.74  1.64 
 275  1.11  1.98  1.64 
 276  1.26  2.01  1.64 
 277  0.96  1.99  1.64 
 278  0.60  0.93  1.64 
 279  1.39  1.01  1.64 
 280  1.33  0.99  1.64 
 281  1.21  1.05  1.64 
 282  1.09  0.98  1.64 
 283  0.95  1.03  1.64 
 284  1.09  1.18  1.64 
 285  0.92  1.43  1.64 
 286  1.37  1.32  1.64 
 287  1.03  1.06  1.64 
 288  1.02  1.31  1.64 
 289  1.11  1.11  1.64 
 290  1.36  1.11  1.64 
 291  1.38  0.79  1.64 
 292  1.16  0.89  1.64 
 293  1.46  1.05  1.64 
 294  1.17  1.03  1.64 
 295  0.95  0.73  1.64 
 296  0.84  0.70  1.64 
 297  0.98  1.05  1.64 
 298  1.23  0.82  1.64 
 299  0.72  0.84  1.64 
 300  0.98  0.91  1.64 
 301  0.75  0.96  1.64 
 302  1.18  1.22  1.64 
 303  1.28  1.25  1.64 
 304  1.07  1.12  1.64 
 305  1.06  1.28  1.64 
 306  1.04  0.49  1.64 
 307  0.93  0.84  1.64 
 308  1.31  1.20  1.64 
 309  1.33  1.19  1.64 
 310  1.21  1.15  1.64 
 311  1.08  1.18  1.64 
 312  1.22  1.25  1.64 
 313  0.66  1.23  1.64 
 314  1.75  1.34  1.64 
 315  1.11  1.07  1.75 
 316  1.04  0.42  1.75 
 317  1.29  0.68  1.75 
 318  1.03  0.47  1.75 
 319  1.00  0.95  1.75 
 320  1.63  0.92  1.75 
 321  1.10  1.45  1.75 
 322  1.31  0.99  1.75 
 323  1.10  0.99  1.75 
 324  1.45  1.00  1.75 
 325  1.12  1.04  1.75 
 326  1.43  1.52  1.75 
 327  1.33  1.68  1.75 
 328  1.54  1.22  1.75 
 329  1.19  1.56  1.75 
 330  1.60  1.67  1.75 
 331  1.37  1.45  1.75 
 332  1.27  1.29  1.75 
 333  1.43  1.89  1.75 
 334  1.10  1.20  1.75 
 335  1.32  1.15  1.75 
 336  1.36  1.39  1.75 
 337  1.71  1.72  1.75 
 338  1.05  1.52  1.75 
 339  1.32  2.33  1.75 
 340  1.55  2.10  1.75 
 341  1.26  1.33  1.75 
 342  0.72  1.90  1.75 
 343  1.41  2.43  1.75 
 344  1.29  1.81  1.75 
 345  1.36  1.18  1.75 
 346  0.85  2.40  1.75 
 347  1.57  2.49  1.75 
 348  1.37  2.15  1.75 
 349  1.28  2.03  1.75 
 350  1.65  1.52  1.75 
 351  1.14  1.24  1.75 
 352  1.32  1.20  1.75 
 353  1.35  2.05  1.75 
 354  1.37  1.75  1.75 
 355  1.59  2.24  1.75 
 356  1.43  1.69  1.75 
 357  1.18  1.81  1.75 
 358  1.23  1.94  1.75 
 359  1.21  2.01  1.75 
 360  1.40  2.12  1.75 
 361  1.49  1.11  1.75 
 362  1.55  1.79  1.75 
 363  1.23  2.09  1.75 
 364  1.39  1.02  1.75 
 365  1.60  2.20  1.75 
 366  1.53  2.20  1.75 
 367  1.42  1.74  1.75 
 368  1.39  1.79  1.75 
 369  1.09  1.71  1.75 
 370  1.41  1.51  1.75 
 371  1.17  1.65  1.75 
 372  1.20  1.50  1.75 
 373  1.49  1.30  1.75 
 374  1.71  1.15  1.75 
 375  1.50  1.24  1.75 
 376  1.15  0.93  1.75 
 377  1.93  0.99  1.75 
 378  1.49  1.00  1.93 
 379  0.78  1.00  1.93 
 380  1.47  1.07  1.93 
 381  1.18  1.05  1.93 
 382  1.04  1.14  1.93 
 383  1.44  1.02  1.93 
 384  1.65  1.08  1.93 
 385  1.27  1.19  1.93 
 386  1.60  1.27  1.93 
 387  1.63  1.25  1.93 
 388  1.36  2.21  1.93 
 389  1.80  0.30  1.93 
 390  0.97  0.32  1.93 
 391  1.11  0.25  1.93 
 392  1.37  0.34  1.93 
 393  1.65  0.27  1.93 
 394  1.35  0.38  1.93 
 395  1.12  1.00  1.93 
 396  1.77  1.01  1.93 
 397  1.26  0.92  1.93 
 398  1.83  1.14  1.93 
 399  1.17  1.90  1.93 
 400  1.28  1.45  1.93 
 401  1.34  1.48  1.93 
 402  1.33  1.15  1.93 
 403  1.60  0.88  1.93 
 404  1.51  0.92  1.93 
 405  1.25  0.66  1.93 
 406  1.62  0.61  1.93 
 407  1.15  0.38  1.93 
 408  1.37  0.35  1.93 
 409  1.29  1.00  1.93 
 410  1.34  0.87  1.93 
 411  1.62  0.91  1.93 
 412  1.83  1.42  1.93 
 413  0.55  1.42  1.93 
 414  1.24  1.54  1.93 
 415  1.46  1.28  1.93 
 416  0.93  0.86  1.93 
 417  1.25  0.90  1.93 
 418  1.15  0.92  1.93 
 419  1.71  0.82  1.93 
 420  1.56  0.35  1.93 
 421  1.75  1.08  1.93 
 422  1.14  0.93  1.93 
 423  1.59  0.80  1.93 
 424  1.09  0.79  1.93 
 425  1.36  1.27  1.93 
 426  1.19  1.29  1.93 
 427  1.82  1.52  1.93 
 428  1.40  0.81  1.93 
 429  1.36  1.23  1.93 
 430  0.66  1.16  1.93 
 431  1.46  0.92  1.93 
 432  1.34  0.50  1.93 
 433  1.04  0.64  1.93 
 434  1.44  0.85  1.93 
 435  1.44  1.48  1.93 
 436  1.63  1.55  1.93 
 437  1.60  1.78  1.93 
 438  1.13  1.84  1.93 
 439  1.18  2.05  1.93 
 440  1.39  2.31  1.93 
 441  1.17  2.14  1.93 
 442  1.41  1.94  1.93 
 443  1.66  1.79  1.93 
 444  1.22  2.11  1.93 
 445  1.04  2.05  1.93 
 446  1.84  2.03  1.93 
 447  1.71  1.86  1.93 
 448  1.68  1.78  1.93 
 449  1.55  2.13  1.93 
 450  1.19  2.13  1.93 
 451  1.36  2.26  1.93 
 452  1.57  2.02  1.93 
 453  0.86  2.13  1.93 
 454  1.60  2.09  1.93 
 455  1.33  2.57  1.93 
 456  1.08  1.82  1.93 
 457  1.10  1.79  1.93 
 458  1.22  2.00  1.93 
 459  1.70  2.34  1.93 
 460  1.58  2.17  1.93 
 461  1.42  2.29  1.93 
 462  1.53  2.35  1.93 
 463  1.30  2.28  1.93 
 464  1.55  2.18  1.93 
 465  1.30  2.27  1.93 
 466  1.45  2.02  1.93 
 467  1.38  1.78  1.93 
 468  1.38  1.44  1.93 
 469  1.35  1.74  1.93 
 470  1.76  1.82  1.93 
 471  1.10  1.81  1.93 
 472  1.49  1.76  1.93 
 473  1.29  2.13  1.93 
 474  1.64  1.34  1.93 
 475  0.99  1.72  1.93 
 476  1.29  1.43  1.93 
 477  1.30  1.95  1.93 
 478  1.38  2.19  1.93 
 479  1.90  1.84  1.93 
 480  1.35  1.67  1.93 
 481  1.86  1.70  1.93 
 482  1.44  1.93  1.93 
 483  1.37  1.63  1.93 
 484  1.63  1.80  1.93 
 485  1.78  1.60  1.93 
 486  1.29  2.39  1.93 
 487  1.69  2.33  1.93 
 488  1.80  2.25  1.93 
 489  1.22  1.79  1.93 
 490  1.80  2.01  1.93 
 491  1.49  2.43  1.93 
 492  1.48  1.37  1.93 
 493  1.44  1.16  1.93 
 494  1.73  1.28  1.93 
 495  1.38  1.09  1.93 
 496  1.62  1.21  1.93 
 497  1.66  1.31  1.93 
 498  1.93  1.07  1.93 
 499  1.72  1.09  1.93 
 500  1.21  1.14  1.93 
 501  1.52  1.01  1.93 
 502  1.27  1.11  1.93 
 503  1.81  1.14  1.93 
 504  1.71  1.18  1.93 
 505  1.06  1.15  1.93 
 506  1.72  1.29  1.93 
 507  1.24  1.22  1.93 
 508  1.37  1.47  1.93 
 509  0.94  1.25  1.93 
 510  1.68  1.17  1.93 
 511  1.33  1.77  1.93 
 512  1.21  2.22  1.93 
 513  1.11  2.36  1.93 
 514  1.58  2.24  1.93 
 515  1.78  2.30  1.93 
 516  1.24  2.21  1.93 
 517  1.67  2.12  1.93 
 518  1.73  2.32  1.93 
 519  1.78  2.22  1.93 
 520  1.37  2.43  1.93 
 521  1.71  2.37  1.93 
 522  1.57  1.92  1.93 
 523  1.00  1.30  1.93 
 524  1.91  1.15  1.93 
 525  1.10  1.08  1.93 
 526  1.69  0.89  1.93 
 527  1.70  0.53  1.93 
 528  1.35  0.80  1.93 
 529  1.38  0.64  1.93 
 530  1.52  0.36  1.93 
 531  1.81  0.94  1.93 
 532  1.08  0.72  1.93 
 533  1.76  0.42  1.93 
 534  0.99  2.06  1.93 
 535  1.30  0.90  1.93 
 536  1.56  1.24  1.93 
 537  1.04  1.26  1.93 
 538  1.06  0.47  1.93 
 539  1.77  0.62  1.93 
 540  1.11  0.49  1.93 
 541  1.42  0.47  1.93 
 542  1.17  1.59  1.93 
 543  1.73  1.35  1.93 
 544  2.03  1.23  1.93 
 545  1.56  1.83  2.03 
 546  1.43  1.85  2.03 
 547  1.60  1.64  2.03 
 548  1.69  1.32  2.03 
 549  1.67  1.73  2.03 
 550  1.59  1.73  2.03 
 551  1.56  1.52  2.03 
 552  2.08  1.25  2.03 
 553  1.53  1.02  2.08 
 554  1.53  1.04  2.08 
 555  1.53  1.04  2.08 
 556  1.99  1.26  2.08 
 557  1.92  1.09  2.08 
 558  1.27  1.07  2.08 
 559  1.72  0.96  2.08 
 560  1.45  1.29  2.08 
 561  1.68  1.20  2.08 
 562  1.58  2.08  2.08 
 563  1.67  1.51  2.08 
 564  1.10  2.17  2.08 
 565  1.36  2.20  2.08 
 566  1.79  1.32  2.08 
 567  1.69  2.13  2.08 
 568  1.16  1.73  2.08 
 569  1.42  2.27  2.08 
 570  1.80  2.17  2.08 
 571  1.84  1.52  2.08 
 572  1.08  1.46  2.08 
 573  1.70  1.58  2.08 
 574  1.89  1.71  2.08 
 575  1.58  1.76  2.08 
 576  1.44  1.55  2.08 
 577  1.43  1.55  2.08 
 578  1.35  1.55  2.08 
 579  1.66  1.57  2.08 
 580  1.50  1.56  2.08 
 581  1.77  1.62  2.08 
 582  2.11  1.58  2.08 
 583  1.80  1.68  2.11 
 584  1.41  1.61  2.11 
 585  1.31  1.58  2.11 
 586  1.63  1.62  2.11 
 587  1.34  1.58  2.11 
 588  1.74  1.63  2.11 
 589  1.53  1.66  2.11 
 590  1.72  1.75  2.11 
 591  1.90  1.45  2.11 
 592  1.89  1.64  2.11 
 593  1.79  1.64  2.11 
 594  1.90  1.63  2.11 
 595  1.52  1.75  2.11 
 596  1.52  1.80  2.11 
 597  1.46  1.77  2.11 
 598  1.43  1.65  2.11 
 599  1.68  2.00  2.11 
 600  1.28  1.59  2.11 
 601  1.07  1.62  2.11 
 602  1.88  1.64  2.11 
 603  1.73  1.57  2.11 
 604  1.53  1.64  2.11 
 605  1.70  1.83  2.11 
 606  1.62  1.73  2.11 
 607  1.16  1.51  2.11 
 608  2.03  1.28  2.11 
 609  1.95  1.28  2.11 
 610  1.77  1.40  2.11 
 611  2.04  1.60  2.11 
 612  1.26  1.37  2.11 
 613  1.76  1.60  2.11 
 614  1.84  1.56  2.11 
 615  1.56  1.81  2.11 
 616  1.88  1.53  2.11 
 617  1.89  1.91  2.11 
 618  1.75  2.21  2.11 
 619  1.84  2.25  2.11 
 620  1.79  2.34  2.11 
 621  1.66  2.14  2.11 
 622  1.66  1.98  2.11 
 623  1.85  2.07  2.11 
 624  1.10  2.45  2.11 
 625  2.06  2.05  2.11 
 626  1.33  2.46  2.11 
 627  1.59  2.38  2.11 
 628  2.04  2.44  2.11 
 629  1.37  2.36  2.11 
 630  1.10  2.37  2.11 
 631  1.79  2.44  2.11 
 632  1.49  1.69  2.11 
 633  1.30  2.18  2.11 
 634  1.55  2.24  2.11 
 635  1.57  2.29  2.11 
 636  1.70  2.10  2.11 
 637  1.51  2.25  2.11 
 638  1.85  2.26  2.11 
 639  1.45  2.26  2.11 
 640  1.07  2.16  2.11 
 641  1.65  2.10  2.11 
 642  1.43  2.03  2.11 
 643  1.83  2.20  2.11 
 644  1.79  2.39  2.11 
 645  1.34  2.36  2.11 
 646  1.94  2.30  2.11 
 647  1.74  2.40  2.11 
 648  1.57  2.29  2.11 
 649  2.07  2.40  2.11 
 650  1.46  2.39  2.11 
 651  1.84  2.41  2.11 
 652  1.63  2.25  2.11 
 653  1.43  2.21  2.11 
 654  1.49  1.90  2.11 
 655  1.45  2.13  2.11 
 656  1.70  2.17  2.11 
 657  1.76  2.16  2.11 
 658  1.48  1.94  2.11 
 659  1.87  2.36  2.11 
 660  1.31  2.22  2.11 
 661  1.34  2.20  2.11 
 662  1.82  2.13  2.11 
 663  1.66  2.17  2.11 
 664  0.92  2.03  2.11 
 665  1.61  2.02  2.11 
 666  1.11  1.98  2.11 
 667  1.15  1.98  2.11 
 668  1.21  2.17  2.11 
 669  1.95  2.26  2.11 
 670  1.33  2.25  2.11 
 671  1.96  2.12  2.11 
 672  1.42  2.33  2.11 
 673  2.06  2.47  2.11 
 674  1.81  2.41  2.11 
 675  1.62  2.31  2.11 
 676  1.80  2.43  2.11 
 677  1.46  2.42  2.11 
 678  1.39  2.35  2.11 
 679  1.65  2.36  2.11 
 680  1.90  1.95  2.11 
 681  1.63  2.28  2.11 
 682  1.10  2.28  2.11 
 683  1.72  2.11  2.11 
 684  1.62  2.00  2.11 
 685  1.96  1.70  2.11 
 686  1.61  1.98  2.11 
 687  1.65  1.78  2.11 
 688  1.57  2.00  2.11 
 689  1.71  2.07  2.11 
 690  1.33  2.26  2.11 
 691  2.02  2.28  2.11 
 692  1.25  2.25  2.11 
 693  1.25  2.17  2.11 
 694  1.91  2.38  2.11 
 695  1.87  2.35  2.11 
 696  1.87  2.00  2.11 
 697  1.55  1.82  2.11 
 698  1.10  2.21  2.11 
 699  1.51  2.29  2.11 
 700  1.11  2.42  2.11 
 701  1.99  2.39  2.11 
 702  1.28  1.86  2.11 
 703  1.79  1.82  2.11 
 704  1.60  2.19  2.11 
 705  1.61  2.14  2.11 
 706  1.32  2.13  2.11 
 707  1.16  2.41  2.11 
 708  1.10  2.37  2.11 
 709  1.92  2.38  2.11 
 710  1.51  2.36  2.11 
 711  1.73  2.31  2.11 
 712  1.61  2.24  2.11 
 713  1.44  2.05  2.11 
 714  1.27  2.17  2.11 
 715  1.64  2.26  2.11 
 716  1.47  2.21  2.11 
 717  1.71  2.27  2.11 
 718  1.83  2.13  2.11 
 719  1.70  2.36  2.11 
 720  1.85  1.24  2.11 
 721  1.89  2.09  2.11 
 722  1.80  1.97  2.11 
 723  0.91  1.89  2.11 
 724  1.94  1.64  2.11 
 725  1.61  2.05  2.11 
 726  1.65  2.22  2.11 
 727  1.35  2.07  2.11 
 728  1.48  1.50  2.11 
 729  1.77  1.70  2.11 
 730  1.67  1.87  2.11 
 731  1.49  1.60  2.11 
 732  1.42  2.24  2.11 
 733  1.64  1.93  2.11 
 734  1.36  2.05  2.11 
 735  1.34  1.40  2.11 
 736  1.59  1.65  2.11 
 737  1.49  1.39  2.11 
 738  1.84  1.45  2.11 
 739  1.40  1.85  2.11 
 740  1.88  1.71  2.11 
 741  1.32  1.88  2.11 
 742  1.54  1.40  2.11 
 743  1.67  1.42  2.11 
 744  2.13  1.92  2.11 
 745  1.83  2.04  2.13 
 746  1.65  1.81  2.13 
 747  1.60  1.93  2.13 
 748  1.01  1.99  2.13 
 749  1.47  1.73  2.13 
 750  1.83  1.82  2.13 
 751  1.53  1.77  2.13 
 752  1.76  1.76  2.13 
 753  1.66  1.39  2.13 
 754  1.54  1.33  2.13 
 755  1.39  1.67  2.13 
 756  1.95  1.27  2.13 
 757  0.99  1.55  2.13 
 758  1.18  2.01  2.13 
 759  1.23  1.64  2.13 
 760  1.59  1.80  2.13 
 761  1.34  1.90  2.13 
 762  1.60  1.83  2.13 
 763  1.66  1.80  2.13 
 764  1.12  2.20  2.13 
 765  1.20  1.93  2.13 
 766  1.08  0.91  2.13 
 767  1.38  1.00  2.13 
 768  1.34  1.24  2.13 
 769  1.84  0.83  2.13 
 770  1.39  0.87  2.13 
 771  1.28  0.71  2.13 
 772  1.73  0.89  2.13 
 773  1.62  0.66  2.13 
 774  1.54  0.93  2.13 
 775  1.63  1.68  2.13 
 776  1.84  1.80  2.13 
 777  1.77  1.17  2.13 
 778  1.44  1.21  2.13 
 779  1.27  1.08  2.13 
 780  1.29  1.18  2.13 
 781  1.60  1.65  2.13 
 782  1.67  1.72  2.13 
 783  1.97  2.02  2.13 
 784  1.38  1.83  2.13 
 785  1.63  1.59  2.13 
 786  1.37  0.93  2.13 
 787  1.59  1.90  2.13 
 788  1.51  1.82  2.13 
 789  1.84  1.71  2.13 
 790  1.71  1.71  2.13 
 791  1.60  1.81  2.13 
 792  1.52  1.80  2.13 
 793  1.74  1.55  2.13 
 794  1.52  1.43  2.13 
 795  1.69  1.93  2.13 
 796  1.21  1.88  2.13 
 797  1.69  2.23  2.13 
 798  1.61  1.62  2.13 
 799  1.80  2.08  2.13 
 800  1.57  1.38  2.13 
 801  1.61  1.44  2.13 
 802  1.52  1.54  2.13 
 803  1.41  2.34  2.13 
 804  2.01  2.40  2.13 
 805  1.40  2.34  2.13 
 806  1.54  2.38  2.13 
 807  1.50  2.30  2.13 
 808  1.51  2.36  2.13 
 809  1.30  2.38  2.13 
 810  1.58  2.36  2.13 
 811  1.83  2.30  2.13 
 812  1.71  1.50  2.13 
 813  1.36  1.57  2.13 
 814  1.45  2.04  2.13 
 815  1.58  1.95  2.13 
 816  1.78  2.18  2.13 
 817  1.44  2.24  2.13 
 818  1.90  1.67  2.13 
 819  1.38  1.93  2.13 
 820  1.29  1.73  2.13 
 821  1.54  1.54  2.13 
 822  1.56  1.48  2.13 
 823  1.55  1.88  2.13 
 824  1.47  1.65  2.13 
 825  1.53  1.75  2.13 
 826  1.70  1.57  2.13 
 827  1.62  2.25  2.13 
 828  1.95  2.32  2.13 
 829  1.85  2.16  2.13 
 830  1.74  2.40  2.13 
 831  1.89  1.96  2.13 
 832  1.29  2.14  2.13 
 833  1.65  2.24  2.13 
 834  1.51  2.25  2.13 
 835  1.61  2.28  2.13 
 836  1.35  2.29  2.13 
 837  1.59  2.38  2.13 
 838  1.39  2.27  2.13 
 839  1.48  2.23  2.13 
 840  1.32  2.25  2.13 
 841  1.60  2.30  2.13 
 842  1.52  2.26  2.13 
 843  1.59  1.93  2.13 
 844  1.74  1.69  2.13 
 845  1.41  1.27  2.13 
 846  1.77  2.14  2.13 
 847  1.68  2.21  2.13 
 848  1.60  2.20  2.13 
 849  1.66  1.91  2.13 
 850  2.01  2.29  2.13 
 851  1.99  1.85  2.13 
 852  1.54  2.27  2.13 
 853  1.88  2.27  2.13 
 854  1.56  2.32  2.13 
 855  1.18  2.15  2.13 
 856  1.76  2.13  2.13 
 857  1.72  2.17  2.13 
 858  1.82  2.19  2.13 
 859  1.50  2.37  2.13 
 860  1.86  2.27  2.13 
 861  1.85  2.20  2.13 
 862  1.64  2.09  2.13 
 863  1.44  1.83  2.13 
 864  1.82  1.80  2.13 
 865  1.97  2.08  2.13 
 866  1.64  1.81  2.13 
 867  1.81  1.82  2.13 
 868  1.06  1.76  2.13 
 869  1.55  1.83  2.13 
 870  1.55  1.79  2.13 
 871  1.94  1.85  2.13 
 872  1.66  1.99  2.13 
 873  1.82  2.09  2.13 
 874  1.19  1.86  2.13 
 875  1.79  2.40  2.13 
 876  1.35  2.26  2.13 
 877  1.84  2.21  2.13 
 878  1.98  1.86  2.13 
 879  1.22  1.84  2.13 
 880  1.87  1.96  2.13 
 881  1.84  1.96  2.13 
 882  1.53  1.89  2.13 
 883  1.70  2.08  2.13 
 884  1.91  2.41  2.13 
 885  1.65  2.44  2.13 
 886  1.98  2.27  2.13 
 887  1.80  2.22  2.13 
 888  1.87  2.34  2.13 
 889  1.21  2.10  2.13 
 890  2.05  2.23  2.13 
 891  1.85  2.02  2.13 
 892  1.82  2.24  2.13 
 893  1.59  2.25  2.13 
 894  1.63  2.02  2.13 
 895  1.27  2.09  2.13 
 896  2.17  1.79  2.13 
 897  1.79  2.11  2.17 
 898  1.84  2.22  2.17 
 899  1.78  1.61  2.17 
 900  1.81  1.56  2.17 
 901  2.01  1.90  2.17 
 902  1.84  0.67  2.17 
 903  1.21  0.58  2.17 
 904  1.74  0.82  2.17 
 905  1.69  0.65  2.17 
 906  1.99  0.88  2.17 
 907  1.61  1.77  2.17 
 908  1.87  1.65  2.17 
 909  1.57  2.03  2.17 
 910  1.34  2.18  2.17 
 911  2.13  1.08  2.17 
 912  1.13  1.59  2.17 
 913  1.62  1.82  2.17 
 914  1.58  1.93  2.17 
 915  1.56  1.97  2.17 
 916  1.82  1.36  2.17 
 917  1.82  1.22  2.17 
 918  1.35  1.45  2.17 
 919  1.63  1.48  2.17 
 920  1.75  1.48  2.17 
 921  1.91  1.33  2.17 
 922  1.43  2.17  2.17 
 923  1.85  1.80  2.17 
 924  1.70  2.00  2.17 
 925  1.92  2.07  2.17 
 926  1.71  2.08  2.17 
 927  1.72  2.15  2.17 
 928  1.16  2.16  2.17 
 929  1.87  2.11  2.17 
 930  2.03  2.12  2.17 
 931  1.62  2.13  2.17 
 932  1.92  2.13  2.17 
 933  1.46  2.05  2.17 
 934  1.71  2.27  2.17 
 935  2.01  2.23  2.17 
 936  1.40  2.21  2.17 
 937  1.96  2.21  2.17 
 938  1.39  2.14  2.17 
 939  1.67  2.16  2.17 
 940  2.03  2.20  2.17 
 941  1.93  2.16  2.17 
 942  2.06  2.05  2.17 
 943  1.85  2.18  2.17 
 944  1.48  2.22  2.17 
 945  1.75  2.25  2.17 
 946  1.77  2.10  2.17 
 947  1.54  2.25  2.17 
 948  1.70  2.19  2.17 
 949  1.73  2.12  2.17 
 950  2.10  1.40  2.17 
 951  1.47  1.41  2.17 
 952  1.57  1.92  2.17 
 953  1.71  1.40  2.17 
 954  2.09  1.34  2.17 
 955  1.53  1.75  2.17 
 956  1.58  2.04  2.17 
 957  1.77  1.99  2.17 
 958  1.63  1.99  2.17 
 959  1.27  2.08  2.17 
 960  1.99  2.10  2.17 
 961  1.75  2.05  2.17 
 962  1.74  2.06  2.17 
 963  1.93  2.08  2.17 
 964  1.29  2.07  2.17 
 965  1.28  2.06  2.17 
 966  1.39  1.96  2.17 
 967  1.46  2.06  2.17 
 968  1.26  1.86  2.17 
 969  1.95  2.00  2.17 
 970  1.80  2.13  2.17 
 971  1.82  2.22  2.17 
 972  1.82  2.18  2.17 
 973  1.82  2.11  2.17 
 974  1.78  2.06  2.17 
 975  1.77  2.10  2.17 
 976  1.46  2.09  2.17 
 977  1.82  1.88  2.17 
 978  1.81  2.01  2.17 
 979  1.93  2.06  2.17 
 980  1.39  1.54  2.17 
 981  1.71  1.86  2.17 
 982  1.32  1.66  2.17 
 983  1.83  1.96  2.17 
 984  1.40  2.19  2.17 
 985  1.71  1.86  2.17 
 986  1.94  2.20  2.17 
 987  1.49  1.85  2.17 
 988  1.11  2.18  2.17 
 989  1.79  1.98  2.17 
 990  1.95  1.99  2.17 
 991  1.75  1.78  2.17 
 992  1.69  1.82  2.17 
 993  2.11  1.82  2.17 
 994  1.77  1.82  2.17 
 995  2.06  1.27  2.17 
 996  2.00  1.74  2.17 
 997  1.84  1.78  2.17 
 998  1.89  1.44  2.17 
 999  1.74  2.03  2.17 
1000  1.73  1.85  2.17 
1001  1.65  1.95  2.17 
1002  1.82  1.65  2.17 
1003  1.21  2.11  2.17 
1004  1.86  2.22  2.17 
1005  1.78  2.22  2.17 
1006  1.46  2.24  2.17 
1007  2.08  2.17  2.17 
1008  1.66  2.26  2.17 
1009  1.54  2.19  2.17 
1010  1.91  2.18  2.17 
1011  1.99  2.11  2.17 
1012  1.50  1.95  2.17 
1013  1.48  1.98  2.17 
1014  1.53  1.97  2.17 
1015  0.74  1.74  2.17 
1016  2.04  2.11  2.17 
1017  1.82  2.04  2.17 
1018  1.62  2.18  2.17 
1019  1.74  1.60  2.17 
1020  1.43  2.00  2.17 
1021  1.78  2.19  2.17 
1022  1.82  2.24  2.17 
1023  1.95  1.68  2.17 
1024  1.33  1.04  2.17 
1025  1.81  1.27  2.17 
1026  1.26  1.53  2.17 
1027  1.37  2.09  2.17 
1028  2.15  2.03  2.17 
1029  1.66  1.98  2.17 
1030  1.96  1.67  2.17 
1031  1.23  2.03  2.17 
1032  1.89  1.80  2.17 
1033  1.78  1.74  2.17 
1034  1.61  2.17  2.17 
1035  1.77  2.05  2.17 
1036  1.57  2.39  2.17 
1037  1.76  2.20  2.17 
1038  1.68  2.20  2.17 
1039  1.90  2.26  2.17 
1040  1.66  2.28  2.17 
1041  1.64  2.20  2.17 
1042  1.60  2.16  2.17 
1043  1.87  1.93  2.17 
1044  2.05  2.04  2.17 
1045  1.77  2.04  2.17 
1046  2.03  1.92  2.17 
1047  1.67  2.02  2.17 
1048  1.55  2.08  2.17 
1049  1.95  1.91  2.17 
1050  1.46  1.99  2.17 
1051  1.55  1.87  2.17 
1052  2.05  1.83  2.17 
1053  2.06  1.82  2.17 
1054  1.83  1.92  2.17 
1055  1.47  1.89  2.17 
1056  1.86  1.91  2.17 
1057  1.51  1.94  2.17 
1058  1.67  2.00  2.17 
1059  1.45  2.16  2.17 
1060  1.90  2.11  2.17 
1061  1.27  2.19  2.17 
1062  1.96  2.13  2.17 
1063  1.71  2.10  2.17 
1064  1.41  2.19  2.17 
1065  1.78  2.19  2.17 
1066  2.18  2.18  2.17 
1067  1.57  2.20  2.18 
1068  2.03  2.21  2.18 
1069  1.90  2.11  2.18 
1070  1.97  2.13  2.18 
1071  1.52  2.30  2.18 
1072  1.71  2.21  2.18 
1073  1.92  2.28  2.18 
1074  1.69  2.27  2.18 
1075  2.19  2.12  2.18 
1076  1.72  2.01  2.19 
1077  1.88  2.26  2.19 
1078  1.68  2.23  2.19 
1079  1.90  2.12  2.19 
1080  1.52  2.22  2.19 
1081  1.61  2.13  2.19 
1082  1.49  2.20  2.19 
1083  1.22  2.22  2.19 
1084  1.52  2.20  2.19 
1085  1.58  2.25  2.19 
1086  1.82  2.26  2.19 
1087  1.10  2.28  2.19 
1088  1.60  2.18  2.19 
1089  1.37  2.19  2.19 
1090  1.55  2.22  2.19 
1091  1.71  1.81  2.19 
1092  1.86  2.14  2.19 
1093  1.61  2.23  2.19 
1094  1.96  2.16  2.19 
1095  1.79  2.27  2.19 
1096  1.88  2.19  2.19 
1097  1.84  2.10  2.19 
1098  1.62  2.19  2.19 
1099  1.63  2.22  2.19 
1100  1.97  2.13  2.19 
1101  1.38  2.10  2.19 
1102  1.68  2.13  2.19 
1103  2.04  1.89  2.19 
1104  2.01  2.01  2.19 
1105  1.83  2.14  2.19 
1106  1.84  2.09  2.19 
1107  1.98  1.96  2.19 
1108  1.90  2.03  2.19 
1109  1.99  2.10  2.19 
1110  1.77  2.00  2.19 
1111  1.69  2.22  2.19 
1112  1.59  2.12  2.19 
1113  1.84  2.15  2.19 
1114  1.93  2.17  2.19 
1115  1.73  2.09  2.19 
1116  1.86  2.04  2.19 
1117  1.60  1.89  2.19 
1118  2.02  2.06  2.19 
1119  2.14  2.04  2.19 
1120  2.11  2.14  2.19 
1121  1.85  2.05  2.19 
1122  1.80  2.05  2.19 
1123  1.96  2.09  2.19 
1124  1.48  2.07  2.19 
1125  2.15  1.98  2.19 
1126  1.86  2.04  2.19 
1127  1.86  2.11  2.19 
1128  2.05  2.06  2.19 
1129  1.87  1.98  2.19 
1130  2.05  2.12  2.19 
1131  2.22  2.11  2.19 
1132  1.73  2.03  2.22 
1133  1.68  2.14  2.22 
1134  1.69  2.17  2.22 
1135  2.10  2.09  2.22 
1136  1.98  2.14  2.22 
1137  1.88  2.09  2.22 
1138  1.62  2.03  2.22 
1139  1.82  2.20  2.22 
1140  1.75  2.20  2.22 
1141  1.96  2.18  2.22 
1142  1.83  2.19  2.22 
1143  2.09  2.19  2.22 
1144  1.57  2.18  2.22 
1145  2.12  2.19  2.22 
1146  2.02  2.11  2.22 
1147  1.31  2.17  2.22 
1148  1.80  2.17  2.22 
1149  2.19  2.17  2.22 
1150  1.83  2.13  2.22 
1151  1.92  2.14  2.22 
1152  2.19  2.17  2.22 
1153  2.11  2.07  2.22 
1154  2.09  2.15  2.22 
1155  2.07  2.16  2.22 
1156  1.48  2.13  2.22 
1157  1.74  2.18  2.22 
1158  2.02  2.28  2.22 
1159  1.65  2.12  2.22 
1160  1.61  2.03  2.22 
1161  1.97  2.16  2.22 
1162  1.44  2.14  2.22 
1163  2.04  2.13  2.22 
1164  1.59  2.03  2.22 
1165  1.77  2.16  2.22 
1166  1.92  2.11  2.22 
1167  1.44  2.18  2.22 
1168  2.23  2.16  2.22 
1169  1.75  2.06  2.23 
1170  1.94  2.10  2.23 
1171  1.63  1.80  2.23 
1172  1.53  2.16  2.23 
1173  2.08  2.09  2.23 
1174  1.70  2.07  2.23 
1175  2.11  1.89  2.23 
1176  1.35  1.92  2.23 
1177  1.61  2.10  2.23 
1178  1.81  2.12  2.23 
1179  1.48  2.17  2.23 
1180  1.77  2.19  2.23 
1181  1.84  2.08  2.23 
1182  1.78  1.95  2.23 
1183  1.63  2.06  2.23 
1184  1.96  2.12  2.23 
1185  2.15  2.10  2.23 
1186  2.19  2.07  2.23 
1187  1.89  2.18  2.23 
1188  2.03  2.20  2.23 
1189  1.74  2.19  2.23 
1190  1.74  2.27  2.23 
1191  2.18  2.24  2.23 
1192  2.00  2.39  2.23 
1193  2.03  2.34  2.23 
1194  1.81  2.32  2.23 
1195  2.13  2.18  2.23 
1196  1.86  2.23  2.23 
1197  1.76  2.39  2.23 
1198  1.97  2.26  2.23 
1199  1.67  2.34  2.23 
1200  1.58  2.15  2.23 
1201  1.85  2.40  2.23 
1202  1.67  2.43  2.23 
1203  2.17  2.16  2.23 
1204  1.70  2.30  2.23 
1205  1.79  2.04  2.23 
1206  1.59  2.06  2.23 
1207  1.62  2.11  2.23 
1208  1.78  2.23  2.23 
1209  2.28  2.29  2.23 
1210  1.55  2.27  2.28 
1211  1.81  2.15  2.28 
1212  1.95  2.16  2.28 
1213  2.06  2.13  2.28 
1214  1.78  2.23  2.28 
1215  2.15  2.25  2.28 
1216  1.71  2.20  2.28 
1217  1.18  2.05  2.28 
1218  1.68  2.32  2.28 
1219  1.18  2.25  2.28 
1220  1.52  2.05  2.28 
1221  2.02  2.20  2.28 
1222  2.15  2.25  2.28 
1223  2.16  2.15  2.28 
1224  1.72  2.18  2.28 
1225  1.90  2.35  2.28 
1226  1.84  2.20  2.28 
1227  2.17  2.20  2.28 
1228  1.33  2.02  2.28 
1229  1.80  2.25  2.28 
1230  2.09  2.31  2.28 
1231  1.35  2.30  2.28 
1232  1.38  2.25  2.28 
1233  1.76  2.18  2.28 
1234  2.11  2.16  2.28 
1235  1.79  2.16  2.28 
1236  1.78  2.22  2.28 
1237  1.62  2.18  2.28 
1238  1.83  2.25  2.28 
1239  1.92  2.25  2.28 
1240  2.08  2.12  2.28 
1241  1.28  1.87  2.28 
1242  1.83  2.30  2.28 
1243  1.91  2.31  2.28 
1244  1.88  2.35  2.28 
1245  1.84  2.22  2.28 
1246  1.52  2.30  2.28 
1247  1.62  2.27  2.28 
1248  1.85  2.31  2.28 
1249  1.68  2.34  2.28 
1250  1.96  2.28  2.28 
1251  2.13  2.22  2.28 
1252  2.17  2.22  2.28 
1253  1.86  2.22  2.28 
1254  1.87  2.20  2.28 
1255  1.82  2.09  2.28 
1256  1.57  2.08  2.28 
1257  1.95  2.12  2.28 
1258  2.25  2.11  2.28 
1259  1.95  2.08  2.28 
1260  1.92  2.12  2.28 
1261  1.77  2.12  2.28 
1262  1.51  2.20  2.28 
1263  2.18  1.73  2.28 
1264  1.82  1.76  2.28 
1265  1.65  2.05  2.28 
1266  2.21  2.13  2.28 
1267  2.10  2.12  2.28 
1268  1.86  2.12  2.28 
1269  2.21  2.16  2.28 
1270  1.73  2.10  2.28 
1271  1.73  2.13  2.28 
1272  2.02  2.14  2.28 
1273  1.73  2.09  2.28 
1274  1.51  2.32  2.28 
1275  1.91  2.05  2.28 
1276  2.09  2.26  2.28 
1277  2.44  2.15  2.28 
1278  2.07  2.22  2.44 
1279  1.51  2.33  2.44 
1280  1.86  2.26  2.44 
1281  1.77  2.34  2.44 
1282  1.63  2.22  2.44 
1283  1.98  2.24  2.44 
1284  1.31  2.20  2.44 
1285  2.09  2.26  2.44 
1286  2.18  2.08  2.44 
1287  2.12  2.23  2.44 
1288  1.70  2.27  2.44 
1289  1.89  2.11  2.44 
1290  1.79  2.16  2.44 
1291  2.20  2.21  2.44 
1292  1.84  2.14  2.44 
1293  1.89  2.14  2.44 
1294  1.50  2.13  2.44 
1295  1.63  2.12  2.44 
1296  1.37  2.16  2.44 
1297  1.69  2.27  2.44 
1298  1.33  2.19  2.44 
1299  1.77  2.11  2.44 
1300  1.93  2.26  2.44 
1301  1.92  2.24  2.44 
1302  1.81  2.18  2.44 
1303  1.83  2.25  2.44 
1304  1.54  2.22  2.44 
1305  2.17  2.20  2.44 
1306  2.03  2.31  2.44 
1307  1.77  2.22  2.44 
1308  1.56  2.13  2.44 
1309  2.13  2.10  2.44 
1310  1.78  2.23  2.44 
1311  2.25  2.25  2.44 
1312  1.80  2.27  2.44 
1313  2.08  2.11  2.44 
1314  1.81  2.20  2.44 
1315  2.11  2.25  2.44 
1316  1.81  2.25  2.44 
1317  2.04  2.17  2.44 
1318  1.84  2.13  2.44 
1319  1.97  2.04  2.44 
1320  2.09  2.12  2.44 
1321  2.02  2.32  2.44 
1322  1.98  1.94  2.44 
1323  1.56  2.19  2.44 
1324  1.87  2.01  2.44 
1325  1.90  2.16  2.44 
1326  1.65  2.05  2.44 
1327  1.87  2.23  2.44 
1328  1.91  2.23  2.44 
1329  2.06  2.31  2.44 
1330  2.11  2.33  2.44 
1331  2.20  2.22  2.44 
1332  2.22  2.27  2.44 
1333  1.90  2.20  2.44 
1334  2.25  2.25  2.44 
1335  1.76  2.26  2.44 
1336  1.67  2.22  2.44 
1337  1.72  2.24  2.44 
1338  2.06  2.26  2.44 
1339  2.12  2.32  2.44 
1340  1.94  2.29  2.44 
1341  2.07  2.26  2.44 
1342  1.40  2.30  2.44 
1343  2.13  2.31  2.44 
1344  2.14  2.03  2.44 
1345  1.89  2.35  2.44 
1346  1.88  1.62  2.44 
1347  1.67  2.08  2.44 
1348  2.26  1.99  2.44 
1349  2.12  2.24  2.44 
1350  2.12  2.31  2.44 
1351  2.09  2.18  2.44 
1352  2.01  2.11  2.44 
1353  2.04  2.18  2.44 
1354  2.12  2.07  2.44 
1355  1.65  2.10  2.44 
1356  1.44  2.31  2.44 
1357  2.10  2.25  2.44 
1358  2.09  2.31  2.44 
1359  1.82  2.33  2.44 
1360  1.60  2.37  2.44 
1361  1.97  2.04  2.44 
1362  1.81  2.14  2.44 
1363  1.66  2.29  2.44 
1364  2.31  2.15  2.44 
1365  1.82  2.05  2.44 
1366  1.21  2.40  2.44 
1367  2.27  2.35  2.44 
1368  1.50  2.31  2.44 
1369  1.49  2.45  2.44 
1370  2.30  2.24  2.44 
1371  2.18  2.22  2.44 
1372  2.17  2.18  2.44 
1373  1.96  2.16  2.44 
1374  2.01  2.19  2.44 
1375  2.16  1.78  2.44 
1376  1.92  1.88  2.44 
1377  1.87  2.25  2.44 
1378  1.78  2.00  2.44 
1379  2.09  2.10  2.44 
1380  2.20  1.41  2.44 
1381  1.75  1.80  2.44 
1382  1.63  1.52  2.44 
1383  2.13  1.18  2.44 
1384  2.05  1.58  2.44 
1385  1.92  1.83  2.44 
1386  1.87  1.97  2.44 
1387  2.00  1.58  2.44 
1388  2.03  1.83  2.44 
1389  1.82  1.52  2.44 
1390  1.47  1.30  2.44 
1391  1.80  1.55  2.44 
1392  1.63  2.09  2.44 
1393  1.62  1.96  2.44 
1394  2.15  2.01  2.44 
1395  1.59  1.78  2.44 
1396  2.01  2.33  2.44 
1397  1.39  1.83  2.44 
1398  1.44  1.72  2.44 
1399  2.00  1.63  2.44 
1400  2.00  1.94  2.44 
1401  1.85  2.34  2.44 
1402  2.06  1.93  2.44 
1403  1.48  0.97  2.44 
1404  1.89  1.02  2.44 
1405  1.21  1.34  2.44 
1406  1.59  1.68  2.44 
1407  1.47  1.99  2.44 
1408  1.80  1.66  2.44 
1409  1.83  1.33  2.44 
1410  1.90  1.31  2.44 
1411  1.36  1.34  2.44 
1412  1.77  1.37  2.44 
1413  1.75  1.12  2.44 
1414  1.53  1.11  2.44 
1415  1.24  1.16  2.44 
1416  1.60  1.72  2.44 
1417  1.69  1.54  2.44 
1418  2.00  1.19  2.44 
1419  2.11  1.72  2.44 
1420  1.73  1.60  2.44 
1421  1.19  1.76  2.44 
1422  1.85  1.54  2.44 
1423  1.88  1.55  2.44 
1424  1.96  1.15  2.44 
1425  1.55  1.15  2.44 
1426  1.69  1.22  2.44 
1427  1.98  1.59  2.44 
1428  2.27  1.50  2.44 
1429  1.92  1.55  2.44 
1430  2.08  1.76  2.44 
1431  1.85  1.66  2.44 
1432  1.48  1.97  2.44 
1433  2.25  2.02  2.44 
1434  1.68  2.37  2.44 
1435  1.73  1.83  2.44 
1436  1.84  1.56  2.44 
1437  2.28  1.51  2.44 
1438  1.72  2.19  2.44 
1439  1.31  2.26  2.44 
1440  1.89  2.16  2.44 
1441  1.70  2.30  2.44 
1442  1.78  2.15  2.44 
1443  1.57  2.14  2.44 
1444  1.37  2.28  2.44 
1445  1.05  2.26  2.44 
1446  1.92  2.30  2.44 
1447  1.61  2.01  2.44 
1448  2.03  2.30  2.44 
1449  1.69  2.22  2.44 
1450  1.98  2.02  2.44 
1451  2.12  2.03  2.44 
1452  1.18  2.12  2.44 
1453  1.80  1.93  2.44 
1454  1.79  2.03  2.44 
1455  1.05  2.05  2.44 
1456  1.71  2.18  2.44 
1457  1.66  2.28  2.44 
1458  1.24  1.91  2.44 
1459  2.27  2.08  2.44 
1460  1.31  2.09  2.44 
1461  1.74  2.26  2.44 
1462  1.70  1.78  2.44 
1463  2.29  2.07  2.44 
1464  1.66  2.20  2.44 
1465  1.35  2.09  2.44 
1466  2.12  2.15  2.44 
1467  1.97  2.04  2.44 
1468  1.96  2.14  2.44 
1469  1.81  1.78  2.44 
1470  1.91  2.11  2.44 
1471  1.92  2.19  2.44 
1472  2.25  1.95  2.44 
1473  1.73  2.30  2.44 
1474  1.66  2.03  2.44 
1475  1.55  2.15  2.44 
1476  2.08  2.08  2.44 
1477  1.72  2.03  2.44 
1478  1.43  1.87  2.44 
1479  1.53  2.04  2.44 
1480  1.57  1.97  2.44 
1481  1.71  1.85  2.44 
1482  2.11  1.98  2.44 
1483  1.69  2.12  2.44 
1484  2.21  2.19  2.44 
1485  1.78  2.02  2.44 
1486  2.09  2.05  2.44 
1487  1.71  1.95  2.44 
1488  1.90  2.07  2.44 
1489  1.47  1.80  2.44 
1490  2.10  1.83  2.44 
1491  2.04  1.67  2.44 
1492  1.91  1.93  2.44 
1493  1.77  2.13  2.44 
1494  1.77  2.01  2.44 
1495  1.41  1.93  2.44 
1496  2.00  1.96  2.44 
1497  1.74  2.02  2.44 
1498  1.87  1.83  2.44 
1499  2.13  1.55  2.44 
1500  1.78  1.78  2.44 
1501  2.07  1.63  2.44 
1502  1.86  1.92  2.44 
1503  2.16  2.07  2.44 
1504  1.32  1.92  2.44 
1505  2.04  1.82  2.44 
1506  1.73  1.86  2.44 
1507  1.78  2.06  2.44 
1508  2.05  1.72  2.44 
1509  1.73  1.97  2.44 
1510  1.28  2.14  2.44 
1511  2.17  1.59  2.44 
1512  1.49  1.89  2.44 
1513  1.70  2.19  2.44 
1514  2.02  2.01  2.44 
1515  2.15  2.27  2.44 
1516  1.93  1.61  2.44 
1517  1.57  1.75  2.44 
1518  2.11  1.37  2.44 
1519  2.06  1.79  2.44 
1520  1.99  1.72  2.44 
1521  1.48  1.54  2.44 
1522  2.01  1.81  2.44 
1523  1.83  1.83  2.44 
1524  1.85  1.85  2.44 
1525  2.08  2.10  2.44 
1526  1.83  1.85  2.44 
1527  1.89  1.83  2.44 
1528  1.64  2.13  2.44 
1529  1.49  2.08  2.44 
1530  1.93  1.99  2.44 
1531  1.51  1.93  2.44 
1532  2.08  2.05  2.44 
1533  2.01  1.97  2.44 
1534  1.83  2.08  2.44 
1535  2.05  1.99  2.44 
1536  2.14  2.11  2.44 
1537  1.68  1.86  2.44 
1538  1.87  1.90  2.44 
1539  2.20  2.08  2.44 
1540  1.82  1.95  2.44 
1541  1.71  1.57  2.44 
1542  1.66  1.87  2.44 
1543  2.31  2.02  2.44 
1544  1.68  2.00  2.44 
1545  1.97  1.80  2.44 
1546  1.77  2.13  2.44 
1547  1.86  2.20  2.44 
1548  2.25  1.85  2.44 
1549  1.59  1.99  2.44 
1550  1.82  1.45  2.44 
1551  2.07  1.84  2.44 
1552  1.92  1.89  2.44 
1553  1.76  2.12  2.44 
1554  2.07  2.05  2.44 
1555  1.66  1.80  2.44 
1556  1.91  1.36  2.44 
1557  2.09  1.79  2.44 
1558  1.71  2.08  2.44 
1559  1.92  2.04  2.44 
1560  2.07  2.30  2.44 
1561  1.77  1.97  2.44 
1562  1.81  2.12  2.44 
1563  2.17  1.98  2.44 
1564  1.82  2.09  2.44 
1565  2.01  2.21  2.44 
1566  2.05  2.21  2.44 
1567  1.78  1.58  2.44 
1568  2.12  2.02  2.44 
1569  1.79  2.03  2.44 
1570  1.89  1.99  2.44 
1571  1.88  2.04  2.44 
1572  2.17  1.90  2.44 
1573  1.78  2.03  2.44 
1574  1.46  2.08  2.44 
1575  2.25  2.05  2.44 
1576  2.08  2.10  2.44 
1577  1.88  2.31  2.44 
1578  1.71  2.15  2.44 
1579  1.87  2.20  2.44 
1580  2.01  2.14  2.44 
1581  2.05  2.16  2.44 
1582  1.76  1.98  2.44 
1583  1.87  2.08  2.44 
1584  1.73  2.23  2.44 
1585  1.96  2.10  2.44 
1586  1.84  2.19  2.44 
1587  1.57  2.02  2.44 
1588  1.70  2.19  2.44 
1589  1.93  1.99  2.44 
1590  2.00  2.15  2.44 
1591  1.61  2.09  2.44 
1592  2.06  2.17  2.44 
1593  2.21  1.98  2.44 
1594  1.96  2.20  2.44 
1595  1.51  2.19  2.44 
1596  2.22  2.23  2.44 
1597  1.56  1.96  2.44 
1598  1.84  1.88  2.44 
1599  1.39  1.44  2.44 
1600  1.60  2.00  2.44 
1601  1.71  1.83  2.44 
1602  2.13  1.93  2.44 
1603  2.20  2.02  2.44 
1604  1.68  1.95  2.44 
1605  1.58  2.13  2.44 
1606  1.46  2.15  2.44 
1607  2.15  2.15  2.44 
1608  2.10  2.21  2.44 
1609  1.98  2.12  2.44 
1610  1.52  2.10  2.44 
1611  1.96  2.13  2.44 
1612  2.32  2.06  2.44 
1613  1.98  2.10  2.44 
1614  2.14  2.17  2.44 
1615  1.25  2.17  2.44 
1616  2.14  2.20  2.44 
1617  1.85  2.16  2.44 
1618  1.90  2.18  2.44 
1619  1.78  2.25  2.44 
1620  2.17  2.10  2.44 
1621  1.51  2.24  2.44 
1622  2.11  2.21  2.44 
1623  1.79  2.12  2.44 
1624  2.10  2.10  2.44 
1625  1.75  2.06  2.44 
1626  1.93  2.20  2.44 
1627  1.71  1.98  2.44 
1628  2.08  2.25  2.44 
1629  1.59  2.31  2.44 
1630  1.96  2.18  2.44 
1631  1.79  2.02  2.44 
1632  1.89  2.21  2.44 
1633  2.05  2.03  2.44 
1634  1.67  2.10  2.44 
1635  1.76  2.11  2.44 
1636  1.92  1.90  2.44 
1637  2.23  1.90  2.44 
1638  1.61  1.92  2.44 
1639  1.83  2.01  2.44 
1640  2.21  1.98  2.44 
1641  1.55  1.95  2.44 
1642  2.00  2.08  2.44 
1643  1.60  2.22  2.44 
1644  1.38  2.24  2.44 
1645  1.95  2.31  2.44 
1646  2.20  2.33  2.44 
1647  2.00  2.00  2.44 
1648  2.08  2.12  2.44 
1649  2.15  2.17  2.44 
1650  2.15  2.04  2.44 
1651  1.87  1.82  2.44 
1652  1.98  2.04  2.44 
1653  1.23  2.15  2.44 
1654  2.31  2.14  2.44 
1655  1.54  2.14  2.44 
1656  2.02  2.08  2.44 
1657  1.63  2.17  2.44 
1658  1.94  2.15  2.44 
1659  1.79  2.22  2.44 
1660  2.06  2.23  2.44 
1661  1.93  2.15  2.44 
1662  2.10  2.16  2.44 
1663  1.79  2.03  2.44 
1664  1.59  2.19  2.44 
1665  1.94  2.11  2.44 
1666  2.13  2.10  2.44 
1667  1.84  2.32  2.44 
1668  2.06  2.23  2.44 
1669  2.30  2.31  2.44 
1670  1.72  2.25  2.44 
1671  2.13  1.90  2.44 
1672  1.69  2.04  2.44 
1673  2.00  1.80  2.44 
1674  2.03  1.77  2.44 
1675  1.98  1.83  2.44 
1676  1.90  2.25  2.44 
1677  1.79  2.05  2.44 
1678  2.30  2.22  2.44 
1679  2.22  2.09  2.44 
1680  2.35  2.08  2.44 
1681  1.60  2.29  2.44 
1682  1.82  2.13  2.44 
1683  1.91  1.73  2.44 
1684  1.65  2.00  2.44 
1685  1.36  1.86  2.44 
1686  1.90  1.59  2.44 
1687  2.16  2.16  2.44 
1688  1.79  2.21  2.44 
1689  2.20  2.13  2.44 
1690  2.03  2.10  2.44 
1691  1.26  2.14  2.44 
1692  2.10  2.10  2.44 
1693  2.08  2.14  2.44 
1694  1.82  1.91  2.44 
1695  1.44  1.90  2.44 
1696  1.79  1.82  2.44 
1697  2.20  2.09  2.44 
1698  1.70  1.66  2.44 
1699  2.12  2.02  2.44 
1700  2.07  2.10  2.44 
1701  2.21  2.09  2.44 
1702  1.94  2.06  2.44 
1703  1.93  2.22  2.44 
1704  2.20  2.06  2.44 
1705  1.81  2.17  2.44 
1706  2.00  2.08  2.44 
1707  2.17  2.06  2.44 
1708  2.09  2.20  2.44 
1709  2.00  2.20  2.44 
1710  1.46  2.10  2.44 
1711  2.20  2.19  2.44 
1712  2.05  2.17  2.44 
1713  2.16  1.92  2.44 
1714  1.64  1.93  2.44 
1715  1.75  2.00  2.44 
1716  2.08  1.99  2.44 
1717  1.92  2.06  2.44 
1718  2.04  2.05  2.44 
1719  1.87  2.05  2.44 
1720  1.78  2.13  2.44 
1721  1.64  2.14  2.44 
1722  1.89  2.13  2.44 
1723  1.96  2.12  2.44 
1724  1.64  2.22  2.44 
1725  2.31  2.26  2.44 
1726  1.87  2.24  2.44 
1727  2.09  2.16  2.44 
1728  2.12  2.12  2.44 
1729  1.81  2.21  2.44 
1730  1.43  2.18  2.44 
1731  1.82  2.10  2.44 
1732  1.89  2.14  2.44 
1733  1.96  2.12  2.44 
1734  1.55  2.11  2.44 
1735  2.03  2.05  2.44 
1736  1.97  2.13  2.44 
1737  2.21  2.24  2.44 
1738  2.07  2.05  2.44 
1739  1.73  2.12  2.44 
1740  1.82  2.16  2.44 
1741  2.27  2.23  2.44 
1742  1.75  2.12  2.44 
1743  1.65  2.17  2.44 
1744  2.16  2.06  2.44 
1745  1.52  2.17  2.44 
1746  1.71  2.11  2.44 
1747  1.86  2.20  2.44 
1748  1.91  2.16  2.44 
1749  1.87  1.95  2.44 
1750  1.99  1.96  2.44 
1751  1.72  1.99  2.44 
1752  2.21  1.93  2.44 
1753  1.33  1.87  2.44 
1754  1.95  1.87  2.44 
1755  1.99  1.61  2.44 
1756  2.02  1.79  2.44 
1757  1.46  1.89  2.44 
1758  1.43  1.72  2.44 
1759  1.64  1.64  2.44 
1760  1.81  2.07  2.44 
1761  1.70  1.92  2.44 
1762  1.58  1.89  2.44 
1763  1.82  1.98  2.44 
1764  1.99  2.06  2.44 
1765  2.19  1.88  2.44 
1766  1.67  2.16  2.44 
1767  1.86  2.15  2.44 
1768  2.07  1.88  2.44 
1769  1.69  1.89  2.44 
1770  1.75  1.99  2.44 
1771  1.54  1.92  2.44 
1772  2.04  1.83  2.44 
1773  1.68  1.97  2.44 
1774  1.54  1.99  2.44 
1775  2.01  2.08  2.44 
1776  1.57  1.96  2.44 
1777  1.99  1.94  2.44 
1778  1.52  1.98  2.44 
1779  1.74  2.13  2.44 
1780  1.90  2.11  2.44 
1781  2.12  2.07  2.44 
1782  2.14  2.11  2.44 
1783  1.82  2.15  2.44 
1784  1.29  2.17  2.44 
1785  1.38  2.15  2.44 
1786  2.18  2.03  2.44 
1787  1.89  2.02  2.44 
1788  1.91  2.14  2.44 
1789  2.01  2.13  2.44 
1790  1.63  2.15  2.44 
1791  2.06  2.04  2.44 
1792  1.95  2.25  2.44 
1793  1.68  2.12  2.44 
1794  1.70  2.20  2.44 
1795  1.40  1.98  2.44 
1796  2.03  2.24  2.44 
1797  2.18  2.06  2.44 
1798  1.86  2.11  2.44 
1799  1.99  2.14  2.44 
1800  1.85  1.77  2.44 
1801  2.32  1.99  2.44 
1802  2.01  2.04  2.44 
1803  2.07  2.10  2.44 
1804  1.90  1.96  2.44 
1805  2.22  1.75  2.44 
1806  1.93  2.09  2.44 
1807  1.83  2.04  2.44 
1808  1.83  2.16  2.44 
1809  2.07  2.23  2.44 
1810  2.09  2.11  2.44 
1811  1.84  2.08  2.44 
1812  1.86  2.16  2.44 
1813  1.89  2.24  2.44 
1814  2.17  2.12  2.44 
1815  1.58  1.99  2.44 
1816  2.14  2.11  2.44 
1817  2.14  2.10  2.44 
1818  2.11  2.18  2.44 
1819  1.90  2.06  2.44 
1820  2.01  2.20  2.44 
1821  2.05  2.19  2.44 
1822  2.14  1.94  2.44 
1823  2.31  2.21  2.44 
1824  2.00  2.08  2.44 
1825  1.97  2.20  2.44 
1826  1.61  2.14  2.44 
1827  2.03  2.10  2.44 
1828  1.42  2.20  2.44 
1829  1.90  2.29  2.44 
1830  1.88  2.22  2.44 
1831  2.16  2.28  2.44 
1832  2.10  2.27  2.44 
1833  1.95  2.28  2.44 
1834  1.67  2.21  2.44 
1835  1.86  2.14  2.44 
1836  1.63  2.15  2.44 
1837  2.21  2.18  2.44 
1838  1.96  2.27  2.44 
1839  1.75  2.21  2.44 
1840  1.82  2.10  2.44 
1841  1.73  1.87  2.44 
1842  1.57  1.96  2.44 
1843  2.09  2.07  2.44 
1844  1.59  2.11  2.44 
1845  1.97  2.08  2.44 
1846  1.81  1.93  2.44 
1847  2.38  2.09  2.44 
1848  2.03  2.14  2.44 
1849  1.93  2.23  2.44 
1850  2.15  2.09  2.44 
1851  2.13  2.12  2.44 
1852  2.26  2.10  2.44 
1853  1.94  2.14  2.44 
1854  2.05  2.22  2.44 
1855  2.09  2.30  2.44 
1856  2.10  2.16  2.44 
1857  1.97  2.15  2.44 
1858  1.72  2.25  2.44 
1859  1.81  2.18  2.44 
1860  1.91  2.17  2.44 
1861  1.55  2.31  2.44 
1862  1.70  2.13  2.44 
1863  1.64  2.20  2.44 
1864  1.93  2.07  2.44 
1865  1.83  2.32  2.44 
1866  2.17  2.16  2.44 
1867  1.73  2.11  2.44 
1868  2.14  2.16  2.44 
1869  2.00  2.07  2.44 
1870  1.93  2.28  2.44 
1871  1.99  2.28  2.44 
1872  1.83  2.26  2.44 
1873  1.98  2.20  2.44 
1874  2.05  2.16  2.44 
1875  2.17  2.15  2.44 
1876  1.80  2.34  2.44 
1877  2.22  2.24  2.44 
1878  1.93  2.25  2.44 
1879  2.02  2.24  2.44 
1880  2.11  2.12  2.44 
1881  1.97  2.20  2.44 
1882  1.67  2.37  2.44 
1883  1.91  2.22  2.44 
1884  2.02  2.27  2.44 
1885  1.88  2.18  2.44 
1886  1.99  2.10  2.44 
1887  1.53  2.11  2.44 
1888  2.27  2.10  2.44 
1889  1.83  2.04  2.44 
1890  1.82  2.07  2.44 
1891  2.27  2.23  2.44 
1892  2.33  2.18  2.44 
1893  1.98  2.30  2.44 
1894  1.70  2.30  2.44 
1895  1.72  2.18  2.44 
1896  1.31  2.21  2.44 
1897  1.87  2.19  2.44 
1898  2.12  2.26  2.44 
1899  1.48  2.15  2.44 
1900  1.81  2.25  2.44 
1901  2.20  2.37  2.44 
1902  1.80  2.17  2.44 
1903  2.03  2.12  2.44 
1904  2.03  2.17  2.44 
1905  1.75  1.98  2.44 
1906  2.07  2.20  2.44 
1907  2.00  2.28  2.44 
1908  1.80  2.02  2.44 
1909  1.68  2.15  2.44 
1910  1.54  2.27  2.44 
1911  2.04  2.20  2.44 
1912  1.87  1.88  2.44 
1913  1.67  2.19  2.44 
1914  2.09  2.07  2.44 
1915  1.93  2.21  2.44 
1916  1.77  2.14  2.44 
1917  2.10  2.09  2.44 
1918  2.08  1.91  2.44 
1919  1.85  1.97  2.44 
1920  1.97  2.02  2.44 
1921  2.00  2.19  2.44 
1922  1.88  2.22  2.44 
1923  1.67  2.18  2.44 
1924  1.94  2.01  2.44 
1925  1.85  2.09  2.44 
1926  1.46  2.12  2.44 
1927  2.15  2.28  2.44 
1928  2.15  2.39  2.44 
1929  2.25  2.40  2.44 
1930  2.15  2.47  2.44 
1931  2.18  2.32  2.44 
1932  1.34  2.24  2.44 
1933  1.92  2.18  2.44 
1934  1.63  2.44  2.44 
1935  1.77  2.31  2.44 
1936  1.84  2.42  2.44 
1937  2.04  2.30  2.44 
1938  2.16  2.27  2.44 
1939  1.77  2.19  2.44 
1940  2.03  2.14  2.44 
1941  1.82  2.17  2.44 
1942  2.13  2.17  2.44 
1943  1.99  2.31  2.44 
1944  1.79  2.32  2.44 
1945  1.62  2.31  2.44 
1946  1.88  2.15  2.44 
1947  1.62  2.36  2.44 
1948  2.02  2.13  2.44 
1949  1.98  2.33  2.44 
1950  1.81  2.17  2.44 
1951  1.67  2.20  2.44 
1952  1.81  2.32  2.44 
1953  1.73  2.31  2.44 
1954  1.93  2.28  2.44 
1955  1.69  2.41  2.44 
1956  1.90  2.42  2.44 
1957  1.68  2.52  2.44 
1958  2.11  2.21  2.44 
1959  1.27  2.37  2.44 
1960  2.01  2.16  2.44 
1961  1.49  2.42  2.44 
1962  1.52  2.34  2.44 
1963  1.56  2.13  2.44 
1964  2.22  2.07  2.44 
1965  1.35  2.36  2.44 
1966  1.98  2.11  2.44 
1967  1.59  2.29  2.44 
1968  2.24  2.35  2.44 
1969  1.76  2.29  2.44 
1970  1.66  2.30  2.44 
1971  1.64  2.43  2.44 
1972  1.77  2.41  2.44 
1973  1.97  2.46  2.44 
1974  1.73  2.27  2.44 
1975  1.73  2.35  2.44 
1976  2.07  2.40  2.44 
1977  1.73  2.43  2.44 
1978  1.82  2.52  2.44 
1979  1.04  2.48  2.44 
1980  2.04  2.41  2.44 
1981  1.85  2.50  2.44 
1982  2.02  2.33  2.44 
1983  2.06  2.34  2.44 
1984  1.89  2.24  2.44 
1985  1.60  2.44  2.44 
1986  1.95  2.42  2.44 
1987  1.99  2.50  2.44 
1988  1.94  2.33  2.44 
1989  1.86  2.43  2.44 
1990  1.54  2.49  2.44 
1991  1.89  2.44  2.44 
1992  2.01  2.52  2.44 
1993  2.06  2.39  2.44 
1994  1.34  2.36  2.44 
1995  2.11  2.38  2.44 
1996  1.86  2.44  2.44 
1997  1.22  2.27  2.44 
1998  2.20  2.29  2.44 
1999  1.78  2.29  2.44 
2000  1.90  2.40  2.44 
2001  1.54  2.03  2.44 
2002  1.90  2.12  2.44 
2003  1.98  2.11  2.44 
2004  1.66  1.57  2.44 
2005  2.12  1.64  2.44 
2006  1.93  1.85  2.44 
2007  1.92  1.92  2.44 
2008  1.92  2.18  2.44 
2009  1.93  1.80  2.44 
2010  2.16  2.11  2.44 
2011  2.20  2.29  2.44 
2012  1.98  2.13  2.44 
2013  1.61  2.07  2.44 
2014  1.76  2.26  2.44 
2015  1.68  2.25  2.44 
2016  2.12  2.07  2.44 
2017  1.97  2.09  2.44 
2018  1.85  2.17  2.44 
2019  1.17  2.25  2.44 
2020  2.02  2.15  2.44 
2021  1.88  2.07  2.44 
2022  1.54  2.30  2.44 
2023  1.68  2.46  2.44 
2024  1.66  2.03  2.44 
2025  1.76  2.19  2.44 
2026  1.74  2.27  2.44 
2027  1.40  2.21  2.44 
2028  2.21  2.16  2.44 
2029  2.25  2.25  2.44 
2030  2.05  2.22  2.44 
2031  1.61  2.31  2.44 
2032  2.02  2.05  2.44 
2033  1.82  1.94  2.44 
2034  1.61  2.06  2.44 
2035  1.95  2.10  2.44 
2036  1.75  2.13  2.44 
2037  1.85  2.02  2.44 
2038  1.81  2.41  2.44 
2039  2.02  2.25  2.44 
2040  2.01  2.09  2.44 
2041  1.92  2.11  2.44 
2042  1.37  2.29  2.44 
2043  1.89  2.28  2.44 
2044  1.73  2.32  2.44 
2045  1.11  2.04  2.44 
2046  2.05  2.17  2.44 
2047  1.60  2.21  2.44 
2048  2.14  2.17  2.44 
2049  1.45  2.33  2.44 
2050  2.04  2.18  2.44 
2051  2.04  2.09  2.44 
2052  2.08  2.38  2.44 
2053  1.61  2.20  2.44 
2054  1.52  2.07  2.44 
2055  1.66  2.18  2.44 
2056  1.62  2.02  2.44 
2057  1.93  2.37  2.44 
2058  1.69  2.30  2.44 
2059  1.72  2.13  2.44 
2060  1.61  2.03  2.44 
2061  2.10  1.84  2.44 
2062  2.00  2.32  2.44 
2063  1.53  2.14  2.44 
2064  1.27  2.19  2.44 
2065  2.15  2.20  2.44 
2066  1.87  2.05  2.44 
2067  1.60  2.25  2.44 
2068  1.64  2.10  2.44 
2069  1.86  2.09  2.44 
2070  1.64  2.21  2.44 
2071  2.03  2.05  2.44 
2072  1.94  2.16  2.44 
2073  1.38  1.86  2.44 
2074  1.84  2.01  2.44 
2075  1.53  2.09  2.44 
2076  1.83  2.03  2.44 
2077  1.75  2.17  2.44 
