iteration,time_sampling,stoc_pol_mean,stoc_pol_std,stoc_pol_max,stoc_pol_min,rollout_success,alpha,delta,time_vpg,time_npg,kl_dist,surr_improvement,running_score,rwd_sparse,rwd_dense,success_percentage,num_samples,time_VF,VF_error_before,VF_error_after,env_samples,eval_score,eval_success
0,1.249666452407837,0.03276060550772181,0.018836254423971157,0.06111100769985042,0.010693498324604528,0.0,0.1417499621740284,0.1,0.040851593017578125,0.04960918426513672,0.055298652,1.3665221,0.03276060550772181,0.0,0.0006773552053738784,0.0,200,0.029053449630737305,2.153019397496462,0.7025846110814773,200,0.02924679462649514,0.0
1,1.0308144092559814,0.03600769194297798,0.006747796028202624,0.04645732644628333,0.029257984662319405,0.0,0.14446416901015738,0.1,0.0024123191833496094,0.04570150375366211,0.04858613,0.796708,0.03308531415124743,0.0,0.000709974336027429,0.0,200,0.014580011367797852,0.49517572703056634,0.2514598911490737,400,0.03647131909113902,0.0
2,1.1161608695983887,0.033374803844871515,0.0051871699196760985,0.03930941274918785,0.025769537594149034,0.0,0.1501573137140762,0.1,0.002354860305786133,0.045316219329833984,0.051655322,0.91940016,0.03311426312060984,0.0,0.0006604792232098033,0.0,200,0.016116857528686523,0.3593582092523713,0.15214575244418513,600,0.040261215444617644,0.0
3,1.0709764957427979,0.030008230029611005,0.01783676964752397,0.0544548936149258,0.01261330803363916,0.0,0.1445647579056662,0.1,0.0022902488708496094,0.04608583450317383,0.05141656,0.94830966,0.032803659811509955,0.0,0.0006009788591791771,0.0,200,0.02545332908630371,0.3963650214062158,0.40157321287177156,800,0.05267112840361365,0.0
4,1.0715372562408447,0.11309370572437591,0.07025111224569136,0.21725248937905742,0.027292054056672614,0.0,0.1420636469520799,0.1,0.0023071765899658203,0.045566558837890625,0.052137353,1.4153463,0.04083266440279655,0.0,0.002247885586673629,0.0,200,0.015455007553100586,0.7960658342917885,0.4418988869279993,1000,0.06415617454217724,0.0
5,1.1158912181854248,0.07796813986374153,0.026336480490874368,0.10607052917449133,0.03557958258784582,0.0,0.14117251868743508,0.1,0.002498626708984375,0.046556711196899414,0.04993248,0.87125427,0.04454621194889105,0.0,0.0015546202777522481,0.0,200,0.014468669891357422,0.37438211248717534,0.6466322419760503,1200,0.07981569414956728,0.0
6,1.1934168338775635,0.04685088364596913,0.026942970565478844,0.0914151801438998,0.0247207371615181,0.0,0.15453865562585672,0.1,0.0026712417602539062,0.04550004005432129,0.050320774,0.9321289,0.04477667911859886,0.0,0.0009404485553076386,0.0,200,0.015480756759643555,2.043493353505661,0.7308710773643597,1400,0.1068771446041689,0.0
7,1.1464800834655762,0.031288520134650166,0.014352399835365657,0.05267760920370701,0.01796674303869077,0.0,0.1507978968516819,0.1,0.0022504329681396484,0.04469490051269531,0.050301213,0.94347084,0.04342786322020399,0.0,0.0006406303878843764,0.0,200,0.016051769256591797,2.258270025994903,0.27454968301943106,1600,0.10818990273139102,0.0
8,1.2029240131378174,0.140590185890775,0.14627047953370473,0.3865540417696212,0.023035311291402055,0.0,0.14191139915033288,0.1,0.0023779869079589844,0.04883766174316406,0.050194863,1.4196448,0.053144095487261095,0.0,0.0027972885378811335,0.0,200,0.01513671875,0.8527987911358156,0.8059047889814879,1800,0.11347659465898867,0.0
9,1.1761162281036377,0.11035519062908425,0.08546136099725064,0.22923773257077606,0.014041830967272892,0.0,0.14946037853891347,0.1,0.002530813217163086,0.04620671272277832,0.05076311,1.0761946,0.05886520500144342,0.0,0.002194402962774726,0.0,200,0.016234636306762695,0.6899182971507939,0.515883893590709,2000,0.10808412878471535,0.0
10,1.1342852115631104,0.04514773214195609,0.023974395298879046,0.07569559860228442,0.011485227700256142,0.0,0.14224502605949255,0.1,0.0024237632751464844,0.04552125930786133,0.04865182,1.006291,0.05749345771549469,0.0,0.0009108327546065418,0.0,200,0.017360687255859375,0.8757602195630381,1.557823709241744,2200,0.08287220194314877,0.0
11,1.1428277492523193,0.1851958111304114,0.19146391030001444,0.5036744245555161,0.031284499433164664,0.0,0.13890992167735997,0.1,0.0023467540740966797,0.05183911323547363,0.048786424,1.3930336,0.07026369305698636,0.0,0.0036954835557174116,0.0,200,0.015897274017333984,0.7145655213832628,0.663664050466814,2400,0.0828444629543013,0.0
12,1.1939647197723389,0.11983293110232268,0.0815319452401909,0.23464358541441704,0.0378787545862754,0.0,0.14551095621205137,0.1,0.0025641918182373047,0.04539299011230469,0.04939909,1.0578038,0.07522061686152,0.0,0.0023899128244284328,0.0,200,0.015517711639404297,0.4328992111108972,0.46691929222982126,2600,0.08215478120317224,0.0
13,1.138962984085083,0.1173160628048077,0.1448274437797136,0.3671259611513163,0.020993147081622823,0.0,0.1419253286902513,0.1,0.002485036849975586,0.04658937454223633,0.04973649,1.5808237,0.07943016145584877,0.0,0.002343069535337716,0.0,200,0.015791893005371094,0.7209847909457079,0.7124642915981232,2800,0.09289815771918296,0.0
14,1.1713831424713135,0.23485481222099522,0.1029639185316513,0.40370666863709115,0.14530924958950828,0.0,0.1401834245192415,0.1,0.0022499561309814453,0.0451655387878418,0.04809968,1.2705616,0.09497262653236342,0.0,0.004691357597543017,0.0,200,0.015660762786865234,0.36254078373093257,0.29889232736960697,3000,0.14340698571620117,0.0
15,1.1138763427734375,0.058417575600206065,0.012438196234819959,0.07074347520908193,0.040731941241779375,0.0,0.1318832256907822,0.1,0.0022661685943603516,0.04576611518859863,0.051578604,3.7233236,0.09131712143914768,0.0,0.0011681152794884115,0.0,200,0.014744281768798828,5.717725569686876,4.112353422010826,3200,0.1517973164020636,0.0
16,1.1678802967071533,0.07248312144253531,0.026720095123080656,0.11706092553166932,0.046046671116336875,0.0,0.13675528188341796,0.1,0.002361774444580078,0.04645371437072754,0.049771234,1.0776453,0.08943372143948644,0.0,0.0013847314599960635,0.0,200,0.01553487777709961,1.462625592789508,0.37895270868940045,3400,0.24470812033623882,0.0
17,1.1683120727539062,0.11438890274723061,0.06846706917358027,0.1947568698045703,0.04450818409802544,0.0,0.14199080610398557,0.1,0.002416849136352539,0.045476675033569336,0.049426943,1.0002201,0.09192923957026086,0.0,0.002271884476759081,0.0,200,0.014666557312011719,0.3434097956550859,0.44984306744226205,3600,0.22943689681859594,0.0
18,1.2517118453979492,0.2512928410771323,0.11607789008673608,0.3786260661060478,0.06455921586555881,0.0,0.13458682040403191,0.1,0.002550840377807617,0.045836687088012695,0.049084123,1.264123,0.107865599720948,0.0,0.005023124050210392,0.0,200,0.01951885223388672,0.6364512423809744,0.5239703209485072,3800,0.1899455536065043,0.0
19,1.21409273147583,0.09832209929684135,0.0619375159147097,0.19041536885634533,0.04051903110050445,0.0,0.13996251580350974,0.1,0.002299785614013672,0.04599809646606445,0.04996882,0.99301684,0.10691124967853735,0.0,0.0019594940684255074,0.0,200,0.015009403228759766,0.35373918179437625,0.44798217539209495,4000,0.22941966212719297,0.0
20,1.2768878936767578,0.1393215890555154,0.04717547236202959,0.19214266383676612,0.08508004134307118,0.0,0.13856128435860868,0.1,0.0024728775024414062,0.046091556549072266,0.049854465,1.3939693,0.11015228361623515,0.0,0.0027780028790274016,0.0,200,0.014986991882324219,0.22982139343416993,0.2202069311319025,4200,0.2719708178801093,0.0
21,1.2104277610778809,0.12424436603945344,0.09972168649221884,0.24795712122496785,0.019479023070750234,0.0,0.13401581329232481,0.1,0.002356290817260742,0.046208858489990234,0.04982824,1.7509407,0.11156149185855699,0.0,0.0024749190090291,0.0,200,0.014849424362182617,0.4781680869523423,0.48626452935956577,4400,0.22961226415928662,0.0
22,1.4329943656921387,0.3288304794277492,0.29398672396621855,0.8141168711536602,0.02197640401453488,0.0,0.14049938350457736,0.1,0.0023543834686279297,0.045540571212768555,0.050608687,1.7929004,0.1332883906154762,0.0,0.006567317433519574,0.0,200,0.015167236328125,0.6652143490967981,0.6302395342701245,4600,0.277777431755922,0.0
23,1.3274264335632324,0.1313519862460339,0.05735142127404387,0.18363376405784132,0.036155140473938224,0.0,0.14317556377392898,0.1,0.0027382373809814453,0.046324729919433594,0.04913695,1.0544285,0.13309475017853198,0.0,0.0025674971563043525,0.0,200,0.015666961669921875,0.31098699249608225,0.3635831895222709,4800,0.29688796838368464,0.0
24,1.2673425674438477,0.28332845592871003,0.15903597761893057,0.5450386626291174,0.13151148645768634,0.0,0.12668756007243973,0.1,0.0022687911987304688,0.04500150680541992,0.048580904,1.9036326,0.1481181207535498,0.0,0.005599821254072513,0.0,200,0.01655101776123047,0.4590166758337334,0.4161757711738514,5000,0.2825224056154482,0.0
25,1.5458564758300781,0.14974707749403537,0.06593877270168878,0.2634136562656621,0.10141235298701391,0.0,0.13408652897723528,0.1,0.002374410629272461,0.04598212242126465,0.050295558,1.9143285,0.14828101642759836,0.0,0.002931572598901788,0.0,200,0.01656651496887207,0.35293899221524466,0.3979820155982722,5200,0.3765689436346573,0.0
26,1.2540569305419922,0.1850936450586895,0.06141910070960971,0.25500186159667704,0.10940105954300001,0.0,0.13801913542456817,0.1,0.002418994903564453,0.04704427719116211,0.049622823,1.5673909,0.1519622792907075,0.0,0.003705510583140391,0.0,200,0.015552759170532227,0.26393214409785354,0.20974965452241776,5400,0.2921208552773779,0.0
27,1.1895122528076172,0.06126091503937441,0.041138018259108185,0.1313170832830376,0.027736861614324537,0.0,0.14110010162712724,0.1,0.0025222301483154297,0.047315359115600586,0.051587433,0.95128214,0.1428921428655742,0.0,0.001225437306009367,0.0,200,0.01612544059753418,4.278709211829563,1.9027676208768443,5600,0.3080448098610929,0.0
28,1.188511848449707,0.0771941975163769,0.02504180565553654,0.1125434833211301,0.044274842565707295,0.0,0.12739432619871346,0.1,0.0023391246795654297,0.04543113708496094,0.05016226,1.2147645,0.13632234833065449,0.0,0.0015219268032234203,0.0,200,0.015477180480957031,1.1225586750138903,0.4070092266493618,5800,0.25175778602661286,0.0
29,1.1814923286437988,0.13527902632883335,0.08994498975460108,0.2755941348633647,0.024689201140921567,0.0,0.13487313844652213,0.1,0.0024361610412597656,0.04661154747009277,0.049220636,1.4307611,0.13621801613047238,0.0,0.0026899550155128006,0.0,200,0.01587820053100586,0.4899405685479645,0.5485878686685491,6000,0.18883346399652415,0.0
30,1.2485148906707764,0.14054547709701065,0.0751234422901521,0.2364102614170556,0.03093158352485542,0.0,0.13976580946822872,0.1,0.002364635467529297,0.047036170959472656,0.04914364,0.73801076,0.13665076222712622,0.0,0.0028136813605851895,0.0,200,0.014779329299926758,0.4712805764664998,0.36421194054419576,6200,0.2600829942982838,0.0
31,1.2394659519195557,0.31272686962820845,0.18431870900193068,0.5717395944508026,0.13512348604549393,0.0,0.14628740854255298,0.1,0.002542734146118164,0.0460209846496582,0.051461373,1.1484783,0.15425837296723444,0.0,0.00624725905206935,0.0,200,0.015526533126831055,0.6602237112892302,0.5529543932549349,6400,0.2828464269967949,0.0
32,1.273871898651123,0.11693722207700602,0.03262071815986467,0.1512246880173667,0.06332144330063459,0.0,0.13636766543105944,0.1,0.002412080764770508,0.046320438385009766,0.049630817,0.79404116,0.15052625787821158,0.0,0.0023465666984142783,0.0,200,0.015338659286499023,0.2334244624628266,0.4397515055150614,6600,0.34305442537730296,0.0
33,1.4484882354736328,0.27908645376601343,0.10960372930181603,0.4646395506335478,0.19021240590396252,0.0,0.12619910715442845,0.1,0.002393484115600586,0.04543161392211914,0.04991104,1.8113968,0.16338227746699177,0.0,0.005541320503945851,0.0,200,0.0214536190032959,0.40262188514618485,0.3517996050945345,6800,0.39321588530812074,0.0
34,1.3710839748382568,0.16496012214177397,0.06526888064047118,0.2566425636268365,0.08118751568496149,0.0,0.13744162283477324,0.1,0.002375364303588867,0.04612135887145996,0.049480114,0.9273117,0.16354006193447,0.0,0.003278405736898018,0.0,200,0.016841650009155273,0.29027574803226325,0.3331914781975964,7000,0.43937098401681723,0.0
35,1.182037591934204,0.33285939849048474,0.17406349113938857,0.5472290840307859,0.08297545333602183,0.0,0.12820011330495232,0.1,0.002360105514526367,0.04595518112182617,0.04965305,1.2035989,0.1804719955900715,0.0,0.006608962954808481,0.0,200,0.01534891128540039,0.4213056540692095,0.3646067815804595,7200,0.4240934784537473,0.0
36,1.2949604988098145,0.18734929152214272,0.08419220331156028,0.2789484417244519,0.05671445902311699,0.0,0.12953346824623,0.1,0.0023283958435058594,0.04570508003234863,0.05015773,1.1083429,0.18115972518327864,0.0,0.0037362239847713767,0.0,200,0.015119075775146484,0.3853206423298719,0.42745385940381553,7400,0.5635114777951914,0.0
37,1.248938798904419,0.11949923619163201,0.10360801446656225,0.29714359080041775,0.037179438341124825,0.0,0.13713630331239063,0.1,0.0028197765350341797,0.04522895812988281,0.04879067,1.3686734,0.17499367628411397,0.0,0.002323719633268137,0.0,200,0.01556253433227539,1.2513996868328132,0.926374214376758,7600,0.41461828809955587,0.0
38,1.464524745941162,0.16965595647860648,0.08489387674859245,0.2561170892855326,0.08141795374438242,0.0,0.13960691876763917,0.1,0.0023987293243408203,0.04646873474121094,0.050030217,0.97174954,0.17445990430356323,0.0,0.003377779225178482,0.0,200,0.014721870422363281,0.429634308865122,0.27390618788523163,7800,0.34541252218502444,0.0
39,1.3542556762695312,0.2699419186653725,0.18243892659174413,0.4628075427287958,0.033528441163067794,0.0,0.135442732864954,0.1,0.002344846725463867,0.046622276306152344,0.05139767,1.0133482,0.18400810573974416,0.0,0.005341888976426689,0.0,200,0.021356821060180664,0.4285867977657573,0.447114768507873,8000,0.4111182311819783,0.0
40,1.4417216777801514,0.22771632616126303,0.1286813509756697,0.3793211114858456,0.04224334808615538,0.0,0.1420497518215298,0.1,0.0028848648071289062,0.04545903205871582,0.04958688,1.0440478,0.18837892778189605,0.0,0.00453498320315713,0.0,200,0.014513254165649414,0.347097539152748,0.3310361446958989,8200,0.32417256257011046,0.0
41,1.3787014484405518,0.3278316778723861,0.09620451115330556,0.4830141128240989,0.22224922695593965,0.0,0.13508156925451142,0.1,0.0022585391998291016,0.05354714393615723,0.04939503,1.8646005,0.20232420279094507,0.0,0.006493460905541645,0.0,200,0.015231132507324219,0.3415240081165528,0.27461164189613746,8400,0.348403977989902,0.0
42,1.4290978908538818,0.2785764402681643,0.09968127820784727,0.39712895912358886,0.17271166605833907,0.0,0.1308161175752696,0.1,0.0024979114532470703,0.04689645767211914,0.04981663,1.6424804,0.209949426538667,0.0,0.005478396041611634,0.0,200,0.015977144241333008,0.2617262516469467,0.21397795996264887,8600,0.5227849025900744,0.0
43,1.2603838443756104,0.4012358314217137,0.10836059314141243,0.5375110468189661,0.24667836826767828,0.0,0.1381107266244852,0.1,0.0024318695068359375,0.0464787483215332,0.049746893,1.0034977,0.22907806702697167,0.0,0.008008295560309958,0.0,200,0.016095399856567383,0.2748356961486015,0.20434034993011096,8800,0.5091424814523594,0.0
44,1.3233442306518555,0.45831567212538576,0.2967036283238798,0.9341673742884538,0.11733037562437137,0.0,0.13022315627228787,0.1,0.0024819374084472656,0.04639768600463867,0.050139286,1.6672131,0.2520018275368131,0.0,0.009016471360166338,0.0,200,0.014242887496948242,0.4282351975613503,0.37063656239542575,9000,0.511214012876751,0.0
45,1.2382433414459229,0.23087758434707764,0.13072511066673087,0.3913322427755669,0.07496032889791591,0.0,0.13010539426991571,0.1,0.002465486526489258,0.05199766159057617,0.05038731,1.1101019,0.24988940321783956,0.0,0.004514332064590615,0.0,200,0.015364885330200195,0.9024993173581495,0.7586880543464164,9200,0.5786819531936503,0.0
46,1.3811535835266113,0.18691883557806585,0.1297468552913576,0.40281226727424446,0.056295084506636194,0.0,0.13283522640864476,0.1,0.002470731735229492,0.046228885650634766,0.050439965,1.4401151,0.24359234645386219,0.0,0.003734439516411981,0.0,200,0.016488313674926758,1.202826534696054,0.5813897915816318,9400,0.5982897525537058,0.0
47,1.2049522399902344,0.39823791747672255,0.10958965736807653,0.580889386336271,0.2928503328207721,0.0,0.13443024925105668,0.1,0.002452373504638672,0.04620838165283203,0.049605045,1.9514061,0.2590569035561482,0.0,0.007865499862886984,0.0,200,0.014932632446289062,0.2248828085308287,0.27785023823330224,9600,0.6028784653054052,0.0
48,1.294637680053711,0.48662739087367424,0.14983778031723283,0.7060627526079984,0.3319228236146574,0.0,0.1361241541111982,0.1,0.002557039260864258,0.04660177230834961,0.04897903,1.1923965,0.2818139522879008,0.0,0.009695242816767724,0.0,200,0.014963626861572266,0.3298470552758058,0.28217784521134237,9800,0.7245057545041127,0.0
49,1.2531845569610596,0.2198331865240984,0.07838764464512456,0.345659393478056,0.13102476343956398,0.0,0.13396768638386602,0.1,0.002472400665283203,0.0477597713470459,0.05025879,1.7117119,0.2756158757115205,0.0,0.0043958463408619985,0.0,200,0.015088081359863281,0.2634676949187309,0.33513842478990885,10000,0.7233917011043104,0.0
50,1.2484359741210938,0.29294825866532154,0.04962546790328834,0.3777822185300364,0.2568994986099757,0.0,0.12831254099403352,0.1,0.0024690628051757812,0.046217918395996094,0.04958673,1.124792,0.27734911400690065,0.0,0.005754060451950373,0.0,200,0.015100717544555664,0.08209513083897427,0.07821822562087123,10200,0.6700148991492597,0.0
51,1.1944849491119385,0.40370455924861826,0.2041017325021851,0.6834496554652203,0.14125535146993598,0.0,0.12783557735761647,0.1,0.0027840137481689453,0.046076297760009766,0.051223114,1.567556,0.2899846585310724,0.0,0.008044344029794873,0.0,200,0.021981239318847656,0.3174006670533549,0.3058068687306516,10400,0.6442856318730689,0.0
52,1.215282678604126,0.19767102875977846,0.11387756766056245,0.3559581743623273,0.06484890964349768,0.0,0.12442641630366556,0.1,0.0023679733276367188,0.04603314399719238,0.0503752,6.7571826,0.280753295553943,0.0,0.003915989641102405,0.0,200,0.015144824981689453,0.6631474707866313,0.5712078677736345,10600,0.6761393008668334,0.0
53,1.3654942512512207,0.31817028305900064,0.1946896683831358,0.6107361027679368,0.09336356473332173,0.0,0.13303985571964175,0.1,0.002431154251098633,0.04554867744445801,0.05017689,1.1637642,0.2844949943044488,0.0,0.0062855338732050675,0.0,200,0.015584707260131836,0.3201112156354391,0.3200139359124682,10800,0.48889407282776204,0.0
54,1.2863783836364746,0.3975320384515237,0.18766210559254287,0.7184172616138222,0.2480764341132648,0.0,0.12226012032204572,0.1,0.002484560012817383,0.04601454734802246,0.04987724,3.563446,0.29579869871915626,0.0,0.007913456351799943,0.0,200,0.015193700790405273,0.3076997997558201,0.29303034081551116,11000,0.3931934942019908,0.0
55,1.2046165466308594,0.27174625260218194,0.156427282944263,0.438216766611483,0.05408094615307414,0.0,0.12899094483523124,0.1,0.0023550987243652344,0.04603314399719238,0.048646588,1.316529,0.2933934541074588,0.0,0.005348050109037627,0.0,200,0.021084070205688477,0.3482630221631542,0.3424027755053886,11200,0.462562665038681,0.0
56,1.2151463031768799,0.6433438068697552,0.4007067187852639,1.2348825240615389,0.2115834199231316,0.0,0.13030244170928537,0.1,0.002394437789916992,0.046094655990600586,0.049706973,1.1488403,0.3283884893836885,0.0,0.012636279626476178,0.0,200,0.015564441680908203,0.5009824381053801,0.41480769329348705,11400,0.4552145550700984,0.0
57,1.2922160625457764,0.3304595201598969,0.33988069923297903,0.9034371802914605,0.068120080350637,0.0,0.1264456625511458,0.1,0.0024292469024658203,0.0470423698425293,0.04932649,2.018547,0.3285955924613093,0.0,0.006213045435670857,0.0,200,0.015184164047241211,0.5746851878095337,0.6349451843429677,11600,0.5559705967479748,0.0
58,1.2949755191802979,0.2987904200133206,0.11559147833546603,0.4466202830315369,0.16163116244142342,0.0,0.12570843108303625,0.1,0.002362489700317383,0.046904563903808594,0.050102282,1.3499253,0.32561507521651045,0.0,0.005957363514691304,0.0,200,0.015336751937866211,0.4672418919577399,0.3839423607390003,11800,0.5560913574116794,0.0
59,1.267874002456665,0.26506702033466417,0.12037636558476497,0.42078226485998804,0.09535196550490539,0.0,0.13469880602345463,0.1,0.0023941993713378906,0.045510292053222656,0.049987182,1.8006314,0.31956026972832585,0.0,0.005297726893823044,0.0,200,0.015436410903930664,0.7204527545772684,0.37961966428896127,12000,0.6940481186374566,0.0
60,1.3008651733398438,0.14245190114873357,0.07384148176197394,0.2521488780597117,0.04555320549689339,0.0,0.13218515890590218,0.1,0.0022535324096679688,0.04537677764892578,0.050887495,0.9507866,0.30184943287036664,0.0,0.0028446124112254867,0.0,200,0.015128612518310547,2.5081974366052258,1.0102005191722545,12200,0.49315581524462665,0.0
61,1.2051427364349365,0.37764430922346764,0.1350390436105882,0.5162512346689953,0.15534881108617785,0.0,0.13570443095384402,0.1,0.0025475025177001953,0.046441078186035156,0.049686514,1.8828174,0.3094289205056768,0.0,0.007426716431046259,0.0,200,0.01637554168701172,0.28326600071929114,0.3437518929923431,12400,0.48949409745982003,0.0
62,1.209979772567749,0.3992841174168509,0.2659803088554119,0.8283838003012005,0.162295165234886,0.0,0.13325212909449138,0.1,0.002643108367919922,0.04758763313293457,0.05085199,1.5993905,0.3184144401967942,0.0,0.00796165970206456,0.0,200,0.015813112258911133,0.46119422505977353,0.44070748985606745,12600,0.47611755006763007,0.0
63,1.2270057201385498,0.2476473150105803,0.1284904373391463,0.4415417931163103,0.11744086005026182,0.0,0.12951295811585786,0.1,0.0024640560150146484,0.04681396484375,0.050025593,1.1980574,0.3113377276781728,0.0,0.004929554833529233,0.0,200,0.01581549644470215,0.2331476486962346,0.23033445964198976,12800,0.4836270086142769,0.0
64,1.2429425716400146,0.43978462187390865,0.10853187872833754,0.54451091616424,0.27836591375087893,0.0,0.12066645231668015,0.1,0.002431154251098633,0.04667377471923828,0.049218558,1.9919007,0.3241824170977464,0.0,0.008490176103739871,0.0,200,0.015201091766357422,0.3403707261191633,0.26129034416876745,13000,0.4242829784927043,0.0
65,1.2362678050994873,0.523711270057831,0.3224859605806639,0.9733098292481878,0.10724478779177132,0.0,0.13377609549155003,0.1,0.0024085044860839844,0.04562044143676758,0.04995285,1.2109408,0.3441353023937549,0.0,0.010474583286106563,0.0,200,0.015453577041625977,0.45306003597643485,0.4109292104242038,13200,0.4327089491089277,0.0
66,1.3038878440856934,0.3920005056772372,0.21570574766640863,0.6560511036885781,0.08532154393043954,0.0,0.12857482408539336,0.1,0.0023987293243408203,0.0466768741607666,0.049839858,1.3413881,0.34892182272210315,0.0,0.0077115718297728775,0.0,200,0.0168914794921875,0.3363409880915478,0.3438142581422806,13400,0.38627958265021206,0.0
67,1.2219011783599854,0.7315975489379607,0.8116126274442942,2.117200202450592,0.12844052831758263,0.0,0.12721683181279414,0.1,0.002451181411743164,0.04540371894836426,0.049879655,1.8374197,0.3871893953436889,0.0,0.014339261471735497,0.0,200,0.014923810958862305,0.6856556746872176,0.6385511233532499,13600,0.36146282416399084,0.0
68,1.3434596061706543,0.4242216101310332,0.25077539406837906,0.7965080112036015,0.15134289899812522,0.0,0.13307763831559935,0.1,0.0024013519287109375,0.04709625244140625,0.05031041,1.0813538,0.3908926168224233,0.0,0.008396126948379467,0.0,200,0.01948380470275879,0.3782369863967132,0.4360613599199668,13800,0.3522057983894283,0.0
69,1.2558348178863525,0.4887050905252166,0.2154043858143241,0.7986605497092861,0.19023202363450134,0.0,0.12617439293601238,0.1,0.002347707748413086,0.046218156814575195,0.04960404,2.9847333,0.4006738641927027,0.0,0.009641031921775494,0.0,200,0.015581369400024414,0.2551382006550512,0.2435918280844615,14000,0.3157928508180201,0.0
70,1.2476911544799805,0.4066219838378493,0.22695789353323859,0.6567862230356692,0.06239386861480188,0.0,0.12898886737217813,0.1,0.0023641586303710938,0.046059370040893555,0.049574472,0.92657524,0.40126867615721734,0.0,0.008051551568253103,0.0,200,0.01437067985534668,0.36704424463182805,0.3077957869100732,14200,0.40934422750287175,0.0
71,1.372007131576538,0.5688220611859754,0.3017333598255719,0.9058088489277923,0.1310221864835231,0.0,0.12407292763898504,0.1,0.0024094581604003906,0.04577469825744629,0.049809553,1.0732596,0.4180240146600932,0.0,0.011081884345043983,0.0,200,0.014924049377441406,0.2687497075291272,0.2762419581885076,14400,0.35225885481993324,0.0
72,1.2574610710144043,0.5326905660165193,0.19968501412180673,0.7413927467789617,0.3196032065718723,0.0,0.1244065250493308,0.1,0.0023932456970214844,0.0460202693939209,0.0492848,2.129154,0.4294906697957358,0.0,0.01046854616649577,0.0,200,0.015311241149902344,0.1946972163239724,0.1890850667563308,14600,0.2565715010630259,0.0
73,1.283827304840088,0.6578974655903009,0.2599862109895549,0.9452879237138244,0.3415612998565232,0.0,0.13261399735814164,0.1,0.002397775650024414,0.04553532600402832,0.049325757,1.1567818,0.4523313493751923,0.0,0.01270029557416441,0.0,200,0.019891738891601562,0.26108264659236013,0.22289354517149554,14800,0.23447406080389674,0.0
74,1.2559535503387451,0.5513672408772208,0.22490795631904856,0.8227120993427133,0.23600756105191317,0.0,0.12451477483279504,0.1,0.002321958541870117,0.04532027244567871,0.049498033,1.4104213,0.46223493852539516,0.0,0.010886841022279476,0.0,200,0.015476226806640625,0.20849957989817883,0.21037681742021241,15000,0.12428611275823691,0.0
75,1.1934754848480225,0.3777513239010047,0.13574240730658346,0.5473739458854837,0.17082253926870392,0.0,0.13665950704643526,0.1,0.0026667118072509766,0.046820640563964844,0.049457952,0.8898714,0.4537865770629561,0.0,0.007382309857810765,0.0,200,0.01512765884399414,0.40697027762488913,0.3436455336720082,15200,0.3336539876713857,0.0
76,1.2161195278167725,0.511838518747366,0.27038959998434986,0.9800195914810349,0.34860423425366666,0.0,0.12315349706165489,0.1,0.0024237632751464844,0.04652237892150879,0.04964318,3.7378907,0.4595917712313971,0.0,0.010007735007411872,0.0,200,0.015449047088623047,0.3052874240235771,0.29440011313473174,15400,0.2744434909746844,0.0
77,1.2156860828399658,0.5073957180148456,0.3119092313929244,0.8578944182628908,0.04195541212361486,0.0,0.13279313298055265,0.1,0.0024564266204833984,0.045566558837890625,0.049418256,1.0521133,0.464372165909742,0.0,0.00995134520306603,0.0,200,0.015056610107421875,0.3097585578909688,0.30605970629309937,15600,0.33566591757559733,0.0
78,1.2618999481201172,0.44073320320193754,0.27748478511146846,0.8887275683174555,0.12732830106619838,0.0,0.13063889480005356,0.1,0.0024831295013427734,0.04675555229187012,0.049029022,1.3868352,0.4620082696389616,0.0,0.008751186243967573,0.0,200,0.01484537124633789,0.3709942710537873,0.33696520103727956,15800,0.37843754976463545,0.0
79,1.242164134979248,0.6497050927610111,0.23741789284423245,0.9972231618915504,0.386078795254012,0.0,0.12190880918545881,0.1,0.0024261474609375,0.046300649642944336,0.049907934,2.0553932,0.4807779519511665,0.0,0.01245744386861329,0.0,200,0.015527963638305664,0.34780196024173143,0.32646851348836164,16000,0.36473821339421947,0.0
80,1.2558789253234863,0.47183399904323226,0.30914512386040494,0.9888384528028262,0.21382321119467074,0.0,0.1308452798073963,0.1,0.0023806095123291016,0.04597616195678711,0.048822604,2.1858926,0.47988355666037313,0.0,0.009064775799460101,0.0,200,0.015096664428710938,0.37534549277258344,0.36526890419664976,16200,0.11412076571037812,0.0
81,1.3017785549163818,0.7484006471641012,0.40198585743032333,1.182185320796944,0.2937168462004925,0.0,0.12637265381309698,0.1,0.0024344921112060547,0.05139327049255371,0.05004552,1.4128237,0.5067352657107459,0.0,0.014349120353960155,0.0,200,0.015351295471191406,0.3773361880396523,0.3267359216955318,16400,0.05114893771461118,0.0
82,1.271684169769287,0.262411513345162,0.13610013264372098,0.43461864388437726,0.053399563515822576,0.0,0.12889686385228022,0.1,0.0023741722106933594,0.04566693305969238,0.049476672,0.8660183,0.4823028904741875,0.0,0.005190570710014073,0.0,200,0.01545095443725586,1.7559348077493502,1.5929875241039384,16600,0.05470607320501924,0.0
83,1.2396118640899658,0.6397687584498504,0.1760002085893562,0.8064747057533238,0.3480758850595418,0.0,0.11584023560898445,0.1,0.0023627281188964844,0.04580807685852051,0.049806543,1.100196,0.49804947727175386,0.0,0.012297054452660858,0.0,200,0.015443563461303711,0.15154177981655087,0.15953770406412227,16800,0.0635559555562858,0.0
84,1.268846035003662,0.6099429982407725,0.18357877997656186,0.8202086722937441,0.3952513939671015,0.0,0.12820411721202307,0.1,0.0023283958435058594,0.04597759246826172,0.050402842,1.1838598,0.5092388293686557,0.0,0.011944676672755585,0.0,200,0.02533721923828125,0.14538698892654958,0.1451281745641436,17000,0.2622639999402212,0.0
85,1.2458059787750244,0.4571065155867934,0.30219622591303275,0.94659851700106,0.12082109687258122,0.0,0.12598001770623782,0.1,0.002363443374633789,0.04605460166931152,0.049710978,1.4094806,0.5040255979904695,0.0,0.008954144625678692,0.0,200,0.015105485916137695,0.39407105754461746,0.3832728521452214,17200,0.2211423057832361,0.0
86,1.263824701309204,0.595301509316042,0.27331007262801743,1.039438992780223,0.3014349266281889,0.0,0.12698347867347523,0.1,0.002283811569213867,0.04587721824645996,0.050292667,1.2420126,0.5131531891230268,0.0,0.01155744668087295,0.0,200,0.015503406524658203,0.20969356546240747,0.20813158576339078,17400,0.2332707140838396,0.0
87,1.2742164134979248,0.5303439011676071,0.1443130158065343,0.6694079407305129,0.3326319232540406,0.0,0.1301195422497138,0.1,0.0022649765014648438,0.04640674591064453,0.04997259,0.78475875,0.5148722603274848,0.0,0.010271999334051356,0.0,200,0.014940977096557617,0.14543929751887968,0.14430129638498315,17600,0.2578063574880039,0.0
88,1.3442103862762451,0.5487488635217456,0.1226351840069032,0.7072967071745798,0.4031975901091622,0.0,0.1236539991008722,0.1,0.0022759437561035156,0.04535388946533203,0.050383773,1.5774711,0.5182599206469108,0.0,0.010740647780417719,0.0,200,0.015268802642822266,0.09935109409852748,0.09643248978318295,17800,0.14396008731052465,0.0
89,1.2631027698516846,0.6457199082485289,0.3183555168287102,1.0706516495198433,0.30443917871722115,0.0,0.12633807182102688,0.1,0.002696514129638672,0.047220468521118164,0.04993658,1.2990601,0.5310059194070726,0.0,0.012827201066798612,0.0,200,0.015429258346557617,0.2526755922911445,0.2407581032159797,18000,0.06414432410562279,0.0
90,1.249312400817871,0.41737040535982217,0.27463993898775513,0.7070133522011897,0.06181746510592524,0.0,0.12904916483270631,0.1,0.0023925304412841797,0.046758174896240234,0.049554687,0.7700666,0.5196423680023476,0.0,0.008288905979825031,0.0,200,0.016611099243164062,0.47056809683594025,0.4271702541651546,18200,0.19447610279323602,0.0
91,1.256007432937622,0.43811475042786713,0.2229815275861011,0.7851024095930251,0.17692457122984245,0.0,0.12620898924005097,0.1,0.002422332763671875,0.049332380294799805,0.049647145,1.6133441,0.5114896062448996,0.0,0.008541687249640675,0.0,200,0.01556396484375,0.32316472306910293,0.25920190638963403,18400,0.13956586903545007,0.0
92,1.3002440929412842,0.4685651981934889,0.2870909464340215,0.8787223120578885,0.08016332015124703,0.0,0.13429142680714534,0.1,0.002416372299194336,0.04656863212585449,0.050011214,1.277546,0.5071971654397586,0.0,0.009236626499852218,0.0,200,0.020029544830322266,0.3318972746780976,0.33593515916041944,18600,0.3127922956024711,0.0
93,1.2543730735778809,0.4473346500104632,0.20349613990804177,0.7710323185649727,0.2546765894465075,0.0,0.12195907309473188,0.1,0.0023772716522216797,0.04683184623718262,0.050762825,2.0545835,0.501210913896829,0.0,0.00878208890749567,0.0,200,0.015454530715942383,0.2833120630265971,0.28120254287716273,18800,0.5387397236293884,0.0
94,1.289705514907837,0.44212818256978464,0.12060820288577367,0.646319781222872,0.35015333832823536,0.0,0.12581371711428754,0.1,0.002415180206298828,0.04820847511291504,0.049568433,1.73417,0.4953026407641246,0.0,0.008756965171731678,0.0,200,0.02169346809387207,0.0929069583594858,0.08843411499224492,19000,0.49636737282308013,0.0
95,1.4855990409851074,0.35388903521451404,0.1710143376797594,0.5928959014881034,0.12058312520003796,0.0,0.13039286498208197,0.1,0.002521514892578125,0.0470430850982666,0.049507152,0.9829075,0.48116128020916354,0.0,0.006917970840805211,0.0,200,0.01563286781311035,0.21448071117517875,0.2066176715773061,19200,0.3309021710529616,0.0
96,1.348970890045166,0.7689355626320544,0.39510883915139766,1.4086992475762288,0.3457434990574595,0.0,0.12580874135233885,0.1,0.002429485321044922,0.04736924171447754,0.049597975,1.9100537,0.5099387084514526,0.0,0.01506917212219542,0.0,200,0.01517796516418457,0.41180684985954796,0.36737949157227323,19400,0.3548480544073654,0.0
97,1.295743703842163,0.4623655565650267,0.11886041445035049,0.5857911594946362,0.2664833544514801,0.0,0.12181524177769928,0.1,0.0024809837341308594,0.046663522720336914,0.049292665,1.1476015,0.5051813932628101,0.0,0.009216062987158527,0.0,200,0.015489339828491211,0.10571592585458116,0.13716327954928118,19600,0.1959617493971428,0.0
98,1.3687000274658203,0.3790052045414777,0.09627592121734793,0.5271821528087381,0.25750996917934066,0.0,0.12191164727372267,0.1,0.0023779869079589844,0.04917097091674805,0.049240265,2.137246,0.49256377439067683,0.0,0.007559103344019211,0.0,200,0.01674175262451172,0.2084844984389815,0.1986801137133788,19800,0.1005914100554141,0.0
99,1.3353464603424072,0.5659497015835537,0.12720418947645806,0.7827922421957997,0.45692576627271375,0.0,0.1229670659287238,0.1,0.002342700958251953,0.046109676361083984,0.05027919,1.8197882,0.4999023671099645,0.0,0.011199383513024174,0.0,200,0.015377044677734375,0.11581521847763401,0.11125674502019013,20000,0.24124430128733712,0.0
100,1.2948203086853027,0.5151151850165052,0.31690332897093165,1.0462594736279456,0.2321864114779207,0.0,0.129571115354413,0.1,0.0023889541625976562,0.045778512954711914,0.050066374,1.5928286,0.5014236489006185,0.0,0.010194745051586535,0.0,200,0.015557289123535156,0.32297542038759597,0.31759216050813677,20200,0.24104280538924136,0.0
101,1.533595085144043,0.3403725396718837,0.030923336358618887,0.3892816443427616,0.30545863697783815,0.0,0.11045305915934582,0.1,0.00229644775390625,0.04676342010498047,0.049397245,2.1724424,0.48531853797774505,0.0,0.006711936876931233,0.0,200,0.02296614646911621,0.3076219134394676,0.2660049155360764,20400,0.37363172727523697,0.0
102,1.411261796951294,0.8234948655059666,0.26507282089305856,1.0110613998627962,0.36711600615821743,0.0,0.13458770388166483,0.1,0.002384185791015625,0.04550909996032715,0.04994637,0.9223286,0.5191361707305673,0.0,0.01580792875540062,0.0,200,0.014647722244262695,0.28800225821741576,0.2521560421914888,20600,0.4108345155280679,0.0
103,1.387861728668213,0.9817611850464185,0.19682580583065604,1.2127754958498689,0.7471516012623751,0.0,0.11808508990339127,0.1,0.002365589141845703,0.04510140419006348,0.049812816,1.0592481,0.5653986721621524,0.0,0.019074472767227693,0.0,200,0.015733003616333008,0.30662519765966323,0.1946198402818464,20800,0.5153182938190944,0.0
104,1.4872195720672607,0.6341328195511954,0.08009295362797768,0.7301048196697558,0.5336836266215722,0.0,0.12500365467005592,0.1,0.002392292022705078,0.04689979553222656,0.049982496,0.8964933,0.5722720869010568,0.0,0.01260603903778738,0.0,200,0.014869213104248047,0.11945743553709208,0.2148281086681346,21000,0.4421997997160334,0.0
105,1.7919342517852783,0.48555130264141166,0.07847066069041471,0.580314782642353,0.36603536588065544,0.0,0.13131893865162628,0.1,0.0023910999298095703,0.04785323143005371,0.04959583,0.8433458,0.5636000084750923,0.0,0.00959478706941086,0.0,200,0.020263671875,0.5894728605587596,0.38860779077564883,21200,0.3933078955569757,0.0
106,1.4067981243133545,0.3691326632833869,0.09174678700496462,0.4284073844529009,0.2106809621451198,0.0,0.14500026613457756,0.1,0.006093025207519531,0.04662370681762695,0.05040883,0.7815574,0.5441532739559217,0.0,0.007282702880783653,0.0,200,0.013664960861206055,1.2668563388481127,0.4439082162790108,21400,0.39349989086635,0.0
107,1.3873276710510254,0.8903168376172056,0.32527220427072645,1.260223761684502,0.3823837636665341,0.0,0.1289801646094514,0.1,0.002495288848876953,0.048477888107299805,0.049878467,0.9821085,0.5787696303220501,0.0,0.017439602062913093,0.0,200,0.01796555519104004,0.24164309098715459,0.2892686376352121,21600,0.41365440259273073,0.0
108,1.3376965522766113,0.6450576684288878,0.22704841930095299,1.0037014341504433,0.396836930724831,0.0,0.12876399608499184,0.1,0.0023708343505859375,0.04606127738952637,0.04997041,1.8233113,0.5853984341327338,0.0,0.012422708748534482,0.0,200,0.015518426895141602,0.23515368025405656,0.23160043260398447,21800,0.3213301286414789,0.0
109,1.325493574142456,0.3441650927859707,0.023776226062416094,0.3710519969187717,0.3061745749489511,0.0,0.13146377689165498,0.1,0.002469778060913086,0.046330928802490234,0.04969376,1.4182465,0.5612750999980576,0.0,0.006687828166917833,0.0,200,0.015548467636108398,0.29514586068807364,0.2615972461831722,22000,0.39085347461864256,0.0
110,1.410170316696167,0.6746689206017712,0.26378655372115983,0.9810771733707555,0.2709212038211625,0.0,0.1232866163803984,0.1,0.0024890899658203125,0.046669721603393555,0.050635044,0.9341482,0.5726144820584289,0.0,0.013330683614061476,0.0,200,0.015462636947631836,0.23059767957770969,0.22737269377465724,22200,0.3364161396512168,0.0
111,1.3031983375549316,0.6823653186494777,0.24090564193536365,0.9595567099365733,0.30374185105784296,0.0,0.12703693905230404,0.1,0.0024259090423583984,0.04642820358276367,0.050242458,1.0192058,0.5835895657175338,0.0,0.013361612118272592,0.0,200,0.01532745361328125,0.19913050861228296,0.1800688015765554,22400,0.4850492351564308,0.0
112,1.4413082599639893,0.7291045924600725,0.32910171457638254,1.096368749884929,0.28664217799478797,0.0,0.12569303640891885,0.1,0.002502918243408203,0.046324729919433594,0.049781114,1.3908275,0.5981410683917877,0.0,0.014285092147645262,0.0,200,0.015723705291748047,0.28467386657627153,0.25267473523385586,22600,0.6509772453761367,0.0
113,1.4780387878417969,0.47789800010818595,0.34814024257188986,1.0293374510526523,0.08478561536262393,0.0,0.12937177088353838,0.1,0.00240325927734375,0.046573638916015625,0.050076872,1.4740294,0.5861167615634275,0.0,0.009336902563319975,0.0,200,0.01496267318725586,0.41866278775559745,0.45030702226260283,22800,0.49932169904926943,0.0
114,1.293506383895874,0.7354773992534428,0.297294272509256,1.2057237595117143,0.45250080499796974,0.0,0.12932576673197432,0.1,0.002516031265258789,0.04746651649475098,0.049813777,1.2881709,0.601052825332429,0.0,0.014445370692483986,0.0,200,0.015254020690917969,0.194518715128064,0.18897339362888363,23000,0.5938780714623441,0.0
115,1.4623219966888428,0.8571751434827339,0.5328951276112771,1.4388862893161272,0.11354040708743703,0.0,0.13718662284533287,0.1,0.0024576187133789062,0.046204328536987305,0.049627785,0.8760168,0.6266650571474595,0.0,0.016694179778515963,0.0,200,0.019194602966308594,0.3305237604255669,0.3116741140422831,23200,1.4720707583787138,0.0
116,1.3458492755889893,0.44773321395324517,0.12771084410746664,0.5743689029447122,0.26193379578541304,0.0,0.1278865510066525,0.1,0.002402782440185547,0.046440839767456055,0.05054029,1.2431519,0.608771872828038,0.0,0.008559932030645869,0.0,200,0.020827054977416992,0.38841373903305054,0.3273198378973073,23400,1.3707338959998239,0.0
117,1.3589539527893066,0.41308985994462455,0.22894207489047055,0.8007501818811167,0.20521022951958384,0.0,0.12599191782247762,0.1,0.002361774444580078,0.04618072509765625,0.049973268,1.2029525,0.5892036715396967,0.0,0.007973053414240108,0.0,200,0.016111135482788086,0.6457776292602196,0.40893827760026547,23600,0.7459241851626538,0.0
118,1.3461370468139648,0.7093317102956602,0.5469186259316721,1.5363387351612992,0.09311962928683756,0.0,0.1315858073053972,0.1,0.002459287643432617,0.05195736885070801,0.04935071,1.3919073,0.601216475415293,0.0,0.013875023094018734,0.0,200,0.015661239624023438,0.39207980659548436,0.415355102610939,23800,0.47673310271847064,0.0
119,1.4593570232391357,0.5409323323601161,0.15232176351925947,0.6802604186167168,0.29128547040646924,0.0,0.1251740302104625,0.1,0.0024216175079345703,0.045735836029052734,0.04921028,2.4188397,0.5951880611097753,0.0,0.010657799090467112,0.0,200,0.015393257141113281,0.10754000240307042,0.10513499663212558,24000,0.5312897331498166,0.0
120,1.4349987506866455,0.6023215582058712,0.2680097973848711,1.0464222332104254,0.3698865746631849,0.0,0.129081873249476,0.1,0.002355337142944336,0.0464320182800293,0.04932896,1.4135662,0.595901410819385,0.0,0.011883322524589018,0.0,200,0.015123128890991211,0.21737617101531592,0.20676047265235306,24200,0.3572336636488276,0.0
121,1.502290964126587,0.5925816528958423,0.34762759619739175,0.9813924916277607,0.14714938707104064,0.0,0.12404789858177195,0.1,0.002359628677368164,0.045999765396118164,0.049535517,1.3502496,0.5955694350270307,0.0,0.011704869674825823,0.0,200,0.015217781066894531,0.28920067718893677,0.2829166735032677,24400,0.31500810531617046,0.0
122,1.4407038688659668,0.6643192229638122,0.35952124247249667,0.9349206634179447,0.04540090731768345,0.0,0.12713433167997854,0.1,0.0023424625396728516,0.050547122955322266,0.04944869,0.9347665,0.6024444138207089,0.0,0.013109993473337196,0.0,200,0.015027761459350586,0.2725003087871211,0.2583471907830636,24600,0.4229804395826486,0.0
123,1.3575856685638428,0.4096709014529111,0.17505892182101215,0.6862299144069894,0.207500634099743,0.0,0.1260556570136397,0.1,0.002425670623779297,0.04648137092590332,0.050300516,1.1782863,0.5831670625839291,0.0,0.00775245764834463,0.0,200,0.01572394371032715,0.29588886380638973,0.3011068483478624,24800,0.49824092473876763,0.0
124,1.4367611408233643,0.4478957383813403,0.2461163828729547,0.7074633034689827,0.160479060115535,0.0,0.1154682442282469,0.1,0.0023610591888427734,0.04577374458312988,0.04986039,1.2694595,0.5696399301636703,0.0,0.008483345819648278,0.0,200,0.014652490615844727,0.286636538087318,0.2672483560359672,25000,0.37943660733774975,0.0
125,1.4314746856689453,0.6072745897648958,0.375567656023795,1.0398042144096955,0.06649636069677761,0.0,0.12494067882253262,0.1,0.0026085376739501953,0.04791760444641113,0.049483657,1.1838403,0.5734033961237929,0.0,0.0119494324037583,0.0,200,0.01542806625366211,0.33819968002942247,0.33830873908619874,25200,0.4211531768866827,0.0
126,1.4570751190185547,0.3497668208196357,0.12237556428403504,0.5203442485163772,0.18900275492138652,0.0,0.12258327561423783,0.1,0.002431631088256836,0.04666304588317871,0.049643774,4.957881,0.5510397385933772,0.0,0.0068376068080675135,0.0,200,0.011493921279907227,0.4508162791706116,0.34611920193989515,25400,0.4169741844047297,0.0
127,1.397799015045166,0.7575677252969566,0.44145503278240544,1.3989764744201643,0.1513511520860609,0.0,0.13308365662181565,0.1,0.002496004104614258,0.0466914176940918,0.049348272,1.2099564,0.5716925372637351,0.0,0.01468557755470411,0.0,200,0.015432357788085938,0.37217597067716307,0.369158787424787,25600,0.40126113984156747,0.0
128,1.3592305183410645,0.9982483971880756,0.430298981943344,1.4660568431870171,0.4806557742011292,0.0,0.12731353207770588,0.1,0.0025107860565185547,0.04681038856506348,0.049875196,1.1644689,0.6143481232561692,0.0,0.019329651226829236,0.0,200,0.015357494354248047,0.3591757755288421,0.29941238824457367,25800,0.45091028512106107,0.0
129,1.3790483474731445,0.5233422656306788,0.5710691642630271,1.5064115505425169,0.13836009013676037,0.0,0.13334542898224527,0.1,0.0024061203002929688,0.04679679870605469,0.0502827,1.5487616,0.6052475374936201,0.0,0.010214272820309712,0.0,200,0.015720129013061523,0.5561004519074704,0.5788452087226774,26000,0.24535958268039137,0.0
130,1.3902313709259033,0.5860769608959316,0.20988270532893744,0.9258162468568496,0.3509662851387852,0.0,0.12431658262863857,0.1,0.002404928207397461,0.046534061431884766,0.050013088,1.3638906,0.6033304798338514,0.0,0.011476205320571153,0.0,200,0.015598773956298828,0.17960297819479537,0.17905448076869654,26200,0.20704159262745545,0.0
131,1.425480842590332,0.7880146893427429,0.36713731215404766,1.2148310065032335,0.42034543441943845,0.0,0.12298633223081586,0.1,0.0024917125701904297,0.04781389236450195,0.049652413,1.288001,0.6217989007847405,0.0,0.015179332841527563,0.0,200,0.015542268753051758,0.23148488104676698,0.22168352409051695,26400,0.2518303982483852,0.0
132,1.485517978668213,0.5671390084320209,0.4712180507214868,1.3430261819487876,0.13277661982870018,0.0,0.13086598069833816,0.1,0.0025184154510498047,0.046311378479003906,0.049677525,1.2537072,0.6163329115494686,0.0,0.010981681655690738,0.0,200,0.01581859588623047,0.4386148831746042,0.4300400514037726,26600,0.525287801847773,0.0
133,1.4118149280548096,0.6648482339652426,0.0988366482163652,0.8048567712474495,0.569865287134745,0.0,0.12742704508909505,0.1,0.002463102340698242,0.046480655670166016,0.05020249,1.4931647,0.621184443791046,0.0,0.013155606717677059,0.0,200,0.015272378921508789,0.06373178515188822,0.05689526449034184,26800,0.48620480293826834,0.0
134,1.6023261547088623,0.7921805413183743,0.8613718031638107,2.2737978808224444,0.14926062588573535,0.0,0.1193395099559479,0.1,0.002344846725463867,0.04598069190979004,0.04945307,2.4735181,0.6382840535437788,0.0,0.014793259384812425,0.0,200,0.015518665313720703,0.6157112986400727,0.5864815103309847,27000,0.07885007864784914,0.0
135,1.425874948501587,0.4101442450446523,0.21255758817677378,0.6860775316248195,0.1300822032366095,0.0,0.126963370352711,0.1,0.002399444580078125,0.046349287033081055,0.049753685,1.4301515,0.6154700726938662,0.0,0.007979729336509606,0.0,200,0.015353918075561523,0.5178624202417912,0.4897368665646448,27200,0.08468232672733654,0.0
136,1.4696331024169922,0.5152357286812722,0.34205546705516227,1.0909262081245776,0.1921230402848291,0.0,0.12143240657570667,0.1,0.0023412704467773438,0.04598426818847656,0.049732912,1.7295067,0.6054466382926069,0.0,0.009845461200534455,0.0,200,0.01591944694519043,0.3704666549151971,0.33915926354271725,27400,0.1797335651901992,0.0
137,1.466475486755371,0.6340513529110267,0.2992657440265231,0.9581097514620552,0.14762001512111694,0.0,0.12633217791907386,0.1,0.002468109130859375,0.04542803764343262,0.0495328,1.1170012,0.6083071097544489,0.0,0.012385919396500952,0.0,200,0.015920162200927734,0.21428550156898626,0.21923323989791021,27600,0.11841348486594018,0.0
138,1.4882347583770752,0.8581705547298962,0.2905800087154063,1.2125701865949738,0.5537119815104181,0.0,0.12366360183236853,0.1,0.002468585968017578,0.04648303985595703,0.04967943,0.96495277,0.6332934542519937,0.0,0.01676762339493957,0.0,200,0.018327713012695312,0.2290195232623482,0.21636568274982518,27800,0.23841562899531457,0.0
139,1.4723303318023682,0.8571297066107056,0.3058495309651789,1.2778949185754205,0.42474944022478667,0.0,0.13343016247842562,0.1,0.0024499893188476562,0.04569411277770996,0.05060401,1.1211301,0.6556770794878649,0.0,0.016772960630740186,0.0,200,0.015564680099487305,0.2167439116312395,0.18773282082291434,28000,0.3314009621097363,0.0
140,1.4681892395019531,0.7334235920816574,0.3158772584229955,1.1188949763612195,0.24554511621088507,0.0,0.11950044052111698,0.1,0.0029244422912597656,0.044957876205444336,0.04963885,0.93644315,0.6634517307472442,0.0,0.014126949183307282,0.0,200,0.015862703323364258,0.22272507123445848,0.20996647800297993,28200,0.37755511744603715,0.0
141,1.505082607269287,0.5116434880273157,0.4043126771305334,1.2060451157084187,0.1956329169704884,0.0,0.12371874585767222,0.1,0.0023310184478759766,0.04595041275024414,0.049212128,2.0852904,0.6482709064752513,0.0,0.009989267446622372,0.0,200,0.015242815017700195,0.5316490024466111,0.5115315279310894,28400,0.3465705472834903,0.0
142,1.4640250205993652,0.8608132216502764,0.5348201075397916,1.4982235413984182,0.03907541786976251,0.0,0.11727295677021173,0.1,0.002637624740600586,0.04734921455383301,0.049526654,2.1928072,0.6695251379927538,0.0,0.016734416536729236,0.0,200,0.015588521957397461,0.3312480746896439,0.32626994393503134,28600,0.3107074253999892,0.0
143,1.4911139011383057,0.46946832594741533,0.09254474899452757,0.6193109159669663,0.39126347198376066,0.0,0.1254998041579745,0.1,0.0024993419647216797,0.046851158142089844,0.04980669,1.7702701,0.64951945678822,0.0,0.00917857628657601,0.0,200,0.015264272689819336,0.3172120739602873,0.252000554072341,28800,0.28894168511404833,0.0
144,1.4379286766052246,0.6345636670667189,0.3568065971923384,1.1668967280414728,0.209303073188717,0.0,0.12911915866004936,0.1,0.0024755001068115234,0.047070980072021484,0.05039527,1.1295784,0.6480238778160698,0.0,0.012235353284957867,0.0,200,0.01561117172241211,0.21845059290512892,0.21875657069925716,29000,0.16209187333598607,0.0
145,1.3921000957489014,0.6653547488290248,0.2850205474667591,0.9284126034238613,0.20219534315900442,0.0,0.13084503412678467,0.1,0.0024917125701904297,0.046600341796875,0.049383692,1.0388384,0.6497569649173653,0.0,0.013058949949973675,0.0,200,0.015956401824951172,0.21581474858891891,0.2120052541063823,29200,0.10664190545191504,0.0
146,1.45332670211792,1.0504210245291827,0.3841919601185984,1.548312869573035,0.5006717273381751,0.0,0.12379492808492287,0.1,0.0024280548095703125,0.046605825424194336,0.049299017,1.153072,0.6898233708785471,0.0,0.020524334667164315,0.0,200,0.01517629623413086,0.2306693113701096,0.19062869629244103,29400,0.15469441352082766,0.0
147,1.4386136531829834,0.5193336796479188,0.520766943199976,1.304856614091173,0.03700884077721814,0.0,0.12905138868862143,0.1,0.0024878978729248047,0.047182559967041016,0.04943126,1.3038211,0.6727744017554842,0.0,0.010067685960230905,0.0,200,0.0163114070892334,0.5961427812282928,0.623948815212969,29600,0.11524048140962669,0.0
148,1.44622802734375,0.43684580910805515,0.09577974450680758,0.5631894482279564,0.29385153904385275,0.0,0.13148142359591009,0.1,0.002411365509033203,0.0468897819519043,0.050040964,2.38898,0.6491815424907413,0.0,0.008481970921317632,0.0,200,0.015137195587158203,0.6769246457426287,0.4329696199485872,29800,0.07460691321391863,0.0
149,1.5750374794006348,0.5203907559881142,0.17894678504852396,0.6956284708899888,0.29121762969226667,0.0,0.12293201075131714,0.1,0.002490520477294922,0.0458986759185791,0.049633123,1.5263427,0.6363024638404786,0.0,0.010300567897476066,0.0,200,0.01797199249267578,0.24499413562045483,0.15456005823967253,30000,0.3001769860829841,0.0
150,1.50166916847229,0.6334986075430052,0.2769199580021022,1.027996265359567,0.2762117657380883,0.0,0.12870694384219653,0.1,0.002437114715576172,0.047568559646606445,0.04981942,1.2006063,0.6360220782107313,0.0,0.012441244805000947,0.0,200,0.01504826545715332,0.16487464078246405,0.17925077967343314,30200,0.1971518512359444,0.0
151,1.4821743965148926,0.8778836980086826,0.23399963892046524,1.1862682761579506,0.6165018428010732,0.0,0.12255951019506796,0.1,0.002498626708984375,0.04641103744506836,0.050015572,1.3701167,0.6602082401905265,0.0,0.017170434441731795,0.0,200,0.015603065490722656,0.26333308323976623,0.24836504537798193,30400,0.29117574348689484,0.0
152,1.4867570400238037,0.8425056437570759,0.30247322308286656,1.2972413692637381,0.4456461953723534,0.0,0.13165628010830552,0.1,0.0023872852325439453,0.04605865478515625,0.05036626,1.0888412,0.6784379805471814,0.0,0.016376067393213345,0.0,200,0.015913724899291992,0.306616675545859,0.24181325092990716,30600,0.12171991271635763,0.0
153,1.5523171424865723,0.8960390173924098,0.4782575918249263,1.3754849369569324,0.2471213722611095,0.0,0.12356607817464935,0.1,0.0024328231811523438,0.046329498291015625,0.049997255,2.5990317,0.7001980842317044,0.0,0.017459629257097094,0.0,200,0.015452861785888672,0.34916506334715974,0.2889898489078443,30800,0.0810276620475668,0.0
154,1.4184918403625488,0.7339092599256656,0.1541459222277132,0.9533015323435947,0.5322502187727566,0.0,0.12462425830979944,0.1,0.0023508071899414062,0.04598593711853027,0.04929655,1.0969623,0.7035692018011005,0.0,0.014465164490496184,0.0,200,0.015269994735717773,0.10718082918765881,0.1523538420634726,31000,0.08432028314351415,0.0
155,1.5537538528442383,0.31334537490350545,0.15356624405722089,0.5117982543637843,0.13281276442355178,0.0,0.12340293309052099,0.1,0.002353191375732422,0.04554581642150879,0.049603015,1.0354611,0.664546819111341,0.0,0.006230953678117144,0.0,200,0.01464390754699707,2.734584411145303,2.0260372823164072,31200,0.1023977441841094,0.0
156,1.5002288818359375,0.9619204150832011,0.4556140223795563,1.423994565593075,0.46591867792001707,0.0,0.13040314686253499,0.1,0.0023691654205322266,0.0454103946685791,0.050060477,0.9623682,0.694284178708527,0.0,0.018758074626349815,0.0,200,0.015064716339111328,0.24806147043090168,0.26334885152277404,31400,0.4889724557550274,0.0
157,1.5964443683624268,0.877652491563379,0.7438954773956066,2.1014797172373654,0.25017729876712025,0.0,0.11863470375518001,0.1,0.002468109130859375,0.045316219329833984,0.049470548,2.1587567,0.7126210099940122,0.0,0.016724070464884097,0.0,200,0.01487278938293457,0.46830493003769474,0.46020060776292887,31600,0.627776458683694,0.0
158,1.5812203884124756,0.7584925677353085,0.37202413072423607,1.17290850557462,0.15601105486059638,0.0,0.12541855616547465,0.1,0.0023374557495117188,0.04570364952087402,0.05031787,0.8808381,0.7172081657681418,0.0,0.014374119403109202,0.0,200,0.014922142028808594,0.26831369149193063,0.26233629820121335,31800,0.491666664230828,0.0
159,1.5765504837036133,0.739447476298569,0.4441542453204619,1.444613779097174,0.2334093663350979,0.0,0.12837667621440155,0.1,0.002618551254272461,0.04668736457824707,0.050316975,1.4299942,0.7194320968211846,0.0,0.014593203927673062,0.0,200,0.015070199966430664,0.3227915268366775,0.31735963711168125,32000,0.7042868073824521,0.0
160,1.4819021224975586,0.91211183447629,0.3532100086007272,1.3139800928745904,0.5273480286420247,0.0,0.13024755096316543,0.1,0.0024025440216064453,0.04620218276977539,0.049790177,0.98845834,0.7387000705866952,0.0,0.01781609711156513,0.0,200,0.01804208755493164,0.1851277564280249,0.177929718420313,32200,0.7216514492368735,0.0
161,1.4113574028015137,1.196585051762241,0.5927264485656626,1.9044811356276987,0.2612649186268391,0.0,0.12447675180911248,0.1,0.002492666244506836,0.051282644271850586,0.049844295,1.3124375,0.7844885687042498,0.0,0.023070417222582344,0.0,200,0.015542030334472656,0.3241954625774468,0.2789370771284927,32400,0.5783527749295811,0.0
162,1.3834567070007324,0.5787746550180748,0.1285735246993569,0.7648244888155915,0.40152009135337985,0.0,0.12631743716148938,0.1,0.0024559497833251953,0.047239065170288086,0.049704377,1.5972757,0.7639171773356324,0.0,0.011386501668631723,0.0,200,0.0156710147857666,0.41996304584742944,0.48149363940857276,32600,0.3391550310462132,0.0
163,1.4378533363342285,0.9413411652354211,0.2662926893877133,1.2693080247343664,0.5498128037272031,0.0,0.12779878048042018,0.1,0.0024461746215820312,0.05184292793273926,0.050494753,0.9742827,0.7816595761256112,0.0,0.01861956527805314,0.0,200,0.015689373016357422,0.1163949091783497,0.1087794075622364,32800,0.5068565785002408,0.0
164,1.548694133758545,0.8950906986726337,0.34537988261342795,1.3145303102055264,0.5145330319869846,0.0,0.12336481809366993,0.1,0.002475261688232422,0.046358585357666016,0.04902399,1.547256,0.7930026883803135,0.0,0.01731430759539139,0.0,200,0.01512908935546875,0.17473838328413385,0.1757398525214602,33000,0.5631047574653062,0.0
165,1.514101505279541,1.1098188633008668,0.7546872282540762,2.29736655113631,0.38098583406460673,0.0,0.1276547072349255,0.1,0.0023529529571533203,0.046434640884399414,0.05040885,1.5124676,0.8246843058723689,0.0,0.021567187550261747,0.0,200,0.0158846378326416,0.3998998247348372,0.3806723209860639,33200,0.3610483808099438,0.0
166,1.453216314315796,0.7168720678437805,0.23674699296221144,1.0389072787741929,0.38750317236158666,0.0,0.12598471823063706,0.1,0.00254058837890625,0.04642009735107422,0.049912073,1.4757887,0.81390308206951,0.0,0.013993974929941151,0.0,200,0.01513051986694336,0.20548239029084459,0.21421707262557965,33400,0.482839407807992,0.0
167,1.5023224353790283,0.5080597871762086,0.1690729377420412,0.7557986680659934,0.34016329145510754,0.0,0.1278870646415954,0.1,0.0023984909057617188,0.045827627182006836,0.049653735,1.4235262,0.7833187525801798,0.0,0.009861316888950894,0.0,200,0.015592575073242188,0.7297956980939286,0.43664599319499725,33600,0.42138807089090063,0.0
168,1.5018210411071777,0.6433076872753956,0.2535244472084063,0.9450574491722699,0.2809320884312709,0.0,0.12384093234692276,0.1,0.0024328231811523438,0.04678535461425781,0.050425462,1.2062109,0.7693176460497013,0.0,0.0125048116656791,0.0,200,0.015137910842895508,0.23555491595226336,0.17101621876346887,33800,0.38245954722415365,0.0
169,1.442187786102295,1.0972779238284986,0.7102018354648862,2.158287787358459,0.3660008417524202,0.0,0.11950013537474272,0.1,0.0023622512817382812,0.048300981521606445,0.049531087,2.2097132,0.8021136738275811,0.0,0.021138522845848256,0.0,200,0.015013456344604492,0.4341929346281341,0.4309768730525602,34000,0.28188599647524865,0.0
170,1.5133159160614014,0.768562171180798,0.4372498513886178,1.4753250736483872,0.34814239611265974,0.0,0.128483708127235,0.1,0.0024614334106445312,0.04503774642944336,0.04971707,1.2069318,0.7987585235629028,0.0,0.014840465040563768,0.0,200,0.015093088150024414,0.2897064748660869,0.2764356183706349,34200,0.27018913034539177,0.0
171,1.4791855812072754,0.8961306075266144,0.27792781830019353,1.2425023945131701,0.4992650386212519,0.0,0.12757307050124095,0.1,0.0023975372314453125,0.048224687576293945,0.05011727,0.89085853,0.808495731959274,0.0,0.017676970242491343,0.0,200,0.01569390296936035,0.13008329293222642,0.12358949777093568,34400,0.3800190359750884,0.0
172,1.4656295776367188,0.5959475678114439,0.32378267174359926,1.1198289216470438,0.2521050223881543,0.0,0.12058175828407279,0.1,0.0023260116577148438,0.04564714431762695,0.050061435,1.2426364,0.787240915544491,0.0,0.011645860958326724,0.0,200,0.014842033386230469,0.4170555812143204,0.40688424707992354,34600,0.4429787666227855,0.0
173,1.4361371994018555,1.1026411681101291,0.23559486025174603,1.3617104059631537,0.7655179170230688,0.0,0.12729096026977774,0.1,0.0025796890258789062,0.04598498344421387,0.050139885,0.84761864,0.8187809408010549,0.0,0.0215498123522104,0.0,200,0.01536870002746582,0.14652029573453348,0.1333101329723577,34800,0.3880796992978679,0.0
174,1.580040693283081,0.8829359322756509,0.5055197956333709,1.5183237808533223,0.11092015329952842,0.0,0.1371485043575354,0.1,0.002509593963623047,0.04593658447265625,0.05047555,0.7993859,0.8251964399485145,0.0,0.017062365409122905,0.0,200,0.015026330947875977,0.28223734529096733,0.27693338351248326,35000,0.4777463675956495,0.0
175,1.5153961181640625,0.7620297552451352,0.46796170594628583,1.4858839178819356,0.25009942571860244,0.0,0.1303713258532363,0.1,0.002430438995361328,0.045973777770996094,0.049725994,1.2598679,0.8188797714781766,0.0,0.015042230438806582,0.0,200,0.015252351760864258,0.2791525642287208,0.28012228326398947,35200,0.8526818506628299,0.0
176,1.4826879501342773,0.8494956272310923,0.432794300384014,1.377846612753317,0.24990703990652788,0.0,0.12718968021198537,0.1,0.002508878707885742,0.04665064811706543,0.050162066,0.98370576,0.8219413570534683,0.0,0.016574595794386842,0.0,200,0.015405654907226562,0.232302324777172,0.22145644466230163,35400,0.5576109657757977,0.0
177,1.5503547191619873,0.7373489744134023,0.30150100890181153,1.0160811877706002,0.2580564516764844,0.0,0.11733968787729836,0.1,0.0024826526641845703,0.047606706619262695,0.048810855,2.2473056,0.8134821187894616,0.0,0.014496227166913726,0.0,200,0.015916109085083008,0.22015508321585628,0.2005620800064411,35600,0.4918440112260957,0.0
178,1.5033783912658691,0.8250528387337103,0.3259320890490294,1.3706050057499977,0.5572904039437233,0.0,0.11786771301856065,0.1,0.0024101734161376953,0.04666852951049805,0.05004884,2.7569659,0.8146391907838866,0.0,0.016021973281194708,0.0,200,0.015433549880981445,0.15747026582501095,0.16195168136432558,35800,0.47986691580209345,0.0
179,1.4967939853668213,0.8746625126225757,0.4756032373554688,1.4652271549709794,0.371486065616088,0.0,0.1248719993949237,0.1,0.0024530887603759766,0.04745936393737793,0.05034127,1.2810065,0.8206415229677555,0.0,0.016859670043020053,0.0,200,0.01573657989501953,0.23561437559404091,0.23452602501746492,36000,0.6314233434249182,0.0
180,1.5088720321655273,0.9036489181864789,0.4121803418418544,1.3623177954789631,0.42617021156985907,0.0,0.1258074310399566,0.1,0.002409219741821289,0.046109676361083984,0.04991202,1.1543844,0.8289422624896279,0.0,0.01771653275263868,0.0,200,0.015858173370361328,0.1974597483999397,0.1888731862557826,36200,0.8846061237939037,0.0
181,1.5445528030395508,0.9002727575849816,0.3704342178191742,1.3377039334244054,0.3503970131170567,0.0,0.1265913639487935,0.1,0.0024785995483398438,0.045989036560058594,0.049896117,1.0465221,0.8360753119991633,0.0,0.017569923052528406,0.0,200,0.01535344123840332,0.17068281963801984,0.16144690020613023,36400,0.5269671660245835,0.0
182,1.6972441673278809,0.5124012623403765,0.14207541632548804,0.7133027365186024,0.35581415286758433,0.0,0.12556581506746442,0.1,0.0023941993713378906,0.04524874687194824,0.049982384,1.128235,0.8037079070332847,0.0,0.009961722913310137,0.0,200,0.015072345733642578,0.5034732136558978,0.4206453262143655,36600,0.6477301993341161,0.0
183,1.7427685260772705,0.650116191948687,0.48440231238165976,1.364658889397952,0.1564590142271129,0.0,0.12473193051281263,0.1,0.002376556396484375,0.045600175857543945,0.04918415,1.5123616,0.7883487355248249,0.0,0.012810191764791999,0.0,200,0.01511836051940918,0.3996303447532435,0.37991565142021816,36800,0.30667113755362635,0.0
184,1.6150147914886475,1.0452535398534402,0.782193990453522,2.3089804852243647,0.2840147788139533,0.0,0.12295320156901064,0.1,0.0023796558380126953,0.04636025428771973,0.04969142,1.6632085,0.8140392159576865,0.0,0.019938811368853934,0.0,200,0.015491962432861328,0.5098606955719718,0.49154872430673036,37000,0.2138238658482803,0.0
185,1.5244863033294678,0.2680196650636004,0.06843848130972159,0.32700591060776674,0.15760116194984922,0.0,0.12341523810217489,0.1,0.0023887157440185547,0.049796342849731445,0.04989478,0.95894533,0.7594372608682779,0.0,0.0052602797838492915,0.0,200,0.01569533348083496,3.155923832277285,2.670393145315778,37200,0.25590991521516865,0.0
186,1.5037922859191895,1.378876856302742,0.8156346251244393,2.4512405602262057,0.16108996211472462,0.0,0.12007993346432205,0.1,0.0023620128631591797,0.04701828956604004,0.04959643,1.1951463,0.8213812204117243,0.0,0.02655991443961417,0.0,200,0.015178680419921875,0.45813363576225413,0.43249336908146147,37400,0.3187170117430342,0.0
187,1.6603732109069824,0.9524093273276995,0.5786748814278544,1.7771464902061236,0.1445495587722934,0.0,0.12337306416774825,0.1,0.002375364303588867,0.04605555534362793,0.05029953,3.8099365,0.8344840311033219,0.0,0.01852006862537181,0.0,200,0.015702486038208008,0.3411713234902166,0.316415438460754,37600,0.20141252695202128,0.0
188,1.6880474090576172,0.878584994868343,0.445485694395426,1.4432172321070436,0.23873219946276109,0.0,0.12377579925753034,0.1,0.0023658275604248047,0.04626655578613281,0.04978486,1.0605359,0.8388941274798241,0.0,0.01720622116530217,0.0,200,0.015159368515014648,0.25530461702295426,0.26649781499936764,37800,0.194941432057111,0.0
189,1.6160078048706055,0.949619935976286,0.7667679505495879,2.2774817485511405,0.48425432399207924,0.0,0.11755724579620337,0.1,0.0022819042205810547,0.05025196075439453,0.049423214,2.4319186,0.8499667083294703,0.0,0.018227661431556522,0.0,200,0.015426158905029297,0.4338050064567198,0.4295289292499679,38000,0.38593654876287076,0.0
190,1.5351803302764893,0.6008216790404003,0.23111230996558685,0.8679986709717523,0.25893652372955456,0.0,0.12391590255622519,0.1,0.0026030540466308594,0.04707670211791992,0.050059233,0.917836,0.8250522054005633,0.0,0.011803433205733547,0.0,200,0.015723228454589844,0.7065959181320844,0.5876139278890348,38200,0.488903047168578,0.0
191,1.506805181503296,0.8694991358663435,0.4663153456231035,1.5951007284073078,0.4001204683740895,0.0,0.13119792311103534,0.1,0.0025544166564941406,0.04723167419433594,0.04990484,1.2236223,0.8294968984471415,0.0,0.017086846790762902,0.0,200,0.015133380889892578,0.32996144866411126,0.30737558557203704,38400,0.20668477259307338,0.0
192,1.6059503555297852,0.7171066653025076,0.42730838892329615,1.300159135955398,0.10993183810596154,0.0,0.13002433462657806,0.1,0.0024175643920898438,0.04741406440734863,0.049105287,1.2498859,0.818257875132678,0.0,0.01395116150933115,0.0,200,0.015190839767456055,0.27037394649339597,0.25683345784954437,38600,0.19416345430286783,0.0
193,1.574934482574463,1.6799946965060384,0.5964083477435353,2.6066423411040485,1.044592766621886,0.0,0.1258261496034108,0.1,0.0025076866149902344,0.047310590744018555,0.049501397,1.568965,0.9044315572700141,0.0,0.03174377849888997,0.0,200,0.01575183868408203,0.3965745200640589,0.3489220094428145,38800,0.1741533974183251,0.0
194,1.5585246086120605,0.6364893440029111,0.45618898629807353,1.3667830906006544,0.10916531914376561,0.0,0.1282176589244756,0.1,0.0024051666259765625,0.04669904708862305,0.050579756,1.6259881,0.8776373359433038,0.0,0.012409938444084284,0.0,200,0.01653313636779785,0.3863739709979212,0.45607354139197515,39000,0.16998323439490515,0.0
195,1.4799456596374512,0.26741581423409955,0.1095144166284449,0.42441750077143636,0.13082858600199926,0.0,0.1336808982617555,0.1,0.002413511276245117,0.047377824783325195,0.049566094,1.1294858,0.8166151837723835,0.0,0.005278716819158669,0.0,200,0.015395402908325195,7.557334579237919,5.89141769970318,39200,0.41496557387693134,0.0
196,1.579164743423462,0.9312335614489342,0.3627257074955068,1.4983904483846027,0.5113134233737834,0.0,0.11867513397830091,0.1,0.0024814605712890625,0.046920061111450195,0.05015849,1.159296,0.8280770215400386,0.0,0.01772743438239387,0.0,200,0.015939712524414062,0.15252452384279352,0.17552762331571573,39400,0.36274459176985463,0.0
197,1.5106732845306396,0.8328623246764749,0.3097757044885892,1.1644403870243052,0.4408646824334824,0.0,0.12032455537837047,0.1,0.0024585723876953125,0.045931339263916016,0.049677815,1.4454416,0.8285555518536822,0.0,0.016032684877254122,0.0,200,0.014871597290039062,0.140185182743482,0.14510173266890725,39600,0.47310608116583847,0.0
198,1.6070489883422852,1.0081223969366115,0.519588816961379,1.5414013542871354,0.17670019439444623,0.0,0.13009784951746506,0.1,0.0025131702423095703,0.04602694511413574,0.050774485,1.1215631,0.8465122363619751,0.0,0.019551912608684604,0.0,200,0.015230655670166016,0.29288432957617766,0.2831594599979021,39800,0.2701261111162087,0.0
199,1.5309126377105713,1.279574399320766,0.5544546943078905,1.7596855020913307,0.37396977604827764,0.0,0.12373258178369921,0.1,0.002431631088256836,0.046993255615234375,0.05024188,1.1970165,0.8898184526578543,0.0,0.02490708621846291,0.0,200,0.01566457748413086,0.35790507357516715,0.3145243242472057,40000,0.2520752320893217,0.0
200,1.7129521369934082,0.6749710380081163,0.19978736403190733,0.8809626318070023,0.36116531479996694,0.0,0.12755268083067461,0.1,0.00250244140625,0.046098947525024414,0.049346875,1.0840911,0.8683337111928805,0.0,0.013248475406265642,0.0,200,0.0152587890625,0.192527585376857,0.25124272096306677,40200,0.1451221436379285,0.0
201,1.5326571464538574,1.1604072327527835,0.21863873666119255,1.523130779846186,0.9401904512224708,0.0,0.11843232703725333,0.1,0.0024521350860595703,0.046044111251831055,0.04978628,1.4854544,0.8975410633488708,0.0,0.022727386452449833,0.0,200,0.015964031219482422,0.11095707995915292,0.09319939401155004,40400,0.20280551721022044,0.0
202,1.5851848125457764,0.891715041643039,0.5507761760124389,1.4976859389497412,0.28183714921765424,0.0,0.12380488039047376,0.1,0.002368927001953125,0.04630160331726074,0.049600188,1.3099741,0.8969584611782877,0.0,0.01745811919432103,0.0,200,0.015178680419921875,0.309038841540334,0.30933450095846426,40600,0.1564006963248796,0.0
203,1.679131031036377,0.5194319170243518,0.19846257791542726,0.739974748882338,0.21526028151454152,0.0,0.1277581670800905,0.1,0.002443552017211914,0.04660987854003906,0.049850512,1.195224,0.8592058067628942,0.0,0.010227631228684206,0.0,200,0.015043973922729492,0.9583994771884987,0.712458512198709,40800,0.11546199774088788,0.0
204,1.7073428630828857,0.7882744174657821,0.5247016340657747,1.5494270103150158,0.2986140223431788,0.0,0.13468421804536806,0.1,0.002384662628173828,0.046129465103149414,0.050134897,0.9313505,0.852112667833183,0.0,0.015129941358648247,0.0,200,0.01543426513671875,0.38987080458611745,0.34773926005874195,41000,0.12189493979370843,0.0
205,1.6819868087768555,0.6434809389328595,0.20719568826823956,0.8740675732791631,0.40518833569473356,0.0,0.12630739506228422,0.1,0.00249481201171875,0.05001187324523926,0.049592294,1.503424,0.8312494949431507,0.0,0.012578415876923085,0.0,200,0.015279769897460938,0.22211153673657985,0.15470151992553952,41200,0.11487063064777987,0.0
206,1.580291748046875,0.33884997444416276,0.10707613453315051,0.42659964284681456,0.1562972717741308,0.0,0.1261962225215917,0.1,0.002391815185546875,0.0460972785949707,0.050413307,0.69060844,0.782009542893252,0.0,0.006736503921302418,0.0,200,0.015642166137695312,1.7018504578845424,0.9011043745028204,41400,0.14669801434842464,0.0
207,1.6619832515716553,0.624499986472178,0.36557916076936464,1.2457243851409079,0.33490479706528886,0.0,0.12191830481559272,0.1,0.002391815185546875,0.0463719367980957,0.050181728,1.6935877,0.7662585872511446,0.0,0.012163445179078332,0.0,200,0.015799522399902344,0.3216639130579079,0.33715086275131695,41600,0.11068909202352772,0.0
208,1.6898646354675293,0.609166005785464,0.2793580575046062,0.8866314160145555,0.14704687404836234,0.0,0.1172486579875382,0.1,0.0023458003997802734,0.04580426216125488,0.04984775,1.0248009,0.7505493291045766,0.0,0.011896982018012531,0.0,200,0.01635575294494629,0.23592830216141208,0.2551047439569858,41800,0.12646613610425353,0.0
209,1.6177818775177002,0.8001065013818768,0.38409318967885653,1.3071308645880093,0.2398710047187145,0.0,0.12752360287968276,0.1,0.0023512840270996094,0.04875588417053223,0.04991373,1.1847641,0.7555050463323066,0.0,0.015189523758683219,0.0,200,0.015315532684326172,0.39064543639346677,0.3554872664044051,42000,0.12530765094469862,0.0
210,1.5714588165283203,0.7527489213544485,0.5185471015500768,1.6335594642627682,0.31947997819130425,0.0,0.12565393352377976,0.1,0.0023584365844726562,0.04641151428222656,0.050288223,1.45032,0.7552294338345209,0.0,0.014635299014206495,0.0,200,0.01537322998046875,0.4690719935554259,0.408555649861065,42200,0.20758189513051686,0.0
211,1.6178913116455078,0.962386061447028,0.35231671068009407,1.451680921850307,0.4851160030532413,0.0,0.12778266976079375,0.1,0.002335786819458008,0.04558420181274414,0.04990274,1.198127,0.7759450965957716,0.0,0.018514607815989216,0.0,200,0.015224218368530273,0.2802364085112623,0.21681543155323624,42400,0.11251894989538978,0.0
212,1.6419079303741455,0.5834071402128165,0.20099093131770487,0.8929387904740753,0.34253583004183064,0.0,0.12127976450124867,0.1,0.002376556396484375,0.046272993087768555,0.05021597,1.4733485,0.756691300957476,0.0,0.011332426035249385,0.0,200,0.015442371368408203,0.2843625594217994,0.318470376358304,42600,0.1368317413679852,0.0
213,1.588470458984375,0.8719080420566778,0.32163591171741235,1.3552478126510257,0.5363698781033444,0.0,0.12572953632727685,0.1,0.0024030208587646484,0.04654407501220703,0.049464993,1.3173567,0.7682129750673963,0.0,0.017033787176905502,0.0,200,0.01668548583984375,0.17526908278403056,0.16697338328639683,42800,0.1666319266512968,0.0
214,1.6681969165802002,0.9390085903510572,0.697900102521277,1.7438068018858564,0.191982414518933,0.0,0.1271472921487799,0.1,0.005615234375,0.047324419021606445,0.0496926,1.0610111,0.7852925365957624,0.0,0.017915679724388543,0.0,200,0.014644145965576172,0.4114071749587989,0.3987907684860627,43000,0.15558752446986765,0.0
215,1.5722336769104004,0.7850364234901629,0.5143545143879431,1.5659969042880113,0.14185894265370147,0.0,0.13292448323891995,0.1,0.002390623092651367,0.04537010192871094,0.050508603,1.1399162,0.7852669252852025,0.0,0.015303421217022235,0.0,200,0.01604938507080078,0.3653281946992372,0.3640110251504143,43200,0.16786662128074548,0.0
