iteration,time_sampling,stoc_pol_mean,stoc_pol_std,stoc_pol_max,stoc_pol_min,rollout_success,alpha,delta,time_vpg,time_npg,kl_dist,surr_improvement,running_score,rwd_sparse,rwd_dense,success_percentage,num_samples,time_VF,VF_error_before,VF_error_after,env_samples,eval_score,eval_success
0,1.3386404514312744,3.4538967513258525,2.609862256206669,7.974295695526343,1.9380926129275835,0.0,0.18850950455572663,0.1,0.01562643051147461,0.05857706069946289,0.051329874,2.1811876,3.4538967513258525,0.0,0.043672429514503085,0.0,300,0.020523786544799805,0.9687767245987601,0.9140711437744736,300,1.9377323055558664,0.0
1,1.2590277194976807,6.211762339672449,7.388345287149884,19.008751614160737,1.9449350758643524,0.0,0.2153874748497288,0.1,0.003017425537109375,0.059578657150268555,0.048027396,0.8089654,3.729683310160512,0.0,0.08379103950451569,0.0,300,0.018614768981933594,0.9682475461248607,0.9417163733352714,600,1.9428978105586838,0.0
2,1.30617094039917,2.443154537781144,0.8745811417244309,3.957849000520998,1.920001131317652,0.0,0.16930050372979003,0.1,0.003245115280151367,0.05871105194091797,0.051045902,1.0005953,3.6010304329225753,0.0,0.03354000264521962,0.0,300,0.018246889114379883,0.7028369460223572,0.6602139341474985,900,1.9455113120869045,0.0
3,1.367250919342041,10.981145069089038,9.158910233161167,22.033773666404155,1.915188497636085,0.0,0.17852486941713452,0.1,0.0030586719512939453,0.05925941467285156,0.05218684,0.8599928,4.3390418965392215,0.0,0.14738359887856886,0.0,300,0.01797008514404297,0.9138159363685813,0.8637213929779161,1200,1.9448979019657842,0.0
4,1.391653299331665,6.023359728315657,4.571815788390985,13.053499445459712,1.9459988183887904,0.0,0.1795431909706093,0.1,0.0030508041381835938,0.05812335014343262,0.049912784,0.9729243,4.507473679716865,0.0,0.08126429201775137,0.0,300,0.017543315887451172,0.8025265434961277,0.7372637461554997,1500,1.9561632934361441,0.0
5,1.3817601203918457,15.235490747021863,7.886310320151501,22.044063168700404,1.935029384045041,0.0,0.1791023556661908,0.1,0.002962350845336914,0.05907940864562988,0.049864873,0.68810725,5.580275386447365,0.0,0.200770188235717,0.0,300,0.017932891845703125,0.7924649332847186,0.6883464621103096,1800,1.9578210939614715,0.0
6,1.3449482917785645,13.471449009722726,17.17135115063021,42.993774825945444,1.9282171817846503,0.0,0.17275839921042865,0.1,0.0030853748321533203,0.05925345420837402,0.052156754,1.0383562,6.369392748774902,0.0,0.17725226183672033,0.0,300,0.018497228622436523,0.8450022270650666,0.7766680795358629,2100,1.9555693104339469,0.0
7,1.4027268886566162,6.9458419232744,5.200266881239032,13.947105464424556,1.929525574740007,0.0,0.18201227650481938,0.1,0.0030078887939453125,0.06357765197753906,0.050854348,0.85682696,6.427037666224852,0.0,0.09357272185550373,0.0,300,0.01832294464111328,0.6373373427718636,0.7381719860769248,2400,1.953164127661604,0.0
8,1.4234974384307861,6.023957736078039,5.03446859677725,14.25716254450772,1.918365466864289,0.0,0.17327756439814934,0.1,0.003085613250732422,0.05980420112609863,0.05100582,1.2413694,6.386729673210171,0.0,0.07792156508230992,0.0,300,0.018074750900268555,1.0179362450346405,0.8926689525856965,2700,1.9651266360807123,0.0
9,1.4138762950897217,7.737543639621478,3.440929605888205,11.009527013956635,1.9508024414287424,0.0,0.1696971015433871,0.1,0.0032176971435546875,0.0670173168182373,0.04979861,0.7917276,6.521811069851302,0.0,0.10078359343222551,0.0,300,0.021100997924804688,0.48101075108101404,0.43071488603110153,3000,1.9718369517165184,0.0
10,1.451789140701294,17.254998803677896,15.639771004837067,37.00667288017227,1.9180209699287882,0.0,0.1697349158631372,0.1,0.002922534942626953,0.06494760513305664,0.048336294,0.84483564,7.595129843233962,0.0,0.22770004246341144,0.0,300,0.019307851791381836,0.7069264349834579,0.666832947977986,3300,14.01311225611848,0.0
11,1.4781608581542969,11.540216690224643,7.512201386184541,21.128985200091364,1.9265091249447666,0.0,0.16974572459840861,0.1,0.002886056900024414,0.05655264854431152,0.049289882,0.89792144,7.98963852793303,0.0,0.15147626531505762,0.0,300,0.017982959747314453,0.47364974082354716,0.42153553645140224,3600,18.022839694609164,0.0
12,1.602949857711792,8.501648242480773,7.081839814608472,18.99728943932914,1.9860454947205164,0.0,0.19633903100336383,0.1,0.0029633045196533203,0.06493949890136719,0.04928189,0.7343861,8.040839499387804,0.0,0.11096893089810675,0.0,300,0.017911434173583984,0.6114457490788147,0.6372825433508363,3900,17.03435054135181,0.0
13,1.3926160335540771,6.995902300600737,6.123756502346314,16.95580559499574,1.9492242946065792,0.0,0.17246047651346924,0.1,0.0029807090759277344,0.062150001525878906,0.050486468,1.0118886,7.9363457795090975,0.0,0.09423944247766716,0.0,300,0.01864767074584961,0.8407747056269914,0.7496477932753856,4200,17.06196251357624,0.0
14,1.4128150939941406,11.101459498209598,5.845819568729382,16.327003554311872,1.9723874984934857,0.0,0.16778280185782554,0.1,0.0029439926147460938,0.058425188064575195,0.050246403,1.5879321,8.252857151379148,0.0,0.14897690356720802,0.0,300,0.017621755599975586,0.4945685063543373,0.4663124587403426,4500,15.07974562094143,0.0
15,1.4256389141082764,8.717629142435948,8.584979441558035,22.96878631038835,1.966509420344888,0.0,0.1748492867435438,0.1,0.003015279769897461,0.05870246887207031,0.04998836,0.85125744,8.299334350484829,0.0,0.11386090116019248,0.0,300,0.020223379135131836,0.608488956462148,0.6092808459607336,4800,12.070601984868512,0.0
16,1.4078834056854248,19.116383735814047,4.345599174148375,25.302030020569777,14.227477106537597,0.0,0.16013968955921404,0.1,0.002870798110961914,0.05703020095825195,0.0505107,1.0018605,9.38103928901775,0.0,0.25251609301748074,0.0,300,0.018923521041870117,0.5111842207829833,0.4392348448696105,5100,13.138352371519767,0.0
17,1.4189250469207764,16.039666484641558,15.388688517169909,38.94509163893169,1.9670093865993494,0.0,0.16786278496733495,0.1,0.003041982650756836,0.057856082916259766,0.05048821,1.1585709,10.04690200858013,0.0,0.2114681285534811,0.0,300,0.018278837203979492,0.6453309759141043,0.5855782276032191,5400,14.11896911331668,0.0
18,1.4234647750854492,16.498871540696395,8.792933159657844,24.587674472096214,1.9261727460745173,0.0,0.16840126005026018,0.1,0.003148317337036133,0.0635986328125,0.050439347,0.8780696,10.692098961791757,0.0,0.22094442246104312,0.0,300,0.021151065826416016,0.42140087270968885,0.4135425345946908,5700,15.121041889002536,0.0
19,1.4219648838043213,22.849542224215735,5.552827519230937,30.110791063186692,16.004187022551854,0.0,0.16770815654824653,0.1,0.002856731414794922,0.056998491287231445,0.04962894,0.8533796,11.907843288034154,0.0,0.3056193903048301,0.0,300,0.017650842666625977,0.2850101875891371,0.21385941386434723,6000,16.168358019390176,0.0
20,1.4308624267578125,18.057985904195135,7.226393783320303,24.99734243816469,5.946496765587325,0.0,0.17174143380618406,0.1,0.0062410831451416016,0.06484198570251465,0.05014524,0.85987985,12.522857549650253,0.0,0.23505576119768423,0.0,300,0.01839137077331543,0.3102283171445441,0.31903581795452907,6300,16.182736865161637,0.0
21,1.4202396869659424,15.319452699164426,8.15275345437184,23.99193707883511,1.9294392323295608,0.0,0.17026540771332432,0.1,0.0029363632202148438,0.05710768699645996,0.048853364,0.7130714,12.802517064601671,0.0,0.20519740581119855,0.0,300,0.015719175338745117,0.6029697857123302,0.44198126056007564,6600,16.29775396062461,0.0
22,1.514390230178833,19.1999090140218,7.481271466674021,25.63085725789471,6.979631249891007,0.0,0.1759411345358775,0.1,0.0031125545501708984,0.0587310791015625,0.049863342,0.7367992,13.442256259543685,0.0,0.256950316514383,0.0,300,0.018353939056396484,0.29823530688146044,0.3170086936481664,6900,18.215103769355675,0.0
23,1.4748589992523193,12.357514029624127,8.334974339256522,24.38867419336813,2.0172721789425068,0.0,0.17815589497410658,0.1,0.002826213836669922,0.05762505531311035,0.05025366,0.8605799,13.333782036551728,0.0,0.1623710420506837,0.0,300,0.017158985137939453,0.5108183211732066,0.44990857073648943,7200,21.085168795222213,0.0
24,1.4682378768920898,14.850198098676016,7.718661132440882,26.129450440050253,5.6729438507068926,0.0,0.1763300945185795,0.1,0.0029392242431640625,0.06063699722290039,0.049115714,0.74466443,13.485423642764157,0.0,0.19559582749637766,0.0,300,0.020672321319580078,0.3165257410916365,0.32227535453580514,7500,18.094248211680632,0.0
25,1.4946489334106445,10.50470706593688,5.40680302474992,16.96782935550997,1.990171463722405,0.0,0.17794856702169884,0.1,0.0063323974609375,0.060256242752075195,0.051296595,0.890874,13.18735198508143,0.0,0.14102920100673588,0.0,300,0.0201413631439209,0.48981601290555604,0.4465497243146554,7800,18.080167063734503,0.0
26,1.516813039779663,11.239138425178298,9.325206094277481,22.041483678415467,1.9531989045586773,0.0,0.16064451318611286,0.1,0.0030748844146728516,0.057659149169921875,0.049408197,1.0559422,12.992530629091116,0.0,0.15079554250523375,0.0,300,0.018128395080566406,0.5559909232264023,0.5341955814179239,8100,15.16139357948142,0.0
27,1.4177672863006592,7.018870923152392,4.979913237419597,12.067820166037174,1.9943931736566416,0.0,0.17098714637144707,0.1,0.0030434131622314453,0.058593034744262695,0.04964143,1.0931153,12.395164658497244,0.0,0.09447245975889357,0.0,300,0.01997661590576172,0.7770492377910475,0.6210564075696967,8400,13.12853264208583,0.0
28,1.5583317279815674,4.229376265083267,3.889768080470638,10.96638060800708,1.9367148993314338,0.0,0.15518727896746953,0.1,0.002928018569946289,0.06073284149169922,0.04922831,2.2035623,11.578585819155848,0.0,0.05734839512041281,0.0,300,0.018490076065063477,1.6219453856301291,1.074683269307565,8700,25.02604178564268,0.0
29,1.399482250213623,6.9761723617807245,5.232602507268014,13.992616848187227,1.930913719014215,0.0,0.17378502468691026,0.1,0.003396272659301758,0.057802677154541016,0.050290484,1.2567469,11.118344473418334,0.0,0.0939719692633953,0.0,300,0.0172576904296875,0.5258308322105549,0.5245974768745798,9000,13.002414238853673,0.0
30,1.4596757888793945,21.624969624577815,13.938031301044708,40.10950021269282,1.9571370994134307,0.0,0.17455334177236193,0.1,0.0032095909118652344,0.06383442878723145,0.049799047,0.75523263,12.169006988534283,0.0,0.289302201908539,0.0,300,0.018973112106323242,0.7415806214097501,0.6854640388178451,9300,17.05138851450885,0.0
31,1.4417593479156494,14.638118811098678,10.525841722637166,32.26150779449117,6.116224658698696,0.0,0.15021052820249667,0.1,0.0032923221588134766,0.06308150291442871,0.04831558,1.7219623,12.415918170790723,0.0,0.18947331418849758,0.0,300,0.024686574935913086,0.615350544006765,0.49979867729670185,9600,13.012807080524732,0.0
32,1.4953651428222656,22.28771062423086,14.311658877810212,42.15805758641153,1.9881547134319184,0.0,0.16445919010743146,0.1,0.003009319305419922,0.060475826263427734,0.050286625,0.8000344,13.403097416134738,0.0,0.2881205305619958,0.0,300,0.02019357681274414,0.5718693053550039,0.415766579538814,9900,11.034808657240704,0.0
33,1.4256103038787842,25.32220290707015,13.477278487125082,35.94934997524534,2.1932340954079734,0.0,0.16000684614250307,0.1,0.0030667781829833984,0.05618906021118164,0.05078541,0.75070155,14.595007965228278,0.0,0.3352600370051895,0.0,300,0.01748061180114746,0.41609420470233227,0.29884630344532653,10200,16.03222208022296,0.0
34,1.4680061340332031,20.763903766314577,14.795974385411496,45.07736319050156,5.0459799819993405,0.0,0.16139036643827373,0.1,0.002966642379760742,0.059459686279296875,0.049656644,0.84942514,15.211897545336909,0.0,0.27448471170208305,0.0,300,0.018263816833496094,0.44267773158709883,0.4858068481619028,10500,17.00226232985978,0.0
35,1.448221206665039,18.097096471811717,6.927470914240674,25.954787653037574,6.957749275249547,0.0,0.16817306845948357,0.1,0.0030908584594726562,0.056463003158569336,0.05055547,0.7155352,15.50041743798439,0.0,0.24225241035186212,0.0,300,0.018349885940551758,0.4383288796034011,0.3084290086062679,10800,18.009181281247212,0.0
36,1.4622437953948975,10.072094308662077,5.990645663267487,17.18001508403255,1.9231822590386964,0.0,0.16540346807956,0.1,0.003042459487915039,0.058252573013305664,0.050464727,1.0417384,14.95758512505216,0.0,0.13525173589578804,0.0,300,0.017969846725463867,2.1451705003066355,0.8282998703412894,11100,13.975083606308871,0.0
37,1.4825081825256348,9.334304110967345,0.8147773967875179,10.028346022299294,8.028229287421034,0.0,0.15985153989252668,0.1,0.0030982494354248047,0.0580902099609375,0.04962122,0.9119936,14.39525702364368,0.0,0.11871152142569898,0.0,300,0.018082857131958008,0.598109489379195,0.21629998297312095,11400,12.965969295712254,0.0
38,1.4958670139312744,10.081974712775207,8.059413595081447,18.21774415152266,1.9256760195311107,0.0,0.1601394349879643,0.1,0.003225088119506836,0.06963205337524414,0.05037203,1.1532575,13.963928792556834,0.0,0.13539588095213392,0.0,300,0.018162012100219727,0.5818250480875056,0.5318049349226364,11700,15.003643107937167,0.0
39,1.4922840595245361,13.897923602563802,12.018924812210395,32.95958905707238,2.033406471816305,0.0,0.17685941250744677,0.1,0.0030477046966552734,0.059595584869384766,0.049915522,0.9070928,13.957328273557529,0.0,0.18626138696960437,0.0,300,0.023213624954223633,0.621441351143004,0.641249351337219,12000,1.9506773560645463,0.0
40,1.486039400100708,21.373350503291917,7.44796669627012,28.996808202301533,9.143633722350303,0.0,0.16181810428490254,0.1,0.0029189586639404297,0.06014609336853027,0.04996235,0.75095904,14.698930496530968,0.0,0.28259789405509284,0.0,300,0.02054572105407715,0.5777973836072071,0.5235094322343762,12300,8.977459069671568,0.0
41,1.5034799575805664,14.17830432086498,10.821373684002806,31.058753109061616,2.03900996776951,0.0,0.1531796153325762,0.1,0.0031309127807617188,0.06408977508544922,0.0499286,1.6284503,14.64686787896437,0.0,0.18666674668315125,0.0,300,0.01947784423828125,0.5541492489579771,0.5099207237705071,12600,14.987188432398947,0.0
42,1.5326817035675049,17.6257771764132,11.34956016126244,34.1067815437969,2.078385693728794,0.0,0.16890478373775644,0.1,0.0029854774475097656,0.05835080146789551,0.049485274,0.91431415,14.944758808709254,0.0,0.2326228507366336,0.0,300,0.01753973960876465,0.5042881168554931,0.44740136460186836,12900,13.971416132536708,0.0
43,1.5050137042999268,22.161783940971546,11.23767822885926,41.2544757914847,12.29442852591902,0.0,0.17107964527568698,0.1,0.0030226707458496094,0.05835103988647461,0.050391007,1.0232955,15.666461321935483,0.0,0.29645619227640835,0.0,300,0.017572879791259766,0.40466766056318176,0.3406568218446903,13200,11.977182325089485,0.0
44,1.5402913093566895,29.18276356386065,11.922563346214258,39.19510802348375,9.96478884427263,0.0,0.15829456906577508,0.1,0.0029544830322265625,0.05687665939331055,0.05012709,0.63817906,17.018091546128,0.0,0.3900246221948908,0.0,300,0.017287015914916992,0.3682879996242649,0.2518752941477636,13500,17.007960420238643,0.0
45,1.4845876693725586,4.472883203760229,4.322993393827354,11.960444930138319,1.9443902454062196,0.0,0.17055060738286212,0.1,0.003069162368774414,0.0611872673034668,0.05040156,0.8407813,15.763570711891225,0.0,0.06060115642895462,0.0,300,0.02066659927368164,9.153413091440271,8.35140318478239,13800,22.00594200223726,0.0
46,1.487844467163086,13.686853966856527,8.402965271781389,25.220687439982747,1.933000326708613,0.0,0.16006815876230895,0.1,0.0031442642211914062,0.062207937240600586,0.050271396,1.0912063,15.555899037387755,0.0,0.18011354264636437,0.0,300,0.02042388916015625,0.7642449064911524,0.4633617887983381,14100,39.03785569099044,0.0
47,1.4674737453460693,19.284159770919146,10.476686147677066,30.005991263369722,1.92168286485435,0.0,0.16730787720741613,0.1,0.0029366016387939453,0.05881452560424805,0.049645215,0.8630732,15.928725110740894,0.0,0.2547493734323557,0.0,300,0.017822265625,0.34463455219816524,0.3771218767197154,14400,33.06487634388352,0.0
48,1.4356958866119385,14.540714031853934,8.290982725822001,23.191042578708792,1.9465539436115502,0.0,0.17177874027395204,0.1,0.005700111389160156,0.06254315376281738,0.04942652,0.7325308,15.789924002852198,0.0,0.19483946242109743,0.0,300,0.02274036407470703,0.3822149126035622,0.38081900140806424,14700,41.18520644902676,0.0
49,1.4827134609222412,17.56442998445998,8.462610506069955,31.092687144676905,9.034915039049993,0.0,0.156621682749257,0.1,0.0029556751251220703,0.059851646423339844,0.04933843,1.5585024,15.967374601012976,0.0,0.23514604005725273,0.0,300,0.01920461654663086,0.30576954335805,0.301184131837957,15000,43.299172391155075,0.0
50,1.4674108028411865,16.486751471131342,8.551489546752057,24.010320974151142,1.9502406860032824,0.0,0.1605929429495876,0.1,0.0031118392944335938,0.061220645904541016,0.050547514,0.8101545,16.019312288024814,0.0,0.21744476047017908,0.0,300,0.018442869186401367,0.31083169820125917,0.29599102758300894,15300,42.33548123031007,0.0
51,1.5422987937927246,8.134969398056924,3.64550959329727,11.387250704051084,1.9836849433329817,0.0,0.16100992156191063,0.1,0.003244161605834961,0.06243562698364258,0.0507174,0.66230935,15.230877999028024,0.0,0.10940478500624962,0.0,300,0.01851058006286621,0.9771778754011586,0.8999380661438259,15600,39.355145207772104,0.0
52,1.5047976970672607,10.389235775086014,8.462812112329257,20.415664641197207,1.97260187611489,0.0,0.15941535878069513,0.1,0.0035529136657714844,0.07892346382141113,0.050162308,0.99946713,14.746713776633824,0.0,0.13948682439437327,0.0,300,0.02136850357055664,0.6459923347506065,0.5586114378820115,15900,20.05216122495474,0.0
53,1.5706870555877686,18.641286236757637,12.381530238319229,38.28778893658975,4.939894932795388,0.0,0.1651410463193608,0.1,0.0034837722778320312,0.0627584457397461,0.050040055,0.8993588,15.136171022646206,0.0,0.24273635532632998,0.0,300,0.018852710723876953,0.4259318598656825,0.4241881219564484,16200,24.41423192813923,0.0
54,1.554636001586914,19.23292009107542,11.15751090852349,31.57602330417199,2.9997815425735355,0.0,0.14934644871835084,0.1,0.0029473304748535156,0.05646872520446777,0.05059269,1.5155443,15.54584592948913,0.0,0.2540441201941561,0.0,300,0.01725006103515625,0.4694261493280024,0.4340706808519571,16500,30.359611164971128,0.0
55,1.499497652053833,19.33886653610112,0.8840120077323143,20.177229954105915,17.966216764171634,0.0,0.15811217723377152,0.1,0.0029556751251220703,0.06121969223022461,0.050214633,0.72208434,15.925147990150329,0.0,0.2588100655581844,0.0,300,0.01724720001220703,0.15999721955335935,0.12834225783603087,16800,26.503193792188124,0.0
56,1.5675239562988281,14.337474778304923,7.791464823113002,27.145253298863796,6.2401317703697385,0.0,0.15519676074757688,0.1,0.003332376480102539,0.06271481513977051,0.050402164,1.060221,15.766380668965787,0.0,0.19213701814637452,0.0,300,0.019138097763061523,0.3294278172772165,0.34196090493051345,17100,13.232565797151494,0.0
57,1.558896780014038,10.38603273412201,6.694459781340636,20.07650607268166,1.932543090548783,0.0,0.1482857392377569,0.1,0.0031337738037109375,0.0563046932220459,0.04925334,2.010065,15.228345875481411,0.0,0.13945008393570563,0.0,300,0.017070770263671875,1.0644322510788273,0.8505229245586464,17400,42.324331832209076,0.0
58,1.5941615104675293,11.438857147048989,2.8144612145378693,15.159219841832137,7.256831013433727,0.0,0.15479723907387,0.1,0.0029425621032714844,0.05866575241088867,0.049824137,0.8776216,14.849397002638169,0.0,0.15339637638572767,0.0,300,0.01783609390258789,0.3665227710389465,0.2203712522622649,17700,30.055470457540633,0.0
59,1.6144688129425049,13.26954756599703,8.057550101097474,24.200094400507098,1.9746792833881717,0.0,0.16321994955813432,0.1,0.0028619766235351562,0.05948591232299805,0.050072614,0.75691104,14.691412058974054,0.0,0.17789568484788013,0.0,300,0.018665075302124023,0.32795484372772465,0.32831342010816794,18000,37.389832645216245,0.0
60,1.5643928050994873,6.0442922992331365,7.042988427095205,18.243030278855667,1.9398420177559021,0.0,0.14974880960826545,0.1,0.002978801727294922,0.057891845703125,0.05033162,1.603493,13.826700082999963,0.0,0.08152773916808752,0.0,300,0.017234325408935547,1.2344944444398358,1.0515353943711292,18300,47.05283315988775,0.0
61,1.6095521450042725,18.917256150156508,9.541072464695697,33.34198651495719,7.0585623028383,0.0,0.17941329051605298,0.1,0.0028362274169921875,0.06100964546203613,0.049576152,0.71064055,14.335755689715619,0.0,0.2497018844085951,0.0,300,0.01753854751586914,0.4515608581945869,0.4578715418796595,18600,15.173805000937127,0.0
62,1.4932053089141846,3.5745008021405353,2.6055372014166744,8.08523203002091,1.9451037806070561,0.0,0.15755899216014344,0.1,0.0031108856201171875,0.06625127792358398,0.049831226,0.87014514,13.259630200958112,0.0,0.048613169462807,0.0,300,0.018524885177612305,6.2099466208043985,5.542768990313573,18900,24.14839877224215,0.0
63,1.5172510147094727,13.904879242488674,15.980414690006974,41.21837540038125,2.120645538738238,0.0,0.15862180293160058,0.1,0.002990245819091797,0.05906534194946289,0.050078824,1.1119468,13.324155105111169,0.0,0.17967122212217815,0.0,300,0.018707752227783203,0.6433469414518347,0.6401362325764413,19200,16.164545380034355,0.0
64,1.5097427368164062,13.257523026160381,11.035588637850461,30.08359457764294,1.9469747029721285,0.0,0.1539020695435241,0.1,0.003238201141357422,0.06215858459472656,0.049105685,1.1350847,13.31749189721609,0.0,0.17105663082529476,0.0,300,0.02195906639099121,0.536063765891487,0.5156352597852025,19500,41.479528122287256,0.0
65,1.5418190956115723,18.099712770983643,7.605783246608786,31.010163086934163,11.326441727810646,0.0,0.15550498028670193,0.1,0.0030601024627685547,0.06266546249389648,0.048856035,1.0878006,13.795713984592846,0.0,0.24228929411595246,0.0,300,0.019753217697143555,0.3366452255222678,0.30374659420233474,19800,29.473238962763315,0.0
66,1.494358777999878,12.139206728993383,9.761885058364577,27.269331128213402,2.106105446244336,0.0,0.15312605988650765,0.1,0.0030562877655029297,0.06107616424560547,0.049404934,1.4215294,13.6300632590329,0.0,0.1628248191418778,0.0,300,0.01861095428466797,0.5652605909970435,0.573117805034461,20100,35.399541625695626,0.0
67,1.5106065273284912,13.328141455755372,9.407144898575973,28.023765853771742,1.9628641692016136,0.0,0.16913621899422995,0.1,0.0029408931732177734,0.057355403900146484,0.04970463,0.8581465,13.599871078705146,0.0,0.17867027429172805,0.0,300,0.01787853240966797,0.4995128299647993,0.49102245582356285,20400,21.217991099766483,0.0
68,1.5541019439697266,23.707219232911562,5.57592493418073,30.21261354624273,17.14552057059053,0.0,0.15556466189098558,0.1,0.002981424331665039,0.06032991409301758,0.049808633,0.8241182,14.610605894125788,0.0,0.31703251096412777,0.0,300,0.018633127212524414,0.29802504182522277,0.25334370846722387,20700,14.165133484450187,0.0
69,1.5551550388336182,5.87307850095104,2.3592579834115166,7.995502221491411,1.9192692712761237,0.0,0.16235869456699248,0.1,0.0029790401458740234,0.06519675254821777,0.050105195,0.7277662,13.736853154808314,0.0,0.07927912481484767,0.0,300,0.017644405364990234,3.390252258141483,3.357089238704798,21000,47.218601129082934,0.0
70,1.5225470066070557,34.10632942718552,12.044808453292186,45.02913106949414,13.934295655473651,0.0,0.1616942405833373,0.1,0.003108978271484375,0.060872554779052734,0.050068107,0.91774344,15.773800782046035,0.0,0.4490519347037643,0.0,300,0.03562116622924805,0.4654746800502181,0.40102544824003994,21300,23.198957302093756,0.0
71,1.5617432594299316,13.984760726440294,8.169026462762229,22.966719325441133,2.0954990290331947,0.0,0.16174666250736558,0.1,0.0031168460845947266,0.06366109848022461,0.049879692,0.7673532,15.594896776485461,0.0,0.18743398355057422,0.0,300,0.019315242767333984,0.342826365666877,0.43299504648766046,21600,19.20350978857505,0.0
72,1.7084667682647705,22.08617153517094,7.367878602330966,31.038980748236483,12.305299928426251,0.0,0.15970607558114902,0.1,0.003069162368774414,0.061324119567871094,0.049024213,0.8430185,16.24402425235401,0.0,0.29545422403465527,0.0,300,0.01876544952392578,0.20877918821656463,0.20229879468927797,21900,34.07748365290628,0.0
73,1.5826330184936523,24.402405194645418,8.74367693822792,33.31646049449884,9.964540565823716,0.0,0.15118776659568436,0.1,0.0030105113983154297,0.06929659843444824,0.04884812,0.9013119,17.059862346583152,0.0,0.3229966972188229,0.0,300,0.017435073852539062,0.22885894985299346,0.2071381250271275,22200,31.15431157014096,0.0
74,1.5810210704803467,15.7506391489344,15.401626977267583,39.16831452733939,1.9188592632925512,0.0,0.16545992249564237,0.1,0.003178119659423828,0.06412887573242188,0.05011837,0.9836624,16.928940026818278,0.0,0.20764610427548064,0.0,300,0.01864933967590332,0.6052210031614681,0.6029730845001959,22500,2.0380547060810303,0.0
75,1.6386241912841797,23.5703401309294,15.150063228269088,44.27917979017887,6.243208933791875,0.0,0.16047681537856648,0.1,0.0029201507568359375,0.05800938606262207,0.049734652,0.82963514,17.59308003722939,0.0,0.3152152217745823,0.0,300,0.01562786102294922,0.3421996368522198,0.3375929363925939,22800,2.075282263158212,0.0
76,1.6088111400604248,13.141422895898408,8.998219843847455,25.103040868691163,1.9422425230437386,0.0,0.15579679185162945,0.1,0.0029449462890625,0.05888652801513672,0.05037493,1.1635262,17.147914323096295,0.0,0.1728569856113506,0.0,300,0.017029523849487305,0.6211611689680094,0.5303188264190388,23100,19.11581179185152,0.0
77,1.6230683326721191,13.233336084807942,16.20612816765571,40.97586529329314,1.9553926718968664,0.0,0.15022501065208194,0.1,0.00289154052734375,0.05813336372375488,0.04985368,2.49346,16.756456499267458,0.0,0.17741639701346815,0.0,300,0.025667190551757812,0.8386789243871351,0.7192564361842602,23400,34.13291204894301,0.0
78,1.5165297985076904,26.562322912567275,9.369556777324624,36.29298925075438,14.102631157595516,0.0,0.15700477199186824,0.1,0.003126859664916992,0.05994296073913574,0.050477944,1.0456321,17.73704314059744,0.0,0.3551266551007419,0.0,300,0.01813364028930664,0.2932937593610784,0.3049485045223658,23700,46.09893268646122,0.0
79,1.5774905681610107,16.344443339305414,6.588008209098769,27.465452119650408,10.967962552229132,0.0,0.17018553262489242,0.1,0.0032494068145751953,0.05982565879821777,0.05037355,1.016794,17.597783160468236,0.0,0.21554746242681938,0.0,300,0.018076658248901367,0.4611833810612158,0.45813047597618545,24000,41.21398284678832,0.0
80,1.5700526237487793,21.152945364200324,10.664721301591966,37.13359279415452,7.19803613331102,0.0,0.1597933551242967,0.1,0.003033161163330078,0.05858802795410156,0.04951498,1.2104288,17.953299380841443,0.0,0.2796610737060958,0.0,300,0.017810344696044922,0.27836807259583857,0.2661190174030159,24300,39.12125636982927,0.0
81,1.571472406387329,18.710070600066743,7.597204513799721,26.604984387513888,6.21312494196402,0.0,0.1597062795315371,0.1,0.0030422210693359375,0.059591054916381836,0.04967366,0.8748111,18.028976502763975,0.0,0.25043829836728854,0.0,300,0.01837635040283203,0.20179761829855727,0.19882975248772866,24600,19.081403521813687,0.0
82,1.5227372646331787,15.249846082561552,9.292240952335163,28.04932163966903,1.9314501592207927,0.0,0.1496480324284564,0.1,0.003211498260498047,0.06296443939208984,0.04881937,5.5359983,17.751063460743733,0.0,0.20096717136698983,0.0,300,0.019557714462280273,0.44679791217015796,0.4381915719062144,24900,36.05457013949952,0.0
83,1.5377106666564941,11.10797717176966,7.689266844679848,24.35344408326642,6.008093668047998,0.0,0.1467249445541282,0.1,0.0030105113983154297,0.05864715576171875,0.05034569,1.8894657,17.086754831846324,0.0,0.14571324497791355,0.0,300,0.01778125762939453,0.6456118391832807,0.5304083265594703,25200,31.272698980363355,0.0
84,1.5608818531036377,24.773876595868337,9.303292739225961,38.04769708079236,11.938025749523309,0.0,0.15835939649999387,0.1,0.003089427947998047,0.06232929229736328,0.049346868,0.67279994,17.855467008248528,0.0,0.32795653545008463,0.0,300,0.01936054229736328,0.29006258000967133,0.28482010334567187,25500,21.273652819181393,0.0
85,1.5461230278015137,22.98094391587139,3.995008811693861,26.767303138356272,16.361740378961056,0.0,0.15703699471084934,0.1,0.0029821395874023438,0.058451175689697266,0.05036282,1.005214,18.368014699010814,0.0,0.3073836356593115,0.0,300,0.018624544143676758,0.2282870317047796,0.19041854581241877,25800,29.292617434823526,0.0
86,1.579240322113037,17.571364787157503,12.734791998702132,37.01084365568452,2.0910268935297096,0.0,0.15872308224866086,0.1,0.0029964447021484375,0.0625,0.050020043,1.2898935,18.288349707825486,0.0,0.23525657637001823,0.0,300,0.018605709075927734,0.43978897933529215,0.4474888077678526,26100,20.338442151172014,0.0
87,1.573333740234375,12.078736943602301,6.998734072301675,21.107291208567354,2.042773073631725,0.0,0.15131728152054671,0.1,0.0031926631927490234,0.06379938125610352,0.05006993,1.0022916,17.667388431403168,0.0,0.16202171841289922,0.0,300,0.017719507217407227,0.6174732481736271,0.5288840454580945,26400,9.364986076092901,0.0
88,1.626415729522705,9.765572559729694,2.6806017670825946,12.587311072656716,6.9532414112679675,0.0,0.1581453177814455,0.1,0.0030519962310791016,0.05934739112854004,0.05037439,1.0582522,16.877206844235822,0.0,0.13117086475080011,0.0,300,0.0177614688873291,1.1157395374510521,0.6139552086564903,26700,27.353479693950607,0.0
89,1.5357012748718262,12.91885597260754,6.657788351170555,18.44425662083443,2.038738646977981,0.0,0.16154240072969597,0.1,0.0030291080474853516,0.06080055236816406,0.049474422,0.7586085,16.481371757072996,0.0,0.17322230014065254,0.0,300,0.02056145668029785,0.34414092986005934,0.2919972422392207,27000,36.64787345685426,0.0
90,1.640516996383667,18.901762482070648,8.9260126016041,33.45271053589915,9.142252207705832,0.0,0.16577362523695927,0.1,0.002992391586303711,0.056784868240356445,0.05037166,0.8616602,16.72341082957276,0.0,0.2495850898669594,0.0,300,0.023291826248168945,0.39090950667844243,0.4027265568111738,27300,33.17816643902393,0.0
91,1.6123974323272705,11.933703133942943,10.233743899788145,25.533547392391313,1.9567897530863987,0.0,0.16011040224955542,0.1,0.003026723861694336,0.05905961990356445,0.04977286,1.8657428,16.24444006000978,0.0,0.16007375817258768,0.0,300,0.01740741729736328,0.5566974001772999,0.5495171479516723,27600,27.173247745186007,0.0
92,1.6195638179779053,12.576268899886905,10.614488614119622,23.44934255377447,1.9367582239093821,0.0,0.15488225195712427,0.1,0.002892732620239258,0.05992722511291504,0.050070547,1.1644063,15.877622943997492,0.0,0.16864207763368205,0.0,300,0.018297433853149414,0.48347180955483904,0.4757998160844785,27900,45.17409670949133,0.0
93,1.6576471328735352,10.559447606003944,6.965218121282202,20.02363406342344,2.1386324812285054,0.0,0.17141684027005977,0.1,0.003010272979736328,0.05968928337097168,0.049310178,0.8921111,15.345805410198139,0.0,0.14175061439567793,0.0,300,0.01821613311767578,0.5072132448921273,0.5047125930895723,28200,45.09012416566403,0.0
94,1.596102237701416,20.37505920817806,13.432601545108847,42.36173336384567,8.017757942953777,0.0,0.1463539490534515,0.1,0.003355264663696289,0.06287860870361328,0.05023542,1.257593,15.848730789996132,0.0,0.2692956810042264,0.0,300,0.018380403518676758,0.4697409588138651,0.45069561347522596,28500,45.14344169573638,0.0
95,1.5632283687591553,21.424953365548788,13.797792589272971,42.27314355559275,4.2076099859927405,0.0,0.1570026128282611,0.1,0.0031614303588867188,0.06057548522949219,0.04987576,0.87542856,16.4063530475514,0.0,0.2832812668162404,0.0,300,0.01821732521057129,0.4975313989495684,0.44221505299739483,28800,26.155904653416524,0.0
96,1.5686266422271729,18.761459654744417,3.153282763191268,24.06799739764536,15.95808811720553,0.0,0.1574122656235962,0.1,0.003314971923828125,0.060663461685180664,0.04895457,1.1838937,16.6418637082707,0.0,0.251108220968278,0.0,300,0.018995285034179688,0.11246657727043748,0.10200471079718179,29100,36.19726810043677,0.0
97,1.6427650451660156,29.74105767442427,7.530201275246401,37.99463768421815,21.050321777256002,0.0,0.15074617117733966,0.1,0.0030689239501953125,0.06096625328063965,0.049611118,0.67999345,17.951783104886058,0.0,0.39416571662411504,0.0,300,0.0181424617767334,0.25886786269577033,0.18429357718680325,29400,19.253354855913162,0.0
98,1.581998586654663,18.474548899852515,10.323697165342955,31.48383019991688,4.188046620726001,0.0,0.14584749075618464,0.1,0.0030667781829833984,0.06193065643310547,0.049626425,0.89397186,18.004059684382703,0.0,0.24727984960429264,0.0,300,0.01735830307006836,0.36483043890295885,0.4084742993378053,29700,22.228509905809094,0.0
99,1.5928704738616943,17.527051477528246,15.358908111610601,41.13511757264265,2.022364589595861,0.0,0.15705142798531643,0.1,0.0031855106353759766,0.061547040939331055,0.05013431,0.8204879,17.956358863697258,0.0,0.23132900988499105,0.0,300,0.01869964599609375,0.4641016406809299,0.4346215036582468,30000,31.216621231712327,0.0
100,1.6206331253051758,21.794890267351132,6.860145732642313,32.13303683638754,12.964624625246218,0.0,0.1568694522129279,0.1,0.003095388412475586,0.058942556381225586,0.04943799,1.347612,18.340212004062643,0.0,0.2882279354236849,0.0,300,0.018201112747192383,0.17516060036427614,0.17656779374664783,30300,44.136993299622304,0.0
101,1.6484489440917969,15.058381995262708,8.526288665338793,25.057575666552417,1.9307091876512226,0.0,0.14556675607531794,0.1,0.0031468868255615234,0.05940675735473633,0.049490955,1.1205105,18.01202900318265,0.0,0.201741040099659,0.0,300,0.018115520477294922,0.46281659070223913,0.41034871493828723,30600,49.12810184964625,0.0
102,1.5863759517669678,16.504129229213774,8.040438081836154,25.030776095697142,7.100375219895484,0.0,0.155418079172943,0.1,0.002892017364501953,0.05745339393615723,0.050131097,1.0001518,17.86123902578576,0.0,0.21769183448382462,0.0,300,0.017663002014160156,0.34628434485117654,0.30859279290218167,30900,34.18662763013606,0.0
103,1.6383891105651855,23.636969178024234,9.73853504788796,39.322233800246885,14.016364406622328,0.0,0.16177856312136155,0.1,0.0029833316802978516,0.05952906608581543,0.049628466,0.88557446,18.438812041009605,0.0,0.3094183165403474,0.0,300,0.01630687713623047,0.28126067912993796,0.2707328348834474,31200,23.175621661670863,0.0
104,1.633716106414795,9.983960172825855,6.734022381465326,18.12782156709524,1.9198459405967467,0.0,0.1679307491226705,0.1,0.0030448436737060547,0.06253218650817871,0.050563972,0.81863946,17.59332685419123,0.0,0.13408687318914356,0.0,300,0.018037080764770508,0.9221557178742704,0.8537407609819878,31500,10.33402663875755,0.0
105,1.6600217819213867,28.018641861213275,9.407352402693665,43.514316458236884,20.01212139903308,0.0,0.1705687480382548,0.1,0.003235340118408203,0.05913662910461426,0.049545847,0.5984625,18.635858354893433,0.0,0.3711050571789824,0.0,300,0.02227783203125,0.26309578147768753,0.25023880819491057,31800,2.184509449698424,0.0
106,1.652872085571289,40.456596462943686,8.411173461213702,48.3627789262625,26.52876231693546,0.0,0.17022695555569403,0.1,0.0033583641052246094,0.05871319770812988,0.05006235,0.65046513,20.81793216569846,0.0,0.5337066880382919,0.0,300,0.017498016357421875,0.3361156587605807,0.1892000101846988,32100,8.341403819551532,0.0
107,1.667907953262329,14.900119092686264,6.036595373432765,23.181768274497138,7.927682466535881,0.0,0.1517771574710906,0.1,0.004187583923339844,0.057694435119628906,0.0500822,0.72037125,20.22615085839724,0.0,0.19963951126025092,0.0,300,0.01837468147277832,0.6368836703124757,0.931597165751063,32400,10.293634934780998,0.0
108,1.7183661460876465,26.45562938342713,14.830217216349808,47.48175183769907,10.947640659848249,0.0,0.15434150532100172,0.1,0.003010272979736328,0.0713498592376709,0.04956084,1.7600734,20.84909871090023,0.0,0.3503545897930892,0.0,300,0.019085407257080078,0.29197057020126793,0.28579435372848633,32700,9.290897205710559,0.0
109,2.544696569442749,15.591667372655664,6.962902891529622,25.385300417727045,8.999710607886195,0.0,0.15150125539596923,0.1,0.008659839630126953,0.06157565116882324,0.049540415,0.7176826,20.323355577075773,0.0,0.20552359117975758,0.0,300,0.01834583282470703,0.4770682745454445,0.2932404637300073,33000,32.20609362784848,0.0
110,1.617769479751587,36.894335384017765,6.304048988257455,44.36625266255461,26.972485255945386,0.0,0.15692080560051566,0.1,0.003252267837524414,0.062494754791259766,0.049818788,0.72223276,21.980453557769973,0.0,0.4862282672569579,0.0,300,0.019778966903686523,0.2506418051489417,0.22348392626636004,33300,2.0302281760919736,0.0
111,1.6165270805358887,13.999310068101728,11.12824503883975,32.169641703628514,1.958262209733453,0.0,0.15395178049157607,0.1,0.0051708221435546875,0.05691885948181152,0.04981113,0.74282056,21.18233920880315,0.0,0.18760398112852986,0.0,300,0.017146587371826172,0.8576606197455581,0.834961194001573,33600,1.9696677162972367,0.0
112,1.635552167892456,9.489989347287217,5.067216262350325,14.984485914099412,1.9216726368896386,0.0,0.15778606248725585,0.1,0.0031354427337646484,0.06257486343383789,0.04967953,1.1778483,20.013104222651556,0.0,0.12083757169414468,0.0,300,0.019297122955322266,1.7484953516420403,0.9800073724650207,33900,1.9445043315450394,0.0
113,1.6396589279174805,18.69591525821837,11.418400397772004,35.27005090872394,6.10319499371615,0.0,0.16692425465127694,0.1,0.003151416778564453,0.06048941612243652,0.050162893,0.67841804,19.881385326208235,0.0,0.25021018082212537,0.0,300,0.019303321838378906,0.4944415718897686,0.4406153291795172,34200,1.95021127510746,0.0
114,1.670334815979004,10.572714898631824,4.627297373930169,17.298680327900485,5.23027401788527,0.0,0.149867234573151,0.1,0.0029709339141845703,0.06071209907531738,0.04958823,0.63169444,18.950518283450595,0.0,0.14193868682083147,0.0,300,0.017651796340942383,0.7884688457921082,0.4554758897503379,34500,1.998867192778591,0.0
115,1.655810832977295,25.07786409146514,13.790023147295184,42.02363350844684,9.036846637916527,0.0,0.15619656361548953,0.1,0.003022909164428711,0.05924248695373535,0.04986109,0.8452112,19.56325286425205,0.0,0.33533645207055174,0.0,300,0.017662525177001953,0.4761112468557503,0.49123848650625035,34800,1.9784709025757232,0.0
116,1.6966791152954102,13.030962733666994,8.164436822665477,21.461130025525865,2.0239756159842597,0.0,0.15358563273605488,0.1,0.003037691116333008,0.057875633239746094,0.050048478,0.8736959,18.910023851193543,0.0,0.1747009156328817,0.0,300,0.019175291061401367,0.3757955919616379,0.3726015890448017,35100,2.000957447835059,0.0
117,1.6483397483825684,11.620898101432577,8.31279160753032,21.355178932437248,1.913098279143743,0.0,0.16166045076100322,0.1,0.003083944320678711,0.060286760330200195,0.050081413,0.7922018,18.181111276217447,0.0,0.1558771376651113,0.0,300,0.017868995666503906,0.38033440442596606,0.3736539540956063,35400,1.987137880207367,0.0
118,1.6877593994140625,28.17100906877097,12.041138149477673,41.305760647805684,8.94373118571902,0.0,0.1655995361312978,0.1,0.0030031204223632812,0.06624603271484375,0.050282646,0.5669938,19.1801010554728,0.0,0.37322362905056217,0.0,300,0.01809525489807129,0.4475769366312811,0.3781026070064222,35700,1.9978811867698418,0.0
119,1.7631185054779053,29.21559989548295,12.04336485713524,42.12980875502823,11.968343372535491,0.0,0.16623327886697895,0.1,0.0029468536376953125,0.057390689849853516,0.05049821,0.682175,20.183650939473818,0.0,0.38384242158385057,0.0,300,0.017401456832885742,0.4104420877455798,0.30190478157080314,36000,1.9676364825344763,0.0
120,1.6888439655303955,18.578502715542704,4.558151107138785,25.61892883644633,14.145835556756628,0.0,0.17215877936915983,0.1,0.003038167953491211,0.056757450103759766,0.049888816,0.6936075,20.023136117080707,0.0,0.24864846208270086,0.0,300,0.017310380935668945,0.35298482244105345,0.45688014440307356,36300,2.125422971784793,0.0
121,1.582336187362671,14.893587222902227,9.656225806804967,27.263563708958056,1.9324498429567434,0.0,0.15050017906717877,0.1,0.0029630661010742188,0.05614066123962402,0.049540278,1.2231055,19.51018122766286,0.0,0.199541564335325,0.0,300,0.017059803009033203,0.5516361967914059,0.49003672456906816,36600,2.1828754445962564,0.0
122,1.5741407871246338,17.80646473279362,10.962133477846926,32.091636990830445,2.005453621117707,0.0,0.1571796736272339,0.1,0.002841949462890625,0.05554533004760742,0.050358407,1.1485202,19.339809578175934,0.0,0.23838234292077362,0.0,300,0.017438650131225586,0.3695968128610071,0.32260867260304105,36900,2.147114426663894,0.0
123,1.500999927520752,19.217624240544993,11.037479878943035,33.24437688207969,5.985687363248246,0.0,0.1569316591559479,0.1,0.0031404495239257812,0.05948138236999512,0.04965995,0.95691764,19.32759104441284,0.0,0.25719715020522765,0.0,300,0.017180681228637695,0.3764221568462766,0.37292657473045904,37200,2.144553828123709,0.0
124,1.5143554210662842,14.898676800851643,11.47496245849453,33.38640593150758,1.9441823616044427,0.0,0.14256699035591144,0.1,0.003141164779663086,0.0581822395324707,0.04970979,2.3982036,18.884699620056722,0.0,0.19628271254771779,0.0,300,0.017083168029785156,0.615807798233168,0.5889143800771122,37500,9.228056672816251,0.0
125,1.723897933959961,17.617600314564097,10.900502183691051,34.01756558757309,7.137188613493763,0.0,0.16722855051191782,0.1,0.003172636032104492,0.06043267250061035,0.050000656,0.8304878,18.75798968950746,0.0,0.23253982751071572,0.0,300,0.017782926559448242,0.39405513639412826,0.3915794441757719,37800,2.2040884904476092,0.0
126,1.5949723720550537,15.840781818141696,8.461232078885166,25.000560715217183,2.061263437877716,0.0,0.1568417568725557,0.1,0.0030755996704101562,0.05789685249328613,0.04997133,0.85819054,18.466268902370885,0.0,0.21210768507211572,0.0,300,0.01897454261779785,0.2544509919281887,0.2544632318389335,38100,2.2365220150662948,0.0
127,1.5796077251434326,17.77101677633325,10.25546994816479,35.27939792460715,9.109575318640292,0.0,0.15839752487239,0.1,0.002894878387451172,0.06072258949279785,0.04943783,1.5172931,18.396743689767124,0.0,0.23783672782947243,0.0,300,0.0173342227935791,0.4049474403010291,0.39922572789833705,38400,2.0533007122816898,0.0
128,1.6836183071136475,18.85068299118888,9.169526405804415,30.990458058395582,5.160036145170222,0.0,0.15663208039124474,0.1,0.003161191940307617,0.058823585510253906,0.050053403,0.731037,18.4421376199093,0.0,0.25229432441567423,0.0,300,0.01778697967529297,0.3475599790276369,0.33525900518868573,38700,2.0796546552376545,0.0
129,1.5950021743774414,28.564615855604256,11.29015395281221,43.17086573884637,13.970551980484505,0.0,0.15028367830687636,0.1,0.002980947494506836,0.05895805358886719,0.050279412,1.1222275,19.454385443478795,0.0,0.38182853065121036,0.0,300,0.0172274112701416,0.3451655244127059,0.28738671313993797,39000,2.085329546042608,0.0
130,1.7259697914123535,16.166747402054224,6.0907653791766,23.126137704157195,6.401536804834982,0.0,0.1558318580340725,0.1,0.003000497817993164,0.06375575065612793,0.04963162,0.72087884,19.125621639336337,0.0,0.21649354788780484,0.0,300,0.018782377243041992,0.33868817122117134,0.40586186941104924,39300,30.47099730385776,0.0
131,1.7263257503509521,11.7319064533189,10.326083034277039,29.140378637305755,2.0929802939435467,0.0,0.16020168931547427,0.1,0.003079652786254883,0.06761026382446289,0.049976323,0.92595273,18.386250120734594,0.0,0.15739271346414527,0.0,300,0.01941370964050293,1.0242904489361766,0.7990603037106931,39600,14.145400819810575,0.0
132,1.7369134426116943,10.623190978273417,7.736839388393665,23.120949510615414,1.9443706631807243,0.0,0.16291970733370117,0.1,0.003021717071533203,0.058510541915893555,0.04943462,0.8376204,17.60994420648848,0.0,0.13921868771369517,0.0,300,0.018416404724121094,0.9175424668227167,0.6621344736557385,39900,11.49112926423051,0.0
133,1.7229442596435547,20.770829019298965,5.981244160927455,26.370940957287562,11.25969207894925,0.0,0.16291013529178602,0.1,0.0029654502868652344,0.05750107765197754,0.049481392,0.79570717,17.926032687769528,0.0,0.2779001711141402,0.0,300,0.01762866973876953,0.22221914883727073,0.25480293937214865,40200,14.228721250055711,0.0
134,1.6862843036651611,12.32036116508969,6.240061348347074,21.231261839821453,4.047298727620049,0.0,0.14769316967072318,0.1,0.002878904342651367,0.05627751350402832,0.04981847,1.085639,17.365465535501546,0.0,0.16523489077290823,0.0,300,0.01660919189453125,0.41771682429900764,0.3887979323019999,40500,12.165861404764359,0.0
135,1.7201812267303467,15.297954341690442,9.894467377835452,27.0067378020209,1.9381476893324363,0.0,0.16012011559369752,0.1,0.003042459487915039,0.05641984939575195,0.049412645,0.7611346,17.158714416120436,0.0,0.20494032247758276,0.0,300,0.01810908317565918,0.40209408560171245,0.4059497367262042,40800,12.212764209113756,0.0
136,1.7258074283599854,22.193381836666703,10.474863576069144,39.275446539988046,13.012614416808919,0.0,0.1600261245610388,0.1,0.0030298233032226562,0.05703306198120117,0.04930512,0.95197856,17.662181158175063,0.0,0.29687791329389723,0.0,300,0.017836809158325195,0.40587384336489035,0.38083702485548376,41100,16.355162523227936,0.0
137,1.734252691268921,23.73693616686146,14.002866834912796,40.56460944652548,1.9916864207153335,0.0,0.16303743645723254,0.1,0.0029921531677246094,0.0589756965637207,0.05061671,0.7768995,18.269656659043704,0.0,0.31073858991474207,0.0,300,0.0222017765045166,0.43191449925761405,0.3786225151516403,41400,8.590905723128884,0.0
138,2.956279993057251,15.402089938096472,14.2805777614366,39.3117417985237,1.9660894819040298,0.0,0.15326244432224684,0.1,0.0030336380004882812,0.058990478515625,0.049111225,1.2806009,17.98289998694898,0.0,0.20299187750762984,0.0,300,0.020365238189697266,0.4662575419169925,0.457374814753603,41700,19.456031374078208,0.0
139,1.7043242454528809,17.966114816590487,9.259613300841268,26.40204636131644,4.037849547828286,0.0,0.15690228236492565,0.1,0.003067493438720703,0.05870485305786133,0.049863484,0.73299634,17.98122146991313,0.0,0.23716207793921693,0.0,300,0.017374753952026367,0.2618185811233241,0.2637646839388077,42000,14.364052568802924,0.0
140,1.6829676628112793,24.031124551233916,11.204384918220365,37.698202298265535,10.314142260561171,0.0,0.14898469514046586,0.1,0.0031986236572265625,0.06463789939880371,0.049753916,1.2788978,18.58621177804521,0.0,0.3180487157744684,0.0,300,0.019201993942260742,0.31655074158050706,0.29237146592031427,42300,8.554108497351391,0.0
141,1.7498843669891357,24.125877284051192,14.51058481704328,37.98936731307793,1.9365219009879666,0.0,0.16140653003033625,0.1,0.0032224655151367188,0.0729057788848877,0.050381657,0.96994567,19.14017832864581,0.0,0.31928638423030997,0.0,300,0.024209976196289062,0.36208086124726496,0.33921651181790735,42600,16.35750349811923,0.0
142,1.6739623546600342,12.40163690518407,4.348370341680829,17.862883152621393,7.993126031848345,0.0,0.1606910826676121,0.1,0.0030422210693359375,0.06228804588317871,0.049120966,0.640299,18.466324186299637,0.0,0.16622423535531056,0.0,300,0.019117355346679688,1.0013488775702888,0.8666940495082892,42900,20.496082932794142,0.0
143,1.6924757957458496,17.18544351194097,13.502520932429503,34.22862077084137,1.944661744565313,0.0,0.1555801564284377,0.1,0.003281831741333008,0.06067252159118652,0.050108694,0.8267985,18.338236118863772,0.0,0.22677294037238058,0.0,300,0.019762516021728516,0.5305550303811951,0.5120586473274663,43200,15.501390517580633,0.0
144,1.6999361515045166,17.905177068695544,3.7811124973214096,21.25406253630267,12.024133793274746,0.0,0.1473677646777031,0.1,0.0029938220977783203,0.058439016342163086,0.050080743,0.866877,18.29493021384695,0.0,0.23629556912773775,0.0,300,0.018170833587646484,0.11128066374278132,0.11155327713139611,43500,15.423732044179664,0.0
145,1.7879092693328857,15.721502254710698,8.643929981106448,25.217686413092075,3.282549210721736,0.0,0.16844221381219412,0.1,0.003133535385131836,0.06424140930175781,0.049291622,0.9198763,18.037587417933324,0.0,0.20391929008659787,0.0,300,0.018085956573486328,0.31784846969794484,0.29819661985855184,43800,17.264700697220917,0.0
146,1.7935895919799805,12.53635269658457,3.932593278780323,16.153256658780272,6.011067988193095,0.0,0.14638929895631642,0.1,0.002938508987426758,0.0658113956451416,0.0499175,0.85353494,17.48746394579845,0.0,0.1681224998640023,0.0,300,0.019887924194335938,0.36777831608447303,0.27352600463413523,44100,13.194313643009545,0.0
147,1.8291096687316895,11.21498608157134,4.068346745907652,17.532960333253353,7.132181453320998,0.0,0.1556306669958279,0.1,0.002997875213623047,0.05885434150695801,0.04964318,0.8395801,16.86021615937574,0.0,0.1503968188654305,0.0,300,0.018212556838989258,0.4844303117859371,0.37080367315525553,44400,16.179173162415143,0.0
148,1.8107309341430664,16.14752749707649,11.655657769810595,35.341012487514504,5.05932073652137,0.0,0.1574163203268331,0.1,0.0030167102813720703,0.05897927284240723,0.049964122,0.98004353,16.788947293145814,0.0,0.21626193230815066,0.0,300,0.0188446044921875,0.39020786265913354,0.40015012148710866,44700,18.331264611739275,0.0
149,1.8128418922424316,18.004084640587926,16.48435008459089,45.36607120643233,1.9957946253451146,0.0,0.14886818322315273,0.1,0.0032205581665039062,0.058992624282836914,0.050236844,1.1824032,16.910461027890026,0.0,0.23768925258180676,0.0,300,0.02133774757385254,0.5357946135712295,0.5188520410097747,45000,14.23385776868784,0.0
150,1.8478987216949463,13.111538863025501,6.48818567457932,22.340973505823083,6.056328094211247,0.0,0.15997938386810556,0.1,0.003130197525024414,0.05949568748474121,0.050062265,0.8785201,16.530568811403572,0.0,0.17576618990640233,0.0,300,0.017553329467773438,0.31188357014519735,0.326461271858536,45300,15.237977875004754,0.0
151,1.8345465660095215,21.08180347300515,9.918981268670395,36.13641949653581,8.402916847907832,0.0,0.15176447162198686,0.1,0.0029518604278564453,0.05804944038391113,0.049285173,1.029552,16.985692277563732,0.0,0.27872142802293487,0.0,300,0.01695418357849121,0.33041712778789006,0.3028217999424037,45600,22.2116135393517,0.0
152,1.8783202171325684,28.193384941296962,13.662804206022699,49.78650826455276,13.56092237286023,0.0,0.1580070630001612,0.1,0.0030739307403564453,0.06271648406982422,0.049800735,1.0579296,18.106461543937055,0.0,0.3735375027851355,0.0,300,0.023212671279907227,0.42354904962981216,0.3777171681226733,45900,17.258213866396996,0.0
153,1.6896858215332031,17.63143170163058,13.237358128642068,39.30807137146258,6.238763269569626,0.0,0.16411892935141947,0.1,0.0032958984375,0.058908700942993164,0.049466506,1.0293543,18.058958559706408,0.0,0.23604671587437678,0.0,300,0.01752471923828125,0.4952324400276973,0.49259676461715685,46200,51.156441511222305,0.0
154,1.8298821449279785,9.858224860247875,7.294027084916001,21.543224955340662,1.927656864896941,0.0,0.1568860120158307,0.1,0.0032346248626708984,0.061951637268066406,0.0505737,0.89085114,17.238885189760556,0.0,0.13241279720053273,0.0,300,0.020155906677246094,1.4566894652247249,1.2105969404159462,46500,12.542980777575218,0.0
155,1.711235523223877,24.523168126866384,15.291432286791432,42.50802836993249,2.0164806602514465,0.0,0.157741649774869,0.1,0.0032057762145996094,0.05922508239746094,0.049936347,0.9174278,17.967313483471138,0.0,0.3279192874819252,0.0,300,0.019133567810058594,0.34095236649235433,0.34852019427079617,46800,37.637670459723275,0.0
156,1.7945044040679932,28.727516028084125,9.788339089860985,40.26078001767113,17.100469097415964,0.0,0.15517492139873534,0.1,0.005049228668212891,0.0788421630859375,0.04981407,0.7681222,19.04333373793244,0.0,0.38066940461444404,0.0,300,0.01816558837890625,0.31497683737847415,0.24588692946055857,47100,54.89421009361153,0.0
157,1.8469820022583008,19.46002351207219,10.712921627877735,30.060362565022146,1.973612907003121,0.0,0.15648121090607425,0.1,0.0031316280364990234,0.06105208396911621,0.05000781,0.8325844,19.085002715346416,0.0,0.26042822947539723,0.0,300,0.021824121475219727,0.314719729068849,0.3302022937230084,47400,24.271834366561723,0.0
158,1.7746531963348389,14.942869307050454,8.019537471822938,24.04255853596712,2.0467701181353877,0.0,0.15678357086504804,0.1,0.003132343292236328,0.06361126899719238,0.049752336,0.7129818,18.67078937451682,0.0,0.20020251954245477,0.0,300,0.019855499267578125,0.6084467042155669,0.5383618252012342,47700,42.63315096418445,0.0
159,1.7650337219238281,12.580181970020243,5.424800162006759,20.1797854891697,5.1369268129271815,0.0,0.16485193107079907,0.1,0.007088661193847656,0.06975293159484863,0.05011815,0.5963824,18.061728634067162,0.0,0.16867403374366535,0.0,300,0.021491289138793945,0.8838597097074377,0.4719629920464832,48000,45.30418892319756,0.0
160,1.7613568305969238,22.455685163161686,8.054458144464363,35.70753521526248,14.271433027800416,0.0,0.1600215277815211,0.1,0.0030298233032226562,0.06253194808959961,0.050151385,0.73212147,18.501124286976616,0.0,0.29703807449002684,0.0,300,0.01802968978881836,0.21151384794434885,0.2317582789582273,48300,21.59173511433892,0.0
161,1.8508095741271973,21.642271029799033,7.643702317402328,30.06590526779847,10.073369466420317,0.0,0.15682053064454202,0.1,0.0029153823852539062,0.06147503852844238,0.049936354,0.7136876,18.81523896125886,0.0,0.28951708608331866,0.0,300,0.017548799514770508,0.2063253687190682,0.20012518480218275,48600,34.55349049218278,0.0
162,1.8368573188781738,20.933070589769283,7.023791364918096,28.07074596083439,10.273527196658899,0.0,0.15326488199857327,0.1,0.0030450820922851562,0.059206485748291016,0.049885787,0.83179796,19.027022124109905,0.0,0.28007663695441815,0.0,300,0.01800704002380371,0.18683712235717265,0.17968598121622847,48900,25.59720440499841,0.0
163,1.856428861618042,23.128022739765523,9.867655981538963,37.90550709148123,11.162964584187332,0.0,0.16868969271518613,0.1,0.0031244754791259766,0.06415200233459473,0.050367106,1.013671,19.437122185675467,0.0,0.30919477932986733,0.0,300,0.017918825149536133,0.22946002099960286,0.21917852110926542,49200,36.39291016622173,0.0
164,1.8226354122161865,23.73602228754453,6.1628444695984,34.11845602744205,18.3566739796447,0.0,0.15736787038797162,0.1,0.0029463768005371094,0.0630795955657959,0.049871553,0.8155051,19.867012195862372,0.0,0.3174509696194212,0.0,300,0.018222808837890625,0.174938747304435,0.1589759322456241,49500,20.607402261466977,0.0
165,1.8140020370483398,32.20801908728195,11.37688987315178,46.41341303386904,19.171572093939446,0.0,0.14858725707528705,0.1,0.0029020309448242188,0.0596003532409668,0.050820194,1.0884434,21.10111288500433,0.0,0.43040286327253563,0.0,300,0.01706099510192871,0.2467572055402364,0.18574601095232768,49800,22.35931061889016,0.0
166,1.8281261920928955,26.269898091779933,8.896358585460074,37.23830564008579,13.110499122910346,0.0,0.15823619698797453,0.1,0.0030798912048339844,0.05575418472290039,0.04922861,0.82837546,21.617991405681888,0.0,0.347880836673318,0.0,300,0.0172116756439209,0.21285022527375658,0.22547536045639394,50100,22.47053625307589,0.0
167,1.8321878910064697,28.90403644833792,13.133277254631171,49.176624057774625,15.027387319662754,0.0,0.151570803809562,0.1,0.002878427505493164,0.0580441951751709,0.05045075,1.0401586,22.346595909947492,0.0,0.38301929440880755,0.0,300,0.017613649368286133,0.18609200100856957,0.17630886247815097,50400,16.31085598017012,0.0
168,1.765293836593628,11.622202464072657,4.462237049056534,16.068241970063422,6.20971407554703,0.0,0.16329717747563297,0.1,0.0031480789184570312,0.06179547309875488,0.05029088,0.77850294,21.27415656536001,0.0,0.15593400801796395,0.0,300,0.021434783935546875,4.12683157422274,2.286087296028262,50700,47.6721693227415,0.0
169,1.7779650688171387,11.28194875024159,9.947677139065394,26.087049810490697,1.933161702637285,0.0,0.1555693743976864,0.1,0.0031838417053222656,0.06795907020568848,0.050083403,0.65098226,20.274935783848168,0.0,0.15139290311145476,0.0,300,0.017770051956176758,1.616274973883353,0.8353815248256876,51000,17.50534251239188,0.0
170,1.7731828689575195,24.65227212325955,15.274297070243518,47.552671879192715,5.084791637424019,0.0,0.14871932530329324,0.1,0.003051280975341797,0.06304359436035156,0.04978359,1.4897825,20.712669417789307,0.0,0.32966185124050157,0.0,300,0.020598173141479492,0.3803676874854676,0.4392070274699578,51300,33.60265906980168,0.0
171,1.769831657409668,14.228988156959169,7.413755230038158,22.120907119559536,2.1053372508220005,0.0,0.15797999229043733,0.1,0.0030443668365478516,0.059537649154663086,0.049421553,0.72472215,20.064301291706293,0.0,0.18734160916989762,0.0,300,0.018429040908813477,0.2772370637317067,0.26661464310607824,51600,14.357763911894892,0.0
172,1.7313048839569092,11.050540726516745,6.485454020005607,20.020101548135766,3.0396867647061634,0.0,0.1551154023220344,0.1,0.003020763397216797,0.06137871742248535,0.05042518,1.243283,19.16292523518734,0.0,0.14497717327894438,0.0,300,0.020372629165649414,0.4498371600945944,0.42106747922657,51900,19.206398900515705,0.0
173,1.8072667121887207,6.195387294949885,1.3461386681929008,7.322782562075293,3.9973222024644386,0.0,0.15465980685252192,0.1,0.002988100051879883,0.05683493614196777,0.050306182,0.7029235,17.866171441163594,0.0,0.08021925898294452,0.0,300,0.017429590225219727,1.6445937489334832,1.2232482271663687,52200,24.063299496364326,0.0
174,1.7987854480743408,12.779092333405028,16.51248420111606,41.26478839094454,2.072122480604506,0.0,0.15097741230253983,0.1,0.002986907958984375,0.06582975387573242,0.049471058,1.2470764,17.357463530387736,0.0,0.16800924146765348,0.0,300,0.02422952651977539,0.7314544122132934,0.7321492862595659,52500,23.18807739101744,0.0
175,1.8239805698394775,20.34152826200512,13.61441638950635,43.06929755344167,7.126231112546749,0.0,0.16381383381271025,0.1,0.003031015396118164,0.05884361267089844,0.049643718,1.1263326,17.655870003549474,0.0,0.2653442180807495,0.0,300,0.01777935028076172,0.5228043720472083,0.5075403575519669,52800,13.443271734722893,0.0
176,1.8523361682891846,26.974730946042477,11.552107244358076,40.26035045718931,9.131484426468209,0.0,0.1402776250279345,0.1,0.002980470657348633,0.06203103065490723,0.049741004,1.1426587,18.587756097798774,0.0,0.35726337177490053,0.0,300,0.021587133407592773,0.5016588075809032,0.4189898080220715,53100,28.591224031166902,0.0
177,1.7637135982513428,20.37150836862579,13.532862104904558,39.02474234376681,2.070348558565119,0.0,0.15715561694069097,0.1,0.0029032230377197266,0.05843687057495117,0.050353996,0.94952697,18.766131324881478,0.0,0.272590497275272,0.0,300,0.01739645004272461,0.44027546302666554,0.3668416503677046,53400,17.318733939031336,0.0
178,1.8744263648986816,26.54269942777005,13.743272609513788,40.6332374247791,9.056588317891823,0.0,0.15769189855644067,0.1,0.003028392791748047,0.0594940185546875,0.04976358,0.8017435,19.543788135170338,0.0,0.351540741750328,0.0,300,0.02033376693725586,0.3796108056297879,0.30608087456338656,53700,49.30757891270082,0.0
179,1.8088791370391846,16.008772670482188,5.849529903106319,24.37255736046242,8.024587669010828,0.0,0.15530656039603205,0.1,0.003070354461669922,0.06386041641235352,0.050428312,0.81865835,19.190286588701525,0.0,0.21108358252067713,0.0,300,0.017989397048950195,0.43699704556365265,0.5302750811301746,54000,21.101336950126317,0.0
180,1.8254668712615967,22.47264035082411,9.101609443617155,35.13799817761692,9.423982160742433,0.0,0.15359674186366945,0.1,0.003103494644165039,0.060575008392333984,0.04952802,0.8337397,19.518521964913788,0.0,0.2972314571849325,0.0,300,0.02015852928161621,0.170531624612657,0.16928050803828282,54300,49.02287835904874,0.0
181,1.8174610137939453,20.59608610343902,10.270454259572572,36.00828122085481,7.24608119562539,0.0,0.15046296942122506,0.1,0.003133535385131836,0.059890031814575195,0.05005374,1.1500958,19.62627837876631,0.0,0.27558465686890443,0.0,300,0.018978118896484375,0.2971942455574249,0.2912363223954256,54600,31.06053474080515,0.0
182,1.8438694477081299,22.219505562850664,2.7675253841026315,26.07356435956379,18.563542490719247,0.0,0.1589230326382238,0.1,0.0030248165130615234,0.05762815475463867,0.049563676,0.8056352,19.885601097174746,0.0,0.29722602630746264,0.0,300,0.020457029342651367,0.07402713478173459,0.06956733162101007,54900,16.23803451816539,0.0
183,1.8083937168121338,13.774924425291701,3.7579433596562666,20.020299281460343,10.044400978142091,0.0,0.16051980241929423,0.1,0.003020048141479492,0.05934000015258789,0.05019401,0.8159168,19.27453342998644,0.0,0.1846372949612566,0.0,300,0.020661115646362305,0.6530639334928197,0.4388673348075723,55200,27.411995301633297,0.0
184,1.7491490840911865,19.669069922386484,13.265978958514497,37.07789267134243,6.251280071107089,0.0,0.1532791069577348,0.1,0.0034134387969970703,0.07864832878112793,0.049187183,0.7417768,19.313987079226447,0.0,0.26322570326430855,0.0,300,0.019086122512817383,0.32684102819582156,0.331008706214594,55500,22.3042181319984,0.0
185,1.7868947982788086,7.755548389127316,4.137414286972799,12.971055361895601,1.9215947421832347,0.0,0.15852019964488337,0.1,0.003167867660522461,0.06168246269226074,0.049896393,0.48297063,18.158143210216537,0.0,0.10437613196306703,0.0,300,0.018461942672729492,2.8121107264954692,1.9243926013817478,55800,28.64370021023974,0.0
186,1.8067100048065186,25.707539690530254,9.50415477178132,41.31589961797724,17.135104877331067,0.0,0.1430600898906188,0.1,0.003076791763305664,0.06807208061218262,0.049599476,1.1626314,18.91308285824791,0.0,0.3370448320701223,0.0,300,0.02060389518737793,0.3195036785024798,0.3309159386653026,56100,37.315858654059454,0.0
187,1.745664358139038,25.88166823788842,11.792837665077958,42.790760115780024,11.452920872051763,0.0,0.1491246102899026,0.1,0.0032243728637695312,0.06802868843078613,0.049342014,0.9970099,19.609941396211962,0.0,0.3426921703240619,0.0,300,0.02367544174194336,0.4093771754850552,0.3537288643477799,56400,26.37504014392732,0.0
188,1.7588515281677246,26.173340103707442,19.972069867259904,48.60692294242669,2.0848715822571586,0.0,0.15904162440964978,0.1,0.003354787826538086,0.06550335884094238,0.049804397,0.81746435,20.26628126696151,0.0,0.3431771056409066,0.0,300,0.01834893226623535,0.5189297582842336,0.44625157903518115,56700,14.96669959187406,0.0
189,1.8050532341003418,25.52526249071649,13.754599282617557,44.23230115097287,7.363073375516917,0.0,0.1541881322823902,0.1,0.003111600875854492,0.06790280342102051,0.04952829,0.80289316,20.792179389337008,0.0,0.3413012734905617,0.0,300,0.019086837768554688,0.2580633554087794,0.22904056212790974,57000,43.043006224981006,0.0
190,1.8000819683074951,22.644799214985884,13.401764525185033,41.842311710603475,3.944696475825028,0.0,0.14802919193291644,0.1,0.0031960010528564453,0.060930490493774414,0.050178114,0.7683511,20.977441371901897,0.0,0.30289703125639067,0.0,300,0.021016836166381836,0.33070308537839366,0.3511876582684821,57300,29.047290241729808,0.0
191,1.8564400672912598,9.706689785982014,10.282012065013237,27.142553113043963,2.0502336465190636,0.0,0.15651619287360172,0.1,0.002996683120727539,0.06104445457458496,0.04978908,0.99804497,19.850366213309908,0.0,0.13037982399255338,0.0,300,0.01986980438232422,2.3802359530941226,1.5469167973684168,57600,16.022848122941017,0.0
192,1.8642685413360596,14.943017214258091,11.991863326482,34.265096845234964,1.9137241044387034,0.0,0.15260532770929117,0.1,0.0029816627502441406,0.06564784049987793,0.04999323,0.8810683,19.359631313404726,0.0,0.19686151887483497,0.0,300,0.023590564727783203,0.6952724684088395,0.5213914345782105,57900,20.497707283950888,0.0
193,1.8719148635864258,18.93523422235104,16.985444607667997,39.23761474496414,1.949690142281257,0.0,0.15343356976957848,0.1,0.0030541419982910156,0.06318521499633789,0.04985537,0.77562916,19.31719160429936,0.0,0.25325818015352525,0.0,300,0.018999099731445312,0.43899958100474107,0.4609514421998848,58200,25.08105701652209,0.0
194,1.8738501071929932,33.43245345513393,10.66587850228829,44.37194997247783,19.992571586286942,0.0,0.1536183191167254,0.1,0.0030846595764160156,0.059458255767822266,0.050425764,0.7983286,20.72871778938282,0.0,0.4400424741441348,0.0,300,0.018546581268310547,0.3676765711948723,0.31549441592385075,58500,44.35879013050164,0.0
195,1.8666636943817139,15.11896013196499,4.224588861446708,20.126621919906047,10.00676651092103,0.0,0.1543390772699653,0.1,0.003362417221069336,0.05834174156188965,0.04986541,1.0747086,20.167742023641036,0.0,0.20255758279791047,0.0,300,0.018234968185424805,0.2379262935784594,0.31921586612364694,58800,16.99530637202895,0.0
196,1.7558619976043701,19.122013955712625,3.176498336069353,23.050796437780566,14.257285403459313,0.0,0.15638632585227705,0.1,0.0032858848571777344,0.0637350082397461,0.049958758,0.99176675,20.063169216848195,0.0,0.25592353691471825,0.0,300,0.034165382385253906,0.10668740537099516,0.10527199185093089,59100,19.952817907009976,0.0
197,1.871917963027954,20.773828573125954,8.547766350608583,31.39968922873655,8.640700512136311,0.0,0.14476295107650444,0.1,0.003154277801513672,0.06145930290222168,0.050129987,1.1717956,20.134235152475974,0.0,0.27795012091854826,0.0,300,0.025760889053344727,0.3547672292442412,0.3475263785861059,59400,43.98843089892687,0.0
198,1.9134023189544678,23.0143800637362,10.776787319202061,40.121378382446395,10.45304535676457,0.0,0.1519402476654397,0.1,0.00292205810546875,0.05733680725097656,0.049513724,0.93983215,20.422249643601997,0.0,0.3044757605456392,0.0,300,0.018288850784301758,0.20131676725308303,0.1907989030476477,59700,15.967311657395102,0.0
199,1.7880661487579346,7.3951930244571376,2.0086499687296153,9.251259940453144,4.003021349131105,0.0,0.16635069374868325,0.1,0.0027997493743896484,0.05652570724487305,0.049467128,0.54130375,19.119543981687514,0.0,0.09618488444467774,0.0,300,0.018758058547973633,4.504181497353665,3.6139743568783977,60000,45.03014577885822,0.0
200,1.9005126953125,21.919684836198748,15.254295224195424,46.35891210527259,5.016326166726321,0.0,0.1593565392788535,0.1,0.002919435501098633,0.057403564453125,0.050275955,1.157627,19.39955806713864,0.0,0.2898753364986144,0.0,300,0.019469261169433594,0.3937675248946917,0.40383284189462204,60300,40.088274653669494,0.0
201,1.8669202327728271,32.301960865678694,8.604703296055593,46.295707022468534,24.21232190104872,0.0,0.14310430484605646,0.1,0.0030050277709960938,0.062168121337890625,0.050109725,0.93404967,20.689798346992642,0.0,0.4249965517558673,0.0,300,0.02423405647277832,0.31531809008083045,0.26018644636102917,60600,20.97995822702811,0.0
202,1.733332872390747,23.506031436725813,12.393645557280193,44.17465606090596,12.052138408992345,0.0,0.16364073098754556,0.1,0.0030584335327148438,0.057352304458618164,0.04962459,0.87057555,20.971421655965962,0.0,0.3110272636315016,0.0,300,0.02185845375061035,0.3184650895611232,0.3139723919671488,60900,24.01169459421678,0.0
203,1.7559382915496826,16.630749403250885,13.122364926915076,37.193683559418645,2.284123026094952,0.0,0.15182777415471813,0.1,0.003113269805908203,0.06034660339355469,0.05006643,1.0146605,20.537354430694457,0.0,0.21938009190338087,0.0,300,0.01890087127685547,0.5789257095656009,0.5593241652451814,61200,14.977144129018965,0.0
204,1.7856717109680176,14.035910157499833,9.543543652393637,25.048520248432723,2.1090382250732276,0.0,0.15824879501360817,0.1,0.0031855106353759766,0.06225419044494629,0.050189923,0.61809653,19.887210003374996,0.0,0.18811278276175988,0.0,300,0.018938541412353516,0.6488210699481428,0.48398984003846873,61500,17.981416132995772,0.0
205,1.7743279933929443,21.46864287499195,12.845803959204138,33.203244234446565,2.1179592949996544,0.0,0.15046190553381322,0.1,0.003217935562133789,0.06192278861999512,0.049659986,0.83468044,20.045353290536692,0.0,0.2838435926411152,0.0,300,0.019407033920288086,0.38133119987113323,0.3780882920679505,61800,18.962392198637257,0.0
206,1.78305983543396,14.724827791239589,9.207595760918093,25.386037737163893,5.0970804481190966,0.0,0.1470182120830448,0.1,0.0033016204833984375,0.06393957138061523,0.05002209,0.64465046,19.51330074060698,0.0,0.1939475482628421,0.0,300,0.02358412742614746,0.410340728586979,0.3688150174473511,62100,45.99836982195574,0.0
207,1.7746427059173584,27.677402496829487,11.873796056009246,40.24227417703688,8.535167026435428,0.0,0.15631052192760053,0.1,0.0032334327697753906,0.06179547309875488,0.050014146,0.75159013,20.32971091622923,0.0,0.3666644800523687,0.0,300,0.02093362808227539,0.335775128880437,0.32650262620925546,62400,49.000162688505156,0.0
208,1.8214659690856934,24.967877554258077,11.236527410187632,44.309861823396226,16.575643416498522,0.0,0.1532373790546599,0.1,0.004513263702392578,0.059438467025756836,0.050278198,1.1737481,20.793527580032116,0.0,0.33053834242687746,0.0,300,0.025868892669677734,0.2959543161551916,0.255990567154774,62700,28.077622179027383,0.0
209,1.8252756595611572,20.971187078847485,1.018427296544471,22.192043756853842,19.36663639526628,0.0,0.15086093026539268,0.1,0.0033566951751708984,0.05845332145690918,0.049783822,0.72117114,20.811293529913655,0.0,0.2805557501836452,0.0,300,0.020165205001831055,0.07871672136239245,0.07610252306802213,63000,18.397255682254926,0.0
210,1.794475793838501,16.301377927815782,5.36239751462709,22.015936083780584,8.99689316507207,0.0,0.15031800979391777,0.1,0.003072023391723633,0.0614931583404541,0.050293814,0.93055105,20.36030196970387,0.0,0.21164117937132093,0.0,300,0.020397186279296875,0.28620673729630847,0.2888147538331907,63300,18.105603862428655,0.0
211,1.8714323043823242,28.479699212887144,13.464424028628262,51.479576779702356,18.177233820084545,0.0,0.14996929992243907,0.1,0.00312042236328125,0.06468582153320312,0.04950593,0.8969749,21.172241694022198,0.0,0.3773523185703696,0.0,300,0.020859956741333008,0.2934634111461639,0.2793745862480818,63600,23.096778281623415,0.0
212,1.8517396450042725,15.213043125049325,12.848231979935296,36.71499532273799,3.9624093424155324,0.0,0.15019970950765185,0.1,0.0031218528747558594,0.059336185455322266,0.050351296,0.94175315,20.576321837124908,0.0,0.2004308257108466,0.0,300,0.021039485931396484,0.5143846139051114,0.5023856640289596,63900,10.206645993558995,0.0
213,1.7546534538269043,32.86264330481331,12.639952116009182,50.0699144300207,16.090239186773267,0.0,0.16359486465252085,0.1,0.002917051315307617,0.05865812301635742,0.050112464,0.70579094,21.80495398389375,0.0,0.4290960920199173,0.0,300,0.01791977882385254,0.28360698011314656,0.2551533547773122,64200,12.241772058984418,0.0
214,3.156464099884033,21.636093074786782,10.098290533355932,37.45011472367901,11.56688039408904,0.0,0.14669294832412488,0.1,0.0029342174530029297,0.06352543830871582,0.04985388,1.0425204,21.78806789298305,0.0,0.2894497844182303,0.0,300,0.018896818161010742,0.34715684352944004,0.35081649674177623,64500,11.347220967443073,0.0
215,1.801938772201538,41.04982909095773,8.777181120480988,48.256175929929825,26.25984216919583,0.0,0.15682732614614436,0.1,0.003220081329345703,0.06092524528503418,0.04996963,0.47884277,23.714244012780522,0.0,0.5449492522075403,0.0,300,0.019260644912719727,0.2022717992472422,0.15444482257237244,64800,11.088053569341747,0.0
216,1.8024787902832031,16.306784584515547,3.0860518009135873,19.406985707544525,11.1762620471104,0.0,0.14945239520187595,0.1,0.0030603408813476562,0.06074213981628418,0.05034507,0.9398419,22.973498069954026,0.0,0.21505353804861232,0.0,300,0.018754005432128906,0.8771784583948171,0.8270238587752472,65100,27.1483688525034,0.0
217,1.7393381595611572,29.19299503210023,9.455809322834115,41.24428203077474,16.21147067810183,0.0,0.1510520588421103,0.1,0.0031065940856933594,0.05939173698425293,0.050397646,0.7243905,23.595447766168647,0.0,0.39020930491973305,0.0,300,0.018659114837646484,0.14486050848595863,0.1468764271199272,65400,26.0812839776911,0.0
218,1.7394726276397705,19.42397564054421,8.361978616564475,31.45065650731625,8.17700351702753,0.0,0.14793022374360354,0.1,0.003174304962158203,0.061481475830078125,0.049630575,0.7457732,23.178300553606203,0.0,0.2599533241020304,0.0,300,0.020496606826782227,0.40031846916781477,0.314798146043891,65700,48.56299466965451,0.0
219,1.7412960529327393,23.212837452277704,9.43530305087412,34.10356590925721,8.184791688776162,0.0,0.15504749985684568,0.1,0.0034284591674804688,0.06280374526977539,0.04996582,0.80882007,23.181754243473353,0.0,0.30711546704877085,0.0,300,0.02235889434814453,0.16498643594936727,0.17468894394749826,66000,37.013626460914566,0.0
220,1.775327205657959,26.724547951286134,6.769052489937149,36.26002104088315,17.157565189333656,0.0,0.1490864283246938,0.1,0.003171682357788086,0.06051778793334961,0.05045063,1.0859326,23.536033614254634,0.0,0.3504168588826835,0.0,300,0.018410205841064453,0.14593008636323193,0.13961678074719777,66300,48.00313277391439,0.0
221,1.8013665676116943,13.762469850563289,7.642038489315707,21.39364542585955,1.925823935747743,0.0,0.1440463982551936,0.1,0.003023386001586914,0.05954623222351074,0.05009637,0.8299156,22.5586772378855,0.0,0.18441305195531613,0.0,300,0.01862192153930664,0.7941550539586374,0.6972801467627809,66600,50.324226138864795,0.0
222,1.8128387928009033,17.752822172475362,11.349978880345668,33.981098757112846,2.0303740094599196,0.0,0.15069279351045545,0.1,0.0030879974365234375,0.058185577392578125,0.050640963,0.74272317,22.078091731344486,0.0,0.237676019522233,0.0,300,0.018851757049560547,0.3502503906506289,0.3367656401143877,66900,27.1939453242489,0.0
223,1.7840492725372314,30.693933664887304,7.432434525911733,40.434056084286176,22.483970750131842,0.0,0.14712833506330575,0.1,0.003374338150024414,0.06457686424255371,0.049560566,1.272817,22.93967592469877,0.0,0.4068507234955078,0.0,300,0.01967000961303711,0.2571225969050584,0.23314068394309576,67200,41.24409331930631,0.0
224,1.788205623626709,14.139511746114861,8.47508611519635,25.89571604014808,4.058831170751454,0.0,0.16172758767285764,0.1,0.002872943878173828,0.05604290962219238,0.050276972,0.95850486,22.05965950684038,0.0,0.18948367702374172,0.0,300,0.01787257194519043,0.4642373674313356,0.49027292168263675,67500,27.053238218713222,0.0
225,1.8376545906066895,31.174634437880165,13.075753750730525,48.12952041727934,16.18945511886051,0.0,0.1506405564637104,0.1,0.0031838417053222656,0.06179952621459961,0.04981604,0.94302285,22.971156999944355,0.0,0.4132650768912177,0.0,300,0.020102262496948242,0.316083690957515,0.2862932653287986,67800,26.99748986148188,0.0
226,1.8559048175811768,17.890722413313867,2.9766886239480947,21.094975989470726,13.442720594947383,0.0,0.15206925110966982,0.1,0.003141641616821289,0.05991506576538086,0.050170153,1.003258,22.463113541281306,0.0,0.23951178992249325,0.0,300,0.02077460289001465,0.15191897946901287,0.17981909928407716,68100,32.03745770952985,0.0
227,1.859496831893921,12.717504934473565,8.88890254650722,24.083999469360794,2.0409987302455175,0.0,0.14370900853589116,0.1,0.003144502639770508,0.06365370750427246,0.049217936,0.7160965,21.48855268060053,0.0,0.17049012549804404,0.0,300,0.019990205764770508,0.9687607336228723,0.7295014158264647,68400,8.97251436677068,0.0
228,1.8870325088500977,7.571217312432362,7.85315989099138,20.99429826669799,1.9697052328565325,0.0,0.16196274610993613,0.1,0.003139495849609375,0.06425189971923828,0.049850803,0.68575585,20.096819143783712,0.0,0.10191224270330536,0.0,300,0.02720189094543457,1.9236776742288277,1.226545210440982,68700,47.04415722014479,0.0
229,1.9207737445831299,32.25160758417899,16.43885947620807,48.35285714771127,8.503605026471092,0.0,0.1664108926644692,0.1,0.0029401779174804688,0.05844473838806152,0.050243273,0.76344573,21.312297987823243,0.0,0.4276413935457883,0.0,300,0.019309282302856445,0.45818648667463835,0.46327158859556533,69000,46.03610639383694,0.0
230,1.833272933959961,21.317734244007966,15.558058001933391,38.52474132218124,1.9203767457178735,0.0,0.14929181456682677,0.1,0.002851247787475586,0.05779099464416504,0.050017346,1.02929,21.312841613441716,0.0,0.2818657431306381,0.0,300,0.019862890243530273,0.4120847416093751,0.3845136749109299,69300,19.991559348570778,0.0
231,1.8504023551940918,19.980556642005396,5.595502997206041,26.19027197881683,12.238534399634473,0.0,0.15275815993053604,0.1,0.0029587745666503906,0.05806255340576172,0.050014995,1.1072301,21.179613116298082,0.0,0.26736033876273063,0.0,300,0.020589590072631836,0.19633764068004703,0.1779976339925883,69600,22.996044234262893,0.0
232,1.772890329360962,30.138810217390713,10.717795497555722,42.19835765220685,15.666146815727075,0.0,0.15045314353327094,0.1,0.0032868385314941406,0.0601496696472168,0.0498777,0.8210686,22.075532826407343,0.0,0.40280288440948525,0.0,300,0.021736860275268555,0.2359447693697665,0.18983542135345166,69900,14.969276494540962,0.0
233,1.783350944519043,30.614382959571515,16.94742287644372,43.28771967706589,1.9855829533886984,0.0,0.14264630632348232,0.1,0.003223419189453125,0.06021881103515625,0.04942496,1.0153364,22.92941783972376,0.0,0.4058303893045951,0.0,300,0.020033836364746094,0.3594312703074664,0.31075665100004546,70200,30.946138508110668,0.0
234,1.7735989093780518,25.770348841964196,4.67044098184925,33.18410728014201,21.21175353248753,0.0,0.14397951012606355,0.1,0.003271818161010742,0.06053805351257324,0.04987916,0.944968,23.213510939947806,0.0,0.34121367901859967,0.0,300,0.02128124237060547,0.15439466122794085,0.1872638534201303,70500,20.971795323560777,0.0
235,1.8218669891357422,20.569739582348767,8.203013165426006,30.280034856052588,12.000940877884661,0.0,0.15226451009034578,0.1,0.0031075477600097656,0.06175422668457031,0.05030274,0.69059145,22.949133804187902,0.0,0.2752310097819016,0.0,300,0.02440929412841797,0.4549032042779466,0.3217049999062923,70800,12.953751230264123,0.0
236,1.8063347339630127,18.05771215674625,10.367397153335133,34.95112752952719,8.29153435416625,0.0,0.14216378774764757,0.1,0.003064870834350586,0.06170058250427246,0.050461173,0.80168325,22.459991639443736,0.0,0.24172111953911962,0.0,300,0.02109694480895996,0.7190595464700373,0.47632378678615955,71100,8.929978259162697,0.0
237,1.8152384757995605,23.619851581021923,8.738715337424466,37.097332323379746,14.026446458683163,0.0,0.15439896171264492,0.1,0.0030863285064697266,0.05808424949645996,0.049243547,1.1438943,22.575977633601557,0.0,0.31256478788023545,0.0,300,0.021466970443725586,0.14771060167580025,0.1723189733228808,71400,11.93040441758732,0.0
238,1.8335602283477783,15.92184933255652,8.945907495932232,26.443841279999997,6.9723349141665505,0.0,0.1406739533709864,0.1,0.0030684471130371094,0.06293487548828125,0.049953558,0.7583162,21.910564803497053,0.0,0.21320869435854908,0.0,300,0.021210908889770508,0.3574047600618431,0.31847989322140535,71700,13.937935681747042,0.0
239,1.8335814476013184,31.78133286375966,9.051727146867014,43.08392574971323,19.947825435263244,0.0,0.15314869825742025,0.1,0.003276348114013672,0.060117483139038086,0.050043177,0.95708406,22.897641609523316,0.0,0.4180353301615767,0.0,300,0.020750999450683594,0.3718406972736245,0.33337197652916456,72000,15.934505370282958,0.0
240,1.8312103748321533,12.521215467930675,11.686755935422363,30.145599952623968,1.9237779699847437,0.0,0.15595374544597046,0.1,0.0030019283294677734,0.062204599380493164,0.049368206,0.7576608,21.85999899536405,0.0,0.167909244904353,0.0,300,0.021471738815307617,0.7358223423661354,0.7819600091453154,72300,1.9286698411277534,0.0
241,1.8294601440429688,22.709948060123907,9.244790606541617,34.11900459015981,9.026964845015973,0.0,0.1446013858490597,0.1,0.003179311752319336,0.058843135833740234,0.04997004,0.842639,21.944993901840036,0.0,0.3037670327852363,0.0,300,0.02164936065673828,0.21748588661744153,0.21459506165099773,72600,1.9192035199654989,0.0
242,1.8496012687683105,21.699384400774214,11.58959250069765,34.53827271171341,3.1341827279235703,0.0,0.15555721251593335,0.1,0.003046751022338867,0.05881810188293457,0.049754005,0.8062786,21.920432951733453,0.0,0.2869476019641062,0.0,300,0.021496057510375977,0.27749628203924415,0.2757452516910133,72900,1.920605453169359,0.0
243,1.8304460048675537,25.32701975789831,8.751078117323148,40.288920997886194,18.56107939727813,0.0,0.14283145063026143,0.1,0.003176450729370117,0.06165623664855957,0.050169617,2.494597,22.261091632349938,0.0,0.338652337347748,0.0,300,0.023268699645996094,0.16717999235511607,0.1529005157626414,73200,1.9150987271520838,0.0
244,1.860743522644043,23.454743562760925,7.798207023604481,36.23152500017238,15.26957355426162,0.0,0.14907078780171584,0.1,0.0032663345336914062,0.06094717979431152,0.049793065,0.9574827,22.380456825391036,0.0,0.3137009467178591,0.0,300,0.02457714080810547,0.2206176790824824,0.21362351261162038,73500,1.9139680315097192,0.0
245,1.8917710781097412,23.69909860056063,16.254282836471038,50.597966530326715,7.043199635061205,0.0,0.1456162004866342,0.1,0.0029647350311279297,0.06018471717834473,0.04975015,1.1928023,22.512321002907996,0.0,0.3136260747289898,0.0,300,0.021259784698486328,0.3428376041710057,0.3400171593345827,73800,19.928186565555134,0.0
246,1.8856830596923828,25.423929440211374,15.142665122485653,49.12644531892152,8.982348596473829,0.0,0.15176116315547422,0.1,0.002999544143676758,0.058483123779296875,0.04943185,1.0122385,22.803481846638334,0.0,0.3399471874277094,0.0,300,0.019814491271972656,0.29594620112562314,0.29243583672725293,74100,1.9148181403410591,0.0
247,1.8560676574707031,29.302047153092772,9.917109284588578,46.23185489793326,21.11850945465826,0.0,0.14997784092405408,0.1,0.0031735897064208984,0.06030774116516113,0.050369047,1.0475475,23.453338377283778,0.0,0.3882514827465178,0.0,300,0.019767045974731445,0.1926103174604153,0.17785879140336924,74400,1.9167822245018948,0.0
248,1.8183534145355225,30.869402915976657,10.47334683385119,41.413022274072496,15.993662784499472,0.0,0.1516087253197447,0.1,0.0033037662506103516,0.06115221977233887,0.05020572,0.88232017,24.19494483115307,0.0,0.40923027663319445,0.0,300,0.02338242530822754,0.15239446519999453,0.13488807308762565,74700,1.913786693034326,0.0
249,1.8101656436920166,27.307446508224075,10.67584986337514,42.25762595948815,12.064850206759887,0.0,0.15306998669783808,0.1,0.002985715866088867,0.05987811088562012,0.050074384,0.8372947,24.50619499886017,0.0,0.3616975346682493,0.0,300,0.020903348922729492,0.21990734317828567,0.21889593326276627,75000,1.9123440760257564,0.0
250,1.7864720821380615,25.268101661847663,14.834408678844198,46.10624391904085,5.984614180627559,0.0,0.15427274029214025,0.1,0.0028839111328125,0.05854082107543945,0.04980658,0.74201185,24.58238566515892,0.0,0.3312058970537028,0.0,300,0.022153139114379883,0.3564703576811344,0.3435152324555849,75300,1.9127830207655776,0.0
251,1.7882728576660156,25.45784910806232,14.546655920071847,49.05944553478738,11.103686334899603,0.0,0.14742303989280808,0.1,0.0033597946166992188,0.06105446815490723,0.04993741,0.8861169,24.669932009449262,0.0,0.34040752330774277,0.0,300,0.027573585510253906,0.3928163161113455,0.3506816047732365,75600,1.9158890334239695,0.0
252,1.7943766117095947,23.37042424126331,4.868281597885353,28.063747967480193,15.325311738730807,0.0,0.16434432482419517,0.1,0.0032393932342529297,0.06189155578613281,0.0502789,0.760998,24.539981232630666,0.0,0.31251743630613954,0.0,300,0.02261948585510254,0.1411175344589224,0.08501246324554577,75900,1.9211865354370665,0.0
253,1.8640239238739014,16.73856275823448,6.764327853517753,27.12445823522787,8.398517568445998,0.0,0.1452054699022461,0.1,0.00302886962890625,0.06354403495788574,0.0496002,0.76882845,23.759839385191047,0.0,0.22414367543818897,0.0,300,0.022055625915527344,0.44962563065368943,0.27438960802847023,76200,9.940030731023985,0.0
