iteration,time_sampling,stoc_pol_mean,stoc_pol_std,stoc_pol_max,stoc_pol_min,rollout_success,alpha,delta,time_vpg,time_npg,kl_dist,surr_improvement,running_score,rwd_sparse,rwd_dense,success_percentage,num_samples,time_VF,VF_error_before,VF_error_after,env_samples,eval_score,eval_success
0,1.070547103881836,28.46141154459503,2.0636619326325287,32.004737272099256,26.911807563935536,0.0,0.14493844325017838,0.1,0.12099814414978027,0.04198598861694336,0.05261776,0.6303321,28.46141154459503,0.0,0.36557760896565716,0.0,178,0.20641875267028809,0.993200196788603,0.9888045450313288,178,27.845086474448763,0.0
1,0.977349042892456,27.87844163107157,2.1287483197730417,30.664642351480982,24.705047889215376,0.0,0.1624519212218665,0.1,0.0023407936096191406,0.04196453094482422,0.053613953,0.5821385,28.403114553242684,0.0,0.35777497048071705,0.0,175,0.14017891883850098,0.9886742198544528,0.9837541723692802,353,28.679384643002507,0.0
2,1.0353319644927979,29.09305561334076,2.973029510773596,32.06813263152896,25.591382919199436,0.0,0.1569525894729516,0.1,0.09972858428955078,0.11482548713684082,0.05242386,0.6588446,28.47210865925249,0.0,0.3742041529158203,0.0,182,0.19505953788757324,0.9843669976889531,0.9789340948786015,535,27.36916716870041,0.0
3,1.1031489372253418,20.53733561533679,12.864259132877473,31.556751935851413,-1.2918757593506296,0.0,0.11748128534944162,0.1,0.06578278541564941,0.28161168098449707,0.05204481,0.6451236,27.678631354860922,0.0,0.2631131319781406,0.0,144,0.307018518447876,0.9782288493194102,0.9714876477043175,679,27.555032770544937,0.0
4,1.1442945003509521,28.673885804765053,3.6769084049404857,34.12711194781821,24.925752534574,0.0,0.15868593302824008,0.1,0.03374600410461426,0.04354119300842285,0.050425798,0.52870125,27.778156799851335,0.0,0.3684135585529284,0.0,178,0.1277940273284912,0.9721474146201495,0.9642586287287616,857,26.408182814423643,0.0
5,1.0889296531677246,29.390863931750673,3.5968237655453286,34.19072740239341,24.977899741808024,0.0,0.15823883726980592,0.1,0.10372471809387207,0.4713270664215088,0.050732885,0.584033,27.93942751304127,0.0,0.37777305915704196,0.0,179,0.2178027629852295,0.9652914223423013,0.9558907565833922,1036,27.44223783936305,0.0
6,1.0899522304534912,28.150803315880786,1.5140141022442595,30.751083850954615,27.075116448796475,0.0,0.174883478218655,0.1,0.06410503387451172,0.13039207458496094,0.050130505,0.5628168,27.960565093325222,0.0,0.36147690958293005,0.0,177,0.2138049602508545,0.9534443429849221,0.9414632537039436,1213,27.337925758303598,0.0
7,1.154015064239502,17.980736552141853,9.327835473278025,28.005202353845924,8.197750107085971,0.0,0.14153940040630072,0.1,0.06263279914855957,0.5511698722839355,0.051820062,0.89680755,26.962582239206885,0.0,0.22584204750877435,0.0,138,0.14095449447631836,0.9309364598064397,0.9139272851664334,1351,27.489358007787455,0.0
8,1.1423420906066895,29.14303861055734,2.610312791177664,33.21495984360411,25.989012289839874,0.0,0.15477384417868012,0.1,0.10010242462158203,0.1257321834564209,0.051029406,0.6729818,27.180627876341934,0.0,0.37460778820588486,0.0,180,0.22413897514343262,0.9292338871279878,0.9120633964682674,1531,27.498040813623174,0.0
9,1.244518518447876,30.71384469279931,4.289099911548653,37.149649612748945,25.803937538559058,0.0,0.1509049245627375,0.1,0.11010408401489258,0.2860429286956787,0.049330246,0.66548693,27.533949557987672,0.0,0.3987350010888599,0.0,186,0.21465277671813965,0.9175782593344673,0.8981076922254653,1717,28.74628756362677,0.0
10,1.1760978698730469,32.41681404312109,2.3743584683135524,35.839055573334555,29.362507414715367,0.0,0.1652048267144187,0.1,0.0022857189178466797,0.06324577331542969,0.05030818,0.6312113,28.022236006501014,0.0,0.4215385500478716,0.0,193,0.04428887367248535,0.9018478673045377,0.8537867858526655,1910,28.754711987960786,0.0
11,1.1887669563293457,28.02103710050466,2.413011346873771,31.051866395345126,25.28624094127956,0.0,0.15283420370098738,0.1,0.07317686080932617,0.29088735580444336,0.0506777,0.67148966,28.02211611590138,0.0,0.3597499714289354,0.0,176,0.1956925392150879,0.8342706134694264,0.8005591837451238,2086,28.63995213302009,0.0
12,1.1777923107147217,36.254234532883416,11.495879197582047,55.935980419451475,27.066226541371403,0.0,0.17125778286442547,0.1,0.10157322883605957,0.11781954765319824,0.050072942,0.73709166,28.845327957599583,0.0,0.46295984575396787,0.0,213,0.350766658782959,0.8514120829534658,0.7887830884708862,2299,28.88628425171434,0.0
13,1.242685317993164,30.136795292371577,1.6947845352984987,32.137503272838636,27.74227726702952,0.0,0.15127469191280313,0.1,0.002479076385498047,0.04352927207946777,0.048412923,0.5737298,28.974474691076782,0.0,0.3879623357922709,0.0,185,0.05559968948364258,0.7306206295358436,0.6844719592191744,2484,29.9832271233502,0.0
14,1.1473474502563477,27.675098874426396,1.2510572209715862,29.67967090483171,26.232075012856374,0.0,0.15114016596051655,0.1,0.06786799430847168,0.659919023513794,0.050266508,0.6458967,28.844537109411743,0.0,0.355023772139284,0.0,174,0.23181533813476562,0.6704981671046112,0.6195334268718267,2658,30.880530605998143,0.0
15,1.18058180809021,31.877513819404953,2.7069427739398337,35.28524868121543,28.89842312326826,0.0,0.16022817761279898,0.1,0.08690714836120605,0.1334524154663086,0.050777044,0.589744,29.147834780411067,0.0,0.4143512711033553,0.0,191,0.19593548774719238,0.653026246864384,0.6017766255221398,2849,31.082930036522487,0.0
16,1.2253494262695312,29.277001615725062,3.6692518659682003,34.956860292386644,25.931834313248096,0.0,0.15160759540223773,0.1,0.0024862289428710938,0.04280281066894531,0.04930473,0.66582036,29.160751463942468,0.0,0.3764253962926015,0.0,181,0.03637218475341797,0.5888812113834773,0.5338459124679148,3030,31.046323546371966,0.0
17,1.179621696472168,31.629519557627983,3.924847180694492,37.71281123506677,26.92679800579741,0.0,0.15234488478606376,0.1,0.002448558807373047,0.05756711959838867,0.050594915,0.6237487,29.40762827331102,0.0,0.4075279064056314,0.0,187,0.18532657623291016,0.56044147087845,0.5053574937964143,3217,29.851263483388035,0.0
18,1.2258861064910889,27.42507920023116,4.909435301593774,31.96087761876079,19.548533889653065,0.0,0.14407046887173117,0.1,0.06544375419616699,0.2737445831298828,0.051207416,0.77698433,29.20937336600303,0.0,0.3516799144158277,0.0,173,0.24443769454956055,0.4540136181381825,0.3972607494189705,3390,29.903643642880002,0.0
19,1.2153420448303223,27.43285882368794,1.0945913008603296,29.120726221721434,26.284547718257144,0.0,0.14047460654339916,0.1,0.07094693183898926,0.16585564613342285,0.05029153,0.5625249,29.031721911771523,0.0,0.3519649842501401,0.0,175,0.271282434463501,0.37918666290818254,0.32304196758834547,3565,28.93162785887081,0.0
20,1.2609550952911377,31.939123152463925,3.0200060365195194,35.43316338752355,27.112606255699777,0.0,0.16192925337490674,0.1,0.09950137138366699,0.6646974086761475,0.051079337,0.6439126,29.322462035840765,0.0,0.4151879108949785,0.0,191,0.23680782318115234,0.3842328761884404,0.33158411437393825,3756,29.848248737002294,0.0
21,1.1422069072723389,28.982433557310667,2.542302275030324,31.901837282041715,25.5311330367729,0.0,0.14827858777857558,0.1,0.026330232620239258,0.045491933822631836,0.050579168,0.72331756,29.288459187987755,0.0,0.3725715958824011,0.0,180,0.20030879974365234,0.29113499447173385,0.24532906888503977,3936,30.7304313015044,0.0
22,1.1878328323364258,30.38149675035476,3.1954283747352457,35.47762673111289,27.095933145090857,0.0,0.15316781683302041,0.1,0.09852051734924316,1.8166117668151855,0.049704395,0.6941653,29.397762944224457,0.0,0.3910918408792251,0.0,184,0.24435210227966309,0.26765324159627096,0.2306967457663823,4120,28.646816627555168,0.0
23,1.2333412170410156,22.80461254047903,14.135350840040823,32.6207930093177,-1.469811692511913,0.0,0.12837742781749592,0.1,0.041814565658569336,0.04558134078979492,0.050206553,0.63123614,28.738447903849917,0.0,0.2934715025777248,0.0,153,0.20377707481384277,0.3000115606672582,0.2864267957917442,4273,30.95520228866526,0.0
24,1.2032136917114258,21.462620282197125,13.318674886608013,32.575620081203446,-1.2805131446957172,0.0,0.12758765115073314,0.1,0.06228375434875488,0.6066303253173828,0.05034659,0.74886227,28.01086514168464,0.0,0.27563178736660876,0.0,150,0.21214699745178223,0.3009704444933801,0.30725725648106866,4423,29.905705866754776,0.0
25,1.3145735263824463,28.89382298569796,1.6246731186659724,30.71364393472842,27.0364714374539,0.0,0.15281612015393084,0.1,0.10127043724060059,0.13643217086791992,0.050708193,0.59910655,28.099160926085972,0.0,0.3714254224621841,0.0,180,0.2736015319824219,0.15869432847172543,0.15175774168720133,4603,31.070353140743478,0.0
26,1.1458008289337158,27.11737764348324,6.728960918330631,32.99709567486169,15.870660564794983,0.0,0.13827515874247975,0.1,0.04076981544494629,0.03782963752746582,0.050829254,1.0066696,28.0009825978257,0.0,0.34769515420351627,0.0,173,0.20134973526000977,0.20635060691565457,0.21268263290428757,4776,29.941071351378245,0.0
27,1.276597261428833,20.693968705883755,13.628798868496494,33.43786933196666,-1.4890804192111482,0.0,0.13610844890345486,0.1,0.06395816802978516,0.5974409580230713,0.050279427,0.675628,27.270281208631506,0.0,0.26535767765504925,0.0,146,0.19032526016235352,0.3870590592758738,0.3972601105182561,4922,29.938300377417136,0.0
28,1.283613920211792,27.84338997134758,0.780159113421277,28.533933123315474,26.578055374331782,0.0,0.14756811199775927,0.1,0.04800152778625488,0.14680910110473633,0.049603816,0.7208192,27.327592084903113,0.0,0.3574375540942929,0.0,176,0.20432543754577637,0.17823659813329162,0.17709146109621454,5098,28.991247268463898,0.0
29,1.2693653106689453,27.746388881613456,7.543931190945132,35.58868670251516,15.567705524971622,0.0,0.14614729036944818,0.1,0.06896209716796875,0.5144984722137451,0.050449975,0.74856114,27.369471764574147,0.0,0.3592421207388438,0.0,175,0.3543891906738281,0.22565873717634585,0.22171378319515953,5273,28.753383375719746,0.0
30,1.2909677028656006,33.14055432033856,2.240564543609658,35.50672368583072,29.845732485829746,0.0,0.15130733687384418,0.1,0.0024747848510742188,0.042942047119140625,0.050398007,0.7803195,27.94658002015059,0.0,0.43472539122946857,0.0,198,0.2957899570465088,0.17455126994263842,0.16808221960191486,5471,28.960527932998232,0.0
31,1.19618558883667,30.765692310888397,2.2255567014311857,33.028368906789474,27.075615006679726,0.0,0.14930501715311445,0.1,0.10470008850097656,0.23371458053588867,0.049756855,0.6328649,28.228491249224373,0.0,0.39620968337995066,0.0,185,0.257082462310791,0.1505337478104811,0.14722764003950015,5656,28.98410703005978,0.0
32,1.4249436855316162,31.88712503292173,0.8673180550747157,32.79302987176268,30.49179499796105,0.0,0.15043398452896786,0.1,0.08339953422546387,0.04321789741516113,0.05050891,0.7047581,28.594354627594107,0.0,0.4111930299904779,0.0,190,0.19087433815002441,0.14775640180765745,0.14466517144087326,5846,30.044459742668163,0.0
33,1.2254607677459717,30.375807663029818,2.970185503294572,35.47645322991973,28.0594022294656,0.0,0.14651017386751466,0.1,0.002271890640258789,0.04422616958618164,0.049636174,0.8335715,28.77249993113768,0.0,0.39123505353224064,0.0,186,0.07227945327758789,0.1518428052648414,0.14940324661025542,6032,30.124273735689666,0.0
34,1.1676151752471924,24.023303516808205,7.506215241951745,29.789143126475665,11.173493506841776,0.0,0.13324601458033422,0.1,0.0654902458190918,0.765413761138916,0.048861988,0.6455547,28.297580289704733,0.0,0.30657248237565154,0.0,162,0.2009563446044922,0.26714039753476265,0.25974000115301793,6194,28.764971486711584,0.0
35,1.2770638465881348,31.15791833889066,0.8893052217664301,32.53496286706294,30.060003370190675,0.0,0.1575740455893494,0.1,0.0029659271240234375,0.0428621768951416,0.050169885,0.7202849,28.583614094623325,0.0,0.40156437028028236,0.0,188,0.19549036026000977,0.14902221691904213,0.14558256806628805,6382,28.77081553564165,0.0
36,1.2962722778320312,29.645028725333777,2.461520310654508,33.363746707681486,26.61008024326711,0.0,0.14904774674866206,0.1,0.0024302005767822266,0.04486227035522461,0.049975935,1.0045015,28.68975555769437,0.0,0.38143107860305386,0.0,183,0.06929206848144531,0.1309774050343989,0.12812435148420295,6565,29.89652273680055,0.0
37,1.4019553661346436,36.315505818742245,7.255359325369093,48.40901669838629,30.182425238167323,0.0,0.16379657476698803,0.1,0.09969782829284668,0.22838282585144043,0.04873231,0.6454859,29.45233058379916,0.0,0.47354249718036934,0.0,213,0.07927799224853516,0.18869214017636368,0.1828856119271349,6778,32.06828941866603,0.0
38,1.3053138256072998,36.070645349632365,11.260628547531278,55.29760814627244,26.787208402876303,0.0,0.15983298160799073,0.1,0.09346485137939453,0.11676979064941406,0.05062319,0.6576843,30.11416206038248,0.0,0.4605843558264674,0.0,213,0.33530378341674805,0.22183402455376883,0.2080284467215587,6991,30.937204298081394,0.0
39,1.3085992336273193,31.609452167641564,3.3639819158576914,35.86292151746611,26.506662731431934,0.0,0.14548955586034953,0.1,0.0027065277099609375,0.04743075370788574,0.049903512,0.8431845,30.26369107110839,0.0,0.407651928217254,0.0,190,0.1282494068145752,0.12864613440811393,0.12820878660268412,7181,32.00704501611508,0.0
40,1.2339146137237549,29.25146823211351,1.315333448026913,30.980175594114726,27.820362798409317,0.0,0.1451710434324237,0.1,0.0023164749145507812,0.04210686683654785,0.050914917,0.6983138,30.1624687872089,0.0,0.3762189770859644,0.0,181,0.2422628402709961,0.1459507864387281,0.14682945271780712,7362,30.90320338405776,0.0
41,1.2566964626312256,21.19785104310006,13.304774644319226,32.070716764902805,-1.5745451134203963,0.0,0.13689856699694167,0.1,0.0020461082458496094,0.03926801681518555,0.04987135,0.7487321,29.266007012798017,0.0,0.2721772491386414,0.0,149,0.25148725509643555,0.34306241595546233,0.33226214165620677,7511,29.831832414335953,0.0
42,1.3851802349090576,41.50175807357634,10.29195877579858,56.869358303298185,29.422304701081977,0.0,0.17021880612748713,0.1,0.16013240814208984,0.7008557319641113,0.0505312,0.64235413,30.48958211887585,0.0,0.5325950324748808,0.0,235,0.35922694206237793,0.20956956094961426,0.20643496632897582,7746,29.90936069983047,0.0
43,1.2453138828277588,34.99792223382791,6.200109548297136,45.434186062439245,29.157659213126966,0.0,0.1535940205091813,0.1,0.09655141830444336,0.16550374031066895,0.05004641,0.8434099,30.940416130371055,0.0,0.45266490325054176,0.0,207,0.2411956787109375,0.1549329040632448,0.15002677748531099,7953,31.01727949976383,0.0
44,1.3182182312011719,32.44574837612086,14.66091112526691,45.25560666581641,8.670402240491333,0.0,0.15127572361268923,0.1,0.10014748573303223,0.3651747703552246,0.050056282,0.73233885,31.090949354946034,0.0,0.4188792216337243,0.0,206,0.3567466735839844,0.2522177117881856,0.24826216911435672,8159,33.06395991463944,0.0
45,1.2641494274139404,29.754263900818422,12.793272670842878,47.66341736743508,16.753740463840522,0.0,0.1477376708114492,0.1,0.10175776481628418,0.2776172161102295,0.04980376,1.0014153,30.957280809533273,0.0,0.38602300371899145,0.0,189,0.2256174087524414,0.26840363308770954,0.2618986736097085,8348,33.114525926213325,0.0
46,1.4247252941131592,43.097955157239035,13.022771353463863,56.84912726370816,28.856123807710933,0.0,0.1685451600076432,0.1,0.15987491607666016,0.4257547855377197,0.049309272,0.74103516,32.17134824430385,0.0,0.5474657658242872,0.0,242,0.33580493927001953,0.22672952784216985,0.22305494314842803,8590,34.13487512870712,0.0
47,1.2371814250946045,35.80172838760094,8.169794335775654,49.28016581042326,29.053146407969177,0.0,0.1571103843827108,0.1,0.10577893257141113,0.29233860969543457,0.04934516,0.7025929,32.53438625863356,0.0,0.46346414719866097,0.0,211,0.36898279190063477,0.1486320026830131,0.14208596331507148,8801,35.05914125186405,0.0
48,1.3460288047790527,29.52907176570805,7.501561884349848,35.31657240389859,16.633045427212643,0.0,0.14024484238719787,0.1,0.09761977195739746,0.06626009941101074,0.05031538,1.3903923,32.23385480934101,0.0,0.3833006515024359,0.0,184,0.2698366641998291,0.17678725141114734,0.1761929750621934,8985,31.991758560494635,0.0
49,1.319054126739502,40.58438858802539,7.432877599145968,51.53136856455839,32.906911516540056,0.0,0.15640807866465867,0.1,0.011573314666748047,0.04534578323364258,0.049874883,1.0007613,33.068908187209445,0.0,0.527270819795689,0.0,236,0.34921717643737793,0.15324481996782696,0.1464701859088917,9221,33.01777723726911,0.0
50,1.3409318923950195,37.90523686876887,6.650675995681385,49.143845896769434,31.912851212390894,0.0,0.16296913559964596,0.1,0.10170125961303711,0.07618069648742676,0.0496097,0.56620234,33.55254105536539,0.0,0.4913212980955906,0.0,217,0.21271347999572754,0.14656183187727578,0.14137516933453934,9438,34.00871232813436,0.0
51,1.4155900478363037,42.50999055303079,9.367742618614415,55.651877646330085,33.2685661445992,0.0,0.1659515769568708,0.1,0.1526167392730713,0.2357494831085205,0.04983831,0.76549304,34.448286005131926,0.0,0.5462987845263394,0.0,241,0.34624409675598145,0.15688423441714588,0.147375392330683,9679,35.39106608971236,0.0
52,1.2996950149536133,27.46539079910853,9.975040650158936,34.70347348561739,10.263560049879578,0.0,0.14306171640873078,0.1,0.07204604148864746,0.12779498100280762,0.050112024,0.90691185,33.74999648452959,0.0,0.35224995757082767,0.0,173,0.1203153133392334,0.36323325042516447,0.3549310546990646,9852,33.57749750845959,0.0
53,1.3448596000671387,48.617089815624475,3.855325180240825,55.03627719725849,45.30707063384764,0.0,0.1882451937001923,0.1,0.19804883003234863,0.23652887344360352,0.04949356,0.5910104,35.23670581763908,0.0,0.6275742834522032,0.0,275,0.4955098628997803,0.1435328844090766,0.12977556627245138,10127,33.7039573632275,0.0
54,1.3833060264587402,43.15424070430511,7.074395819327297,48.26086171717824,30.971681878371076,0.0,0.17223460183846254,0.1,0.002544403076171875,0.04518485069274902,0.050346952,0.66625154,36.028459306305685,0.0,0.5613402436956372,0.0,249,0.1953718662261963,0.14246247440886137,0.1400762891346002,10376,33.41130697274257,0.0
55,1.3909943103790283,31.23169741485998,16.703360110610678,57.882337791844115,15.57438315952576,0.0,0.14893722260646325,0.1,0.09981060028076172,0.04795265197753906,0.05009755,0.82195836,35.548783117161115,0.0,0.39573051750030247,0.0,190,0.2526860237121582,0.3723170885226434,0.3639676265943307,10566,33.32262871663624,0.0
56,1.4853105545043945,28.514516819925838,11.860754859754639,48.06663637990598,18.64187547496965,0.0,0.14862051703339849,0.1,0.10419940948486328,0.5877530574798584,0.049629904,0.7757859,34.84535648743759,0.0,0.36618446504194674,0.0,183,0.2951169013977051,0.40683356993901787,0.36050333662117756,10749,33.39211742975534,0.0
57,1.484727144241333,30.201468687714954,6.651102268620466,35.42156157285333,19.05713021173531,0.0,0.14482336911727767,0.1,0.10657501220703125,0.2801036834716797,0.051243246,2.2730956,34.38096770746533,0.0,0.39192320821803484,0.0,183,0.22002887725830078,0.22367142721817984,0.17239632198481625,10932,32.37903426095152,0.0
58,1.4700939655303955,22.621559912421787,16.617557190188627,44.861482882776336,-1.3615886047558334,0.0,0.13204607676866967,0.1,0.06932497024536133,0.3907313346862793,0.049552377,0.7806817,33.20502692796098,0.0,0.291158016489016,0.0,162,0.2294621467590332,0.4769926129134688,0.4090787721051313,11094,32.32035874093504,0.0
59,1.391632318496704,29.32867316298205,15.168079428662509,46.25100213864476,11.08826047345556,0.0,0.1484996722657071,0.1,0.003564119338989258,0.044960737228393555,0.050071698,0.74413115,32.81739155146309,0.0,0.37707049942737597,0.0,192,0.19353270530700684,0.25229847172372766,0.2476669727792836,11286,32.31625969698858,0.0
60,1.4265835285186768,30.856860525618078,15.751086710643378,54.9372561107037,14.658395525021023,0.0,0.1469772342077525,0.1,0.10779213905334473,0.6228420734405518,0.05074374,0.86074346,32.62133844887859,0.0,0.3910041439122215,0.0,192,0.07792544364929199,0.2728516243537388,0.2869241241783655,11478,32.37053645577508,0.0
61,1.3512630462646484,34.57773471568303,1.3273665650361877,36.549098230223414,32.9220747845562,0.0,0.1470288426953456,0.1,0.09741020202636719,0.6317615509033203,0.04898875,0.93757397,32.816978075559035,0.0,0.4472194995336597,0.0,202,0.3475015163421631,0.12232294982889323,0.12093918551565835,11680,33.306217237440684,0.0
62,1.327333927154541,33.52013290686739,1.3793602228872825,35.81601243172485,32.14312125409981,0.0,0.15629878623459037,0.1,0.025571584701538086,0.04538726806640625,0.049821522,0.7061811,32.88729355868987,0.0,0.43296194441740676,0.0,196,0.4367985725402832,0.13245115941590205,0.12197736654494999,11876,45.138959652440896,0.0
63,1.3777744770050049,32.51776675061096,2.5819039079759065,35.218521119841974,28.945408901863463,0.0,0.1549393391144607,0.1,0.10598635673522949,0.5496258735656738,0.04907922,0.9304151,32.850340877881976,0.0,0.41991436183170133,0.0,195,0.33022522926330566,0.10502618933919895,0.09479496351350535,12071,42.998005224872024,0.0
64,1.3921611309051514,37.23156866108951,6.627917310806894,48.2204439070995,30.722447561981042,0.0,0.15153219730256068,0.1,0.10207366943359375,0.4232146739959717,0.049802464,0.54734385,33.28846365620273,0.0,0.4857128666759378,0.0,216,0.16004228591918945,0.1393768421819804,0.1186063011128515,12287,45.11805908781482,0.0
65,1.3220138549804688,32.24585527981941,9.847070623070753,45.64213368648548,17.95577509381864,0.0,0.15392675813469184,0.1,0.10264730453491211,0.14689040184020996,0.05032188,0.9533303,33.1842028185644,0.0,0.4159399757589548,0.0,197,0.36202383041381836,0.1622260908629992,0.16268776787155667,12484,33.33858015752407,0.0
66,1.3202829360961914,36.24962130830337,6.027812919510607,46.65993113642859,32.37063571674123,0.0,0.16364117501009448,0.1,0.09894967079162598,0.6601932048797607,0.048595395,1.0928612,33.490744667538294,0.0,0.46924085115554576,0.0,210,0.36368751525878906,0.1060188272651132,0.10355821690347512,12694,44.11054921577506,0.0
67,1.4325308799743652,33.95147419765025,12.006356794492214,45.82602844471562,15.592564625295427,0.0,0.15401189442271782,0.1,0.0984804630279541,1.1904711723327637,0.05062364,0.94985497,33.53681762054949,0.0,0.43877136365002,0.0,210,0.3413522243499756,0.17616606403557997,0.1762802608504451,12904,47.22938979416448,0.0
68,1.3287243843078613,30.071764487749153,6.745558253235602,36.38753904753237,18.807700893997573,0.0,0.14159671603913274,0.1,0.11197686195373535,0.7960753440856934,0.049933225,1.9193991,33.19031230726946,0.0,0.3903767725549322,0.0,186,0.21010828018188477,0.16631470468340254,0.16167981902992729,13090,35.50537377676814,0.0
69,1.3946292400360107,38.07415528883307,15.478683726373813,56.60505266639322,15.410568494075726,0.0,0.1614257371866156,0.1,0.10678982734680176,0.1339550018310547,0.050303034,0.62813646,33.67869660542582,0.0,0.48705767524600246,0.0,224,0.3667564392089844,0.2011189357115124,0.200895743999141,13314,35.436232305783605,0.0
70,1.3613359928131104,23.691024030598342,6.5058725291853285,30.784095138040627,14.595200073596303,0.0,0.13890632392375488,0.1,0.06881475448608398,0.6107127666473389,0.049484212,1.3353739,32.67992934794307,0.0,0.30174047295958234,0.0,157,0.23128247261047363,0.38261719509542197,0.3493331344783612,13471,35.51108651050442,0.0
71,1.4052808284759521,34.9662293085762,6.448129037325738,45.55334116879463,28.108687380423795,0.0,0.1510499717349013,0.1,0.0971217155456543,1.988086462020874,0.05008244,1.2762107,32.908559344006385,0.0,0.452482747613754,0.0,210,0.7375385761260986,0.10405551523030117,0.10196561102533044,13681,46.194060031054214,0.0
72,1.4764676094055176,28.15374302486956,17.720536645743216,45.32238195374708,-1.544510418092864,0.0,0.13368306268557512,0.1,0.20414257049560547,3.714233160018921,0.049468543,0.49329266,32.433077712092704,0.0,0.364711890978541,0.0,178,0.42565131187438965,0.228171834744077,0.22599810097948828,13859,33.41562987543217,0.0
73,1.4068386554718018,29.251525522758243,8.12095562888824,34.12646597833005,15.190585972591016,0.0,0.14189621353844598,0.1,0.10736536979675293,1.8064703941345215,0.04999198,1.2989836,32.114922493159256,0.0,0.37605150295418854,0.0,180,0.28708982467651367,0.1201668568081877,0.11576160572021796,14039,33.41551309536208,0.0
74,1.4427878856658936,27.850755928874218,14.500221679652935,49.92086437339772,10.589886297737294,0.0,0.14408667004933692,0.1,0.10434174537658691,1.0987179279327393,0.04976226,1.1079699,31.688505836730755,0.0,0.35741263392521216,0.0,180,0.2609837055206299,0.2774030915415815,0.27318885605962884,14219,31.432841048257202,0.0
75,1.3646531105041504,35.39209012850915,7.120659171747935,47.56172944424087,29.758285623880504,0.0,0.15742894213115566,0.1,0.10092735290527344,0.35439181327819824,0.04987102,0.6065445,32.058864265908596,0.0,0.4579875790103143,0.0,209,0.452289342880249,0.12765766815670598,0.12957357149868437,14428,32.41480722696582,0.0
76,1.4293038845062256,31.677607945265056,16.163531681950044,56.964348879425,16.057535116055703,0.0,0.1544588807729735,0.1,0.09689712524414062,0.33104562759399414,0.050080515,0.70999557,32.020738633844246,0.0,0.40184461507555863,0.0,194,0.3585507869720459,0.25597940752361786,0.25054709408642395,14622,32.61884453608007,0.0
77,1.3771286010742188,35.428354031545865,10.299576021153971,44.51620632347838,19.397375769287354,0.0,0.16177026573292394,0.1,0.002382516860961914,0.048896074295043945,0.049332056,0.6482345,32.36150017361441,0.0,0.45829181115606,0.0,214,0.36186695098876953,0.14456672430904155,0.1348821696464276,14836,33.521310556572594,0.0
78,1.401618242263794,32.026649895996975,1.8529558075353139,34.67125607784103,30.26606845135752,0.0,0.15574490345137162,0.1,0.22005844116210938,2.5171940326690674,0.052040715,0.9454264,32.32801514585267,0.0,0.41291328091768154,0.0,189,0.4103810787200928,0.08782667484379583,0.09080249900049249,15025,34.511314627784195,0.0
79,1.4914500713348389,36.467511820348165,4.760878011382452,44.44601727451587,32.06642811869904,0.0,0.160803953679514,0.1,0.21867752075195312,3.8342456817626953,0.049963124,0.98698974,32.74196481330222,0.0,0.4720857777862553,0.0,211,0.7446880340576172,0.09190888725694592,0.08759685509235214,15236,31.492044145682016,0.0
80,1.3827741146087646,32.87896690728655,1.308801474022756,34.16128325557189,30.689436262457512,0.0,0.15312443346128662,0.1,0.17823457717895508,1.011263370513916,0.049461935,1.6369952,32.755665022700654,0.0,0.4244353742604762,0.0,194,0.3443598747253418,0.06513803902410907,0.06539040998257688,15430,34.55623674827949,0.0
81,1.3957736492156982,44.294144310647155,12.839749724284914,57.46937676677082,31.42212416214059,0.0,0.16194487060586596,0.1,0.1544651985168457,1.6067748069763184,0.049781267,0.6414306,33.90951295149531,0.0,0.5632259263034844,0.0,244,0.3043694496154785,0.180178963464632,0.16447694960663709,15674,35.72031312615406,0.0
82,1.3782923221588135,46.487041552105225,8.869796506972381,57.07967244068552,32.986753060932,0.0,0.18712482908242403,0.1,0.19092607498168945,0.8785970211029053,0.049441136,0.5425943,35.1672658115563,0.0,0.5991817796546812,0.0,260,0.5086507797241211,0.14271448139140389,0.1111455532711588,15934,34.55547291436369,0.0
83,1.4808697700500488,37.85532292951481,8.243264407093177,47.19332794305718,29.119099516350335,0.0,0.15811380761389826,0.1,0.10534048080444336,0.48151254653930664,0.049057167,0.8167559,35.43607152335215,0.0,0.49075750905768556,0.0,224,0.3690617084503174,0.12279178087398139,0.13358719861299276,16158,46.29740505642686,0.0
84,1.4137015342712402,39.71105648451038,4.889815111778884,46.30025622812457,34.47213654347489,0.0,0.164354607065483,0.1,0.1513075828552246,0.4742305278778076,0.050422296,1.5682954,35.86357001946797,0.0,0.515580869308285,0.0,232,0.12308382987976074,0.0987208945812102,0.08435870504489318,16390,45.274903167090265,0.0
85,1.5569076538085938,42.532497406031624,5.94287571231751,46.94595622485194,32.40118071522553,0.0,0.15360404271959968,0.1,0.308605432510376,0.1942729949951172,0.049960684,0.77799183,36.53046275812434,0.0,0.553094037541522,0.0,245,0.32973480224609375,0.08169767297487923,0.0768941999062259,16635,45.201799932016,0.0
86,1.3915917873382568,42.61608120022934,2.6300872555979438,45.116091721454296,38.22513992640838,0.0,0.16294412187453755,0.1,0.1508350372314453,0.8107335567474365,0.049915362,0.72561735,37.139024602334835,0.0,0.5574978984840655,0.0,247,0.3786749839782715,0.07053971629869363,0.07144719648569547,16882,35.490793937369965,0.0
87,1.5075008869171143,38.17458318274852,15.649015754273526,57.206881339950876,16.83521828604202,0.0,0.15968399528993835,0.1,0.1067352294921875,0.8325145244598389,0.050000325,0.74029446,37.2425804603762,0.0,0.48823798516919287,0.0,222,0.3723025321960449,0.20777969342053168,0.20749218216169535,17104,46.438714051330116,0.0
88,1.381049633026123,44.28879428805402,6.140039280590174,49.04602620344052,33.77568471743438,0.0,0.15872803045757183,0.1,0.1977989673614502,0.6270265579223633,0.050230183,0.76946175,37.947201843143986,0.0,0.5766584854377685,0.0,256,0.5115871429443359,0.08802864277751066,0.0806110116013276,17360,44.44716983934618,0.0
89,1.4067466259002686,43.25408120889602,6.683636033537675,48.490320981211816,31.831162187242715,0.0,0.16579326616498857,0.1,0.19995498657226562,0.21431636810302734,0.05005534,0.8897306,38.47788977971919,0.0,0.5629218693395781,0.0,251,0.28686976432800293,0.08638808148768613,0.0809218327656106,17611,44.44250984922348,0.0
90,1.4167778491973877,35.41796150933137,4.125396440654116,42.26471856860263,31.279843373796673,0.0,0.16026450700836767,0.1,0.15924477577209473,3.139899969100952,0.049770758,0.8015462,38.17189695268041,0.0,0.45839238459395415,0.0,210,0.7380411624908447,0.10117034570004015,0.09108943278340663,17821,44.3525922143122,0.0
91,1.551478624343872,32.78999022742687,10.52574530111776,48.503986418137146,19.31151099260597,0.0,0.15168106766961034,0.1,0.1988663673400879,3.5704128742218018,0.050065216,1.1858963,37.63370628015506,0.0,0.42329584507200607,0.0,201,0.7036654949188232,0.2080687062738931,0.17152102552341625,18022,47.63150779240912,0.0
92,1.505305528640747,34.89767388840944,5.348669074926384,43.6288023810675,29.089035395995722,0.0,0.16428609169606634,0.1,0.20851492881774902,3.5678188800811768,0.050252218,0.7443949,37.3601030409805,0.0,0.4514732770864524,0.0,209,0.6981377601623535,0.07816335732011166,0.07766502613390452,18231,45.41968962460424,0.0
93,1.5509259700775146,45.15456043886514,9.205150511981678,56.77469084135964,30.989877713693303,0.0,0.174469269714809,0.1,0.3918495178222656,4.207287788391113,0.050619796,0.75630665,38.13954878076896,0.0,0.5813623885019295,0.0,254,0.6559326648712158,0.16469758201043783,0.15616804419296806,18485,44.40248176834596,0.0
94,1.4592931270599365,34.72548445419666,10.668631528910902,45.85162285535482,18.572820712090433,0.0,0.15021856091891694,0.1,0.20217609405517578,2.504822015762329,0.049220882,0.91630095,37.79814234811174,0.0,0.44910646443314794,0.0,213,0.6500811576843262,0.12663688971958686,0.12328637956576514,18698,45.433884326253185,0.0
95,1.5608654022216797,43.31831391506809,1.1381537511313649,44.57366037629606,41.48666113055226,0.0,0.17317574170163005,0.1,0.3882746696472168,4.248428106307983,0.050741594,0.8378191,38.35015950480738,0.0,0.5637302504516709,0.0,257,0.5492115020751953,0.0687764338626628,0.04668190434178926,18955,43.25258132916718,0.0
96,1.5127911567687988,37.238963138027955,12.549702144166375,56.204792511486794,20.917524799887907,0.0,0.1526829848196762,0.1,0.03399157524108887,0.0415496826171875,0.049638312,1.1990738,38.23903986812944,0.0,0.4825109067169886,0.0,216,0.34983062744140625,0.1851092552540138,0.1907071020882385,19171,43.26932090180197,0.0
97,1.4721431732177734,44.92306345861334,8.43301385659939,55.4079278621642,32.255014092242426,0.0,0.16317223489963195,0.1,0.1908881664276123,0.4492809772491455,0.049794395,0.9155202,38.90744222717783,0.0,0.5785424026453048,0.0,257,0.5176346302032471,0.08937738295668715,0.08408706808180741,19428,43.24604648945343,0.0
98,1.5890800952911377,40.11699715700552,8.146699216717096,50.199453376588934,32.03093824704909,0.0,0.16246723008245278,0.1,0.14768338203430176,0.6518771648406982,0.05002158,0.7831713,39.0283977201606,0.0,0.5209726672936481,0.0,233,0.40216612815856934,0.10340019077908662,0.09974926442130534,19661,43.131710926374446,0.0
99,1.4897198677062988,38.58033190827777,11.035569464651028,47.3006918672438,19.639488549337457,0.0,0.14170718710364458,0.1,0.15765762329101562,2.358272075653076,0.0498823,1.5195354,38.983591138972315,0.0,0.5003311934385319,0.0,231,0.3631138801574707,0.15496301628185433,0.13999617836464762,19892,43.25326198193641,0.0
100,1.6534318923950195,41.62509802553227,14.06553324781716,56.420902679160434,18.783435335127624,0.0,0.1635743928594684,0.1,0.3430182933807373,3.998563528060913,0.04958459,0.8552797,39.24774182762831,0.0,0.5344674112609717,0.0,244,0.7296617031097412,0.15558647883925597,0.15955996511420129,20136,43.327509992921556,0.0
101,1.5587995052337646,45.56262154102296,1.9722514416067893,47.934541720383876,43.25246768755534,0.0,0.17076531806273348,0.1,0.3923828601837158,3.9044294357299805,0.050200142,0.70750386,39.87922979896778,0.0,0.5935424813863301,0.0,265,0.5137619972229004,0.05900849012734954,0.05234216486238088,20401,43.35701437305823,0.0
102,1.5193896293640137,35.60643507081521,3.119433695681598,39.970270795038495,32.202582805185116,0.0,0.1517379266510082,0.1,0.10359787940979004,1.9455592632293701,0.050908603,1.3307918,39.45195032615252,0.0,0.46074151036845135,0.0,209,0.7307319641113281,0.09457236445212248,0.08641133999137966,20610,44.44839175498651,0.0
103,1.554210901260376,38.42183485843377,10.131046611929236,47.047358935449495,21.262595114582613,0.0,0.1688611613127279,0.1,0.15212392807006836,0.10552740097045898,0.05029616,0.90469545,39.348938779380646,0.0,0.4983933269227513,0.0,232,0.3683164119720459,0.1030295031174081,0.09930833608682821,20842,43.53641212643556,0.0
104,1.4051661491394043,38.18134854275778,14.199017316398335,56.893871219434196,17.691604544312558,0.0,0.16560643350898885,0.1,0.10113739967346191,0.880084753036499,0.05030885,0.74405956,39.232179755718356,0.0,0.4919525566055283,0.0,230,0.3502957820892334,0.1733586693742684,0.1743107515711368,21072,44.517989686639204,0.0
105,1.3972971439361572,37.08231329662019,4.873586738424683,45.313918324065256,32.69754064143546,0.0,0.14898211702986344,0.1,0.002681255340576172,0.04856729507446289,0.05030151,1.3829027,39.01719310980854,0.0,0.4838707280982295,0.0,217,0.08652281761169434,0.06479509177044364,0.06352186338687986,21289,44.52877058030219,0.0
106,1.5093183517456055,44.192140181826716,8.699804837492648,56.77114668984031,32.192452924490446,0.0,0.17105928848449556,0.1,0.19870901107788086,0.4410066604614258,0.04952657,0.98818815,39.53468781701036,0.0,0.5687149894104082,0.0,253,0.4546051025390625,0.10632264045167734,0.09846348421132906,21542,45.41410474695598,0.0
107,1.6032559871673584,47.61880954259023,5.034530668411773,56.243639638357244,43.542139361354884,0.0,0.1736567725224526,0.1,0.1972489356994629,3.7883141040802,0.05097958,0.565713,40.343099989568344,0.0,0.6142501607010871,0.0,271,1.1656761169433594,0.09444864397611101,0.06130027068201863,21813,47.556203513520735,0.0
108,1.6794912815093994,44.70875678151961,9.448216280138727,56.646230352038295,35.20830177377814,0.0,0.1539312363878932,0.1,0.4200735092163086,2.0630228519439697,0.049576093,0.7276109,40.77966566876347,0.0,0.5822621526088224,0.0,263,0.24261808395385742,0.11002464116728324,0.11256789087460732,22076,48.47730800170067,0.0
109,1.5284230709075928,34.23955186500062,1.373224912909363,35.76294642880075,32.297604918205366,0.0,0.14961729593108797,0.1,0.06460070610046387,0.04079031944274902,0.050175853,1.7560196,40.12565428838718,0.0,0.4458909481721391,0.0,200,0.36217308044433594,0.22750463514148975,0.12035703878397712,22276,45.199624980695894,0.0
110,1.5061123371124268,31.96672648984905,21.450453421278894,56.959180117706794,-1.3723935749094056,0.0,0.14223861737504162,0.1,0.09796261787414551,0.07988929748535156,0.049370117,0.4512138,39.30976150853337,0.0,0.4090413860577643,0.0,200,0.3542606830596924,0.2794651827266505,0.2666176897007833,22476,45.188856932433964,0.0
111,1.5344562530517578,42.59023552164445,4.107192018031278,46.83938877632436,35.81637447218782,0.0,0.15236603987428216,0.1,0.15134119987487793,0.1471560001373291,0.049652502,1.0205088,39.63780890984448,0.0,0.5571765304598444,0.0,248,0.3443772792816162,0.06979239067509997,0.0827515727051115,22724,44.22661253668681,0.0
112,1.504988431930542,40.11895093225089,4.4668992195138095,45.941886673454995,34.25346810434744,0.0,0.16140527686505707,0.1,0.14511370658874512,0.04194521903991699,0.04959902,2.0870996,39.68592311208512,0.0,0.5242889005204762,0.0,233,0.3388524055480957,0.06967139497254916,0.06571033633440639,22957,45.129637032797795,0.0
113,1.5747292041778564,35.5587432847488,11.333667239995563,47.94622218628311,17.739871803041765,0.0,0.1550186709642683,0.1,0.10944509506225586,2.0413618087768555,0.050359998,0.5934914,39.27320512935149,0.0,0.4600934683145388,0.0,215,0.7432138919830322,0.1394808024842774,0.13790503771226048,23172,44.300380681685105,0.0
114,1.5218639373779297,37.694361517357635,9.547353717617558,54.16019302259644,30.83095888380705,0.0,0.15291019066690356,0.1,0.10141301155090332,1.011582374572754,0.04987274,0.71498334,39.1153207681521,0.0,0.4819966873024202,0.0,217,0.33153462409973145,0.13165095696136772,0.13094067676419546,23389,46.336150679112386,0.0
115,1.5716831684112549,43.72188098210591,8.931421075486378,56.526739061919706,35.34036666450517,0.0,0.16827652141091576,0.1,0.1429915428161621,0.384335994720459,0.04999922,0.8267526,39.57597678954749,0.0,0.5656461857794317,0.0,246,0.6223840713500977,0.11665888893315457,0.1052748125797591,23635,46.18444826193126,0.0
116,1.541813850402832,36.77122571399354,12.783092156403187,50.10751549635113,17.425495383212994,0.0,0.1562157196236901,0.1,0.08897805213928223,0.10163474082946777,0.05005738,0.87738985,39.29550168199209,0.0,0.4763093809869653,0.0,220,0.05317544937133789,0.13555576075457348,0.13759285559358359,23855,46.15416584838618,0.0
117,1.4458425045013428,44.48368192156487,12.25815610116926,56.960758893457125,31.575967927570755,0.0,0.1723256333312516,0.1,0.15695524215698242,0.39072608947753906,0.049703766,0.5731863,39.81431970594937,0.0,0.5657731727996584,0.0,245,0.337587833404541,0.13707723347231385,0.1305295879493367,24100,45.16048670865081,0.0
118,1.599593162536621,49.93730129854444,7.144744830067333,57.339413760478486,42.16779331433954,0.0,0.17304332883774007,0.1,0.003268718719482422,0.0487973690032959,0.04939466,0.8148255,40.82661786520889,0.0,0.6385256039643559,0.0,277,0.5470643043518066,0.08257053149321772,0.060002691322200104,24377,47.10586195560605,0.0
119,1.6515007019042969,48.23672382287792,9.356669758291417,56.959347266962276,33.79594788581129,0.0,0.17848577966416468,0.1,0.0032911300659179688,0.054404258728027344,0.049930036,0.6728453,41.5676284609758,0.0,0.6160003887083908,0.0,267,0.08750343322753906,0.07606616404894104,0.08051874718563692,24644,56.85533103800426,0.0
120,1.411048173904419,33.09872339687703,2.319740460997399,35.64528661275435,30.67039638260321,0.0,0.14783213162995001,0.1,0.07785487174987793,0.0443875789642334,0.04941011,3.3338695,40.72073795456592,0.0,0.43070960085453047,0.0,197,0.14572477340698242,0.43055021431184864,0.22937866839030405,24841,46.15867824924137,0.0
121,1.4442706108093262,24.20269669170819,17.459953138430734,44.750740118375425,-1.3839389998017573,0.0,0.1283101435846946,0.1,0.0585780143737793,0.11291646957397461,0.049775522,0.88019913,39.06893382828015,0.0,0.31204060562819896,0.0,163,0.18468785285949707,0.5436688183487118,0.4018698160352141,25004,48.192545662346184,0.0
122,1.6083474159240723,33.19030366131953,9.516741869772028,46.75238245334502,19.90590391562505,0.0,0.15671354676716545,0.1,0.0025289058685302734,0.04569077491760254,0.049703807,0.71932983,38.48107081158409,0.0,0.4286037639989949,0.0,201,0.1838691234588623,0.1615410485245144,0.1094087926100851,25205,45.18194767841816,0.0
123,1.5653035640716553,31.47102485649398,9.528561614079024,45.911855545358335,19.186451045614444,0.0,0.14255834834401448,0.1,0.0023806095123291016,0.048213958740234375,0.04995951,0.76017326,37.78006621607508,0.0,0.4055547590219176,0.0,193,0.25049614906311035,0.13482061128849782,0.1486577260927645,25398,47.634615357129896,0.0
124,1.5575623512268066,36.34734686559081,10.992369254686238,47.46972394531102,18.694483055413784,0.0,0.15574303902956482,0.1,0.09806346893310547,0.991248607635498,0.049613804,0.66405517,37.636794281026646,0.0,0.47400201946580023,0.0,219,0.20658421516418457,0.17727546121831536,0.1995867707053373,25617,45.593100913456276,0.0
125,1.676478624343872,41.93083911533502,14.12907921890218,56.392849380510974,18.503919280619876,0.0,0.1640204745737868,0.1,0.0025548934936523438,0.04620194435119629,0.050314996,0.48681465,38.06619876445748,0.0,0.5384108021428439,0.0,242,0.3177824020385742,0.2896796322318653,0.2570757657543878,25859,47.71078418305765,0.0
126,1.5756030082702637,41.045146524897504,5.542795429001029,47.68454477456937,35.36620918355153,0.0,0.16271641335252,0.1,0.002756357192993164,0.25232458114624023,0.049353585,0.69431716,38.364093540501486,0.0,0.5332597407289011,0.0,236,0.137009859085083,0.16106898898925953,0.1035107104837887,26095,47.7647267123863,0.0
127,1.5799038410186768,50.1925671564048,6.853314227440616,57.21065871314996,42.817212740968536,0.0,0.18111593332526413,0.1,0.0027773380279541016,0.04859280586242676,0.04952486,0.5953673,39.54694090209182,0.0,0.6419049692675075,0.0,278,0.504016637802124,0.1972212060699034,0.08552817671258328,26373,43.40764911630612,0.0
128,1.568091630935669,45.520241625597066,7.804663829595648,56.47820410931347,34.44584597790333,0.0,0.16975113557150925,0.1,0.0027081966400146484,0.05304241180419922,0.04995236,0.7382991,40.14427097444234,0.0,0.5861861786531852,0.0,256,0.07591056823730469,0.07696517821374481,0.09836201387302149,26629,45.364005459763355,0.0
129,1.5309357643127441,33.06245163032164,1.51577493234843,34.91923764799433,30.963800481780947,0.0,0.15273551588657552,0.1,0.003162384033203125,0.04548931121826172,0.049833804,1.1192864,39.436089040030275,0.0,0.43035129689576124,0.0,197,0.32428407669067383,0.367454281828757,0.25458661660334614,26826,44.013360176173244,0.0
130,1.627678632736206,37.092374682346275,7.290361161128745,49.39381711327229,31.095122223439223,0.0,0.1490983041909272,0.1,0.05886507034301758,0.04870152473449707,0.049251843,3.0768716,39.20171760426187,0.0,0.4839744851312637,0.0,217,0.3246030807495117,0.15820528928415614,0.08781303314963926,27043,43.207480377802256,0.0
131,1.6231861114501953,45.073119181214416,8.298657118234877,55.75436581410724,32.84487873214423,0.0,0.1779179911188012,0.1,0.002566099166870117,0.05240011215209961,0.05015814,0.6742503,39.78885776195713,0.0,0.5804783293313931,0.0,257,0.3621025085449219,0.08662438976689228,0.11276986564613878,27300,43.30391285829524,0.0
132,1.5282039642333984,37.46865692748038,13.202088108370937,56.05773784009904,19.601181531567352,0.0,0.16597729306050588,0.1,0.09587860107421875,0.16469955444335938,0.049663045,0.93703836,39.55683767850946,0.0,0.4790455185127467,0.0,222,0.05621600151062012,0.16180856475840064,0.16060776762605214,27522,43.28120458586495,0.0
133,1.5672566890716553,38.90862551909426,6.576358571746655,47.8036032252953,32.28717170394699,0.0,0.16778917602724333,0.1,0.0023550987243652344,0.0457005500793457,0.04950679,1.1466864,39.492016462567946,0.0,0.5047312530377269,0.0,227,0.3300623893737793,0.06990666675381531,0.06817619962730502,27749,43.09176892331419,0.0
134,1.6396872997283936,46.52843853209832,5.561121543478958,56.11947768055227,42.86464647737057,0.0,0.17708768056386967,0.1,0.19646406173706055,0.23765921592712402,0.049015,0.7192491,40.19565866952098,0.0,0.599840237959594,0.0,268,0.506051778793335,0.09287727936521037,0.0657594364099197,28017,43.05537468186255,0.0
135,1.5806527137756348,44.44256378170151,8.998074282769368,56.658539198563986,31.671381423920074,0.0,0.17150704967807526,0.1,0.1523425579071045,0.05185055732727051,0.0495086,0.6863265,40.620349180739034,0.0,0.5718827199956017,0.0,252,0.3205251693725586,0.10143123530510288,0.09695633578202689,28269,42.09224885273331,0.0
136,1.4996795654296875,37.85410284630119,4.716822188912502,44.72885654918256,32.46734233777587,0.0,0.16276297866945408,0.1,0.002519369125366211,0.047096967697143555,0.050302725,1.8665761,40.343724547295245,0.0,0.4907880904214478,0.0,224,0.33272218704223633,0.09820818751869369,0.09854662628600959,28493,40.17858829291869,0.0
137,1.5270590782165527,30.972721726011873,15.380330610805439,55.67199392535396,16.731628864712402,0.0,0.15881865779877405,0.1,0.0025832653045654297,0.0463254451751709,0.04966714,0.7117196,39.40662426516691,0.0,0.39251132220411855,0.0,192,0.0632925033569336,0.34040057334993956,0.2941006819777863,28685,39.09032563585232,0.0
138,1.5642642974853516,50.01074225714921,4.006931330111156,56.866856105370985,46.71471409398965,0.0,0.17212878116779334,0.1,0.002955198287963867,0.054556846618652344,0.049260247,0.9618762,40.467036064365146,0.0,0.6461774904463733,0.0,280,0.10347270965576172,0.07188410596253927,0.07464650257576115,28965,41.34433381708107,0.0
139,1.5454151630401611,32.16302465818728,10.155728457590559,45.73380517546386,17.682689642919406,0.0,0.15741154957323783,0.1,0.002474546432495117,0.05203652381896973,0.05025266,0.92516154,39.63663492374736,0.0,0.41494639368038116,0.0,197,0.3130481243133545,0.20159407015616684,0.1908934181878845,29162,40.173958540575946,0.0
140,1.5830235481262207,31.8605411501701,15.418168072862484,51.42789534878687,8.224751559775706,0.0,0.15138261470330563,0.1,0.0976719856262207,0.3846912384033203,0.050451897,0.71000266,38.85902554638963,0.0,0.4108421365508047,0.0,196,0.1633315086364746,0.2600609989681843,0.23773926505112414,29358,40.08243716647626,0.0
141,1.4829444885253906,29.434652709121274,7.006087564411764,35.547414154156456,18.397729242235908,0.0,0.15276148303718384,0.1,0.10834050178527832,1.720435380935669,0.05029935,0.8075304,37.9165882626628,0.0,0.3786494636257705,0.0,182,0.19140124320983887,0.18573713943697273,0.1556956659205997,29540,39.150523609457984,0.0
142,1.6077890396118164,51.88321583178225,5.731916664059916,56.75677235942029,42.66848099871093,0.0,0.1849415420685923,0.1,0.21379876136779785,0.2417144775390625,0.050418798,0.52905136,39.31325101957475,0.0,0.6645008641356419,0.0,286,0.33347558975219727,0.15235018491416882,0.13480509346016378,29826,40.168482097712456,0.0
143,1.6377320289611816,43.7479467636832,10.366299693765324,56.84416110812286,32.915549666152614,0.0,0.16752196706475167,0.1,0.1558990478515625,0.514887809753418,0.049853,0.8150969,39.75672059398559,0.0,0.5627408164311075,0.0,245,0.21369719505310059,0.12086387619579646,0.10598254686796076,30071,41.14010898775951,0.0
144,1.5992064476013184,45.01329498090466,2.6686050670130346,48.71201990537005,41.31546956621426,0.0,0.17410855398970343,0.1,0.005880832672119141,0.16637229919433594,0.05026569,2.2924604,40.2823780326775,0.0,0.5863470285955531,0.0,265,0.09522366523742676,0.04032295629225014,0.0379981882279908,30336,40.074244434069904,0.0
145,1.6997568607330322,42.33128959004351,10.215735865491368,56.493200571655436,32.218339998014805,0.0,0.18233361986937555,0.1,0.0025603771209716797,0.05123615264892578,0.049777433,0.7798186,40.4872691884141,0.0,0.5439720638138376,0.0,242,0.2656722068786621,0.10637972698077915,0.10932697667229199,30578,41.26888650161748,0.0
146,1.6210901737213135,39.998015166997824,6.047722019585957,48.6364653509966,33.20423928133524,0.0,0.16030515299643688,0.1,0.021458148956298828,0.04656982421875,0.049663156,1.09727,40.438343786272476,0.0,0.5194689444302136,0.0,234,0.28229641914367676,0.09070397886560126,0.07941153034750499,30812,39.99046227086411,0.0
147,1.6868159770965576,39.47260081129299,9.847178565006553,56.40761206586935,32.62463442612479,0.0,0.1638724473349578,0.1,0.1138601303100586,0.2459399700164795,0.049821395,0.8385864,40.34176948877453,0.0,0.5058120117508702,0.0,224,0.16622567176818848,0.13658974694325052,0.11750924999969599,31036,41.225024042719,0.0
148,1.6354293823242188,41.30039441543934,10.750513288453785,56.542041921287144,27.664933697514247,0.0,0.16924429236460828,0.1,0.031531572341918945,0.08885431289672852,0.050518483,0.83206075,40.437631981441015,0.0,0.5334613563239886,0.0,239,0.37700366973876953,0.10476699036191611,0.10513274179978177,31275,40.06241551761152,0.0
149,1.6357991695404053,43.41186180582582,8.617118097299574,56.64517124450383,35.63305002195425,0.0,0.1599785736406643,0.1,0.16875505447387695,1.9600121974945068,0.049226716,0.6924112,40.7350549638795,0.0,0.558135059249678,0.0,243,0.3513038158416748,0.09754758747604254,0.10074789474807291,31518,40.09254427924752,0.0
150,1.637439250946045,43.22553193925651,9.308804956006353,57.04465772390067,32.280824684816864,0.0,0.1703650916012744,0.1,0.1475367546081543,0.6127495765686035,0.049816646,0.87397045,40.9841026614172,0.0,0.5557407965524295,0.0,249,0.16900849342346191,0.09617867154851235,0.09319749500554374,31767,41.060481703382784,0.0
151,1.6677405834197998,38.07722761864798,11.243195326244452,57.04683850647967,27.772111775847318,0.0,0.15915576243448734,0.1,0.020884275436401367,0.1256570816040039,0.050546784,0.9419736,40.69341515714027,0.0,0.4905060964126502,0.0,219,0.33463144302368164,0.13902550787413345,0.13969521830083192,31986,41.146289337423376,0.0
152,1.6909923553466797,41.494013216523,5.351359901445179,45.95995042902697,32.36727613608856,0.0,0.16903302719287744,0.1,0.07500171661376953,0.04537153244018555,0.050445948,0.85515875,40.77347496307854,0.0,0.5394823776394635,0.0,246,0.15736937522888184,0.06103679179591411,0.06014108046329243,32232,41.10710437512511,0.0
153,1.6730496883392334,42.93059436135075,9.057088515893401,57.06461698941926,34.263294006332245,0.0,0.16926136609423217,0.1,0.15871977806091309,0.22184181213378906,0.050068785,0.7791714,40.989186902905764,0.0,0.5517477542822341,0.0,241,0.14570188522338867,0.09594995736758974,0.09467583555801881,32473,40.08718707279604,0.0
154,1.554624080657959,42.22708140647836,10.542102246817777,56.081692647130716,31.225667639978678,0.0,0.1585598889473163,0.1,0.042119741439819336,0.32131314277648926,0.049774744,1.0300624,41.11297635326303,0.0,0.5424291488612654,0.0,239,0.3410522937774658,0.1076483746813356,0.10683406081611903,32712,40.015229434735154,0.0
155,1.577399492263794,46.47138852293817,8.060288304032898,56.90980727690623,34.310252247788675,0.0,0.173566664243577,0.1,0.03882026672363281,0.10176324844360352,0.051050372,0.7080298,41.64881757023054,0.0,0.598918997555168,0.0,260,0.2387392520904541,0.08025643114005465,0.07117960320341958,32972,38.87087527640017,0.0
156,1.8236312866210938,44.68109807427697,8.812443207935297,57.08419204708984,32.205200429923096,0.0,0.16150646611495825,0.1,0.23663783073425293,2.272686004638672,0.049703464,0.75832385,41.95204562063518,0.0,0.5750513090520695,0.0,253,0.33342599868774414,0.07505420987670407,0.07402929228439774,33225,40.14559809983412,0.0
157,1.5612266063690186,26.023441832001417,15.54544626808485,45.17913087094608,4.6602870117655995,0.0,0.14454262025692832,0.1,0.06581830978393555,0.2346487045288086,0.049885176,0.88922924,40.35918524177181,0.0,0.3364242432375181,0.0,176,0.18217945098876953,0.5800049168649175,0.5423906200311538,33401,41.108739809923016,0.0
158,1.5889639854431152,33.7030487757719,10.46595670932679,46.57727444619015,17.379720311191594,0.0,0.1478797114576947,0.1,0.11835026741027832,0.2606031894683838,0.050015606,0.8744074,39.693571595171825,0.0,0.4421058809878692,0.0,205,0.31490516662597656,0.2015406839697066,0.14079578235905438,33606,41.10079010717116,0.0
159,1.6241166591644287,42.55893460528254,8.85822832865502,57.04346693049979,34.46961627708096,0.0,0.17398933492230986,0.1,0.0395207405090332,0.8236784934997559,0.05007205,0.9053838,39.9801078961829,0.0,0.550064801284118,0.0,240,0.3349003791809082,0.09014881513014496,0.10037688376264306,33846,40.94710372873515,0.0
160,1.695042371749878,52.52305054377415,5.062289997658257,57.9965552042085,44.659847746713744,0.0,0.17465057831750655,0.1,0.20314383506774902,0.15302300453186035,0.050662786,0.55836385,41.234402160942025,0.0,0.6732640772678813,0.0,290,0.16020965576171875,0.12944467307065105,0.0982256204669832,34136,40.05426181665523,0.0
161,1.6446359157562256,48.02413628555142,8.91447434291582,57.07227950220358,35.78237140951703,0.0,0.17078797514106958,0.1,0.03345894813537598,0.10187935829162598,0.049716976,0.59020233,41.913375573402966,0.0,0.6130418990013685,0.0,265,0.5409398078918457,0.10041472433094818,0.06721566663685143,34401,38.912358658050444,0.0
162,1.5893442630767822,36.08504312069642,13.307133068774773,57.128080153138086,20.553106886253957,0.0,0.15246069213627608,0.1,0.09829831123352051,0.10411429405212402,0.05011081,0.7176012,41.33054232813231,0.0,0.4638753352988836,0.0,211,0.251054048538208,0.2360385485925073,0.24965772755840945,34612,38.876833369339174,0.0
163,1.7194061279296875,50.9011836840328,9.477928035510804,58.0128838603877,34.603858553518265,0.0,0.17019655109915732,0.1,0.0315251350402832,0.7506728172302246,0.050300762,0.6880968,42.28760646372236,0.0,0.6447975056791899,0.0,275,0.546602725982666,0.06599893665341451,0.06627764073436007,34887,39.94137164101238,0.0
164,1.645899772644043,39.346239701856085,14.211597567728495,57.66389391107029,20.090927730772854,0.0,0.16296180929044565,0.1,0.011061429977416992,0.04562711715698242,0.049798056,0.7093617,41.99346978753573,0.0,0.5038739023410013,0.0,226,0.3377399444580078,0.18263300988549924,0.16315431472417022,35113,38.830067475281155,0.0
165,1.7682833671569824,47.99983162100966,8.835986717203403,56.753259329442876,34.32766541797911,0.0,0.17726438791550975,0.1,0.0026662349700927734,0.049112796783447266,0.049764346,0.8848889,42.59410597088312,0.0,0.6128517666778015,0.0,267,0.2280890941619873,0.0660495161668584,0.07141028563923912,35380,38.87081258065194,0.0
166,1.6506576538085938,38.28182041711009,14.812891531933985,57.23737329640395,18.74334150740253,0.0,0.15488524611263332,0.1,0.09939169883728027,0.19870400428771973,0.049947377,0.7913352,42.16287741550582,0.0,0.4897894812732881,0.0,224,0.3197298049926758,0.17445604578374416,0.16860878713240024,35604,38.8218130260786,0.0
167,1.713942289352417,47.675953859882384,9.01630776499286,56.403601366065,34.14844411082275,0.0,0.16796189824789884,0.1,0.15685224533081055,0.29561758041381836,0.050463967,0.8102567,42.714185059943475,0.0,0.6085695988393498,0.0,266,0.502331018447876,0.07279786441524365,0.06670116708818057,35870,38.920333433717126,0.0
168,1.6440415382385254,33.41662322961435,8.553342282252274,44.971942332363646,20.84647796238533,0.0,0.15654031375084604,0.1,0.10008525848388672,0.5337703227996826,0.049889613,1.5373218,41.78442887691056,0.0,0.43164177294627737,0.0,202,0.3410608768463135,0.2142258843125976,0.19494819126853818,36072,38.85057663928332,0.0
169,1.663750410079956,48.52126668129412,6.252601479866881,59.06537582633903,42.678087067782926,0.0,0.1626056507641963,0.1,0.0028083324432373047,0.049154043197631836,0.04953238,0.9833212,42.45811265734892,0.0,0.6263291648190402,0.0,273,0.4225928783416748,0.051698035820160436,0.05459870428116453,36345,38.81381162496809,0.0
170,1.6202976703643799,45.5893275302476,11.583453059445871,56.86408468809397,27.94085810006441,0.0,0.17110451775570945,0.1,0.0026702880859375,0.04781794548034668,0.04968261,0.6267236,42.77123414463879,0.0,0.587226243774242,0.0,257,0.12261629104614258,0.10464139313271766,0.0987077878776247,36602,39.81961881583466,0.0
171,1.6860089302062988,52.618452403718706,4.32102041481505,57.257785486959364,47.63147321612666,0.0,0.16411143107819517,0.1,0.19480443000793457,1.1772005558013916,0.049984567,0.9084481,43.75595597054678,0.0,0.6743067326325851,0.0,288,0.12244629859924316,0.06071346412492806,0.03904228390156215,36890,35.67387812586994,0.0
172,1.632507562637329,43.662649314593,8.256533514370135,56.48487968339313,35.94717775212192,0.0,0.16360037137876898,0.1,0.015403032302856445,0.11219668388366699,0.049779244,0.8558514,43.7466253049514,0.0,0.5681074099584486,0.0,245,0.05838513374328613,0.1109191762948225,0.1183750381475273,37135,37.806547964168665,0.0
173,1.6365365982055664,30.216385721286922,19.206470500870235,46.04606027067131,-1.278196138266592,0.0,0.13362013227872913,0.1,0.015644073486328125,0.1449272632598877,0.05102516,0.5102043,42.39360134658496,0.0,0.39242016555849046,0.0,195,0.08902359008789062,0.3687554871955192,0.29602321255493813,37330,36.7806286447515,0.0
174,1.6916038990020752,49.44236492568696,4.586588032321301,56.82794705291273,44.70825805593706,0.0,0.16971382903329457,0.1,0.04656553268432617,0.04860997200012207,0.04964384,0.57158685,43.09847770449516,0.0,0.6385556572593498,0.0,277,0.1423952579498291,0.044069272905093354,0.05918727127492542,37607,36.80783789142213,0.0
175,1.7103047370910645,42.03155695890131,15.659282240900838,56.89457048534633,19.728431501861767,0.0,0.15891847284823657,0.1,0.14813733100891113,0.23865437507629395,0.04976634,0.5097552,42.99178562993578,0.0,0.5332249756417579,0.0,237,0.314373254776001,0.14847572151203225,0.14789859810219477,37844,37.87251137115949,0.0
176,1.7900941371917725,55.44816592829784,2.3330714273735844,56.91451834844974,51.4115368438175,0.0,0.16333134978521288,0.1,0.0026323795318603516,0.6625299453735352,0.049948122,0.59119004,44.237423659771984,0.0,0.705340150536507,0.0,297,0.1617426872253418,0.10784604106438361,0.0611101750527622,38141,23.97237669185844,0.0
177,1.8167238235473633,47.65691438678611,15.543215424275548,56.83692393316503,20.73842737270659,0.0,0.16174569902100508,0.1,0.002674102783203125,0.04815483093261719,0.04953025,0.50360924,44.579372732473395,0.0,0.6014937191004759,0.0,262,0.44591641426086426,0.12452079966905963,0.12398019244873336,38403,36.88708015964165,0.0
178,1.8068807125091553,51.43855798392328,9.282354484315071,57.077127671316184,35.36452990998428,0.0,0.17818438163585762,0.1,0.17328977584838867,0.45259737968444824,0.04947387,0.84513205,45.26529125761839,0.0,0.6552127596195565,0.0,278,0.3356208801269531,0.0651548470465517,0.06788190055926743,38681,36.893326282864386,0.0
179,1.681546688079834,41.41843303771304,8.44222477500486,54.33463554865816,32.66358338208235,0.0,0.1631603399559596,0.1,0.016823530197143555,0.060156822204589844,0.050104387,0.9319643,44.88060543562785,0.0,0.5318628618432485,0.0,239,0.19994354248046875,0.2115815626651252,0.14761653286028828,38920,35.819990494081814,0.0
180,1.740494728088379,44.05994757045205,9.36217846598483,55.81110879294276,29.911791432592167,0.0,0.167332285370832,0.1,0.0025691986083984375,0.052835941314697266,0.049866356,0.7291082,44.798539649110275,0.0,0.5669875107635451,0.0,253,0.11958599090576172,0.11467285128209827,0.08433020967283512,39173,36.855958065889475,0.0
