Iter | Sampling Pol | Evaluation Pol | Best (Sampled) 
   0 -1.95 -1.96 -100000000.00 
   1 -1.93 -1.96 -1.95 
   2 -1.94 -1.95 -1.93 
   3 -1.95 -1.95 -1.93 
   4 -1.93 -1.95 -1.93 
   5 -1.95 -1.95 -1.93 
   6 -1.95 -1.93 -1.93 
   7 -1.96 -1.92 -1.93 
   8 -1.95 -1.91 -1.93 
   9 -1.95 -1.89 -1.93 
  10 -1.94 -1.87 -1.93 
  11 -1.91 -1.86 -1.93 
  12 -1.80 -1.82 -1.91 
  13 -1.94 -1.80 -1.80 
  14 -1.91 -1.80 -1.80 
  15 -1.92 -1.82 -1.80 
  16 -1.96 -1.79 -1.80 
  17 -1.95 -1.84 -1.80 
  18 -1.60 -1.85 -1.80 
  19 -1.94 -1.84 -1.60 
  20 -1.89 -1.79 -1.60 
  21 -1.89 -1.72 -1.60 
  22 -1.88 -1.71 -1.60 
  23 -1.93 -1.70 -1.60 
  24 -1.92 -1.68 -1.60 
  25 -1.83 -1.68 -1.60 
  26 -1.94 -1.66 -1.60 
  27 -1.93 -1.54 -1.60 
  28 -1.84 -1.48 -1.60 
  29 -1.87 -1.37 -1.60 
  30 -1.85 -1.46 -1.60 
  31 -1.85 -1.37 -1.60 
  32 -1.86 -1.36 -1.60 
  33 -1.86 -1.29 -1.60 
  34 -1.87 -1.14 -1.60 
  35 -1.91 -0.93 -1.60 
  36 -1.76 -0.75 -1.60 
  37 -1.67 -0.77 -1.60 
  38 -1.48 -0.74 -1.60 
  39 -1.84 -0.59 -1.48 
  40 -1.85 -0.46 -1.48 
  41 -1.94 -0.58 -1.48 
  42 -1.47 -0.47 -1.48 
  43 -1.78 -0.44 -1.47 
  44 -1.88 -0.26 -1.47 
  45 -1.84 -0.27 -1.47 
  46 -1.94 -0.22 -1.47 
  47 -1.92 -0.74 -1.47 
  48 -1.37 -0.81 -1.47 
  49 -1.91 -0.60 -1.37 
  50 -1.82 -0.59 -1.37 
  51 -1.70  0.13 -1.37 
  52 -1.44 -0.19 -1.37 
  53 -1.86 -0.43 -1.37 
  54 -1.85 -0.04 -1.37 
  55 -1.67  0.28 -1.37 
  56 -1.83  0.25 -1.37 
  57 -1.75  0.44 -1.37 
  58 -1.41  0.28 -1.37 
  59 -1.31  0.32 -1.37 
  60 -1.62  0.26 -1.31 
  61 -1.53  0.98 -1.31 
  62 -1.23  0.98 -1.31 
  63 -1.75  1.04 -1.23 
  64 -1.25  1.50 -1.23 
  65 -0.57  1.64 -1.23 
  66 -0.95  2.20 -0.57 
  67 -0.57  2.08 -0.57 
  68 -0.42  1.58 -0.57 
  69 -1.58  2.11 -0.42 
  70 -0.40  1.85 -0.42 
  71 -1.07  2.08 -0.40 
  72 -1.15  2.19 -0.40 
  73 -1.14  2.32 -0.40 
  74 -1.32  2.42 -0.40 
  75 -0.96  2.22 -0.40 
  76 -0.87  2.59 -0.40 
  77 -1.38  3.19 -0.40 
  78 -0.77  2.90 -0.40 
  79 -0.78  2.68 -0.40 
  80 -1.09  3.32 -0.40 
  81 -0.92  4.15 -0.40 
  82  0.79  4.05 -0.40 
  83  0.03  4.23  0.79 
  84 -0.72  3.81  0.79 
  85 -1.18  4.50  0.79 
  86 -1.45  4.35  0.79 
  87 -0.81  4.52  0.79 
  88 -0.57  3.53  0.79 
  89 -0.88  3.79  0.79 
  90 -0.29  3.01  0.79 
  91 -0.41  3.04  0.79 
  92  1.94  2.67  0.79 
  93 -0.80  3.08  1.94 
  94  0.18  3.17  1.94 
  95 -1.19  3.38  1.94 
  96 -0.53  3.22  1.94 
  97 -0.75  3.26  1.94 
  98 -0.48  3.33  1.94 
  99  0.01  3.13  1.94 
 100 -1.09  3.17  1.94 
 101 -0.97  2.85  1.94 
 102 -0.43  2.63  1.94 
 103 -0.02  3.02  1.94 
 104 -0.59  3.08  1.94 
 105  1.79  3.08  1.94 
 106 -0.07  2.98  1.94 
 107  3.53  3.06  1.94 
 108 -0.61  2.90  3.53 
 109 -0.93  2.10  3.53 
 110 -0.85  1.72  3.53 
 111  3.48  1.92  3.53 
 112 -0.35  1.67  3.53 
 113  0.74  2.26  3.53 
 114  5.89  2.43  3.53 
 115  3.14  2.52  5.89 
 116 -0.37  3.51  5.89 
 117 -0.39  2.88  5.89 
 118  1.62  2.77  5.89 
 119 -1.24  3.32  5.89 
 120  0.36  4.00  5.89 
 121 -0.38  3.63  5.89 
 122  0.35  3.58  5.89 
 123  5.36  3.34  5.89 
 124 -0.34  3.20  5.89 
 125 -1.22  2.98  5.89 
 126  0.47  2.94  5.89 
 127  2.15  3.49  5.89 
 128  0.02  3.53  5.89 
 129  0.67  3.87  5.89 
 130  4.34  3.39  5.89 
 131 -0.60  3.72  5.89 
 132  0.69  3.33  5.89 
 133 -0.32  3.14  5.89 
 134  0.70  3.06  5.89 
 135 -0.03  3.09  5.89 
 136  0.25  2.94  5.89 
 137 -0.18  3.40  5.89 
 138  0.03  3.16  5.89 
 139  8.26  2.87  5.89 
 140  0.10  3.09  8.26 
 141  0.43  3.58  8.26 
 142 -0.22  3.77  8.26 
 143 -0.60  4.10  8.26 
 144 -0.71  4.35  8.26 
 145  2.31  3.76  8.26 
 146  0.39  3.66  8.26 
 147 -0.54  3.44  8.26 
 148  0.11  3.63  8.26 
 149  0.20  2.91  8.26 
 150  0.12  2.74  8.26 
 151  0.66  3.05  8.26 
 152 -0.55  3.14  8.26 
 153 -0.45  3.03  8.26 
 154 -0.25  2.90  8.26 
 155  0.33  3.08  8.26 
 156 -0.79  3.40  8.26 
 157 -0.03  3.55  8.26 
 158 -0.31  3.27  8.26 
 159 -1.00  3.68  8.26 
 160  0.36  3.34  8.26 
 161 -0.12  3.56  8.26 
 162  1.78  3.13  8.26 
 163  1.34  2.78  8.26 
 164 -0.94  2.12  8.26 
 165 -0.33  2.40  8.26 
 166  1.16  2.46  8.26 
 167  1.95  2.37  8.26 
 168  0.23  2.60  8.26 
 169  0.54  2.41  8.26 
 170 -0.65  2.64  8.26 
 171  1.30  1.43  8.26 
 172  0.59  1.25  8.26 
 173 -0.26  1.12  8.26 
 174  0.76 -0.68  8.26 
 175  0.12 -1.30  8.26 
 176 -0.90  1.51  8.26 
 177 -0.51  1.83  8.26 
 178  1.21  1.42  8.26 
 179  0.58  0.86  8.26 
 180  0.40 -0.92  8.26 
 181  0.47  0.24  8.26 
 182  0.03  1.52  8.26 
 183  0.58  1.37  8.26 
 184 -0.03 -0.43  8.26 
 185 -0.84  2.07  8.26 
 186  0.22  1.41  8.26 
 187  0.87  1.01  8.26 
 188  0.48  2.82  8.26 
 189  0.65 -0.08  8.26 
 190 -0.37  0.06  8.26 
 191  1.78  1.50  8.26 
 192  0.11  1.43  8.26 
 193 -0.23  1.76  8.26 
 194 -0.33  1.73  8.26 
 195 -0.23  1.14  8.26 
 196 -0.08  1.55  8.26 
 197  1.99  1.73  8.26 
 198  4.57  1.94  8.26 
 199  1.32  2.06  8.26 
 200  0.31  3.02  8.26 
 201  1.58  3.13  8.26 
 202  0.43  3.54  8.26 
 203  0.67  3.41  8.26 
 204  1.66  3.27  8.26 
 205  0.95  2.83  8.26 
 206  1.36  2.72  8.26 
 207  1.63  3.13  8.26 
 208  0.26  3.20  8.26 
 209  3.73  3.22  8.26 
 210  1.16  3.27  8.26 
 211  0.83  2.79  8.26 
 212  1.48  2.79  8.26 
 213  2.83  2.91  8.26 
 214  2.91  3.33  8.26 
 215  1.43  3.34  8.26 
 216  0.08  3.48  8.26 
 217  2.83  4.41  8.26 
 218  1.39  4.17  8.26 
 219  1.71  4.00  8.26 
 220  1.24  3.85  8.26 
 221  0.76  4.13  8.26 
 222  1.00  4.16  8.26 
 223 -0.62  4.04  8.26 
 224  1.20  3.96  8.26 
 225  0.92  3.93  8.26 
 226  0.67  4.08  8.26 
 227  1.02  3.79  8.26 
 228  3.61  3.75  8.26 
 229  0.58  3.73  8.26 
 230 -0.05  3.86  8.26 
 231  1.66  3.35  8.26 
 232  1.04  3.69  8.26 
 233  1.15  3.80  8.26 
 234  0.02  3.73  8.26 
 235  0.31  3.92  8.26 
 236  0.65  3.86  8.26 
 237  2.81  3.96  8.26 
 238  1.02  4.00  8.26 
 239  2.48  3.89  8.26 
 240  0.82  3.82  8.26 
 241  2.55  3.75  8.26 
 242  2.33  3.81  8.26 
 243  0.62  3.95  8.26 
 244  2.11  3.79  8.26 
 245  2.77  3.66  8.26 
 246  0.26  3.74  8.26 
 247  2.87  3.49  8.26 
 248  0.85  4.06  8.26 
 249  1.77  4.18  8.26 
 250  1.21  3.85  8.26 
 251  0.50  3.64  8.26 
 252  2.42  3.85  8.26 
 253  1.27  3.88  8.26 
 254  0.29  3.64  8.26 
 255  1.11  3.64  8.26 
 256  2.23  3.75  8.26 
 257  1.93  3.69  8.26 
 258  1.32  4.29  8.26 
 259  1.92  4.25  8.26 
 260  1.54  3.85  8.26 
 261  2.17  3.47  8.26 
 262  1.52  3.48  8.26 
 263  0.18  5.09  8.26 
 264  1.74  6.70  8.26 
 265  2.46  6.17  8.26 
 266  2.48  6.19  8.26 
 267  4.03  6.10  8.26 
 268  1.96  4.64  8.26 
 269  3.85  5.19  8.26 
 270  0.55  3.52  8.26 
 271  1.99  5.26  8.26 
 272  1.97  5.93  8.26 
 273  4.58  7.38  8.26 
 274  0.26  5.16  8.26 
 275  3.96  6.05  8.26 
 276  1.14  6.15  8.26 
 277  2.48  5.52  8.26 
 278  2.71  5.91  8.26 
 279  3.80  4.93  8.26 
 280  3.52  4.40  8.26 
 281  1.26  4.53  8.26 
 282  1.63  4.37  8.26 
 283  2.07  4.69  8.26 
 284  3.36  6.82  8.26 
 285  1.76  9.68  8.26 
 286  2.61  6.49  8.26 
 287  0.88  6.59  8.26 
 288  3.41  9.69  8.26 
 289  2.89  6.69  8.26 
 290  3.36  7.24  8.26 
 291  3.81  8.30  8.26 
 292  0.93  7.36  8.26 
 293  2.66  6.61  8.26 
 294  1.14  7.09  8.26 
 295  6.16  6.51  8.26 
 296  3.07  5.78  8.26 
 297  1.43  5.84  8.26 
 298  2.31  5.63  8.26 
 299  0.26  6.64  8.26 
 300  1.34  7.33  8.26 
 301  1.18  7.09  8.26 
 302  2.24  7.31  8.26 
 303  3.48  4.98  8.26 
 304  5.23  5.12  8.26 
 305  2.56  6.89  8.26 
 306  0.78  4.70  8.26 
 307  6.19  4.57  8.26 
 308  3.88  5.18  8.26 
 309  2.74  6.24  8.26 
 310  4.96  4.68  8.26 
 311  2.65  7.70  8.26 
 312  4.07  4.60  8.26 
 313  1.16  4.11  8.26 
 314  2.63  5.52  8.26 
 315  2.22  5.14  8.26 
 316  4.36  4.87  8.26 
 317  2.98  5.08  8.26 
 318  7.27  6.19  8.26 
 319  3.89  6.65  8.26 
 320  3.26  6.31  8.26 
 321  2.71  4.16  8.26 
 322  3.42  5.05  8.26 
 323  4.41  6.58  8.26 
 324 -0.06  6.79  8.26 
 325  5.23  6.98  8.26 
 326  1.97  5.82  8.26 
 327  2.14  5.15  8.26 
 328  3.05  5.76  8.26 
 329  1.68  7.27  8.26 
 330  3.20  4.82  8.26 
 331  5.38  4.47  8.26 
 332  2.66  4.72  8.26 
 333  0.67  4.26  8.26 
 334  1.13  4.19  8.26 
 335  1.96  4.83  8.26 
 336  1.90  4.98  8.26 
 337  1.78  4.85  8.26 
 338  2.85  5.27  8.26 
 339  0.89  5.12  8.26 
 340  3.95  5.10  8.26 
 341  1.54  4.99  8.26 
 342  2.97  5.09  8.26 
 343  1.76  5.04  8.26 
 344  4.93  5.01  8.26 
 345  1.97  5.08  8.26 
 346  2.01  4.83  8.26 
 347  3.63  5.03  8.26 
 348  2.85  7.59  8.26 
 349  3.22  4.94  8.26 
 350  1.15  5.07  8.26 
 351  1.41  8.18  8.26 
 352  0.26  5.00  8.26 
 353  4.95  4.90  8.26 
 354  3.90  4.89  8.26 
 355  1.73  4.63  8.26 
 356  2.34  4.22  8.26 
 357  1.95  4.10  8.26 
 358  5.29  4.21  8.26 
 359  3.40  3.95  8.26 
 360  2.99  4.04  8.26 
 361  3.65  4.09  8.26 
 362  2.61  5.86  8.26 
 363  2.79  4.93  8.26 
 364  5.71  6.56  8.26 
 365  2.57  6.04  8.26 
 366  4.62  5.60  8.26 
 367  3.05  5.25  8.26 
 368  2.37  5.48  8.26 
 369  3.61  5.42  8.26 
 370  4.50  5.60  8.26 
 371  9.73  5.68  8.26 
 372  1.16  5.94  9.73 
 373  3.32  6.91  9.73 
 374  2.64  6.60  9.73 
 375  4.02  5.36  9.73 
 376  4.22  5.14  9.73 
 377  4.72  5.45  9.73 
 378  5.77  5.62  9.73 
 379  3.45  5.74  9.73 
 380  4.45  6.12  9.73 
 381  1.87  5.26  9.73 
 382  2.57  6.80  9.73 
 383  5.55  6.41  9.73 
 384  3.78  4.54  9.73 
 385  1.84  6.91  9.73 
 386  5.59  5.66  9.73 
 387  0.95  6.96  9.73 
 388  3.66  6.61  9.73 
 389  3.06  4.13  9.73 
 390  1.79  7.04  9.73 
 391  1.85  6.89  9.73 
 392  1.35  5.42  9.73 
 393  5.83  4.36  9.73 
 394  1.30  3.62  9.73 
 395  2.65  4.05  9.73 
 396  2.87  4.50  9.73 
 397  5.35  4.09  9.73 
 398  2.80  4.11  9.73 
 399  4.04  4.33  9.73 
 400  5.83  4.12  9.73 
 401  3.77  4.42  9.73 
 402  3.09  5.21  9.73 
 403  4.26  4.74  9.73 
 404  3.69  5.47  9.73 
 405  3.17  4.58  9.73 
 406  5.73  4.92  9.73 
 407  7.29  5.04  9.73 
 408  5.97  5.08  9.73 
 409  2.74  6.00  9.73 
 410  4.79  5.84  9.73 
 411  6.41  4.56  9.73 
 412  6.04  4.99  9.73 
 413  3.12  4.69  9.73 
 414  2.77  5.40  9.73 
 415  3.17  3.74  9.73 
 416  5.09  4.73  9.73 
 417  3.77  4.01  9.73 
 418  4.40  4.83  9.73 
 419  7.94  4.75  9.73 
 420  5.50  3.54  9.73 
 421  5.70  3.86  9.73 
 422  2.11  3.27  9.73 
 423  8.50  4.79  9.73 
 424  3.68 11.67  9.73 
 425  4.00  3.60  9.73 
 426  2.92  3.68  9.73 
 427  5.97  4.43  9.73 
 428  2.78  3.91  9.73 
 429  2.75  3.41  9.73 
 430  4.53  4.54  9.73 
 431  4.74  5.30  9.73 
 432  2.47  2.95  9.73 
 433  3.51  3.61  9.73 
 434  5.36  2.62  9.73 
 435  3.89  2.74  9.73 
 436  5.81  2.94  9.73 
 437  5.44  4.69  9.73 
 438  3.03  2.53  9.73 
 439  2.52  2.86  9.73 
 440  5.89  2.76  9.73 
 441  2.84  2.85  9.73 
 442  4.66  3.06  9.73 
 443  4.90  3.71  9.73 
 444  4.88  3.61  9.73 
 445  3.31  3.58  9.73 
 446  6.48  9.07  9.73 
 447  5.89  4.43  9.73 
 448  5.30  3.48  9.73 
 449  2.72  3.15  9.73 
 450 11.99  2.73  9.73 
 451  2.91  3.87 11.99 
 452  3.12  3.03 11.99 
 453  3.78  3.31 11.99 
 454  2.05  4.40 11.99 
 455  5.45  4.47 11.99 
 456  5.22  3.40 11.99 
 457  2.80  3.69 11.99 
 458  1.81  3.76 11.99 
 459  3.90  3.84 11.99 
 460  4.46  3.17 11.99 
 461  4.86  4.23 11.99 
 462  4.68  4.21 11.99 
 463  3.19 11.08 11.99 
 464  5.16 14.92 11.99 
 465  7.11 13.88 11.99 
 466  5.23 13.35 11.99 
 467  7.38 14.04 11.99 
 468  3.59 13.84 11.99 
 469  3.00 10.78 11.99 
 470  6.38  9.93 11.99 
 471  4.29 14.96 11.99 
 472  4.05 13.55 11.99 
 473  8.10 12.66 11.99 
 474  4.07 12.29 11.99 
 475  2.25 12.64 11.99 
 476  2.44 14.27 11.99 
 477  2.88 12.57 11.99 
 478  4.77 12.25 11.99 
 479  4.93 13.13 11.99 
 480  3.59 12.79 11.99 
 481  3.72 14.24 11.99 
 482  5.56  7.95 11.99 
 483  3.09 14.24 11.99 
 484  8.86 14.12 11.99 
 485  5.67  9.61 11.99 
 486  5.80 12.81 11.99 
 487  2.92 10.85 11.99 
 488  3.76  8.19 11.99 
 489  7.63 12.37 11.99 
 490  3.34 11.76 11.99 
 491  4.94 11.00 11.99 
 492  6.46 11.43 11.99 
 493  2.40 10.63 11.99 
 494  5.17  9.42 11.99 
 495  2.63 11.57 11.99 
 496  8.07 11.19 11.99 
 497  5.35 10.68 11.99 
 498  2.07  5.89 11.99 
 499  5.52  8.73 11.99 
 500  3.92  7.28 11.99 
 501  3.86  3.06 11.99 
 502  7.70 10.17 11.99 
 503  8.86 10.73 11.99 
 504  5.31 11.34 11.99 
 505  2.95 11.55 11.99 
 506  6.10  8.95 11.99 
 507  2.82  6.56 11.99 
 508  2.16  9.00 11.99 
 509  8.71  8.85 11.99 
 510  4.01 10.16 11.99 
 511  8.75  4.24 11.99 
 512  5.27  3.44 11.99 
 513  2.69 12.93 11.99 
 514  7.55  3.09 11.99 
 515  4.73  3.87 11.99 
 516  4.58  4.43 11.99 
 517  5.33  5.41 11.99 
 518  3.47  8.91 11.99 
 519  5.03  8.88 11.99 
 520  6.47 11.02 11.99 
 521  6.41  4.01 11.99 
 522  6.73  4.70 11.99 
 523  3.84  4.14 11.99 
 524  2.91  9.74 11.99 
 525  5.90  8.27 11.99 
 526  1.11 12.41 11.99 
 527  6.04 11.84 11.99 
 528  6.31 10.71 11.99 
 529  6.06 10.93 11.99 
 530  5.68 11.76 11.99 
 531  5.80 10.63 11.99 
 532  5.93 12.00 11.99 
 533  4.92 11.47 11.99 
 534  2.39 11.49 11.99 
 535  5.78 11.78 11.99 
 536  9.63 11.66 11.99 
 537  1.75 11.46 11.99 
 538  7.99 11.52 11.99 
 539  9.00 11.51 11.99 
 540  7.20 11.61 11.99 
 541  5.73 11.00 11.99 
 542  5.75 11.94 11.99 
 543  6.65 12.14 11.99 
 544  5.99 12.84 11.99 
 545  6.24  9.42 11.99 
 546  4.82 12.49 11.99 
 547  6.39 12.18 11.99 
 548  5.63 12.40 11.99 
 549  4.47 12.29 11.99 
 550  3.80 11.99 11.99 
 551  8.56 12.02 11.99 
 552  7.76 12.13 11.99 
 553  8.48 12.81 11.99 
 554  6.31  8.09 11.99 
 555  5.31 11.53 11.99 
 556  9.54 12.51 11.99 
 557  6.79 11.37 11.99 
 558  3.14 12.22 11.99 
 559  3.91 12.01 11.99 
 560  3.34 10.07 11.99 
 561  4.54 11.61 11.99 
 562  2.90 12.21 11.99 
 563 10.11 12.32 11.99 
 564  2.84 12.04 11.99 
 565  6.35 12.17 11.99 
 566  4.46 10.02 11.99 
 567 10.01  8.02 11.99 
 568  2.19 10.43 11.99 
 569  7.15  9.37 11.99 
 570  5.65 12.20 11.99 
 571  7.81 10.35 11.99 
 572  3.12 12.05 11.99 
 573  4.14  9.27 11.99 
 574  2.56 10.39 11.99 
 575  7.34 10.03 11.99 
 576  4.39 12.03 11.99 
 577  5.75 10.65 11.99 
 578  6.18  4.70 11.99 
 579  8.63 12.45 11.99 
 580  5.67 11.53 11.99 
 581  4.68 11.37 11.99 
 582 10.07 11.32 11.99 
 583  1.05 11.28 11.99 
 584  8.48 11.24 11.99 
 585  4.43 11.29 11.99 
 586  8.66 12.37 11.99 
 587  4.71 11.62 11.99 
 588 13.64 11.29 11.99 
 589  5.54 11.52 13.64 
 590  5.16 11.29 13.64 
 591  6.32 11.60 13.64 
 592  4.52 11.58 13.64 
 593  7.94 11.99 13.64 
 594  7.81 12.13 13.64 
 595  6.05 12.72 13.64 
 596  4.54 11.21 13.64 
 597  6.72 12.17 13.64 
 598  2.55 11.81 13.64 
 599  6.50 13.19 13.64 
 600  4.93 12.12 13.64 
 601  3.33  7.12 13.64 
 602 11.73  9.26 13.64 
 603 10.33  8.83 13.64 
 604  2.73 10.07 13.64 
 605  9.23  8.73 13.64 
 606  7.93 11.92 13.64 
 607  3.72 10.50 13.64 
 608  6.38  7.13 13.64 
 609  4.42  6.48 13.64 
 610  2.85  9.70 13.64 
 611  5.13 10.75 13.64 
 612  8.61 12.09 13.64 
 613  7.40 10.29 13.64 
 614  3.90 10.39 13.64 
 615  8.86 11.14 13.64 
 616  6.17 10.55 13.64 
 617  3.45  9.99 13.64 
 618  7.08 10.44 13.64 
 619  3.72 10.50 13.64 
 620  4.22 10.98 13.64 
 621  7.60 10.67 13.64 
 622  6.66 10.65 13.64 
 623  7.65 10.48 13.64 
 624  6.48 10.93 13.64 
 625  1.38 11.03 13.64 
 626  3.05 11.91 13.64 
 627  6.33 10.73 13.64 
 628  6.11 12.05 13.64 
 629  8.01 12.29 13.64 
 630  4.45 11.38 13.64 
 631  6.38 11.69 13.64 
 632  5.87 11.29 13.64 
 633  6.80 12.71 13.64 
 634  8.07 11.57 13.64 
 635  8.01 10.71 13.64 
 636  4.85 10.75 13.64 
 637  5.38 10.45 13.64 
 638  7.96 12.74 13.64 
 639  8.29 10.62 13.64 
 640  8.04 10.94 13.64 
 641 13.03  8.06 13.64 
 642  2.53 12.36 13.64 
 643  5.30 11.02 13.64 
 644  7.53  7.29 13.64 
 645  8.65 11.26 13.64 
 646 10.19 12.58 13.64 
 647  9.25  9.36 13.64 
 648  0.51 11.86 13.64 
 649 10.35 12.04 13.64 
 650 12.15 12.33 13.64 
 651  6.23 13.74 13.64 
 652  7.65 10.10 13.64 
 653  4.44 11.25 13.64 
 654 11.32 13.44 13.64 
 655 10.00 10.91 13.64 
 656  2.28 14.59 13.64 
 657 10.33 11.90 13.64 
 658  7.40 12.62 13.64 
 659  4.96 15.17 13.64 
 660  4.29 14.10 13.64 
 661 13.20 14.27 13.64 
 662 10.35 13.13 13.64 
 663  2.20 12.47 13.64 
 664  7.12 13.79 13.64 
 665  6.26 11.40 13.64 
 666 10.50 13.30 13.64 
 667  5.38  5.22 13.64 
 668  5.64 13.25 13.64 
 669  7.99 13.51 13.64 
 670  7.14  5.55 13.64 
 671  2.62  9.81 13.64 
 672  1.88 10.72 13.64 
 673  7.16  6.89 13.64 
 674  7.13 12.98 13.64 
 675  3.59 14.84 13.64 
 676  6.80  9.32 13.64 
 677  5.25 13.49 13.64 
 678  5.31 12.40 13.64 
 679  4.40  9.98 13.64 
 680  8.37 13.30 13.64 
 681  8.23 12.87 13.64 
 682 10.30 12.35 13.64 
 683 14.38 14.76 13.64 
 684  4.93 12.16 14.38 
 685  5.89 15.78 14.38 
 686  9.11 16.15 14.38 
 687  3.82 12.75 14.38 
 688  3.79 12.60 14.38 
 689  8.89 12.74 14.38 
 690  7.56 12.47 14.38 
 691  0.71 11.38 14.38 
 692  3.41 12.83 14.38 
 693  5.18 12.27 14.38 
 694 11.52 11.04 14.38 
 695 11.60 11.97 14.38 
 696  4.36  8.62 14.38 
 697  6.98 11.34 14.38 
 698  9.06 10.15 14.38 
 699 10.71 11.69 14.38 
 700  5.84 11.83 14.38 
 701  9.40 11.20 14.38 
 702  4.32 11.84 14.38 
 703 12.59 11.45 14.38 
 704  9.19 10.31 14.38 
 705  2.65 11.70 14.38 
 706  2.56  5.63 14.38 
 707 10.17 11.49 14.38 
 708  8.04  6.66 14.38 
 709  9.23  8.25 14.38 
 710  8.90 11.82 14.38 
 711  6.77 11.44 14.38 
 712 11.22 10.48 14.38 
 713  2.96 11.64 14.38 
 714  3.06 11.04 14.38 
 715  7.62 12.58 14.38 
 716  7.67 12.29 14.38 
 717  9.08  9.47 14.38 
 718  5.33 12.05 14.38 
 719  9.40  9.58 14.38 
 720 11.13 12.10 14.38 
 721 12.30 12.32 14.38 
 722  8.35 13.76 14.38 
 723  7.27 11.93 14.38 
 724  6.27 11.23 14.38 
 725  2.46 12.62 14.38 
 726  8.14 11.61 14.38 
 727  8.02 11.85 14.38 
 728 10.75 11.36 14.38 
 729  8.74 14.16 14.38 
 730  7.22  6.88 14.38 
 731 11.30 12.11 14.38 
 732  6.90 12.26 14.38 
 733  8.20 11.88 14.38 
 734  6.45 11.51 14.38 
 735  9.11 11.07 14.38 
 736  4.12 12.08 14.38 
 737  6.70 14.51 14.38 
 738  4.70 14.86 14.38 
 739  6.41  8.79 14.38 
 740  3.33 12.24 14.38 
 741  1.17 13.80 14.38 
 742 13.19 11.59 14.38 
 743  7.25 10.99 14.38 
 744  9.83 12.00 14.38 
 745 13.31  9.66 14.38 
 746  3.48 10.82 14.38 
 747  6.71 11.66 14.38 
 748  7.14 11.42 14.38 
 749  6.02 10.97 14.38 
 750  9.73  9.63 14.38 
 751  7.96  0.12 14.38 
 752  2.34 12.41 14.38 
 753  9.57 12.09 14.38 
 754  3.49 10.33 14.38 
 755  0.37 10.98 14.38 
 756  7.73 10.24 14.38 
 757 10.37  8.85 14.38 
 758  8.53 12.19 14.38 
 759  7.71 11.78 14.38 
 760 10.31 12.57 14.38 
 761  9.38 13.57 14.38 
 762  9.44 10.61 14.38 
 763 11.07 12.86 14.38 
 764  5.93 10.64 14.38 
 765  8.41  8.04 14.38 
 766  3.93  0.52 14.38 
 767 10.55  5.32 14.38 
 768  2.63  6.38 14.38 
 769 11.92  4.29 14.38 
 770  1.32  7.40 14.38 
 771  4.45  7.29 14.38 
 772  8.73  6.30 14.38 
 773  8.48  7.41 14.38 
 774  5.45  2.29 14.38 
 775  6.30  7.32 14.38 
 776  3.75  4.19 14.38 
 777 10.31  5.46 14.38 
 778  8.40  7.34 14.38 
 779  6.26  0.51 14.38 
 780  6.37  4.87 14.38 
 781  8.24 -0.45 14.38 
 782  7.69  3.31 14.38 
 783 16.16  7.50 14.38 
 784  6.23  1.32 16.16 
 785 13.76  6.35 16.16 
 786  3.46  4.52 16.16 
 787  7.14  7.41 16.16 
 788  8.18  7.37 16.16 
 789  2.44  7.31 16.16 
 790 10.38  9.02 16.16 
 791  6.43  5.97 16.16 
 792  8.31  5.81 16.16 
 793 10.17 10.44 16.16 
 794 12.36  6.67 16.16 
 795  5.89  5.77 16.16 
 796  6.06  9.66 16.16 
 797  8.02  9.96 16.16 
 798 10.45  9.77 16.16 
 799  7.58  9.71 16.16 
 800  4.34  9.43 16.16 
 801  7.45  3.29 16.16 
 802  9.59  8.97 16.16 
 803 12.41 17.09 16.16 
 804 10.48  8.64 16.16 
 805  9.45 17.35 16.16 
 806  7.82  3.28 16.16 
 807 11.90  4.74 16.16 
 808  5.12  6.64 16.16 
 809  6.19  4.19 16.16 
 810 10.35  8.95 16.16 
 811  9.24 11.63 16.16 
 812  6.04 11.17 16.16 
 813 11.19  9.28 16.16 
 814  5.52 10.62 16.16 
 815  3.72  8.61 16.16 
 816 -0.44  6.55 16.16 
 817 10.60  5.21 16.16 
 818  6.49  5.64 16.16 
 819  8.38  9.97 16.16 
 820 13.02  3.20 16.16 
 821 13.21 12.34 16.16 
 822  9.35  3.43 16.16 
 823 10.08  7.14 16.16 
 824  8.88  8.38 16.16 
 825  6.28  5.35 16.16 
 826 12.08  2.57 16.16 
 827  3.82  3.07 16.16 
 828  6.86  3.17 16.16 
 829  7.95  3.59 16.16 
 830  5.60  3.64 16.16 
 831  7.19  2.35 16.16 
 832 -0.26  2.48 16.16 
 833  9.96  5.58 16.16 
 834  3.39  2.68 16.16 
 835 10.35  8.11 16.16 
 836 10.77 10.36 16.16 
 837  5.23  9.47 16.16 
 838 12.77  5.22 16.16 
 839  7.66  8.56 16.16 
 840  7.20 10.72 16.16 
 841  8.07  3.54 16.16 
 842  6.06 14.82 16.16 
 843  6.48  7.73 16.16 
 844  3.96  7.64 16.16 
 845  7.54  8.18 16.16 
 846  6.96 10.92 16.16 
 847 11.62 15.14 16.16 
 848  3.69 12.69 16.16 
 849  9.06  6.78 16.16 
 850  3.44 15.63 16.16 
 851  7.38 13.47 16.16 
 852  6.37  1.12 16.16 
 853  4.83  5.86 16.16 
 854  6.87  8.81 16.16 
 855  7.44 10.87 16.16 
 856  8.38  9.26 16.16 
 857  9.44  9.14 16.16 
 858  4.92  2.23 16.16 
 859  4.04  8.29 16.16 
 860  4.29 12.55 16.16 
 861  9.50 16.64 16.16 
 862  8.23 16.33 16.16 
 863  8.13 14.09 16.16 
 864  9.51 13.91 16.16 
 865 10.05 15.32 16.16 
 866  2.99 15.44 16.16 
 867  5.91 18.51 16.16 
 868  4.48 14.32 16.16 
 869  6.98 16.63 16.16 
 870 10.15 16.02 16.16 
 871  5.32 13.80 16.16 
 872  9.75 15.15 16.16 
 873  1.76 14.82 16.16 
 874  7.69 13.18 16.16 
 875  8.43 14.35 16.16 
