iteration,time_sampling,stoc_pol_mean,stoc_pol_std,stoc_pol_max,stoc_pol_min,rollout_success,alpha,delta,time_vpg,time_npg,kl_dist,surr_improvement,running_score,rwd_sparse,rwd_dense,success_percentage,num_samples,time_VF,VF_error_before,VF_error_after,env_samples,eval_score,eval_success
0,2.179957151412964,2.91455354000619,8.295360110359578,17.282508065736778,-1.9021216134759438,0.0,0.11195076089808427,0.1,0.02875232696533203,0.047677040100097656,0.053106595,1.4337282,2.91455354000619,0.0,0.035749872781284574,0.0,106,0.005364418029785156,0.9920436028686904,0.9920436028686904,106,-1.8448075378222801,0.0
1,2.3985347747802734,5.959388163648058,7.813850100885142,14.262701001132786,-1.8724240860127965,0.0,0.1488626774323414,0.1,0.004598855972290039,0.04909396171569824,0.048745535,0.5746923,3.219037002370377,0.0,0.07300544246677525,0.0,133,0.010586977005004883,0.9888069135412326,0.9823208012803616,239,-1.8578106552668257,0.0
2,1.8858144283294678,-0.35327521458398625,2.589496558664229,4.131737837369954,-1.8790271168574963,0.0,0.12807560192758108,0.1,0.002452373504638672,0.047113895416259766,0.05242327,1.4648482,2.8618057806749406,0.0,-0.007806311404084733,0.0,100,0.0024597644805908203,1.0047293682684721,1.0047293682684721,339,-1.8553052839039454,0.0
3,1.7303342819213867,5.663788280008583,7.677639267295053,15.218560471620806,-1.8941988293733014,0.0,0.13936168007849883,0.1,0.0026297569274902344,0.04808521270751953,0.051264286,0.6166136,3.142004030608305,0.0,0.06907840103156199,0.0,119,0.0031890869140625,0.9818141017097912,0.9818141017097912,458,-1.8516734437129465,0.0
4,1.840132713317871,9.698210463660063,6.7268765533414685,14.218627088610248,-1.8676463082234334,0.0,0.15656482093340865,0.1,0.003009796142578125,0.04968070983886719,0.05481854,0.6057593,3.7976246739134805,0.0,0.11953541947902496,0.0,148,0.01210784912109375,0.9803911976046719,0.9727574092976982,606,-1.8493438050869784,0.0
5,2.145397901535034,-1.8834351929589586,0.011749927600964907,-1.8686752619041394,-1.9015616665701964,0.0,0.11124661025650569,0.1,0.0023734569549560547,0.04560112953186035,0.050641526,1.8225138,3.229518687226237,0.0,-0.024888653236506724,0.0,76,0.0027115345001220703,1.1876068507468096,1.1876068507468096,682,-1.8588732826348238,0.0
6,2.1650354862213135,1.8973224122997547,6.552184534355127,13.245967328170266,-1.9147102195350534,0.0,0.12862751963945118,0.1,0.002406597137451172,0.050368309020996094,0.05048685,1.081159,3.0962990597335884,0.0,0.022191553383148464,0.0,97,0.0024712085723876953,0.9794953694261668,0.9794953694261668,779,-1.8565898275851067,0.0
7,2.035166025161743,6.416555526643038,8.32663939170622,15.249483130328079,-1.9166728954445102,0.0,0.14072256244085166,0.1,0.0024101734161376953,0.04805302619934082,0.052281436,0.643966,3.4283247064245335,0.0,0.07911558051143502,0.0,121,0.0065042972564697266,0.9760709450011357,0.9760709450011357,900,-1.850484360749651,0.0
8,1.7483675479888916,-1.8887508383895844,0.00955267762352348,-1.8729529571848131,-1.8983333477226938,0.0,0.11015529157498412,0.1,0.0024559497833251953,0.04613327980041504,0.04935782,1.3313216,2.8966171519431216,0.0,-0.02495177564596862,0.0,72,0.0025768280029296875,1.1860247315263925,1.1860247315263925,972,-1.8481755661136239,0.0
9,1.9442803859710693,1.1447404686841316,5.2571185200250055,10.250279230048255,-1.9092472029131884,0.0,0.11963807162377975,0.1,0.0025687217712402344,0.04658198356628418,0.049653057,1.2345408,2.721429483617223,0.0,0.01214914437912798,0.0,88,0.0025866031646728516,0.9762851437203262,0.9762851437203262,1060,9.198913582724076,0.0
10,1.8867504596710205,1.3823225491622497,5.666225260590416,11.196453442043403,-1.907362970241663,0.0,0.1281297771018408,0.1,0.0023279190063476562,0.04685664176940918,0.052051675,1.4569169,2.5875187901717256,0.0,0.015334120749935887,0.0,94,0.002674102783203125,0.9782198362916467,0.9782198362916467,1154,8.193138724836261,0.0
11,1.7379460334777832,8.715372384937973,6.6015623430416595,14.275501702174028,-1.8917911698971315,0.0,0.15684870233215636,0.1,0.002772092819213867,0.05095100402832031,0.04985758,0.63071984,3.2003041496483506,0.0,0.10641799930803564,0.0,145,0.011713743209838867,0.9718125180092851,0.9629840508846694,1299,-1.8558915156217604,0.0
12,2.3863584995269775,8.207392552611365,6.052468877268124,14.235640837145985,-1.8880719190719506,0.0,0.14742477397509382,0.1,0.0026617050170898438,0.04987144470214844,0.048665076,0.5232734,3.701012989944652,0.0,0.09964872147752686,0.0,145,0.013889312744140625,0.9603085111962395,0.949447586363024,1444,9.195189334980522,0.0
13,2.202688455581665,1.144485006632421,5.241914904936353,10.22374276830527,-1.8905203653635017,0.0,0.1197481994000438,0.1,0.0024836063385009766,0.04752755165100098,0.050798256,1.3639342,3.445360191613429,0.0,0.01214989713280313,0.0,89,0.0049970149993896484,0.9620922155315034,0.9620922155315034,1533,9.196151111119335,0.0
14,2.2446887493133545,7.947546108295926,5.710038207978943,12.226734510289273,-1.867556808430338,0.0,0.13804935912786417,0.1,0.0027828216552734375,0.050074100494384766,0.04886775,0.60917634,3.895578783281679,0.0,0.09618686886240713,0.0,143,0.009738922119140625,0.9459922889562313,0.932554960975273,1676,8.197109135450921,0.0
15,1.7431001663208008,5.1753726426930875,7.089210684894526,13.234472913691887,-1.8895893398622243,0.0,0.14509060380490169,0.1,0.0026335716247558594,0.05256366729736328,0.049928106,0.69264317,4.02355816922282,0.0,0.06256852981929854,0.0,130,0.010910987854003906,0.9446784989111413,0.9321785595138415,1806,9.208237618608466,0.0
16,1.6029493808746338,5.170284794474076,7.089159969621094,13.215206043227852,-1.9031047275226123,0.0,0.13564760068198992,0.1,0.00252532958984375,0.04949474334716797,0.051532842,0.7531209,4.138230831747946,0.0,0.06249396240420417,0.0,122,0.0045928955078125,0.9297981763707822,0.9297981763707822,1928,10.203191014805041,0.0
17,1.85792875289917,5.410666466718034,7.382536195850786,14.195031728852673,-1.9030325727962245,0.0,0.1311664637959365,0.1,0.002674579620361328,0.04824376106262207,0.050675657,0.8122155,4.265474395244955,0.0,0.06570362545469481,0.0,120,0.0032503604888916016,0.9321593038599822,0.9321593038599822,2048,10.207124743384044,0.0
18,1.7439258098602295,7.193677527234374,5.821539602224527,13.236509841312197,-1.865493163827522,0.0,0.1528556825282601,0.1,0.0027475357055664062,0.04933786392211914,0.049290385,0.63549507,4.558294708443897,0.0,0.08613733497998831,0.0,140,0.012273073196411133,0.9178869292576349,0.8998481039884426,2188,10.208576136612054,0.0
19,1.913611650466919,5.174964290653775,7.058418048437948,12.244557840327142,-1.8852421121601282,0.0,0.13652042821213958,0.1,0.002569913864135742,0.04902052879333496,0.05031104,0.5868114,4.619961666664885,0.0,0.06255729542669747,0.0,119,0.004673957824707031,0.9136142616586014,0.9136142616586014,2307,10.202415261826733,0.0
20,2.7199127674102783,2.912714333038133,6.189991797461576,13.247428753454498,-1.881819282500911,0.0,0.12945507567080505,0.1,0.0028333663940429688,0.04895591735839844,0.04917687,1.0850916,4.44923693330221,0.0,0.032394032103116845,0.0,112,0.004918098449707031,0.9217312686833924,0.9217312686833924,2419,10.203622076386294,0.0
21,1.6148769855499268,2.4139577540409216,7.411764333015353,15.251493294482426,-1.879649450476027,0.0,0.1333017306222367,0.1,0.002601146697998047,0.04767727851867676,0.05080406,1.1692148,4.245709015376081,0.0,0.029073189796592413,0.0,108,0.0030591487884521484,0.9450807783891216,0.9450807783891216,2527,10.204920266232325,0.0
22,1.8051745891571045,8.70614825113027,6.486036223858366,15.253092819856642,-1.905975426048147,0.0,0.1478858800069804,0.1,0.0029735565185546875,0.04917025566101074,0.048708245,0.54044235,4.6917529389515,0.0,0.10630264388415783,0.0,141,0.010739326477050781,0.9103932151987069,0.8911636391888607,2668,11.20919123830061,0.0
23,2.3779945373535156,8.966181509447598,6.286914802761652,13.237269810560866,-1.9012949426299572,0.0,0.14362453819473361,0.1,0.0037000179290771484,0.05021309852600098,0.050534207,0.5603694,5.11919579600111,0.0,0.10976680383566567,0.0,142,0.010436773300170898,0.8880930541937194,0.8645732763935142,2810,11.203977678765627,0.0
24,2.244354009628296,1.654694676669303,6.1098643193286355,12.23728263093866,-1.883386427763398,0.0,0.12434740355102761,0.1,0.002630472183227539,0.047720909118652344,0.051069684,1.117837,4.772745684067929,0.0,0.018946616484503027,0.0,101,0.0067653656005859375,0.9196661711457063,0.9196661711457063,2911,10.200069551532339,0.0
25,1.921248435974121,9.723674492162855,6.7757374383711175,15.259632860913662,-1.8622265334049652,0.0,0.14615805325356873,0.1,0.002676725387573242,0.04956197738647461,0.05046085,0.5667271,5.2678385648774215,0.0,0.11986872751355443,0.0,151,0.010856866836547852,0.8754050067974257,0.8498030388829766,3062,10.198363007845233,0.0
26,2.419489860534668,8.207513243481417,6.417258297837587,14.272558364798419,-1.8892498289838715,0.0,0.14262615882926263,0.1,0.002515554428100586,0.04946136474609375,0.050384194,0.7324721,5.561806032737821,0.0,0.09965432954932715,0.0,145,0.010111331939697266,0.8396796047837899,0.8085184473984756,3207,9.194366977510882,0.0
27,2.2107508182525635,5.684833210023122,7.596665156965135,14.25035164698796,-1.9026029387167316,0.0,0.13827969739015786,0.1,0.0031731128692626953,0.06960177421569824,0.050422583,0.6513938,5.574108750466351,0.0,0.06935036495869225,0.0,123,0.005451679229736328,0.8337841695521856,0.8337841695521856,3330,9.195089130767007,0.0
28,2.285176992416382,8.467700110211247,5.97833448138655,12.267729260807954,-1.8640367058664626,0.0,0.13631175540138965,0.1,0.0026459693908691406,0.04893136024475098,0.049791127,0.60576504,5.863467886440841,0.0,0.10312431896903937,0.0,145,0.012299776077270508,0.7955653268129527,0.7574298780323119,3475,9.193667337250448,0.0
29,1.922400712966919,5.4189204268025835,7.318528126571846,13.219822643456938,-1.893031576435237,0.0,0.13328681273349047,0.1,0.002681255340576172,0.049304962158203125,0.049537268,0.7226263,5.819013140477015,0.0,0.0658144003823522,0.0,123,0.005268096923828125,0.7986945650803864,0.7986945650803864,3598,9.192492576763573,0.0
30,2.285069704055786,8.716511722615335,6.118551707340652,12.263512725218668,-1.8810895109328785,0.0,0.14178020365600613,0.1,0.002927064895629883,0.050504446029663086,0.04943657,0.5173425,6.108762998690848,0.0,0.10644292098129987,0.0,145,0.012395381927490234,0.7638438450983908,0.7218543876762609,3743,10.200240423029912,0.0
31,1.6872143745422363,13.992382723766333,0.4318230348099887,14.250408363905699,13.244550430441134,0.0,0.15636691559798593,0.1,0.003046751022338867,0.051645755767822266,0.049166664,0.50737786,6.897124971198397,0.0,0.17345361912177135,0.0,175,0.012545108795166016,0.7404638503214995,0.6943572025171397,3918,10.195645965516126,0.0
32,1.9036364555358887,11.46470390033675,1.0829238233916494,13.207567899369622,10.230186252893933,0.0,0.16125216450405783,0.1,0.0033876895904541016,0.06600594520568848,0.051047284,0.589217,7.353882864112233,0.0,0.13975921235882474,0.0,165,0.010853767395019531,0.6369437865084979,0.5780380630414589,4083,10.203126823221572,0.0
33,1.89304518699646,7.945476897991158,6.0681445445000985,14.242202004972983,-1.8998282540067262,0.0,0.12746767919815097,0.1,0.002669811248779297,0.04950261116027832,0.049047716,0.5624692,7.413042267500126,0.0,0.096164188618621,0.0,142,0.009797811508178711,0.6256338686715032,0.5753602407606833,4225,10.20310788238388,0.0
34,1.846780776977539,13.01408009707149,1.9215932443956478,15.25741185992405,10.245164793870625,0.0,0.1677595074077554,0.1,0.002856016159057617,0.05060315132141113,0.04988823,0.5728083,7.973146050457263,0.0,0.16039979002830076,0.0,171,0.010292291641235352,0.5670442494113364,0.5058915745949932,4396,11.210449367567152,0.0
35,2.3285586833953857,8.720693846682817,6.144827899906365,13.207844822176499,-1.8559084299219948,0.0,0.14163690485660782,0.1,0.002626180648803711,0.04964923858642578,0.050196838,0.60987574,8.047900830079818,0.0,0.1064962996052978,0.0,150,0.009677886962890625,0.5336548574651488,0.48348163182015974,4546,11.209008916186717,0.0
36,2.711416244506836,12.229486671264054,1.2425379366003653,14.252951672386304,11.200569775757499,0.0,0.16457919601634968,0.1,0.002772808074951172,0.05002450942993164,0.049588367,0.6621443,8.466059414198241,0.0,0.14994828987096687,0.0,168,0.012714862823486328,0.41102209560816916,0.3464277933011855,4714,11.210093804039333,0.0
37,1.9923267364501953,12.966123996265212,1.0889063836725899,14.20995430507127,11.214839403413196,0.0,0.1620874161948658,0.1,0.002877473831176758,0.05007505416870117,0.05107815,0.49683067,8.916065872404939,0.0,0.15978057846400875,0.0,171,0.009670257568359375,0.36814475416481107,0.30341005689104256,4885,12.210452277576195,0.0
38,2.3046350479125977,12.989681616763672,0.43284357949862556,13.262725918342467,12.24063529889189,0.0,0.17067738174975497,0.1,0.002864837646484375,0.05051612854003906,0.051202618,0.49386576,9.323427446840812,0.0,0.16008317524828003,0.0,171,0.013663053512573242,0.30283458519471446,0.24147779193541274,5056,11.1999171915997,0.0
39,2.2879574298858643,10.211993218882355,7.227767611307013,17.295909467020905,-1.8634249804078575,0.0,0.14255364460001163,0.1,0.002838134765625,0.05035066604614258,0.050106175,0.59035754,9.412284024044967,0.0,0.12638551524932634,0.0,152,0.009892702102661133,0.37761580110681714,0.3434193639478291,5208,11.19626967046267,0.0
40,1.8775057792663574,10.230385492121664,7.216548159751923,16.264556747901967,-1.8392510489686091,0.0,0.14120157312929282,0.1,0.0025794506072998047,0.05060744285583496,0.05006506,0.6426929,9.494094170852637,0.0,0.12661635341475863,0.0,155,0.01156306266784668,0.35578458914527966,0.33592347868113737,5363,10.19405235435092,0.0
41,2.405352830886841,6.183012973992243,8.086639971756757,14.29319843843714,-1.9078795101806012,0.0,0.14129808465509147,0.1,0.002556324005126953,0.04779410362243652,0.050038595,0.8276893,9.162986051166598,0.0,0.0759925913892408,0.0,119,0.004861593246459961,0.5286924568856414,0.5286924568856414,5482,11.206099668781233,0.0
42,2.0884644985198975,13.24989004275334,2.134255758380965,15.26992981366362,10.252369965013525,0.0,0.16115442072179093,0.1,0.003128528594970703,0.05133247375488281,0.049780644,0.5175786,9.571676450325272,0.0,0.1635470640088782,0.0,172,0.021117687225341797,0.179704395261524,0.1518256854436586,5654,11.203116624201039,0.0
43,2.140134334564209,10.479963803812755,2.5975802714066663,13.226193459205385,6.20491467156368,0.0,0.1466473466074118,0.1,0.002647876739501953,0.04982304573059082,0.04959716,0.5742272,9.662505185674021,0.0,0.12661195245344298,0.0,161,0.009477376937866211,0.17746753784932212,0.19496138478002756,5815,11.20520897576227,0.0
44,2.2729086875915527,12.465597795752045,0.839348039779268,13.240041404154727,11.199228568934306,0.0,0.16801225009217508,0.1,0.0026235580444335938,0.05055069923400879,0.04985669,0.6670985,9.942814446681824,0.0,0.15310586996487502,0.0,169,0.009586334228515625,0.11666191654685883,0.12066182946776963,5984,11.202226253244673,0.0
45,2.2498300075531006,5.942562724775316,7.887863322167265,15.259843450004842,-1.8763402651130912,0.0,0.1428518729165015,0.1,0.0027856826782226562,0.05051469802856445,0.04987703,0.6717006,9.542789274491174,0.0,0.07279220398330041,0.0,131,0.01044154167175293,0.8313434431691763,0.8397515310384704,6115,11.215154276013243,0.0
46,1.993175745010376,2.1640325658319792,6.979134364051843,14.252210758116929,-1.8893551284416534,0.0,0.12900263883353344,0.1,0.0028188228607177734,0.04856538772583008,0.04995068,0.94210243,8.804913603625256,0.0,0.025737788806913603,0.0,105,0.007516145706176758,1.974994079849682,1.974994079849682,6220,11.218041651388562,0.0
47,1.8038840293884277,4.92900250917526,6.81193706723641,12.2362017845941,-1.8803410735867039,0.0,0.14594796006126326,0.1,0.0035185813903808594,0.06422662734985352,0.05022018,0.7432684,8.417322494180256,0.0,0.05927841640152941,0.0,123,0.003698110580444336,1.0354985310457696,1.0354985310457696,6343,10.213973969656122,0.0
48,1.9346296787261963,11.97964862875063,3.6703745795135845,16.25543864134629,6.159822119618507,0.0,0.16065100744339653,0.1,0.002972126007080078,0.052384376525878906,0.04973647,0.6985808,8.773555107637295,0.0,0.1466150669545812,0.0,167,0.010525226593017578,0.19973432135900537,0.1964928761769477,6510,10.238499178273104,0.0
49,2.174788475036621,12.465369713629181,1.8040617170887148,14.24571825210269,10.19832109852447,0.0,0.16277091052248693,0.1,0.003002166748046875,0.05066108703613281,0.04937413,0.6130126,9.142736568236483,0.0,0.153098294583334,0.0,169,0.01022481918334961,0.13008305954938057,0.1278206850730351,6679,10.227372859524921,0.0
50,1.8672707080841064,8.227112027772925,6.049285427421967,14.267132144270246,-1.858066036791079,0.0,0.14758188942616393,0.1,0.003309011459350586,0.06756877899169922,0.050121877,0.69297206,9.051174114190127,0.0,0.09991683019746822,0.0,147,0.011987924575805664,0.46885161353057325,0.44325104146719885,6826,10.224323766892498,0.0
51,2.0996010303497314,15.258581899750116,0.004493817500619391,15.263146055720169,15.252823833063673,0.0,0.14879969534783016,0.1,0.002955198287963867,0.0518496036529541,0.05001254,0.5473482,9.671914892746125,0.0,0.19033344149636722,0.0,180,0.009808778762817383,0.1343937607111635,0.13862089060431523,7006,11.237894756933565,0.0
52,2.267906904220581,15.26140917164089,0.7183115015839648,16.281334145211293,14.249713092344942,0.0,0.16983157983288377,0.1,0.002732515335083008,0.0538790225982666,0.049892046,0.49871174,10.230864320635602,0.0,0.19036767934809384,0.0,180,0.009784221649169922,0.1545412232242933,0.1534320569156035,7186,11.235695039123504,0.0
53,2.161764144897461,8.726619365053928,5.962790581121136,15.257094628864177,0.18126425356289966,0.0,0.16417868351165463,0.1,0.0026865005493164062,0.05076766014099121,0.0496869,0.6191138,10.080439825077436,0.0,0.10324126176551048,0.0,154,0.010477304458618164,0.42008331415314987,0.4132783964831599,7340,12.246435389600991,0.0
54,2.1554906368255615,9.457183751313217,6.584555623648078,14.280918717842898,-1.8761821035633452,0.0,0.15458692516685868,0.1,0.0026323795318603516,0.049486637115478516,0.05043301,0.5598494,10.018114217701013,0.0,0.11631587968865709,0.0,148,0.011362552642822266,0.3237305441346328,0.317613438317081,7488,11.234950916206701,0.0
55,2.252640962600708,9.210505704206241,6.430747800727619,14.251870729803258,-1.8340719399743737,0.0,0.14883420651295037,0.1,0.00266265869140625,0.050454139709472656,0.05153117,0.59172606,9.937353366351536,0.0,0.11302849661673035,0.0,155,0.011451244354248047,0.36645203187417735,0.3568037538343742,7643,11.2774844821829,0.0
56,2.2933075428009033,10.195156211383532,7.231791541926246,17.246146010518153,-1.8972664992822252,0.0,0.1455987125981298,0.1,0.002508401870727539,0.04921388626098633,0.051228356,0.588823,9.963133650854736,0.0,0.12616646851788751,0.0,153,0.012574195861816406,0.32854538078266154,0.3266883891654922,7796,12.278668017994741,0.0
57,2.132741928100586,13.712243630531773,1.132436659452641,15.233679474860262,12.217569880658587,0.0,0.16371161661164496,0.1,0.0026702880859375,0.0505526065826416,0.0500636,0.55525166,10.33804464882244,0.0,0.1697297275556585,0.0,174,0.013101577758789062,0.1469074242099047,0.15093868217938622,7970,9.264273157531045,0.0
58,2.3282790184020996,15.24871517263836,1.4267761869397313,17.265137783215394,13.229626605963357,0.0,0.16854314523579056,0.1,0.002873659133911133,0.051138877868652344,0.04942288,0.5827821,10.829111701204033,0.0,0.19020541496586874,0.0,180,0.012144327163696289,0.17889516914533599,0.17591289084524123,8150,11.270728587787163,0.0
59,2.3359785079956055,12.478647154425719,2.6707690576451473,15.216086612012194,8.23745647572436,0.0,0.1842516739991479,0.1,0.0027315616607666016,0.05328083038330078,0.04942859,0.51187885,10.994065246526203,0.0,0.15327274201003088,0.0,169,0.016791343688964844,0.14802157098303836,0.14467561195839507,8319,12.262339543192349,0.0
60,2.3480753898620605,14.761413646456202,0.8665461906333317,15.2766895542344,13.260600815687898,0.0,0.16760258778359524,0.1,0.0026311874389648438,0.05102682113647461,0.050663654,0.49714026,11.370800086519203,0.0,0.18370247881453963,0.0,178,0.009781837463378906,0.16158917585293048,0.15222627762183344,8497,11.258742011489643,0.0
61,2.0648555755615234,9.709342803832143,6.7747222499828,15.252093539125353,-1.8737501229724918,0.0,0.15044758991597543,0.1,0.0027184486389160156,0.05095267295837402,0.049039986,0.52711195,11.2046543582505,0.0,0.11968125868634949,0.0,148,0.010281562805175781,0.2874843253591735,0.2902130211880241,8645,10.253166873785888,0.0
62,1.989694356918335,10.455122106995873,7.2924997080619205,16.248120457805285,-1.9141010089117003,0.0,0.15024258594510828,0.1,0.002743244171142578,0.04982805252075195,0.049875606,0.49177846,11.129701133125037,0.0,0.1296223445263962,0.0,148,0.01223897933959961,0.28403920831167806,0.2833126187977473,8793,10.239166245977907,0.0
63,1.8494925498962402,14.253922633016531,1.227163564136594,15.254609299399284,12.242943423223998,0.0,0.15502627418918902,0.1,0.0026895999908447266,0.05089831352233887,0.049808584,0.6334005,11.442123283114187,0.0,0.17693662202950727,0.0,176,0.012542009353637695,0.13016337272005607,0.1261956597443796,8969,9.241626884207152,0.0
64,1.7777316570281982,13.002395543166987,0.8369193791980049,14.25141387257788,12.209958615609384,0.0,0.16312704070322098,0.1,0.002776622772216797,0.05476665496826172,0.049699444,0.5491258,11.598150509119467,0.0,0.1602481311718915,0.0,171,0.012141227722167969,0.10715959670878118,0.10648666425891934,9140,9.253364725765705,0.0
65,2.101896286010742,14.756065550188737,0.5124597649381037,15.271291039938166,14.239873821254223,0.0,0.15558552583603596,0.1,0.002782583236694336,0.05091547966003418,0.050403327,0.6101641,11.913942013226395,0.0,0.18363989948327114,0.0,178,0.011742591857910156,0.1209449387685769,0.11634593821132379,9318,10.246772698950434,0.0
66,2.283531665802002,12.995875794574992,0.4177700468106466,13.258333504038063,12.272817146912516,0.0,0.16538051425055542,0.1,0.0027036666870117188,0.050571441650390625,0.04977142,0.6397031,12.022135391361255,0.0,0.16016713997339105,0.0,171,0.012739419937133789,0.10580097020464416,0.106428917685973,9489,10.248308723622268,0.0
67,2.349330186843872,11.755891846943038,1.1162380983676234,13.252320756661565,10.255669435520218,0.0,0.1692649387062088,0.1,0.0033111572265625,0.06579804420471191,0.049872067,0.68858653,11.995511036919435,0.0,0.14361927284235015,0.0,166,0.017406225204467773,0.12717818522013766,0.12827374574676906,9655,10.226850237363719,0.0
68,2.587441921234131,14.498216393526889,0.8623587166478736,15.33154002650596,13.216645415867522,0.0,0.1695232390167792,0.1,0.0033478736877441406,0.06621289253234863,0.050674696,0.5387233,12.245781572580182,0.0,0.18020345967237916,0.0,177,0.009972095489501953,0.11180716555589783,0.11044411262887749,9832,10.22861799239003,0.0
69,2.288325071334839,11.743251470106426,0.4939433304922195,12.242201509973246,11.242834489067352,0.0,0.15798223903410205,0.1,0.002788066864013672,0.05046224594116211,0.050168935,0.57061297,12.195528562332807,0.0,0.14345941044250832,0.0,166,0.00955963134765625,0.12652044784103494,0.12490713084651542,9998,9.225539004453372,0.0
70,2.7577946186065674,12.993080275543344,2.044230417289696,16.23232159430553,11.22413487444155,0.0,0.16746179195160948,0.1,0.002749919891357422,0.05064964294433594,0.049455028,0.52419907,12.275283733653861,0.0,0.1601274260690744,0.0,171,0.009636402130126953,0.11862196476848937,0.11712686764087606,10169,10.259405363104833,0.0
71,2.4021408557891846,13.74594147894189,2.2891920127613723,16.253704293662537,10.245394778854868,0.0,0.1753929802261331,0.1,0.002604246139526367,0.04995012283325195,0.04980294,0.5280382,12.422349508182664,0.0,0.17016512085648655,0.0,174,0.015022993087768555,0.12388508174620422,0.12323115257450913,10343,9.271672967811387,0.0
72,2.6279759407043457,8.955049907276077,6.438537345483038,14.263073593460545,-1.9028461013004658,0.0,0.14120104287603436,0.1,0.002592325210571289,0.048886775970458984,0.048980355,0.51622516,12.075619548092005,0.0,0.10961981968302718,0.0,142,0.011256933212280273,0.3375581355702778,0.3255511927252629,10485,9.253393423808872,0.0
73,4.3157594203948975,12.743738145661887,1.1087773416568096,14.22235488993883,11.242894758308665,0.0,0.16059736201500988,0.1,0.0025963783264160156,0.05028581619262695,0.04987057,0.5447013,12.142431407848994,0.0,0.15680277447996,0.0,170,0.009624242782592773,0.1094886490131339,0.10892522847407264,10655,10.256390573327637,0.0
74,2.894413709640503,13.242275251777897,1.2358350528801487,15.268877921225503,12.215130361042604,0.0,0.18189569751672274,0.1,0.0027573108673095703,0.05045723915100098,0.04981086,0.59870386,12.252415792241884,0.0,0.16344873145311029,0.0,172,0.010467529296875,0.11691716145837307,0.11776690443367821,10827,11.2626359186913,0.0
75,2.538301706314087,15.492410675970309,1.0775997527911545,17.23008358241154,14.271120115732856,0.0,0.1732173178537386,0.1,0.0028078556060791016,0.053069114685058594,0.04964743,0.53546923,12.576415280614727,0.0,0.19345287928514449,0.0,181,0.009822845458984375,0.13850026739731017,0.13764254471660317,11008,10.26732616183509,0.0
76,2.3903517723083496,12.986089733791408,1.2805710215072772,14.232018431976995,11.267388952104486,0.0,0.16376940832639875,0.1,0.003219127655029297,0.07002925872802734,0.049677063,0.6385036,12.617382725932394,0.0,0.16003485450008836,0.0,171,0.011128902435302734,0.10445873465836311,0.10303472564009818,11179,10.280890038743637,0.0
77,3.6166210174560547,9.438622381728605,6.579214776594782,14.234610542412007,-1.8898338939229742,0.0,0.14197676175210788,0.1,0.0027840137481689453,0.05067038536071777,0.05051748,0.51337904,12.299506691512015,0.0,0.11607742280840533,0.0,148,0.009703874588012695,0.3096137656839817,0.30971571254231023,11327,10.27972380556505,0.0
78,2.7492167949676514,14.756829075655538,1.667120340954861,17.270275703850672,13.244462069728618,0.0,0.17644577833071073,0.1,0.0028891563415527344,0.055466413497924805,0.050682805,0.48988575,12.545238929926368,0.0,0.18364333988421133,0.0,178,0.010495901107788086,0.13355923785874863,0.13037166219429402,11505,9.270986035946267,0.0
79,2.3486735820770264,13.991864873172569,0.8242623816911833,15.25794966473642,13.248330317078263,0.0,0.18484741514906494,0.1,0.0034477710723876953,0.06636834144592285,0.05011521,0.6139888,12.689901524250988,0.0,0.17344586827156133,0.0,175,0.011835098266601562,0.10856259434441974,0.10535949479829512,11680,9.271896142694006,0.0
80,2.4561564922332764,10.20537745785975,6.976385595355132,14.25199315867703,-1.8780591891858178,0.0,0.1587311864933952,0.1,0.002674102783203125,0.05004549026489258,0.04988758,0.52567214,12.441449117611864,0.0,0.1262941359367945,0.0,152,0.009519577026367188,0.3171011353553957,0.3199628671053777,11832,9.288902417245367,0.0
81,2.55572772026062,13.243928775275926,1.590685783111364,15.257254817351129,11.245957820534649,0.0,0.16461707782025728,0.1,0.0027740001678466797,0.05183601379394531,0.0497641,0.57504255,12.521697083378271,0.0,0.16347010040286503,0.0,172,0.010519742965698242,0.10186109559649276,0.10132600930801368,12004,9.286065906258159,0.0
82,2.2672629356384277,10.478259888921787,7.146326173802909,15.262061758126187,-1.8794459687774001,0.0,0.15390894464414928,0.1,0.0026297569274902344,0.050176143646240234,0.049835365,0.50502914,12.317353363932623,0.0,0.12992986630415612,0.0,154,0.01215982437133789,0.3116646002402378,0.31081676914330486,12158,9.280458373270966,0.0
83,2.5735533237457275,12.999978956325393,0.8370411013102074,14.260455929267149,12.224801065580314,0.0,0.1746282091725139,0.1,0.002916097640991211,0.05060863494873047,0.049477737,0.45417875,12.385615923171901,0.0,0.16022158593363572,0.0,171,0.010334491729736328,0.10024996456510993,0.09940076554136672,12329,9.282157790636662,0.0
84,2.075929880142212,11.48441560992553,2.495600746609062,13.25769440452373,7.219762768515468,0.0,0.15757735717654728,0.1,0.002660036087036133,0.05031013488769531,0.05064068,0.6638309,12.295495891847265,0.0,0.14000987304941045,0.0,165,0.011302947998046875,0.14099810547628402,0.13798597060407525,12494,9.28565145076681,0.0
85,2.553429365158081,14.256668648008008,1.0034283406801003,15.27673352079906,13.249616161254083,0.0,0.1657886540478439,0.1,0.002730846405029297,0.05051136016845703,0.050596606,0.57466626,12.49161316746334,0.0,0.17697214872273492,0.0,176,0.010045289993286133,0.107436797626232,0.10767839678041399,12670,9.277271973920705,0.0
86,2.534149169921875,9.945383516130825,6.855083152905189,14.224682384527835,-1.9077634231906704,0.0,0.16152633695696253,0.1,0.002679109573364258,0.04953169822692871,0.050516702,0.49364415,12.23699020233009,0.0,0.1228301944284989,0.0,148,0.009705305099487305,0.27358948704195524,0.27193491817908994,12818,9.272797665954965,0.0
87,2.498748540878296,9.206028406705142,6.448292295123508,14.234791827594405,-1.8724849930484255,0.0,0.154421800701276,0.1,0.0026438236236572266,0.05043625831604004,0.0498263,0.5159724,11.933894022767596,0.0,0.11296714050267201,0.0,146,0.009782791137695312,0.31417383593156284,0.30576205165426823,12964,9.28773893417864,0.0
88,2.2968223094940186,14.75942657544177,1.1303250587997316,16.26454227030638,13.236547180530932,0.0,0.18253332575166165,0.1,0.0028791427612304688,0.05036783218383789,0.050155222,0.5291147,12.216447278035014,0.0,0.18366981029465398,0.0,178,0.009934663772583008,0.12555410431221,0.12747718654194654,13142,8.291768379843518,0.0
89,2.3528003692626953,9.96590055525677,6.90357469102405,15.277003089374482,-1.9048419592547,0.0,0.1520753216715149,0.1,0.002618074417114258,0.050071001052856445,0.04993783,0.49378,11.991392605757191,0.0,0.12310055333454722,0.0,149,0.009879112243652344,0.2696135451792102,0.2685538118439873,13291,9.292540700332262,0.0
90,2.1820695400238037,15.016693442420108,1.6405704477968706,16.273835495716135,12.26553618751828,0.0,0.16731246653388637,0.1,0.003549337387084961,0.052259206771850586,0.050115068,0.4994163,12.293922689423484,0.0,0.18710548524416798,0.0,179,0.011628389358520508,0.13184807232685064,0.12908087969923415,13470,8.30669555540069,0.0
91,2.588111400604248,9.721306775395474,6.784110988288746,15.25564139561241,-1.878476283561494,0.0,0.13782496170188482,0.1,0.0026395320892333984,0.05021333694458008,0.051170588,0.5647852,12.036661098020684,0.0,0.11983313110392199,0.0,147,0.012599706649780273,0.2883674653310297,0.2880181240093866,13617,8.296064285384643,0.0
92,2.5238616466522217,14.240186310687955,1.245620628047382,15.277323425428664,12.20970791745426,0.0,0.18471200792285483,0.1,0.003053903579711914,0.05165696144104004,0.050364092,0.48700735,12.257013619287411,0.0,0.1767614999700153,0.0,176,0.012306690216064453,0.11681502656422749,0.11382606451964082,13793,8.29334107834452,0.0
93,2.6417019367218018,15.001250926872943,2.584030180906816,19.24199228074482,12.23852443735676,0.0,0.16963734599139324,0.1,0.00283050537109375,0.05155324935913086,0.04990591,0.52395195,12.531437350045966,0.0,0.18690400813239327,0.0,179,0.012101411819458008,0.13833382751768972,0.13118413067084833,13972,8.282600683769738,0.0
94,2.155604362487793,13.235918667395161,2.5530718925572278,16.25492579831504,10.236796011891736,0.0,0.16811585949101326,0.1,0.0027756690979003906,0.054218292236328125,0.04915574,0.7086023,12.601885481780887,0.0,0.16337227124670864,0.0,172,0.009794235229492188,0.11650224185645336,0.11620112690740085,14144,8.293136256288054,0.0
95,2.2403626441955566,14.742693263630434,2.0646480892043817,16.26217651676482,11.24396005088102,0.0,0.18235912650294459,0.1,0.0029523372650146484,0.0523834228515625,0.05010672,0.49608132,12.81596625996584,0.0,0.1834614455029759,0.0,178,0.010607242584228516,0.10840258203561556,0.10462294693144358,14322,8.293488163641282,0.0
96,2.5734174251556396,13.739306444501553,1.527568597532956,16.282509270785113,12.203714266971259,0.0,0.17790698818845213,0.1,0.002740144729614258,0.05111050605773926,0.050076474,0.6232394,12.908300278419413,0.0,0.17008181030799954,0.0,174,0.00997018814086914,0.10315288463822252,0.1033616636119131,14496,7.283820424409956,0.0
97,2.004242181777954,15.004594988862651,0.4525408483105399,15.28187400211414,14.220988863257624,0.0,0.16336984722714437,0.1,0.0034797191619873047,0.06627941131591797,0.050065674,0.71514815,13.117929749463736,0.0,0.18694500803727476,0.0,179,0.011836528778076172,0.09313435494562206,0.09112582019618325,14675,8.251252693339225,0.0
98,2.0026791095733643,12.740779471553758,2.0641747405387405,14.2758477644267,9.241243422889605,0.0,0.17212791180043965,0.1,0.0033042430877685547,0.06802105903625488,0.050259955,0.58429575,13.08021472167274,0.0,0.15676478624175635,0.0,170,0.012240409851074219,0.12627457213905002,0.12739557094388704,14845,8.256584823479043,0.0
99,2.2440402507781982,14.505457715124992,1.3058545602157599,16.24898952404852,13.232322280135643,0.0,0.16103570269939205,0.1,0.0027391910552978516,0.05109596252441406,0.050195795,0.8048463,13.222739021017965,0.0,0.18028722903508923,0.0,177,0.011684417724609375,0.09210362364268655,0.0911805506401011,15022,8.265501141504172,0.0
100,2.634347438812256,14.492628522319478,1.6255838441156465,17.225971964769677,13.250651637402996,0.0,0.16397897137868075,0.1,0.0027124881744384766,0.050943851470947266,0.049895044,0.6270862,13.349727971148116,0.0,0.18012519376161484,0.0,177,0.010146379470825195,0.10026132352473399,0.09954724836163804,15199,8.274242624257345,0.0
101,2.3986265659332275,13.99061259955944,2.507857480436133,17.25472781312403,10.200542644544143,0.0,0.17974487808918743,0.1,0.0033707618713378906,0.06567645072937012,0.04985192,0.7577204,13.413816433989249,0.0,0.17342831725756125,0.0,175,0.010748863220214844,0.11254842873690309,0.11137574179559083,15374,8.264268427256978,0.0
102,2.3331058025360107,9.979385306001525,7.001155499119704,16.26696302193018,-1.8741616197287474,0.0,0.15110963629224777,0.1,0.0026950836181640625,0.05042099952697754,0.050170407,0.49541786,13.070373321190475,0.0,0.12327737366285137,0.0,151,0.010295867919921875,0.36737903140651645,0.35565312333149496,15525,9.26104318112347,0.0
103,2.247623920440674,10.216274129347976,7.075500081582478,15.246958329318,-1.8552434658713914,0.0,0.1616645807790636,0.1,0.002771615982055664,0.05042457580566406,0.05013167,0.5809145,12.784963402006225,0.0,0.12644353320037782,0.0,157,0.011776208877563477,0.3615888580151308,0.3425024677000856,15682,8.264006187870951,0.0
104,2.699650287628174,12.969010121266898,1.9632167060912185,15.244053358463688,10.135531265629613,0.0,0.15723359367561393,0.1,0.0027616024017333984,0.0516357421875,0.05027795,0.56520736,12.803368073932294,0.0,0.15981654016021163,0.0,171,0.011910438537597656,0.10891014211890597,0.10509879895198802,15853,11.260373869373026,0.0
105,2.093750238418579,14.238263591337674,0.702105937786725,15.249397150435446,13.264255052771372,0.0,0.18502977895885594,0.1,0.002690553665161133,0.051474809646606445,0.050270118,0.50065184,12.946857625672832,0.0,0.17673424185997527,0.0,176,0.010149240493774414,0.09202814369237707,0.09542618197799928,16029,11.256502287156502,0.0
106,2.8090333938598633,17.002899541860025,1.3281002118586938,18.286015288615094,15.225961659677326,0.0,0.17489365539365237,0.1,0.00273895263671875,0.0532073974609375,0.04983238,0.47295317,13.352461817291552,0.0,0.2136022813156793,0.0,187,0.011247396469116211,0.13732563188879507,0.13440143832108564,16216,11.265528172180131,0.0
107,2.255289316177368,12.98790971087902,2.2715292019728954,15.233096984476635,10.235293783599468,0.0,0.16405897192669935,0.1,0.0028581619262695312,0.05158853530883789,0.04955208,0.54713905,13.3160066066503,0.0,0.16005288004227936,0.0,171,0.010207891464233398,0.10929387540330009,0.10874482754057566,16387,11.260935286676203,0.0
108,3.558243989944458,8.181475880515494,8.225588452405589,17.27031402692378,-1.9036812734746096,0.0,0.1430350220027847,0.1,0.002698183059692383,0.049715280532836914,0.049626004,0.5903819,12.802553534036818,0.0,0.09932558481107565,0.0,140,0.00972604751586914,0.48658069123354275,0.4784577000381803,16527,11.250637065778434,0.0
109,2.458367347717285,15.244877725610975,2.024308265860943,17.27593468503866,13.220301565142107,0.0,0.17366474523452238,0.1,0.0028142929077148438,0.05281782150268555,0.04983272,0.5587807,13.046785953194235,0.0,0.19015377129653216,0.0,180,0.012743473052978516,0.118351280948639,0.11995482170897814,16707,9.230739554442126,0.0
110,2.4439806938171387,8.21740711250374,6.502137453903995,15.264703818462152,-1.8886633564841306,0.0,0.14316627191522774,0.1,0.0027947425842285156,0.04937887191772461,0.053561687,0.5897925,12.563848069125186,0.0,0.09978114428184029,0.0,139,0.010531902313232422,0.35102242745666173,0.34092439199373137,16846,10.243067978487003,0.0
111,2.464296817779541,14.234129116617245,1.4337734979954444,16.258434470654567,12.203303036683067,0.0,0.17073769765308314,0.1,0.0028753280639648438,0.05159306526184082,0.050057866,0.59051317,12.730876173874393,0.0,0.17667696460138982,0.0,176,0.01073002815246582,0.10334713902110522,0.10514753065255142,17022,10.231357753201877,0.0
112,2.359741687774658,16.24948903427886,1.6079775359358088,18.298583418385853,14.224893587205722,0.0,0.19227617850422896,0.1,0.0027878284454345703,0.0535740852355957,0.05035749,0.52029985,13.082737459914838,0.0,0.2035553012778052,0.0,184,0.012297391891479492,0.14765449413822285,0.14187729817389794,17206,11.240443878775553,0.0
113,2.314441442489624,15.490995587514828,1.1023779059087282,17.272722677535292,14.24993394039548,0.0,0.18457308237705236,0.1,0.0027663707733154297,0.051889657974243164,0.04986705,0.5295849,13.323563272674837,0.0,0.19343960988530629,0.0,181,0.012496471405029297,0.11857507163092434,0.10836002401699209,17387,10.240525668434229,0.0
114,2.381505250930786,14.237209440394825,1.2319382286028862,16.247292657573173,13.204252045427534,0.0,0.17563908425522706,0.1,0.0027587413787841797,0.0508120059967041,0.050310373,0.60971713,13.414927889446837,0.0,0.1767188225006234,0.0,176,0.01072549819946289,0.09398349296229613,0.08970288419780217,17563,10.243652244023709,0.0
115,2.261256694793701,16.249941543233646,1.2118644512754395,18.22179967889085,15.2227642337483,0.0,0.17438869495031917,0.1,0.0028426647186279297,0.051989078521728516,0.049978588,0.57540095,13.69842925482552,0.0,0.2035586362059043,0.0,184,0.009660959243774414,0.10541801144050261,0.09506177567392937,17747,10.24230426238614,0.0
116,2.32680082321167,14.243516548048268,2.864319487723955,18.279154436221294,10.177780838710504,0.0,0.16428534640030523,0.1,0.002773761749267578,0.05081772804260254,0.04975513,0.5802046,13.752937984147795,0.0,0.17679787835017413,0.0,176,0.014989614486694336,0.10804386529071787,0.10832702821639509,17923,9.25041486282805,0.0
117,1.9464335441589355,16.014448123653853,0.4304083769883442,16.269113235174185,15.269030642453462,0.0,0.18738579133981073,0.1,0.003602743148803711,0.05075669288635254,0.04979221,0.45701736,13.979088998098401,0.0,0.20041008366392504,0.0,183,0.012755870819091797,0.08884444328926763,0.0840133479128906,18106,11.258144059768071,0.0
118,1.862107753753662,15.26594849337112,1.5734383270701824,17.239634759949823,13.255471627632595,0.0,0.1813649672169179,0.1,0.002753734588623047,0.050733327865600586,0.04992721,0.51698285,14.107774947625673,0.0,0.19043506356336012,0.0,180,0.010778427124023438,0.08336585285034558,0.08228272136770075,18286,10.250838130491244,0.0
119,2.1254382133483887,15.50157453004664,1.2983604689775274,16.264207138669217,13.25291576276939,0.0,0.16538586892971835,0.1,0.0027768611907958984,0.05073952674865723,0.05010609,0.5377118,14.24715490586777,0.0,0.19357328108406197,0.0,181,0.00929117202758789,0.08644027201992631,0.08695515076043804,18467,12.250336374700742,0.0
120,2.440418004989624,17.764135184745868,2.605892099420469,19.29139669569485,13.250683078533159,0.0,0.18355960300154014,0.1,0.0028727054595947266,0.05124092102050781,0.05001538,0.58120674,14.59885293375558,0.0,0.2237440696736861,0.0,190,0.009936332702636719,0.10855152807438373,0.10486001562845768,18657,11.248937010756721,0.0
121,2.494377374649048,9.952200795232155,7.002852691967329,16.285716024354148,-1.8940512609644446,0.0,0.15104708772518824,0.1,0.0025866031646728516,0.04949522018432617,0.049368467,0.5427911,14.134187719903238,0.0,0.12291885372658024,0.0,147,0.009433746337890625,0.3949223406125035,0.3814774968293449,18804,11.251872797009026,0.0
122,2.698935031890869,16.516213368726486,2.0480960515589848,18.27707334119677,13.266300135654415,0.0,0.17738118972570147,0.1,0.0027556419372558594,0.050640106201171875,0.04958804,0.4965733,14.372390284785563,0.0,0.2070990235834082,0.0,185,0.010133504867553711,0.09004723481582998,0.0900065806293603,18989,12.25967297466572,0.0
123,2.3954877853393555,15.7575505382001,1.5067017435562984,18.268859905159115,14.251498033983054,0.0,0.1764259461732027,0.1,0.0031280517578125,0.052023887634277344,0.049278993,0.65343547,14.510906310127018,0.0,0.1969841865969753,0.0,182,0.010898351669311523,0.08232577369848675,0.08107231585948452,19171,12.262319529803245,0.0
124,2.3725345134735107,11.988927235541489,8.034785616645811,17.298266359797502,-1.8540973077397118,0.0,0.15135641836844435,0.1,0.0027894973754882812,0.05122804641723633,0.05015804,0.57123053,14.258708402668464,0.0,0.1500667035876277,0.0,163,0.010487079620361328,0.32381298442853246,0.3140402248820101,19334,11.265773670225746,0.0
125,2.4722461700439453,14.492016480637378,0.8345951529166982,15.250552665633537,13.222896155950336,0.0,0.17092646460835706,0.1,0.002852916717529297,0.05102348327636719,0.050851088,0.53143394,14.282039210465356,0.0,0.1801178513835095,0.0,177,0.010518312454223633,0.07689063557354751,0.07265752800454287,19511,11.274582727050982,0.0
126,2.325003147125244,16.762795898427076,1.1280008185979182,18.283914301934242,15.267441162814006,0.0,0.1803009647822474,0.1,0.002979278564453125,0.05264401435852051,0.049484145,0.5260377,14.530114879261529,0.0,0.21038982035408144,0.0,186,0.009852409362792969,0.0938211773451,0.09510623734268137,19697,13.261750019814713,0.0
127,2.010734796524048,11.980241805219876,6.259942178346615,16.264929240751467,1.1616430055702371,0.0,0.16900753928537102,0.1,0.0030438899993896484,0.052820682525634766,0.05030075,0.55283207,14.275127571857363,0.0,0.14662783321685818,0.0,167,0.013089656829833984,0.26239299072585387,0.2532445730360812,19864,8.272812210554406,0.0
128,2.1068315505981445,16.505140918934288,1.7940316230626985,18.276729262533827,14.235827597752113,0.0,0.17425081440946916,0.1,0.0028014183044433594,0.05273723602294922,0.05061261,0.58200777,14.498128906565055,0.0,0.20695125269871442,0.0,185,0.01185750961303711,0.10400318630828147,0.1063871043325405,20049,11.270100744232378,0.0
129,2.7242658138275146,15.254537517258687,2.94004960742378,19.301158464176346,11.227832347817115,0.0,0.1695319511109581,0.1,0.0034224987030029297,0.06641483306884766,0.05009331,0.8011432,14.57376976763442,0.0,0.19028085595685448,0.0,180,0.011446237564086914,0.10350878589741479,0.102388243597635,20229,11.280574375711609,0.0
130,2.7177305221557617,15.762800409078938,1.1097388184944095,17.259892491783116,14.268311440474957,0.0,0.17766565961848868,0.1,0.0027611255645751953,0.05111289024353027,0.04953766,0.5387029,14.692672831778873,0.0,0.19705600976015755,0.0,182,0.010181427001953125,0.08845179786791353,0.08506662917772465,20411,10.287640903433845,0.0
131,2.479546546936035,15.237252328054957,1.8783349462324752,17.224228895519143,12.21104961816074,0.0,0.17496733983949786,0.1,0.002778768539428711,0.05110526084899902,0.0496265,0.6615037,14.747130781406483,0.0,0.1900569089010396,0.0,180,0.011259317398071289,0.08465892229729367,0.08162526232644214,20591,10.296150590375973,0.0
132,2.2605137825012207,13.476603830509644,4.833559372881476,17.26387918058346,5.198524441487266,0.0,0.17378564410611463,0.1,0.0028429031372070312,0.05090761184692383,0.049654394,0.6086428,14.6200780863168,0.0,0.16658189675576207,0.0,173,0.014412641525268555,0.15936570841535497,0.16000950440339667,20764,9.282756183861837,0.0
133,2.336472988128662,16.743037745168714,1.5212072800625227,19.276264031549292,15.215514458860842,0.0,0.18934172087640264,0.1,0.0028531551361083984,0.05104970932006836,0.050419822,0.5128864,14.832374052201992,0.0,0.21013404758062426,0.0,186,0.010245561599731445,0.09159248776317723,0.08816323099912272,20950,11.27059616249477,0.0
134,2.4860708713531494,16.521323483138016,1.0933393909302398,18.282375518372007,15.27782141860753,0.0,0.18046757505576744,0.1,0.002724885940551758,0.0508420467376709,0.04956147,0.60212123,15.001268995295593,0.0,0.2071631951108719,0.0,185,0.011985540390014648,0.08656031991920797,0.08248428529703287,21135,11.264597960085501,0.0
135,2.211293935775757,15.24283175408289,0.7090997051450288,16.247532798909607,14.241948561896834,0.0,0.18191265985020602,0.1,0.002801656723022461,0.05031180381774902,0.04982658,0.5749995,15.025425271174324,0.0,0.19012404390322374,0.0,180,0.01189565658569336,0.07119372648966063,0.07060945477304609,21315,11.261810717383865,0.0
136,2.4608848094940186,15.753242713535105,1.8386563554110218,18.292907423893467,13.203793104105262,0.0,0.1639865408776799,0.1,0.0036933422088623047,0.050237417221069336,0.049878433,0.5843257,15.098207015410402,0.0,0.1969347921257764,0.0,182,0.010159492492675781,0.07791506030774518,0.07737268853616047,21497,12.252445378459134,0.0
137,2.248013973236084,16.739686074088915,1.6646263570042892,19.267412355403753,15.242534637742619,0.0,0.17387943422461613,0.1,0.0026602745056152344,0.05066514015197754,0.049978424,0.6242108,15.262354921278254,0.0,0.21008279394057994,0.0,186,0.010062217712402344,0.08300819157876493,0.0810787355824248,21683,13.25444143417595,0.0
138,2.358051061630249,16.778529324393006,1.5040151084301439,18.306305067190912,15.268520357772823,0.0,0.19095066025765509,0.1,0.0028159618377685547,0.05155444145202637,0.04940954,0.5875933,15.41397236158973,0.0,0.21059340214757644,0.0,186,0.011968374252319336,0.08076839920887673,0.07870082417753126,21869,13.254553837795273,0.0
139,2.7526443004608154,16.485358855857253,0.8136658218514672,17.225316326677348,15.250779407164414,0.0,0.17697129204361703,0.1,0.0028994083404541016,0.05431175231933594,0.049732715,0.58819306,15.521111011016483,0.0,0.20669417048194605,0.0,185,0.011490106582641602,0.06674492425110957,0.06563802382646168,22054,13.258809745031611,0.0
140,2.340097665786743,10.703670085602273,7.4690036428422975,16.26176466161394,-1.910720969384903,0.0,0.13971549922753712,0.1,0.0028238296508789062,0.05116462707519531,0.051243205,0.50666314,15.039366918475062,0.0,0.1329576706335368,0.0,157,0.012125015258789062,0.35946174574019274,0.3485417289841971,22211,13.254781166830263,0.0
141,2.1165273189544678,15.018735657679361,1.6282627099973268,16.29483063009846,12.28701887818333,0.0,0.19087597996558406,0.1,0.0028319358825683594,0.05155348777770996,0.050280213,0.55073744,15.037303792395491,0.0,0.1871375845193473,0.0,179,0.010909557342529297,0.07161725425247537,0.06693278760574975,22390,13.24327334282484,0.0
142,2.2954742908477783,17.767391598657348,1.1119783732700048,19.242028281923357,16.256313902379542,0.0,0.18676226199166768,0.1,0.002870321273803711,0.05161094665527344,0.050533205,0.52453077,15.310312573021676,0.0,0.2237818313301792,0.0,190,0.012438774108886719,0.07930274808295837,0.0802540127531499,22580,13.23600981207406,0.0
143,2.371084213256836,12.491559456015306,8.315241610133898,18.281898158907246,-1.856336581593019,0.0,0.15998537798121396,0.1,0.0029649734497070312,0.052393436431884766,0.049992025,0.5112272,15.02843726132104,0.0,0.15677505356143479,0.0,163,0.010610818862915039,0.2763058509588833,0.271487054439501,22743,14.24174403063495,0.0
144,2.9801275730133057,15.772338712176593,2.6067586643263505,17.30840561200968,11.257439973010156,0.0,0.1806035094899181,0.1,0.0027518272399902344,0.051926374435424805,0.050439134,0.59047157,15.102827406406595,0.0,0.1971762432044785,0.0,182,0.009380817413330078,0.09032833845806937,0.09019083544663982,22925,13.271282397862302,0.0
145,2.16279673576355,15.49748128876091,0.8361512456074301,16.277278181721872,14.236007109816944,0.0,0.17208980025642698,0.1,0.002864837646484375,0.05280280113220215,0.04977299,0.6859961,15.142292794642026,0.0,0.19352514170626695,0.0,181,0.010823249816894531,0.059798962218252656,0.059416713155195214,23106,12.234559906909235,0.0
146,2.350353240966797,16.51696268702984,1.0930418321428237,18.274108430166642,15.266811087009083,0.0,0.17655932149573636,0.1,0.002892017364501953,0.051683902740478516,0.04935333,0.62968785,15.279759783880808,0.0,0.20710580060551365,0.0,185,0.013472795486450195,0.06802223016132446,0.06733218126989352,23291,12.259859749530905,0.0
147,1.9569952487945557,16.504550688038755,2.2993946579865696,19.27519805492615,14.23002286177108,0.0,0.1690672824924066,0.1,0.002856731414794922,0.052583932876586914,0.049850695,0.6852313,15.402238874296602,0.0,0.2069457945821231,0.0,185,0.014781713485717773,0.07632638707375312,0.07381055636269142,23476,11.23164638880518,0.0
148,2.1056840419769287,9.462144766444602,7.553683278383592,19.275611010853208,-1.8856678536565639,0.0,0.1543743171581984,0.1,0.0027463436126708984,0.05051684379577637,0.04987206,0.58428204,14.808229463511402,0.0,0.11637928681621912,0.0,148,0.011744499206542969,0.45139221705479865,0.4316728059825564,23624,12.26272530918879,0.0
149,2.2966692447662354,16.268836741253093,1.8696937999097736,19.271137173324625,14.276712761250568,0.0,0.1823888748717438,0.1,0.0028121471405029297,0.05160117149353027,0.05063758,0.55732065,14.954290191285573,0.0,0.20380152288525238,0.0,184,0.009566307067871094,0.07449803090287743,0.07704268440467274,23808,12.263393360261682,0.0
150,2.182659149169922,15.52228801733229,0.8305489785561473,16.28644906796293,14.27181499907864,0.0,0.15759622321314604,0.1,0.0027649402618408203,0.0511319637298584,0.050507955,0.8409879,15.011089973890245,0.0,0.19384056411044692,0.0,181,0.01389169692993164,0.06505941337178317,0.06422805588053401,23989,12.237907755396767,0.0
151,2.29371976852417,15.252244957638045,2.849057210484888,19.283280128115198,11.22493120784776,0.0,0.1582736739676031,0.1,0.0027008056640625,0.05180168151855469,0.049814727,0.7407063,15.035205472265025,0.0,0.19024408413356636,0.0,180,0.009902000427246094,0.09154492096155979,0.09078394325889978,24169,12.26771756235675,0.0
152,2.531252145767212,15.741785199405228,1.1142289290844438,17.226492406096355,14.236885528743821,0.0,0.16842142281249034,0.1,0.002752542495727539,0.05172371864318848,0.049766667,0.5151616,15.105863444979045,0.0,0.19678052099199828,0.0,182,0.009764432907104492,0.06518758016088658,0.06358746158845223,24351,11.266209481691183,0.0
153,2.1902384757995605,12.229200564592691,8.144451513184755,17.26300400030847,-1.859842180793457,0.0,0.1556504336695904,0.1,0.0027832984924316406,0.05088090896606445,0.048136577,0.45331728,14.81819715694041,0.0,0.1532739666096715,0.0,164,0.010169267654418945,0.29223742966594696,0.29122443996154623,24515,12.271780561541624,0.0
154,2.3161017894744873,11.962835907157837,8.072929379088437,18.267532217266126,-1.8905742380915929,0.0,0.15568503223351265,0.1,0.0033483505249023438,0.06489372253417969,0.049428236,0.56284946,14.532661031962153,0.0,0.149722864635345,0.0,157,0.011392354965209961,0.23622632594430554,0.23428455762046846,24672,12.272716380582787,0.0
155,2.167024612426758,12.233363179360982,8.279059844571343,19.274094364620826,-1.877905332108467,0.0,0.1675613066545077,0.1,0.003004789352416992,0.05224013328552246,0.051138632,0.45267898,14.302731246702036,0.0,0.15332594083240658,0.0,160,0.01147317886352539,0.2712212459714029,0.2692426206232957,24832,13.27975861850436,0.0
156,2.3462626934051514,15.506856908426734,3.0546149848781443,17.276330271795462,10.216112319430179,0.0,0.14862161277774216,0.1,0.002876758575439453,0.05200505256652832,0.050078362,0.5874742,14.423143812874507,0.0,0.19364232485378854,0.0,181,0.00952601432800293,0.09190806377014994,0.09173380395977511,25013,11.26938009530568,0.0
157,2.484196662902832,11.97387620972085,8.011783698605546,17.259949509261226,-1.8849203544097162,0.0,0.15312213943381478,0.1,0.0029261112213134766,0.05157303810119629,0.049738437,0.4731971,14.178217052559141,0.0,0.14986946916651833,0.0,156,0.010035276412963867,0.21414531793128563,0.2120560801274005,25169,12.268568104778074,0.0
158,2.3986668586730957,15.980128636430688,1.9303621171579024,18.23565055491763,13.189973724511372,0.0,0.1661512542686574,0.1,0.002838134765625,0.05203557014465332,0.049705803,0.5695564,14.358408210946296,0.0,0.19996874694524142,0.0,183,0.010265827178955078,0.0668373790277211,0.06544527796903415,25352,13.27537724251062,0.0
159,2.5705788135528564,17.005448624678024,1.0950967009007964,18.268608218093867,15.250581060609605,0.0,0.18302853512919331,0.1,0.002828359603881836,0.05159902572631836,0.04936699,0.6562115,14.62311225231947,0.0,0.21362465837074163,0.0,187,0.009660005569458008,0.07870006631436327,0.07253761148682475,25539,12.273629396990993,0.0
160,1.976144552230835,15.256782896144726,2.114304455658244,18.23359950157639,12.25360379484482,0.0,0.18410739320189065,0.1,0.0027992725372314453,0.05241966247558594,0.049995195,0.6049238,14.686479316701995,0.0,0.1903100097964372,0.0,180,0.010240316390991211,0.06948315895389376,0.06922225407946359,25719,10.226832457072604,0.0
161,2.4455244541168213,16.775508967856958,0.8823219232694982,18.303619496753548,16.24860328863264,0.0,0.17573356698906567,0.1,0.002753019332885742,0.05180525779724121,0.049869835,0.6421587,14.895382281817492,0.0,0.21055298561065044,0.0,186,0.015863656997680664,0.06033032902323285,0.0551270600872204,25905,11.265381852115143,0.0
162,2.2219369411468506,15.247186063740557,5.372634302355304,20.296983507476924,6.194625460347242,0.0,0.16280147673285916,0.1,0.0027875900268554688,0.05144095420837402,0.049607303,0.6838781,14.930562660009798,0.0,0.1901810303907446,0.0,180,0.01020193099975586,0.17300826526706045,0.1744089252955428,26085,11.25816075323452,0.0
163,2.4648168087005615,16.262376627053136,1.7420743433310026,17.28071465664906,13.245077690881393,0.0,0.17214052195689128,0.1,0.0026884078979492188,0.05147290229797363,0.050894592,0.5139959,15.063744056714134,0.0,0.20371508419438172,0.0,184,0.009647846221923828,0.057508017233748585,0.05691139715077528,26269,13.271504700591748,0.0
164,2.502401351928711,11.46772938242811,7.8418623345404805,18.284761987991264,-1.8640582942219692,0.0,0.15809307821281338,0.1,0.0027315616607666016,0.05118227005004883,0.04979495,0.47306365,14.704142589285532,0.0,0.143120286240561,0.0,160,0.015360832214355469,0.34305795494099034,0.33207340495643506,26429,13.257642092420928,0.0
165,2.6990320682525635,14.732933460732488,3.851867799000719,18.27648679684276,8.22227273519841,0.0,0.16829579271568998,0.1,0.0027687549591064453,0.051401615142822266,0.049428012,0.70362663,14.707021676430227,0.0,0.1833304071205948,0.0,178,0.009200334548950195,0.11302305883380155,0.10479088455719371,26607,12.255817304166635,0.0
166,2.5408639907836914,17.78966138575051,0.5090012887121114,18.30398417559936,17.268317124947355,0.0,0.17419092087965185,0.1,0.0026862621307373047,0.051206350326538086,0.050731238,0.58676535,15.015285647362255,0.0,0.2240745257213751,0.0,190,0.01000213623046875,0.06310131759726709,0.06628216131482609,26797,11.258082070122791,0.0
167,2.3366682529449463,17.770879059604134,1.8166737642722182,20.290786364066957,15.249949141886258,0.0,0.18309300659061162,0.1,0.0034332275390625,0.06652426719665527,0.049675282,0.48941395,15.290844988586445,0.0,0.22382373960427454,0.0,190,0.012058734893798828,0.06889807229761692,0.06700347901362926,26987,12.239950873578403,0.0
168,2.230902671813965,17.507983480428845,1.3012676289843457,18.271677209064517,15.254274137465913,0.0,0.17606060132458987,0.1,0.0027518272399902344,0.05234932899475098,0.050058518,0.48476577,15.512558837770685,0.0,0.22032319800846267,0.0,189,0.01838517189025879,0.06765312568004442,0.062444683418714814,27176,12.274311483763254,0.0
169,2.0392816066741943,13.499245853593058,5.426373464187641,20.276520534937248,5.212879974144715,0.0,0.16406420452286205,0.1,0.003095388412475586,0.05144906044006348,0.04979293,0.64526796,15.311227539352922,0.0,0.16687073103515224,0.0,173,0.010006904602050781,0.19917969114519277,0.19889867717268836,27349,11.261358444501512,0.0
170,2.823540449142456,10.725807918934084,7.4786485118052894,18.26800199540691,0.1552515996430912,0.0,0.15972781040389655,0.1,0.002870798110961914,0.0518646240234375,0.049885172,0.93190134,14.852685577311037,0.0,0.129898173387818,0.0,162,0.00995182991027832,0.4360372911424275,0.4078284516389631,27511,14.28266995247143,0.0
171,2.5967960357666016,18.27196129710437,1.2232065208830933,20.265665875511306,17.266670823196883,0.0,0.16626361877522705,0.1,0.0030510425567626953,0.05303668975830078,0.04954168,0.6258798,15.19461314929037,0.0,0.23050646021486948,0.0,192,0.013793230056762695,0.07759462086449682,0.07855157421273322,27703,13.277106509683628,0.0
172,2.4776740074157715,17.773687396968,0.8658445026485766,19.27333880879199,17.267530422914067,0.0,0.1690005188975319,0.1,0.0027811527252197266,0.052149295806884766,0.050538596,0.63506943,15.452520574058134,0.0,0.2238635955283891,0.0,190,0.012645244598388672,0.062061781722976106,0.0537933045296347,27893,14.26638958319716,0.0
173,2.119321584701538,16.519729814468636,1.2969469970163805,17.286656956837565,14.273434336916099,0.0,0.17204747635281378,0.1,0.0034101009368896484,0.06932473182678223,0.050211586,0.7836197,15.559241498099185,0.0,0.20714174269404245,0.0,185,0.010352849960327148,0.045444889731298836,0.042692005144566406,28078,15.271612439320817,0.0
174,2.4780216217041016,17.774274754119467,2.0765712672674423,21.300342366013023,16.26188899304194,0.0,0.1637037242600453,0.1,0.0027494430541992188,0.05207943916320801,0.049977437,0.6781131,15.780744823701214,0.0,0.22386858983326957,0.0,190,0.014582395553588867,0.06963469164886055,0.06528575106751469,28268,13.259589868902438,0.0
175,2.3029415607452393,18.004347899915267,1.4964392612462658,20.28260355188543,16.26550936327528,0.0,0.17612252958533425,0.1,0.0027534961700439453,0.05120682716369629,0.050288334,0.60777867,16.00310513132262,0.0,0.22694492001509858,0.0,191,0.013793468475341797,0.056618406359210095,0.05212212348436713,28459,14.272708790003582,0.0
176,2.3876209259033203,15.758899545752755,0.5015694379299386,16.263036348297778,15.25117366083656,0.0,0.17017002224029165,0.1,0.0027718544006347656,0.051270484924316406,0.04974408,0.87703973,15.978684572765633,0.0,0.19699832011639934,0.0,182,0.009521961212158203,0.057899047822233395,0.06389780564421417,28641,11.246547535565371,0.0
177,2.377519369125366,17.75847427588376,1.491752956864644,19.25841729328603,16.258241206228877,0.0,0.1682264594702086,0.1,0.0028269290924072266,0.051743507385253906,0.049158398,0.99995196,16.156663543077446,0.0,0.2236668486065465,0.0,190,0.01250004768371582,0.045978472581941175,0.04534621915598612,28831,12.266921424281778,0.0
178,2.088386297225952,18.255072512816895,1.4182479815954026,20.269365962308914,16.25829248561973,0.0,0.18859599264755575,0.1,0.002948284149169922,0.05267214775085449,0.050638396,0.52353376,16.36650444005139,0.0,0.23028653367409269,0.0,192,0.013562440872192383,0.04968604928298776,0.04755983753725779,29023,12.261782104851592,0.0
179,2.5041234493255615,13.230487033625618,2.487605532446044,15.263158269668628,9.169201894315469,0.0,0.14702649360890846,0.1,0.0035715103149414062,0.06784391403198242,0.05065818,1.1664958,16.052902699408815,0.0,0.16331028373659126,0.0,172,0.011003494262695312,0.22506723761852468,0.18411681780896,29195,15.283114059719743,0.0
180,2.1357412338256836,11.207012551213612,8.266381578610174,19.248852940879956,-1.8699256634804962,0.0,0.14458815247717385,0.1,0.002611398696899414,0.049773454666137695,0.050527796,0.584074,15.568313684589295,0.0,0.1396482299120862,0.0,157,0.0169374942779541,0.38989378672771163,0.3377278339135292,29352,14.263006694484114,0.0
181,2.275397777557373,17.0103327993778,1.2896788401029418,18.26931456873819,15.268602165402445,0.0,0.17667301182636624,0.1,0.0028808116912841797,0.05233263969421387,0.0502555,0.8460477,15.712515596068146,0.0,0.21369075868017964,0.0,187,0.010533332824707031,0.04520158078790813,0.056366227621011705,29539,15.26905839635648,0.0
182,2.457421064376831,13.233415564910029,6.99196121954468,17.271809345879348,1.1229836061639167,0.0,0.13738594613675129,0.1,0.002681255340576172,0.05131936073303223,0.050098278,0.50160646,15.464605592952335,0.0,0.16667559504836774,0.0,175,0.010020971298217773,0.21853375826119031,0.21044332626403506,29714,15.274484808337514,0.0
183,2.3553404808044434,17.50888369907487,1.4729863627511743,19.227848357592414,15.251078969148988,0.0,0.18828577843136501,0.1,0.003414630889892578,0.06635117530822754,0.04962534,0.49036622,15.669033403564589,0.0,0.2203365346558541,0.0,189,0.010934114456176758,0.07744143790159755,0.08701769625375942,29903,14.2661794783125,0.0
184,2.1261627674102783,16.760103087640953,1.1319155714153455,18.285272854020523,15.243144412885622,0.0,0.17217676269849896,0.1,0.002927064895629883,0.05293560028076172,0.05065343,0.5483799,15.778140371972224,0.0,0.21035050051113313,0.0,186,0.009898662567138672,0.06913131723773555,0.06833724531441981,30089,15.272247491762643,0.0
185,2.0635318756103516,12.716222948375076,8.598684170742095,20.26085147929325,-1.9052414268206153,0.0,0.13515219117806085,0.1,0.0035295486450195312,0.0670013427734375,0.05112878,0.3853819,15.47194862961251,0.0,0.15976605324314408,0.0,158,0.011399269104003906,0.19351906723773446,0.1891518713839699,30247,13.272726106723299,0.0
186,2.363292694091797,16.77290927300347,2.090468518202149,20.319372072749104,15.220498212125236,0.0,0.1888957561256221,0.1,0.004784584045410156,0.06109118461608887,0.050055623,0.6695097,15.602044693951608,0.0,0.21052338493247102,0.0,186,0.010909318923950195,0.07382182291310978,0.06453977618282905,30433,13.230484957711782,0.0
187,2.140378475189209,11.710782597457941,7.865425077499166,17.226133055603366,-1.8568493524169887,0.0,0.15988392526302203,0.1,0.0027103424072265625,0.05393528938293457,0.05005444,0.4560709,15.212918484302243,0.0,0.14637001939510347,0.0,160,0.011029481887817383,0.2511668231922445,0.25216523275914615,30593,10.222822218633523,0.0
188,2.4593329429626465,16.51128856339812,0.8352814748348485,17.293397512447374,15.275385377807938,0.0,0.17661640520209684,0.1,0.0027332305908203125,0.05173850059509277,0.049043078,0.6168128,15.342755492211833,0.0,0.20703486574012336,0.0,185,0.012259721755981445,0.04778411096175043,0.045487855825286895,30778,13.254738863467823,0.0
189,2.24641489982605,17.53327883714284,1.0869485566509667,19.279820507331113,16.28848111425062,0.0,0.17321731165812956,0.1,0.003312826156616211,0.05439591407775879,0.049752936,0.61580896,15.561807826704934,0.0,0.22065426200734437,0.0,189,0.009990453720092773,0.05940649068014052,0.051423144863826396,30967,14.242675515825821,0.0
190,2.3606019020080566,16.264779435412155,0.7134141559509476,17.279481560896535,15.26172000662194,0.0,0.16206332885090655,0.1,0.002681732177734375,0.051424264907836914,0.049566034,0.4935126,15.632104987575657,0.0,0.20374340147869568,0.0,184,0.01028299331665039,0.04719906779747186,0.043459019924222984,31151,13.260219949793735,0.0
191,2.236319065093994,10.216588163655942,10.202599640236459,21.289843653685182,-1.855910640978112,0.0,0.15245770966878813,0.1,0.002669095993041992,0.051076650619506836,0.049403682,0.6068454,15.090553305183686,0.0,0.12645621827461367,0.0,153,0.009728431701660156,0.4811811812222175,0.48278897655357067,31304,14.24552195521513,0.0
192,2.7088911533355713,16.24708921389246,6.138780727935051,24.248327564465505,7.211772014065269,0.0,0.18048222064328634,0.1,0.0027751922607421875,0.05265092849731445,0.05007851,0.6005045,15.206206896054564,0.0,0.20351305749629348,0.0,184,0.013365030288696289,0.14868286933985822,0.14785740217508897,31488,12.24020744449514,0.0
193,2.3835577964782715,13.483519728867929,8.893647036196997,19.287921511188017,-1.9040667070291977,0.0,0.15217414592196127,0.1,0.0027027130126953125,0.050873756408691406,0.04977315,0.46972027,15.0339381793359,0.0,0.16999480565706235,0.0,160,0.010291337966918945,0.17482416489040087,0.17396424099794658,31648,11.228350038629321,0.0
194,2.5955049991607666,18.759787941012114,1.1022565052178626,20.225116319532713,17.28417960402227,0.0,0.16425578589752599,0.1,0.0028994083404541016,0.0517885684967041,0.048931967,0.96689385,15.406523155503521,0.0,0.23702431924927878,0.0,194,0.014168977737426758,0.06111685565048452,0.04684512365143308,31842,13.235527534552707,0.0
195,2.452439785003662,13.481057672511627,8.88817156312166,19.246999054157676,-1.8987607222982845,0.0,0.14942966203838187,0.1,0.0026786327362060547,0.04990077018737793,0.051116712,0.39472643,15.213976607204332,0.0,0.16996157681203267,0.0,160,0.010369300842285156,0.17913720426516166,0.1822608002764812,32002,12.23841820254568,0.0
196,2.3668253421783447,18.2788817254359,1.010749706276927,19.295943896232725,17.264273365120722,0.0,0.1818843202008908,0.1,0.0034627914428710938,0.06677913665771484,0.050362542,0.5332525,15.520467119027488,0.0,0.23060035552560246,0.0,192,0.017620563507080078,0.03406940647167199,0.0348851512007875,32194,14.23720615654616,0.0
197,2.4223010540008545,18.03476344385634,0.8289238904078015,19.280881818664536,17.283118234903267,0.0,0.16841290357478325,0.1,0.0030715465545654297,0.05351376533508301,0.049437616,0.55118006,15.771896751510374,0.0,0.22734611424137824,0.0,191,0.011957168579101562,0.03347868413606648,0.0329116878940002,32385,12.23466849540443,0.0
198,2.6140120029449463,12.979583439612238,8.642604274233992,19.280129850673685,-1.870767856747554,0.0,0.14351013876530042,0.1,0.0036025047302246094,0.06704139709472656,0.050044656,0.42959052,15.49266542032056,0.0,0.1632805948591665,0.0,170,0.011500120162963867,0.33434877680612674,0.3133656102697824,32555,13.243728235955244,0.0
199,2.3029747009277344,18.017351335486847,1.9413276248217306,21.30438902001533,16.254338392902117,0.0,0.1671105589323493,0.1,0.0030519962310791016,0.052072763442993164,0.050285134,0.65074295,15.745134011837187,0.0,0.227118899749301,0.0,191,0.009937763214111328,0.0401560350420701,0.04031963226972489,32746,13.234194653948114,0.0
200,2.3471293449401855,15.771373582379107,2.520866423849926,19.28833381188506,12.230937021746618,0.0,0.16221923900026775,0.1,0.0029659271240234375,0.05196547508239746,0.051712267,0.7481956,15.74775796889138,0.0,0.197165381578633,0.0,182,0.010377645492553711,0.07655998386081139,0.06596017422510932,32928,16.285831138433757,0.0
201,2.216057062149048,20.786151607752977,2.607257616165044,25.302039211214872,19.271821903125467,0.0,0.18337593860762394,0.1,0.003221273422241211,0.053356170654296875,0.049656432,0.47588873,16.25159733277754,0.0,0.26402792842674405,0.0,202,0.013980865478515625,0.0780444712477322,0.07074083700607112,33130,15.24753323019206,0.0
202,2.2262184619903564,19.01688843672987,0.8435853505634934,20.295664731198183,18.24127911275801,0.0,0.18444147045357198,0.1,0.002985239028930664,0.053160905838012695,0.04943589,0.45733306,16.528126443172773,0.0,0.2404487642641667,0.0,195,0.022420644760131836,0.03959723577420066,0.026426350985690534,33325,16.269126716111007,0.0
203,2.1047956943511963,19.279981368322265,0.7216706083128268,20.292308771633216,18.251270606516396,0.0,0.1725309249102484,0.1,0.002901315689086914,0.05267667770385742,0.05046697,0.5963783,16.803311935687724,0.0,0.24394898558431108,0.0,196,0.015610694885253906,0.02365003294695146,0.02597114421927604,33521,16.278467790114927,0.0
204,2.907052993774414,16.768724026457623,0.496640797194399,17.270691192320854,16.263553989555746,0.0,0.17516922143390326,0.1,0.0028688907623291016,0.05275225639343262,0.050562505,0.64726585,16.799853144764715,0.0,0.2104693809784662,0.0,186,0.011292457580566406,0.06391426240626498,0.05911281289077698,33707,16.287584286026767,0.0
205,2.484985828399658,18.274378288465126,1.740110646843196,21.288338286256916,17.2691974821977,0.0,0.1703996265802723,0.1,0.0029027462005615234,0.05192136764526367,0.049784545,0.6535358,16.947305659134756,0.0,0.2305385532574843,0.0,192,0.014474630355834961,0.03782862200584816,0.030965758428540838,33899,16.237364917899576,0.0
206,2.238581895828247,17.757625434157603,1.8116462481217905,20.258258746541664,15.226442857481063,0.0,0.17853358589848695,0.1,0.0028824806213378906,0.052825927734375,0.049834885,0.59758943,17.02833763663704,0.0,0.2236570089430654,0.0,190,0.010766983032226562,0.04521483140784537,0.038870808415866494,34089,15.2504252078432,0.0
207,2.509328603744507,19.272023363427884,0.6981929214377849,20.247447153036703,18.272943645552616,0.0,0.16682963378672683,0.1,0.0030972957611083984,0.05316805839538574,0.050594166,0.5419655,17.252706209316127,0.0,0.24384257062609688,0.0,196,0.015778779983520508,0.025362588611059673,0.028033666040788458,34285,16.2885092312917,0.0
208,2.8608767986297607,16.51620346489888,2.194164459003871,19.294088626653906,13.208414147975402,0.0,0.1722050875245065,0.1,0.002892017364501953,0.05187559127807617,0.05090796,0.50992256,17.179055934874402,0.0,0.20710006069662246,0.0,185,0.010681867599487305,0.04715673240502804,0.046223487648219,34470,16.24196969596159,0.0
209,2.1334946155548096,18.771492412452673,0.5187226077929094,19.297219764525266,18.218985361451796,0.0,0.1835330440193979,0.1,0.00290679931640625,0.05216526985168457,0.050839327,0.4997573,17.338299582632228,0.0,0.23716734722915755,0.0,194,0.01559758186340332,0.0191264358890898,0.01662405345021075,34664,17.251926298528215,0.0
210,1.9092626571655273,18.522147904997578,2.5983250032670027,22.289938204475273,15.267393098898149,0.0,0.16632911514267845,0.1,0.002937793731689453,0.05687236785888672,0.049791824,0.51397926,17.456684414868764,0.0,0.23384455278192623,0.0,193,0.014520645141601562,0.03467791003267488,0.03235007317563211,34857,18.273954166933887,0.0
211,2.1849710941314697,19.511301680944253,1.8034529201758984,21.290544829464732,17.265720051019525,0.0,0.16331830351554666,0.1,0.002972126007080078,0.052336931228637695,0.04991486,0.6917293,17.662146141476313,0.0,0.24704880036802093,0.0,197,0.013817071914672852,0.032460982504762044,0.026772029982559415,35054,17.26322895636604,0.0
212,2.150742769241333,19.53804846430121,0.8411245683812502,20.308577672143596,18.271535903593662,0.0,0.18207338427425301,0.1,0.0030574798583984375,0.0540163516998291,0.049648266,0.5399916,17.849736373758805,0.0,0.24739046947321147,0.0,197,0.016936302185058594,0.020054037645468484,0.021308228649977994,35251,17.262623572556116,0.0
213,2.4253735542297363,20.28377976231495,1.2384173590479735,22.30078325420072,19.256858372623356,0.0,0.17609671928764323,0.1,0.00337982177734375,0.05360007286071777,0.04974334,0.65499234,18.09314071261442,0.0,0.2573306568936893,0.0,200,0.0139007568359375,0.01747463869500981,0.01682390968622418,35451,19.294599610035956,0.0
214,2.1188671588897705,19.27523168364785,2.3423158698649584,21.289700927005562,15.283833389598051,0.0,0.1740857320629435,0.1,0.0029633045196533203,0.05346989631652832,0.04958499,0.5664508,18.211349809717767,0.0,0.24388527030804066,0.0,196,0.013958454132080078,0.03556819355565435,0.029315378269599495,35647,19.263990572851643,0.0
215,2.220980167388916,19.783727027205522,2.196228391732515,23.31354603925252,17.270255275968612,0.0,0.18922773656957628,0.1,0.002929210662841797,0.05306601524353027,0.050078325,0.5272628,18.36858753146654,0.0,0.25066382006348414,0.0,198,0.014259099960327148,0.030794435205661434,0.031675753983364224,35845,16.276111578411243,0.0
216,2.901777505874634,14.487643290443103,9.489711757978249,21.29101806883203,-1.841768463114836,0.0,0.17614212277495486,0.1,0.002989053726196289,0.053026676177978516,0.05102488,0.40795285,17.980493107364197,0.0,0.18338762820363155,0.0,174,0.01237177848815918,0.2726291560107355,0.2597448704343807,36019,15.282281751182351,0.0
217,2.3382747173309326,19.530693961995627,0.8367092080802772,20.297346404507227,18.27112355899708,0.0,0.18410697661045336,0.1,0.0029151439666748047,0.05327773094177246,0.049769048,0.48895648,18.13551319282734,0.0,0.24729415759772821,0.0,197,0.01324009895324707,0.02109955351305129,0.024587843918716358,36216,17.292218476282596,0.0
218,2.839622735977173,10.459936963839716,8.443395679551784,18.280539348518737,-1.8890374812416995,0.0,0.14001798865780643,0.1,0.0028362274169921875,0.05128884315490723,0.049470436,0.51339084,17.367955569928576,0.0,0.12968777371245632,0.0,153,0.01123952865600586,0.4303494757464452,0.3813797736039026,36369,15.283973687133825,0.0
219,2.4231369495391846,17.517845720558775,1.483979913743853,19.27174262043311,15.25576336243316,0.0,0.19189824688295154,0.1,0.002878904342651367,0.05220508575439453,0.050346043,0.46618986,17.382944584991595,0.0,0.2204523918189104,0.0,189,0.009737730026245117,0.022263889170773026,0.026282052366238165,36558,12.245482367291354,0.0
220,2.6981892585754395,21.269485825207653,1.8864418377449543,24.306407065032598,19.27542481190052,0.0,0.18861617940458048,0.1,0.0029592514038085938,0.053557395935058594,0.05016607,0.60115045,17.7715987090132,0.0,0.2704816031874681,0.0,204,0.014059782028198242,0.08472701299442494,0.06668453462514352,36762,13.253893810253752,0.0
221,2.420316457748413,20.037493477773438,2.068226150268738,23.314989769090495,18.25623447598253,0.0,0.16467644631141515,0.1,0.003148317337036133,0.05231118202209473,0.050164923,0.9725066,17.998188185889227,0.0,0.2540418542075279,0.0,199,0.013823509216308594,0.05332515209540254,0.02598906192463414,36961,16.257406742545935,0.0
222,2.2898435592651367,17.515892097235447,2.714036855793307,20.281812476671295,13.20472565145664,0.0,0.15040877237009467,0.1,0.0029120445251464844,0.05273175239562988,0.047368903,0.63492846,17.94995857702385,0.0,0.2204425593982883,0.0,189,0.009958028793334961,0.04038860755313207,0.05521544983693641,37150,14.251958439417526,0.0
223,2.421597957611084,20.540085706351082,1.3117712971360063,22.31659413194354,19.27247457772682,0.0,0.17643431951707772,0.1,0.004921913146972656,0.05218386650085449,0.050285414,0.66709715,18.208971289956573,0.0,0.2607453844221344,0.0,201,0.014558792114257812,0.017241205333501642,0.02000695400769516,37351,17.287648527118876,0.0
224,2.718244791030884,21.297002839920875,1.8798057543741142,24.313497014943263,19.27903723765898,0.0,0.1722384756909881,0.1,0.003050565719604492,0.05259227752685547,0.050300695,0.5709831,18.517774444953,0.0,0.2708355813644247,0.0,204,0.013419628143310547,0.02035717996796232,0.01983383539923441,37555,17.265907439660825,0.0
225,2.467780828475952,20.034365389559206,3.910513517800015,26.308644393336916,16.27783265933525,0.0,0.1851180590791993,0.1,0.003056764602661133,0.05229997634887695,0.050328,0.53161913,18.66943353941362,0.0,0.2540026653747463,0.0,199,0.015422344207763672,0.07341915103229715,0.06563471932657998,37754,18.29301255690225,0.0
226,2.276287794113159,19.53294508174824,1.4801332371108407,21.26098780969632,17.261320720918924,0.0,0.17655779932130758,0.1,0.0030188560485839844,0.05334734916687012,0.05014345,0.6650455,18.755784693647083,0.0,0.24732017650396215,0.0,197,0.014638185501098633,0.019234156799522478,0.014549803559489862,37951,19.31253729166314,0.0
227,2.578476667404175,15.753484458304182,10.265915083301952,23.311585604956253,-1.8396117583223912,0.0,0.1699300352856284,0.1,0.0029163360595703125,0.051882266998291016,0.050010227,0.4384305,18.455554670112793,0.0,0.20026013677889798,0.0,181,0.010694503784179688,0.26892672473397833,0.26152733481932033,38132,19.312559995392153,0.0
228,2.6193084716796875,22.541383963206222,2.399777527512784,25.2868488806199,19.262077526858775,0.0,0.18544645601969245,0.1,0.002985715866088867,0.05279994010925293,0.050543156,0.44906756,18.864137599422136,0.0,0.28743271891905764,0.0,209,0.014099836349487305,0.05816870238849104,0.047604177763478514,38341,18.305281027955054,0.0
229,2.2278475761413574,22.790046188916264,1.130765902079405,24.31866151828368,21.304894810621025,0.0,0.18403805480478339,0.1,0.002979755401611328,0.05328178405761719,0.049735878,0.57068306,19.25672845837155,0.0,0.29075157225475695,0.0,210,0.014676809310913086,0.038398262252590874,0.013766808384735206,38551,17.29564099915294,0.0
230,2.400177240371704,23.563162898744647,3.9720020074037103,30.33048408845421,20.29135415795308,0.0,0.1884354813464995,0.1,0.0028667449951171875,0.053056955337524414,0.050093856,0.74274176,19.68737190240886,0.0,0.3010585552011724,0.0,213,0.014009475708007812,0.0509036094657698,0.046565698117591744,38764,18.263057222843248,0.0
231,2.498284101486206,22.29330744551408,3.200624576985663,26.36244272285427,18.27403031322607,0.0,0.18435437838371796,0.1,0.0027456283569335938,0.054759979248046875,0.049060225,0.7169909,19.94796545671938,0.0,0.28412583493014576,0.0,208,0.013401508331298828,0.05276493085748129,0.05615008679796771,38972,20.30426919121757,0.0
232,2.172410249710083,22.282310416968873,3.824086863864937,27.265770105002407,17.22952650701266,0.0,0.17336273825025317,0.1,0.0028383731842041016,0.0532987117767334,0.050452437,0.75114256,20.18139995274433,0.0,0.28398245801798655,0.0,208,0.014086723327636719,0.050023710733184804,0.035298169654222965,39180,20.295942545121164,0.0
233,2.762291431427002,16.744615936782257,11.134007219695027,27.299429256281744,-1.886442787464808,0.0,0.15014489249289617,0.1,0.0028176307678222656,0.05116844177246094,0.050440673,0.3607685,19.83772155114812,0.0,0.21347935749399038,0.0,180,0.010513544082641602,0.2728816016335465,0.24148481488375234,39360,21.307411761475997,0.0
234,2.6013264656066895,22.797021218757774,2.7072543030716707,25.297981006642868,18.272092447230502,0.0,0.18349999224009683,0.1,0.0027921199798583984,0.05233192443847656,0.049960673,0.47604856,20.133651517909087,0.0,0.2908399191480405,0.0,210,0.015558242797851562,0.03462873822050012,0.05345899890977226,39570,22.310012942571202,0.0
235,2.8098413944244385,22.045727063363746,3.3387829898152965,27.281082218563387,18.295567496159002,0.0,0.17314902069646176,0.1,0.002739429473876953,0.057625770568847656,0.050622538,0.5291115,20.324859072454554,0.0,0.28081936769137655,0.0,207,0.013597965240478516,0.044106310240759276,0.03732297909695851,39777,26.325886087496357,0.0
236,2.284708023071289,22.301382778448566,2.351275823136357,26.314054918590305,20.307988134498867,0.0,0.20281491837263257,0.1,0.0027790069580078125,0.05179023742675781,0.049707893,0.49995723,20.522511443053958,0.0,0.28422994411304087,0.0,208,0.013302326202392578,0.03160394043807353,0.021040520536284957,39985,26.323506545637695,0.0
237,2.4191229343414307,21.287130303614525,2.5490318793220257,24.283550759268778,18.304649460058364,0.0,0.17452093398095228,0.1,0.0027031898498535156,0.052667856216430664,0.050200317,0.5740183,20.598973329110017,0.0,0.27071132766454487,0.0,204,0.016794443130493164,0.02749188464670869,0.0322010237285283,40189,28.333589850687172,0.0
238,2.288235902786255,24.056330914078117,4.106006008264147,27.330904910086574,17.27155760875295,0.0,0.17988619284856802,0.1,0.002805471420288086,0.05223584175109863,0.050181817,0.49208555,20.944709087606828,0.0,0.30763090763443557,0.0,215,0.013573884963989258,0.038235043572680254,0.03617782656693543,40404,30.351636174737006,0.0
239,2.3512020111083984,15.503195128384863,10.205288311259888,23.297016376208017,-1.8707670644087984,0.0,0.15727001947094474,0.1,0.002827882766723633,0.05050849914550781,0.049618337,0.39029148,20.400557691684632,0.0,0.19692292335153094,0.0,176,0.010246992111206055,0.3459274031838067,0.31485671076251287,40580,30.345405854342456,0.0
240,2.2324090003967285,25.823703022060208,2.700349021047484,29.334262566427096,22.309401210348362,0.0,0.19093155672279036,0.1,0.003379344940185547,0.06815981864929199,0.04906949,0.48042607,20.942872224722194,0.0,0.33119369771513296,0.0,222,0.016973257064819336,0.03562045146139334,0.03944593754461017,40802,29.343349262582837,0.0
241,3.0587716102600098,25.058302425866877,3.360224388442134,29.332972865100057,21.288454525228026,0.0,0.18197350208658614,0.1,0.003111124038696289,0.055994272232055664,0.048964985,0.53114665,21.354415244836666,0.0,0.32098878209128034,0.0,219,0.013766050338745117,0.037872143260281856,0.028259953142860263,41021,32.36649783086467,0.0
242,2.815558433532715,21.54067368293216,2.281743680540246,25.29616507910317,19.27599409996969,0.0,0.17071027448573486,0.1,0.0028629302978515625,0.05445528030395508,0.049593072,0.76784027,21.373041088646215,0.0,0.2740913770063035,0.0,205,0.013587236404418945,0.03715393305020504,0.036674225966359185,41226,31.369937232199376,0.0
243,2.378671884536743,23.80086810552315,1.1264377305462467,25.306864799627785,22.289675199589386,0.0,0.18711485528544008,0.1,0.0030002593994140625,0.05656123161315918,0.049391,0.9070188,21.615823790333906,0.0,0.3042259193850647,0.0,214,0.014492273330688477,0.014180669712622922,0.013792912696977858,41440,32.371705956733585,0.0
244,2.7284505367279053,22.012039669769923,6.481793182838566,28.313451819442793,12.151585437380174,0.0,0.15800882180825276,0.1,0.0028548240661621094,0.053554534912109375,0.049329795,0.4516726,21.655445378277506,0.0,0.2803917853837922,0.0,207,0.014114856719970703,0.08475509828662942,0.08116643231814084,41647,31.362242311293883,0.0
245,2.4891884326934814,20.548003397399462,0.8429253053521161,21.32347725444269,19.284750548520993,0.0,0.18626698167348146,0.1,0.003048419952392578,0.05249905586242676,0.049802434,0.68123037,21.5447011801897,0.0,0.2608506653435047,0.0,201,0.014180183410644531,0.02056003882277582,0.009953046172819972,41848,32.36542830184669,0.0
246,2.7915353775024414,23.053778465259867,1.4765835116709454,25.30045608100001,21.312126120552342,0.0,0.18493106888113767,0.1,0.0028879642486572266,0.05276131629943848,0.05044182,0.55950147,21.695608908696716,0.0,0.29425981456626854,0.0,211,0.018189430236816406,0.018003327468904314,0.021121857683690914,42059,34.372637844976204,0.0
247,2.2409019470214844,25.3057952467066,3.2644450234293996,30.352102399618268,21.28882953140075,0.0,0.2004096471047621,0.1,0.0029311180114746094,0.05274677276611328,0.0497338,0.72838724,22.056627542497704,0.0,0.3242880202674359,0.0,220,0.013255119323730469,0.06836385696636343,0.04051243019821606,42279,33.37823548546239,0.0
248,2.518751859664917,23.04670458368642,1.9403678304119936,25.32061159829934,20.275610997107886,0.0,0.19175984570641105,0.1,0.00290679931640625,0.05619072914123535,0.050437998,0.62261343,22.155635246616576,0.0,0.29417154361964426,0.0,211,0.014412641525268555,0.016222789403279345,0.024132370938854647,42490,35.380920000177476,0.0
249,2.3606767654418945,27.81217080249402,4.95575614117917,31.352871876284322,19.259817733339744,0.0,0.20357305756637348,0.1,0.003458261489868164,0.05366802215576172,0.051388055,0.438961,22.72128880220432,0.0,0.3577156775224043,0.0,230,0.013537406921386719,0.05610986962830619,0.04221752495968243,42720,35.37832844447903,0.0
250,2.2964181900024414,28.060624615180124,3.042219177679346,32.312613518826915,24.275801703367833,0.0,0.19611410660351342,0.1,0.0029778480529785156,0.05305981636047363,0.050293677,0.46219507,23.255222383501902,0.0,0.3610295167581331,0.0,231,0.029315948486328125,0.025221640523326868,0.02913312543266344,42951,35.37381992636083,0.0
251,2.363759756088257,25.55966927232936,0.43403949410894527,26.311354571373744,25.301762966587283,0.0,0.18868473797254734,0.1,0.0028505325317382812,0.05348563194274902,0.049921546,0.67369956,23.48566707238465,0.0,0.32767411909033173,0.0,221,0.013911247253417969,0.03817897433139448,0.018006747639522265,43172,35.37119078088576,0.0
252,2.3247954845428467,29.07064031657123,0.41278922438765125,29.326454888116867,28.356577714540666,0.0,0.19010704507698042,0.1,0.0029897689819335938,0.05383634567260742,0.049811423,0.51361364,24.04416439680331,0.0,0.37449376440072735,0.0,235,0.015646696090698242,0.008348552556799883,0.01326895510083417,43407,33.35373303273401,0.0
253,2.898385763168335,25.303762123248184,8.755400302524887,31.346001491996756,10.189513036085195,0.0,0.19208468224114988,0.1,0.0028066635131835938,0.05272316932678223,0.050211977,0.40462247,24.1701241694478,0.0,0.32426893797970263,0.0,220,0.015935182571411133,0.12326896859104022,0.12215976279202072,43627,35.36033835265152,0.0
254,2.718320608139038,29.07969309610409,1.9282937953913641,31.349646918335484,26.325245562133933,0.0,0.1873111014013572,0.1,0.0029544830322265625,0.05628824234008789,0.04995752,0.849624,24.66108106211343,0.0,0.3746116225918623,0.0,235,0.016010522842407227,0.01924617045389578,0.015032245785337168,43862,30.341623782179287,0.0
255,2.466888427734375,28.828258945998186,1.5095891923685447,30.35376494615874,26.317667617910946,0.0,0.1751836911911692,0.1,0.004267454147338867,0.053053855895996094,0.04982125,0.599092,25.077798850501903,0.0,0.37125941361788517,0.0,234,0.01532602310180664,0.014738511618994718,0.009349707939958611,44096,38.316199328291404,0.0
256,2.6257362365722656,29.83622375740935,3.2218494385116947,33.356143595590865,25.308964287995327,0.0,0.18732032306305757,0.1,0.0030469894409179688,0.05424904823303223,0.04999061,0.6184388,25.553641341192648,0.0,0.384694706063983,0.0,238,0.01693272590637207,0.019205047870876308,0.020661353364999423,44334,31.346100078033476,0.0
257,2.510746479034424,27.81556282506508,4.952018607092661,31.339172096292106,19.26831566270787,0.0,0.19024679608224082,0.1,0.0028078556060791016,0.05889534950256348,0.049910445,0.6267085,25.77983348957989,0.0,0.3577537325725463,0.0,230,0.014559268951416016,0.05484796693931601,0.04363191787473954,44564,26.315133573459217,0.0
258,2.882988691329956,25.799911355385113,3.5832616338250034,30.343201930548968,22.2758626100615,0.0,0.18474817712229769,0.1,0.002879619598388672,0.05304312705993652,0.0490876,0.6741569,25.781841276160414,0.0,0.3308835602284864,0.0,222,0.01466679573059082,0.047667708711444136,0.026161106144251288,44786,21.289463516689633,0.0
259,2.500643253326416,27.81438384081125,2.6063583651575417,29.342334979709186,23.300180361389344,0.0,0.20091876803952127,0.1,0.0028858184814453125,0.05401754379272461,0.050185245,0.46493512,25.985095532625497,0.0,0.35774099498346323,0.0,230,0.01451253890991211,0.01780714603846131,0.027929343382765218,45016,30.332959694513658,0.0
260,2.569147825241089,29.82977525684211,4.11020126421526,36.36572920135465,26.308971820048654,0.0,0.200335074422093,0.1,0.003542184829711914,0.0691213607788086,0.049822453,0.6704475,26.36956350504716,0.0,0.38460978118634226,0.0,238,0.0163421630859375,0.06259246346391585,0.039037960101810085,45254,29.33438331122322,0.0
261,2.783919334411621,27.570645390058104,1.317113672605149,28.342115957390966,25.289369298034217,0.0,0.21256369888438373,0.1,0.002948760986328125,0.053871870040893555,0.049587246,0.52874094,26.489671693548257,0.0,0.35448778985276164,0.0,229,0.013992547988891602,0.014807906379808784,0.01510282844036255,45483,41.38326213592415,0.0
262,2.248955011367798,29.085135043708952,1.945638725760323,32.376005102939395,27.304260983568373,0.0,0.19922476851927548,0.1,0.0028481483459472656,0.05336952209472656,0.04911905,0.59456486,26.749218028564325,0.0,0.3746796806378099,0.0,235,0.013489723205566406,0.008852214803896382,0.01371847887621147,45718,40.30172750499242,0.0
263,2.4329071044921875,27.088514956261513,4.271011362247893,33.344255473197514,21.3233235028947,0.0,0.18710543748632383,0.1,0.002757549285888672,0.053128957748413086,0.04982373,0.62949336,26.783147721334046,0.0,0.3480555768295825,0.0,227,0.014250755310058594,0.06026565106857335,0.03867503005253425,45945,41.37189041832396,0.0
264,2.5065274238586426,26.574317757124106,4.995810638460365,34.36747165772575,21.29060232672995,0.0,0.19210683848436602,0.1,0.0033597946166992188,0.052986860275268555,0.050645377,0.653364,26.762264724913052,0.0,0.341203433217734,0.0,225,0.013139009475708008,0.058240665815954995,0.04198896505323302,46170,37.28312096747596,0.0
265,2.7148704528808594,32.58989553899998,1.787371350967439,34.34976142317056,30.3419461932546,0.0,0.20793118006379893,0.1,0.003686189651489258,0.06981587409973145,0.04922446,0.4138742,27.345027806321745,0.0,0.4214116925326934,0.0,249,0.015470743179321289,0.050534417822114215,0.04595937085073874,46419,38.28882665099933,0.0
266,2.397536277770996,26.058439835335523,4.790078608989105,33.34892740060706,21.279908068416233,0.0,0.19857098948768917,0.1,0.003467559814453125,0.06960511207580566,0.049911812,0.53887135,27.216369009223126,0.0,0.3343266074738646,0.0,223,0.013997793197631836,0.045298455884480594,0.05005997348461532,46642,40.29876398105409,0.0
267,2.506234884262085,26.825646494825712,4.414851812231649,33.368355778867034,22.289930582062325,0.0,0.20538380137576467,0.1,0.0028166770935058594,0.05253267288208008,0.050419938,0.55670226,27.177296757783385,0.0,0.34455239374332597,0.0,226,0.013332128524780273,0.026618913677998644,0.026334765365766344,46868,41.306005347508474,0.0
268,2.4530327320098877,30.837932284174393,3.884735294237351,35.37520429473092,25.258961215557466,0.0,0.2047857269322319,0.1,0.002691030502319336,0.05759692192077637,0.049793087,0.5237948,27.543360310422486,0.0,0.3980545089760062,0.0,242,0.016302824020385742,0.030922991443612706,0.025867787448175195,47110,29.317313864530078,0.0
269,2.4594192504882812,25.055137740381372,8.802055616141555,33.361364006943795,10.233407833468842,0.0,0.19654284285406975,0.1,0.004958391189575195,0.05758333206176758,0.05142395,0.39010963,27.29453805341838,0.0,0.32094995332523524,0.0,219,0.013712406158447266,0.1491316668233693,0.13739554324588202,47329,28.3090674448682,0.0
270,2.2048346996307373,21.260178067736,13.64727916119015,33.34698289903528,-1.9114387474936168,0.0,0.16520221452741926,0.1,0.002694845199584961,0.0532376766204834,0.051093224,0.27623028,26.69110205485014,0.0,0.27368805044526523,0.0,188,0.009865522384643555,0.1279015403635429,0.1232714719345457,47517,30.331313416030923,0.0
271,2.3184468746185303,23.045042330910075,14.018959017915071,34.357875556021924,-0.8470483513715675,0.0,0.2018097984832185,0.1,0.0026922225952148438,0.05185723304748535,0.050315045,0.3357369,26.32649608245614,0.0,0.2941458607980014,0.0,211,0.014330148696899414,0.23483348828092893,0.22891555225373963,47728,26.30286815867287,0.0
272,2.662219285964966,25.557997614358385,11.073471827913322,36.373638686482714,7.201919834707674,0.0,0.1898142773726192,0.1,0.0027923583984375,0.052405357360839844,0.050676756,0.37467933,26.249646235646363,0.0,0.3276505996924476,0.0,221,0.013951539993286133,0.1757937932181526,0.17574095417905486,47949,31.333745584826442,0.0
273,3.777113914489746,15.003635243928578,15.740094286283338,35.36267330058081,-0.8188980245591385,0.0,0.16278867015130633,0.1,0.002663850784301758,0.05054759979248047,0.05047009,0.5176298,25.125045136474583,0.0,0.18692912049184499,0.0,179,0.011713266372680664,0.5752259302607609,0.5581311000627974,48128,28.32129823994663,0.0
274,2.5895745754241943,25.284039300929297,16.73054200477132,43.37909285468956,-1.8880995787286141,0.0,0.18139517082122436,0.1,0.002800464630126953,0.05200552940368652,0.049122337,0.35484502,25.140944552920054,0.0,0.3273367967774232,0.0,210,0.016226530075073242,0.22996184087156019,0.21115109806361212,48338,29.325437441845164,0.0
275,2.4307541847229004,18.7788772195008,10.275273426007614,31.340300408391048,7.206984714829688,0.0,0.1725288005292669,0.1,0.002718210220336914,0.05293917655944824,0.049419712,0.5107261,24.504737819578132,0.0,0.23726045132633797,0.0,194,0.015305042266845703,0.32670209989251986,0.3216022717233426,48532,26.312877247419802,0.0
276,2.743577003479004,24.55212702160212,15.296619491837248,35.35253005200481,-1.8575678250784513,0.0,0.1790361919213767,0.1,0.0028700828552246094,0.05226254463195801,0.049053855,0.32025927,24.50947673978053,0.0,0.3175710103731457,0.0,214,0.013658523559570312,0.20635272549897302,0.2061105812704993,48746,22.299898307533624,0.0
277,2.7175562381744385,29.345697890992632,3.099914936066956,32.35782553207544,24.31855974024548,0.0,0.19103752829987677,0.1,0.002882242202758789,0.05371546745300293,0.050483607,0.47914582,24.993098854901742,0.0,0.3781538085924405,0.0,236,0.013526678085327148,0.05737379484944707,0.03749087557537913,48982,47.32400198364463,0.0
278,2.372281789779663,32.35456677057103,2.352455314726914,36.36834015123207,30.35550719646933,0.0,0.20255936521812173,0.1,0.00495600700378418,0.06050825119018555,0.04957419,0.48083732,25.729245646468673,0.0,0.41827338124922925,0.0,248,0.013601064682006836,0.058841054848784505,0.02886483342159279,49230,40.31144104669858,0.0
279,2.2509524822235107,24.27484397512463,15.195616049712743,35.31405678745349,-1.8676237246617984,0.0,0.16381548979424948,0.1,0.003032207489013672,0.05427694320678711,0.04874731,0.3356813,25.583805479334266,0.0,0.3138858579625425,0.0,210,0.022365093231201172,0.18069641817416698,0.193267139633397,49440,38.309324760688575,0.0
280,2.4270899295806885,33.363681458224306,3.955550573166098,37.376434854011116,27.341409866199083,0.0,0.20861034338024206,0.1,0.006021022796630859,0.05474495887756348,0.050682593,0.4663604,26.361793077223272,0.0,0.43172650323852846,0.0,252,0.017298221588134766,0.03145553100186302,0.029538230426366545,49692,24.315067086837278,0.0
281,2.97049617767334,33.35241063235125,6.548340289002231,41.368094323719085,24.316689847801598,0.0,0.21185371967518105,0.1,0.0030214786529541016,0.057048797607421875,0.049494922,0.49771857,27.06085483273607,0.0,0.43157882056817237,0.0,252,0.013848543167114258,0.05995125644273806,0.05769302250866012,49944,23.31452743364551,0.0
282,2.6924264430999756,32.59653974654978,4.5687903388486015,37.356232647645584,25.310624996782593,0.0,0.20737131613053503,0.1,0.0029916763305664062,0.054646968841552734,0.050222665,0.46479285,27.61442332411744,0.0,0.421496626562933,0.0,249,0.013918161392211914,0.04121427677556638,0.0387296593037513,50193,27.328415825231556,0.0
283,2.6798160076141357,30.835587092230476,2.9794926553794037,34.36693108993934,26.302447921022836,0.0,0.19674110824832755,0.1,0.0028548240661621094,0.053870439529418945,0.050739676,0.62221897,27.936539700928744,0.0,0.39801883911888297,0.0,242,0.015643835067749023,0.03047218593742627,0.02417167333873683,50435,40.32378036853206,0.0
284,3.1277120113372803,28.119757067296153,4.7124082327886345,32.40313352331263,20.382911433164182,0.0,0.16596156988601038,0.1,0.0030014514923095703,0.05464959144592285,0.0501538,0.46937785,27.954861437565487,0.0,0.3617997317499661,0.0,231,0.01764988899230957,0.05950734814978138,0.03938219320628961,50666,47.35231394586285,0.0
285,2.2937827110290527,30.085809827529843,7.791898657921022,36.38477275141051,17.295818781884833,0.0,0.18525385412909393,0.1,0.0028426647186279297,0.057915449142456055,0.051709615,0.40774196,28.167956276561924,0.0,0.3880247456265449,0.0,239,0.01649785041809082,0.07118845652648839,0.07680425265235215,50905,22.297239568832026,0.0
286,2.3709094524383545,32.11069686517647,1.4753019267141685,34.36424400195942,30.367964854545896,0.0,0.18903970378726967,0.1,0.0030434131622314453,0.05745196342468262,0.048876937,0.46922326,28.56223033542338,0.0,0.4150123605690217,0.0,247,0.01317453384399414,0.02217087028816088,0.015846000000864547,51152,47.36350919467401,0.0
287,2.4743800163269043,33.36299154770712,4.215355169345077,40.41614657624879,29.33691585662698,0.0,0.20866882976850076,0.1,0.0029582977294921875,0.05425763130187988,0.04965019,0.4730504,29.04230645665175,0.0,0.4317137972828943,0.0,252,0.016370534896850586,0.04894766967862037,0.02785821680683319,51404,22.294204353915053,0.0
288,3.0426650047302246,23.030180407068055,12.380308593473897,34.35232471228387,2.170892473365494,0.0,0.18284634206489997,0.1,0.002826213836669922,0.05248689651489258,0.049735624,0.33889452,28.441093851693385,0.0,0.293952245360009,0.0,211,0.01285099983215332,0.287453565881176,0.26255062702840615,51615,25.308488526394417,0.0
289,2.788200616836548,29.84438076996129,2.6059424186260816,32.35226855530909,26.330170267409876,0.0,0.1879501739758556,0.1,0.0029168128967285156,0.05409955978393555,0.050374635,1.6947839,28.581422543520176,0.0,0.38480235972785254,0.0,238,0.013715505599975586,0.01517567331974459,0.014453809608505539,51853,25.309600925562382,0.0
290,3.068068265914917,32.10081123948349,2.2843727611227247,34.36157402127546,29.32276215934282,0.0,0.18988549788448442,0.1,0.0030710697174072266,0.05541229248046875,0.05028837,0.51085055,28.933361413116508,0.0,0.4148846530069327,0.0,247,0.015891075134277344,0.02978740867771833,0.030074671975472006,52100,29.327241930386254,0.0
291,2.8144724369049072,30.840137976596438,2.979707739418363,35.37762717608689,27.328469636461815,0.0,0.19808003014675765,0.1,0.0028829574584960938,0.0540468692779541,0.050489247,0.5802506,29.1240390694645,0.0,0.39808326493370266,0.0,242,0.01620197296142578,0.02448034425816051,0.017560121277014243,52342,23.30256233709073,0.0
292,2.537116289138794,35.87222396016594,2.0760032968729734,37.39161245323526,32.349424448951396,0.0,0.2219870894031141,0.1,0.0034601688385009766,0.07031917572021484,0.05011174,0.42418697,29.79885755853465,0.0,0.46517545497999824,0.0,262,0.01985621452331543,0.04300022692637628,0.013862808939239806,52604,47.41279723036876,0.0
293,2.70271897315979,31.60660999960821,5.004500586027295,39.4204058590004,26.332227345462933,0.0,0.19970546111745768,0.1,0.003031492233276367,0.05360293388366699,0.049307328,0.55046254,29.97963280264201,0.0,0.40829706220718176,0.0,245,0.014036893844604492,0.05854557664892781,0.06688634598451,52849,26.314328477595648,0.0
294,2.9513168334960938,34.32984153077003,3.917330052213424,40.288707845913954,29.340161428268498,0.0,0.22154756512001897,0.1,0.003162384033203125,0.05564093589782715,0.04947537,0.5138891,30.41465367545481,0.0,0.44461507855088256,0.0,256,0.016979455947875977,0.024967072189796897,0.02121336699652833,53105,29.324820970808442,0.0
295,3.048922061920166,34.858627298206066,4.799477531112891,40.38308633245277,28.31166188937259,0.0,0.20784264008157866,0.1,0.00348663330078125,0.06941580772399902,0.050221015,0.51342237,30.859051037729937,0.0,0.45165888504643503,0.0,258,0.0181577205657959,0.03455267298928637,0.035396992540664404,53363,24.300999600608296,0.0
296,3.17030930519104,34.61369285944706,3.50580642946309,40.378800017575074,31.33216268217633,0.0,0.20642873857108146,0.1,0.002958536148071289,0.054347991943359375,0.049634635,0.67479944,31.23451521990165,0.0,0.4483928061959124,0.0,257,0.017292499542236328,0.020896445535981318,0.018708589028432514,53620,21.283302263435466,0.0
297,2.9760799407958984,26.067331099230024,6.08565555405208,34.356544852384786,19.281713637483136,0.0,0.1897689732320413,0.1,0.003524303436279297,0.06925511360168457,0.050737787,0.57129145,30.717796807834485,0.0,0.334437724343592,0.0,223,0.01490640640258789,0.17743355314342024,0.10020878824097934,53843,47.4097132971775,0.0
298,2.6895649433135986,30.595573695816398,3.1320089808215474,35.381884097469765,27.34715592054334,0.0,0.2192766491172053,0.1,0.002831697463989258,0.05317115783691406,0.049774446,0.5064929,30.70557449663268,0.0,0.39481926352474656,0.0,241,0.013583898544311523,0.019494615349617352,0.03023454791480448,54084,26.310377789104667,0.0
299,2.6883654594421387,38.12227270248003,5.809924338281052,47.472312375312484,32.346382851833965,0.0,0.21586556314356117,0.1,0.0035026073455810547,0.07349872589111328,0.05026632,0.4911073,31.447244317217418,0.0,0.4885149723904581,0.0,269,0.01890707015991211,0.12186796113515812,0.06375977115037106,54353,22.295477915381866,0.0
300,2.9433133602142334,34.10168357571764,6.869699545318135,41.38754095371949,23.29108513954648,0.0,0.21189597755460346,0.1,0.0029282569885253906,0.05419135093688965,0.050545465,0.40229002,31.71268824306744,0.0,0.4415666288983707,0.0,255,0.014718770980834961,0.054416822597761504,0.054393822825293356,54608,29.329854193169876,0.0
301,2.364733934402466,30.337618544895342,11.181414566483877,41.41009724175243,12.228000201342393,0.0,0.184189725485238,0.1,0.003118753433227539,0.05335497856140137,0.050683465,0.38206828,31.57518127325023,0.0,0.3913843389198242,0.0,240,0.013225317001342773,0.17446798327076438,0.17584089589465024,54848,20.281607916146157,0.0
302,2.6092209815979004,35.36250603000387,2.561697996392263,38.376017856992654,31.343012373275865,0.0,0.21017436613251908,0.1,0.002728700637817383,0.05417370796203613,0.05054355,0.51439035,31.953913748925594,0.0,0.45837537931292666,0.0,260,0.017600297927856445,0.01773843663665822,0.014648080035681315,55108,27.332167618245297,0.0
303,3.2074496746063232,34.61450383866908,1.7919897425581555,37.37369242813081,32.3546551774664,0.0,0.18409663712201274,0.1,0.0027909278869628906,0.053569793701171875,0.05041428,0.4820907,32.219972757899946,0.0,0.44840790874322983,0.0,257,0.01894354820251465,0.009237715339817085,0.01015875868795073,55365,25.312223358068668,0.0
304,2.5132439136505127,41.152180633565905,3.899098408781946,47.4061942658844,37.42108758140691,0.0,0.2393509408523934,0.1,0.003943681716918945,0.07195544242858887,0.049369648,0.35278708,33.113193545466544,0.0,0.5289058872333541,0.0,281,0.020824670791625977,0.05626984639665898,0.020426447888573476,55646,47.42187787546444,0.0
305,2.9035632610321045,40.38545330085949,1.016706425864493,41.40266452325675,39.323170755770455,0.0,0.2130897580701318,0.1,0.0031571388244628906,0.05720019340515137,0.051029198,0.60761905,33.84041952100584,0.0,0.5253559998523546,0.0,280,0.01797032356262207,0.006434338746180049,0.014603651870706063,55926,47.419790785035026,0.0
306,2.6588034629821777,26.821356431923853,13.131643112564428,40.431701471813966,5.191629461601248,0.0,0.19840014074014975,0.1,0.002810239791870117,0.05383563041687012,0.05023457,0.42373982,33.13851321209764,0.0,0.34449431145944887,0.0,226,0.014085769653320312,0.46972891127057975,0.2942851965933033,56152,24.303421181159916,0.0
307,2.7426540851593018,40.88245630126978,3.8560053356223425,47.40509249963007,37.35455483131563,0.0,0.21600717374847708,0.1,0.0029747486114501953,0.05646061897277832,0.049446195,1.0271009,33.91290752101486,0.0,0.5253142528584247,0.0,280,0.017194032669067383,0.022541366642853892,0.05178446422415788,56432,23.293319973658317,0.0
308,2.5180823802948,39.1191579164048,2.6660638484125245,43.32926474338716,36.367905499553096,0.0,0.21908713421274073,0.1,0.0036237239837646484,0.0744483470916748,0.049799763,0.41049483,34.43353256055385,0.0,0.5084712880667983,0.0,275,0.020857810974121094,0.03531608101983611,0.012800561464981883,56707,26.31101560172561,0.0
309,2.23630952835083,30.603582099159674,8.16799065034361,44.41214659447578,23.342693979458097,0.0,0.20006984553091808,0.1,0.003194093704223633,0.05749678611755371,0.050226238,0.5118134,34.05053751441443,0.0,0.3949275407678621,0.0,241,0.01390528678894043,0.14329584854408856,0.1419746127268123,56948,47.40887204372796,0.0
310,2.664668083190918,41.91797663096589,3.2957921957904293,47.449835460626424,39.39625396944818,0.0,0.22912484817868933,0.1,0.002956867218017578,0.06374239921569824,0.050492607,0.4468314,34.83728142606957,0.0,0.5391142571764096,0.0,284,0.01790904998779297,0.02591808729710236,0.020255081191600865,57232,47.41633105179266,0.0
311,2.519789934158325,31.86032767383971,12.53824238175421,40.43714069095225,10.22556384311615,0.0,0.19877667977672756,0.1,0.0031626224517822266,0.055405616760253906,0.04905476,0.34393504,34.53958605084659,0.0,0.4116788296772693,0.0,246,0.017351388931274414,0.15785229102942552,0.151357531945056,57478,47.42020586545433,0.0
312,2.496061325073242,41.398203907122614,4.3257742031654605,47.43428378753778,35.363552312779554,0.0,0.2111990019736368,0.1,0.002925395965576172,0.05536818504333496,0.04980127,0.48196465,35.22544783647419,0.0,0.532192382192809,0.0,282,0.017318248748779297,0.026634371051855857,0.02286489149935393,57760,47.41789983780888,0.0
313,2.950582265853882,41.38830002900052,4.317332450760425,47.419195380579275,35.383461069050064,0.0,0.21679142153112457,0.1,0.003041982650756836,0.05469155311584473,0.050649073,0.48217434,35.84173305572682,0.0,0.5320579371814225,0.0,282,0.018690109252929688,0.02054119412602165,0.016013842305388905,58042,47.424100431579824,0.0
314,2.9416470527648926,44.66191903580617,2.9502085956755075,47.41341170128012,40.399910319011376,0.0,0.22657472881652954,0.1,0.002933025360107422,0.0588071346282959,0.04984801,0.53071547,36.72375165373475,0.0,0.5690354313420892,0.0,293,0.017384767532348633,0.01722291633897283,0.0132865201904148,58335,47.414891194049424,0.0
315,2.734105348587036,39.39410536132927,5.083345853950446,47.43074574522132,33.32461873004522,0.0,0.2062510688284374,0.1,0.0028111934661865234,0.05510091781616211,0.050216198,0.7028652,36.9907870244942,0.0,0.5054607830287101,0.0,274,0.02087998390197754,0.05366260340252703,0.034778644940383595,58609,47.41875928823862,0.0
316,2.2640833854675293,31.09890336132704,11.524377317108618,39.3814727773542,11.224613376426117,0.0,0.19859369313061806,0.1,0.002933979034423828,0.0540928840637207,0.049871366,0.3303381,36.40159865817749,0.0,0.4015296911957059,0.0,243,0.013289690017700195,0.2381704847540601,0.1526652689810315,58852,47.41374472243562,0.0
317,2.6345503330230713,37.12182526746727,3.9976124309758165,42.42627004609974,32.33268787047841,0.0,0.21592140352433342,0.1,0.0028274059295654297,0.05818653106689453,0.050019015,0.44388437,36.47362131910647,0.0,0.48183634304359124,0.0,267,0.020064353942871094,0.02180786450235009,0.04930630445128206,59119,47.409035827066965,0.0
318,2.491483688354492,43.6621920000881,3.7839353366067736,47.452760938165866,39.39763655905581,0.0,0.20807862975430078,0.1,0.0028562545776367188,0.0562434196472168,0.05005633,0.4389814,37.19247838720463,0.0,0.5557011031047163,0.0,289,0.01717090606689453,0.11958984462959725,0.04297403006246984,59408,47.41316698258854,0.0
319,2.554743528366089,41.647164488770294,1.9298717286811464,43.40403691211318,38.38047692931317,0.0,0.22406958602540214,0.1,0.002923250198364258,0.055290937423706055,0.05035702,0.41530207,37.6379469973612,0.0,0.5421744773876798,0.0,285,0.022923946380615234,0.016377703602751936,0.026196525899544694,59693,47.4064320605954,0.0
320,2.567695379257202,41.66120758943758,4.723926274095292,47.40724241495904,34.371220149947376,0.0,0.21567319504243204,0.1,0.0036034584045410156,0.07095003128051758,0.04993332,0.59616834,38.040273056568836,0.0,0.5356910440285546,0.0,283,0.01767110824584961,0.036910927479716193,0.029791984526972133,59976,47.40273973973812,0.0
321,3.698819637298584,37.62316056937536,3.3555592763592887,41.38874414998812,33.34562058205088,0.0,0.20664985004452593,0.1,0.0027511119842529297,0.056299448013305664,0.04971349,0.49624062,37.99856180784949,0.0,0.48851699882222877,0.0,269,0.01706862449645996,0.055824768219924374,0.010668476867852649,60245,47.40950823303296,0.0
322,2.8502094745635986,39.63245177166617,2.6997950855005284,42.390829949307054,35.35409838991254,0.0,0.2310844939097105,0.1,0.002905130386352539,0.05602717399597168,0.049259346,0.50685954,38.16195080423116,0.0,0.5153132211090053,0.0,277,0.017876863479614258,0.01732453898090175,0.030327167501903646,60522,47.405965604974085,0.0
323,2.947951078414917,41.14463179331048,6.361855692401179,47.42449382661927,33.36054862245865,0.0,0.2272862826084529,0.1,0.0027713775634765625,0.05461430549621582,0.049748063,0.50630957,38.46021890313909,0.0,0.5221379750748525,0.0,279,0.01954364776611328,0.06354491936997148,0.044482702260943266,60801,47.4073474068906,0.0
324,2.4872641563415527,40.39727362513818,7.591014121989553,47.43768523959945,29.322277959102845,0.0,0.21342605578620047,0.1,0.0028524398803710938,0.05853986740112305,0.04998424,0.47625098,38.653924375339,0.0,0.5121746666420155,0.0,276,0.019663095474243164,0.04939726179291755,0.0473560238516842,61077,47.409618161703015,0.0
325,2.3840458393096924,41.39763235761771,8.287987516077775,47.44281584820719,27.325236301665782,0.0,0.2120952143424219,0.1,0.002817869186401367,0.054174184799194336,0.049928077,0.45006332,38.92829517356687,0.0,0.5255139770850006,0.0,280,0.017941951751708984,0.05180829925187483,0.05330660470878732,61357,47.40516274386283,0.0
326,2.385345458984375,42.65648039757102,4.876257599181111,47.4247094392093,36.397207512509425,0.0,0.20386408810615947,0.1,0.002780914306640625,0.057526350021362305,0.049667265,0.47944447,39.30111369596729,0.0,0.5422933834028306,0.0,285,0.017075538635253906,0.02136662454000348,0.020332244824515816,61642,47.405143124624765,0.0
327,2.592569351196289,38.13562686992916,5.849807126337851,47.46043203799151,31.337460058600485,0.0,0.2095452701363522,0.1,0.0037841796875,0.0750732421875,0.049214933,0.5630383,39.184565013363475,0.0,0.48868630719042544,0.0,269,0.018559932708740234,0.04500457574414071,0.029385647158310102,61911,47.40793245757243,0.0
328,2.368776321411133,36.626587952275976,3.12177162491547,41.38608588932765,33.35897409906636,0.0,0.1900728675960057,0.1,0.0030112266540527344,0.05809903144836426,0.05032557,0.6699706,38.92876730725473,0.0,0.47523628316144717,0.0,265,0.017366409301757812,0.021185201323290347,0.01446550238079718,62176,47.40866070894423,0.0
329,2.567030668258667,44.41283337465741,3.0277809150544868,47.46258715633792,41.3797837953897,0.0,0.2339118914357321,0.1,0.003072023391723633,0.05686497688293457,0.050470967,0.44185042,39.477173913995,0.0,0.5657149694063996,0.0,292,0.018194198608398438,0.059808211061825566,0.032868748726853254,62468,47.4118165719859,0.0
330,2.4827136993408203,43.16368866697994,4.61806177765999,47.43688014853562,36.38236310932628,0.0,0.2418613725267785,0.1,0.002945423126220703,0.05577540397644043,0.05010068,0.4175169,39.845825389293495,0.0,0.5490543626371375,0.0,287,0.01784992218017578,0.02894159968266948,0.018130875034867974,62755,47.40823435492882,0.0
331,2.9114811420440674,44.16251790015488,3.4386775677909633,47.444005911199135,39.37285484895712,0.0,0.2101293137825185,0.1,0.003129243850708008,0.06073880195617676,0.050712172,0.50894666,40.277494640379636,0.0,0.5623764212674356,0.0,291,0.017521381378173828,0.012762365556263245,0.017472574541417644,63046,47.40530245268727,0.0
332,2.6357262134552,47.433733487879564,0.014259153681127918,47.45004827280191,47.41731899303044,0.0,0.2027355333756888,0.1,0.002994537353515625,0.05769991874694824,0.049533296,0.5120133,40.99311852512963,0.0,0.5926568684022514,0.0,300,0.01874685287475586,0.005836506849061569,0.005944244917883965,63346,47.40748509231674,0.0
333,2.3928956985473633,42.39133506400443,5.4659581385423905,47.45322762838773,34.36393554328238,0.0,0.21177098925490376,0.1,0.002957582473754883,0.055135488510131836,0.049870133,0.5480933,41.13294017901711,0.0,0.5387681800166921,0.0,284,0.017321348190307617,0.03327979404032048,0.024457589787252938,63630,47.396996796366146,0.0
334,3.1893413066864014,44.40539636680761,2.9958082922412514,47.40511205382703,41.39497961819383,0.0,0.2186599547976097,0.1,0.0030176639556884766,0.05589580535888672,0.04988375,0.4587514,41.460185797796164,0.0,0.5656235524533484,0.0,292,0.01725602149963379,0.011394682610776337,0.013441773187313351,63922,47.403520516057405,0.0
335,2.845778465270996,46.12667184295166,2.1847349561814506,47.39674614002031,42.342628954339965,0.0,0.2337679151922452,0.1,0.003007173538208008,0.05744481086730957,0.0497997,0.39060447,41.92683440231171,0.0,0.5819085106300963,0.0,297,0.01752305030822754,0.017843923040024166,0.010751781509410977,64219,47.40018913642003,0.0
336,2.649121046066284,39.150240357470075,6.897567539573141,47.41039746446068,28.338625021313586,0.0,0.21186006751452358,0.1,0.002918720245361328,0.057822227478027344,0.050167926,0.5105324,41.64917499782755,0.0,0.5022141193562297,0.0,273,0.017416954040527344,0.06550172669865179,0.04912841448810324,64492,47.39794737582242,0.0
337,2.966416597366333,42.67173157582406,5.0838388457033306,47.44278537464796,35.40813250287502,0.0,0.2049760167383997,0.1,0.0029544830322265625,0.057360172271728516,0.05034217,0.48948798,41.7514306556272,0.0,0.5425030234819662,0.0,285,0.01943373680114746,0.02272504327410696,0.02748358788601001,64777,47.39706280346298,0.0
338,3.0447683334350586,46.18301835134584,2.1566375623472256,47.437515487032904,42.4476391093182,0.0,0.19935818050802262,0.1,0.0029230117797851562,0.055670738220214844,0.04963542,0.3955682,42.19458942519906,0.0,0.5826477809830214,0.0,297,0.017107486724853516,0.02956740476604871,0.011408876124071623,65074,47.39895098595954,0.0
339,2.6743626594543457,46.17753867171466,2.1615625589740146,47.479705736196856,42.43436824865927,0.0,0.22222739762330976,0.1,0.0028591156005859375,0.05529451370239258,0.049632918,0.45761022,42.59288434985062,0.0,0.5825783184958688,0.0,297,0.01742267608642578,0.011282395000213647,0.011501804443239082,65371,47.39628161833588,0.0
340,3.20904278755188,46.42983737734497,1.7315250224674443,47.46833084549586,43.43103376539548,0.0,0.210933830479721,0.1,0.0028786659240722656,0.055951595306396484,0.050365087,0.49240956,42.97657965260006,0.0,0.5859445453881856,0.0,298,0.017292022705078125,0.008577693166819784,0.007891364747269931,65669,47.39881903489137,0.0
341,2.7108869552612305,47.40773050108595,0.041142340321663994,47.45138555310931,47.34108298725199,0.0,0.21491217043294067,0.1,0.002989053726196289,0.05619096755981445,0.05075537,0.5150975,43.419694737448644,0.0,0.5923211965618571,0.0,300,0.01732015609741211,0.004543343780251899,0.004744844530629725,65969,47.396547690539826,0.0
342,2.9223504066467285,47.43642110923061,0.008746102576336422,47.451032093597746,47.428369967843096,0.0,0.21454552017851186,0.1,0.0028541088104248047,0.05473065376281738,0.049855944,0.7300626,43.821367374626846,0.0,0.5926891458865029,0.0,300,0.017052173614501953,0.0039840509617282876,0.003880458996662489,66269,47.398331429939766,0.0
343,2.8841702938079834,45.41702299883933,3.479045655692334,47.44279073565965,39.39117323764067,0.0,0.22710769776453654,0.1,0.0028336048126220703,0.05524635314941406,0.050042182,0.44289735,43.980932937048095,0.0,0.5724355817255674,0.0,294,0.01984572410583496,0.014732451484677568,0.013772857820138344,66563,47.398603248137654,0.0
344,2.5530319213867188,33.59401272026744,20.655036774376896,47.46510115373408,-1.9232814872373032,0.0,0.1659240104101458,0.1,0.002954244613647461,0.05407094955444336,0.046751074,0.25633833,42.94224091537003,0.0,0.42479641430201165,0.0,233,0.014023065567016602,0.09927124942492012,0.08911704497586634,66796,47.39782581164513,0.0
345,3.3268418312072754,46.16079102281265,2.1692018605618903,47.43212019016198,42.40376732741795,0.0,0.21095618747031336,0.1,0.0028562545776367188,0.05869102478027344,0.04929299,0.51478726,43.264095926114294,0.0,0.5823567249429485,0.0,297,0.016755342483520508,0.008986817647383459,0.010666528028364472,67093,47.40121746041826,0.0
346,2.489028215408325,41.66142940659282,10.017045203728646,47.462530426608616,24.311417465075653,0.0,0.18920433298993686,0.1,0.0029785633087158203,0.05760073661804199,0.04965765,0.34885854,43.10382927416215,0.0,0.5223646573600158,0.0,279,0.017427444458007812,0.0658630832105446,0.06313909793101273,67372,47.4033872086402,0.0
347,3.6066572666168213,47.45383836762085,0.020376543258615227,47.481274020273574,47.42700954467522,0.0,0.21528513158881246,0.1,0.0029904842376708984,0.05651068687438965,0.050886255,0.46471238,43.538830183508026,0.0,0.5929198681039983,0.0,300,0.017489194869995117,0.017610859731193668,0.007365109117200235,67672,47.399096523327906,0.0
348,2.8986809253692627,47.41265289603296,0.043801227278299375,47.44899571631528,47.34106297615519,0.0,0.2074736045998412,0.1,0.0029447078704833984,0.05660271644592285,0.05080818,0.7915458,43.926212454760524,0.0,0.5923805004703008,0.0,300,0.01719355583190918,0.005768308284125325,0.008525588827181985,67972,47.39275825329229,0.0
349,2.6100454330444336,37.13600867883555,17.84570487556927,47.457440354061646,6.2263473776134015,0.0,0.19364132184768484,0.1,0.0028252601623535156,0.054993629455566406,0.050263774,0.3311409,43.24719207716803,0.0,0.4620183586595722,0.0,261,0.0177004337310791,0.2336232514883769,0.17251176098074053,68233,47.39227909312705,0.0
350,2.79026460647583,35.10084009065275,21.336878593440545,47.4319308900065,-1.8557136912382073,0.0,0.19463774893090124,0.1,0.003119945526123047,0.054351091384887695,0.05044664,0.2888745,42.4325568785165,0.0,0.4382218058980759,0.0,251,0.013840913772583008,0.18341260324711148,0.183390009877679,68484,47.39613766371196,0.0
351,3.153722047805786,43.415344914070246,4.00870183040793,47.443399069649196,39.376821626875234,0.0,0.2122046459651029,0.1,0.005378007888793945,0.057439565658569336,0.050805435,0.59590226,42.530835682071874,0.0,0.5524123592033648,0.0,288,0.017171144485473633,0.03929541107039592,0.03728922022688865,68772,47.39382341676983,0.0
352,2.5791540145874023,45.94655088530712,2.6039063522833565,47.452980279219,41.436454408103785,0.0,0.22081373981847793,0.1,0.003088712692260742,0.05764293670654297,0.050433237,0.60668445,42.8724072023954,0.0,0.5794939214106937,0.0,296,0.01925063133239746,0.04454223891329611,0.010154273583089506,69068,47.39011304036581,0.0
353,2.778956651687622,45.924819468902584,2.60522634488348,47.43840464928432,41.412455675671566,0.0,0.2260849940177011,0.1,0.002984762191772461,0.058110952377319336,0.04957608,0.44300357,43.17764842904612,0.0,0.5791967455213608,0.0,296,0.017031192779541016,0.015147940691750203,0.01917602582821882,69364,47.3900790444818,0.0
354,2.6149544715881348,37.12253425194364,17.852647246355993,47.450862874406674,6.20085416430347,0.0,0.20095402968716325,0.1,0.0029053688049316406,0.05499076843261719,0.049506046,0.31118172,42.572137011335876,0.0,0.46184635170599364,0.0,261,0.019384145736694336,0.22765229654137287,0.1784334027409818,69625,47.391356345047946,0.0
355,3.1613378524780273,45.912604695058036,2.612105543594812,47.433048545013946,41.388331351087764,0.0,0.2180081567113325,0.1,0.0029494762420654297,0.05686235427856445,0.049845472,0.4533134,42.906183779708094,0.0,0.5790467951893736,0.0,296,0.018799543380737305,0.014865630055191596,0.02842876069005657,69921,47.39050578428138,0.0
356,2.694201707839966,46.42218249625073,1.7443355348658283,47.439237654685385,43.40096051622005,0.0,0.199377205913246,0.1,0.00292205810546875,0.05633044242858887,0.049508996,0.44095534,43.25778365136236,0.0,0.5858437599253119,0.0,298,0.016681909561157227,0.029560566332091733,0.011078095527146973,70219,47.39375969794977,0.0
357,2.622130870819092,46.157396404065246,2.1704915899330715,47.42532899994462,42.39808330065457,0.0,0.227050969875891,0.1,0.0031516551971435547,0.0563664436340332,0.049740728,0.4173662,43.547744926632646,0.0,0.5823119136544694,0.0,297,0.017519712448120117,0.012023347982990713,0.01238350741892576,70516,47.39119790859538,0.0
358,3.5413644313812256,46.42195507935005,1.731599909795532,47.43985619791772,43.422830248203105,0.0,0.20118292667132098,0.1,0.0034837722778320312,0.07479643821716309,0.050257497,0.65625083,43.83516594190439,0.0,0.585840299425965,0.0,298,0.020688295364379883,0.00965586287602622,0.008729188795144551,70814,47.39107739493466,0.0
359,3.298794984817505,27.558835117860298,20.983520074259975,47.431424137542884,-1.8773089696288152,0.0,0.17156034561524028,0.1,0.002783060073852539,0.053354740142822266,0.049462616,0.37759846,42.207532859499985,0.0,0.344329615456139,0.0,215,0.01442575454711914,0.37935775645990827,0.28897168579763166,71029,47.390732310792636,0.0
360,2.570452928543091,47.424438792677634,0.012563462894239126,47.436147874796426,47.403900190182675,0.0,0.2221411532694842,0.1,0.0028378963470458984,0.05505490303039551,0.050147988,0.38606346,42.72922345281775,0.0,0.5925337968244566,0.0,300,0.015367507934570312,0.014300807662914281,0.03471741453713875,71329,47.39290657755246,0.0
361,3.266704797744751,47.434748206400656,0.012320150837597554,47.44324211845624,47.413485129219715,0.0,0.22090120944090594,0.1,0.003190755844116211,0.06187319755554199,0.05076155,0.42732972,43.199775928176045,0.0,0.5926759964222044,0.0,300,0.021337032318115234,0.03362482988312204,0.007710125055851126,71629,45.39522777481333,0.0
362,2.8679730892181396,47.4290999776864,0.008389385173008199,47.437870530708814,47.41833764132003,0.0,0.20993408293592944,0.1,0.0030777454376220703,0.05660223960876465,0.05041286,0.4996918,43.622708333127086,0.0,0.5925947309191272,0.0,300,0.017309904098510742,0.010347628365384214,0.0076958946104913875,71929,47.39453364505619,0.0
363,2.596529483795166,37.37036829917977,10.23313580729352,47.42853245415087,20.271071878274874,0.0,0.2145490402406358,0.1,0.002916574478149414,0.0550084114074707,0.04910455,0.38606828,42.997474329732356,0.0,0.47848518172684895,0.0,266,0.018219709396362305,0.204157249788135,0.11246528494354809,72195,45.396170382455715,0.0
