iteration,time_sampling,stoc_pol_mean,stoc_pol_std,stoc_pol_max,stoc_pol_min,rollout_success,alpha,delta,time_vpg,time_npg,kl_dist,surr_improvement,running_score,rwd_sparse,rwd_dense,success_percentage,num_samples,time_VF,VF_error_before,VF_error_after,env_samples,eval_score,eval_success
0,1.7452020645141602,0.005290731751005437,0.002357717152788826,0.008998132855153603,0.002448284636991556,0.0,0.13906264589150164,0.1,0.12163901329040527,1.6982378959655762,0.05414573,1.1420361,0.005290731751005437,0.0,0.0001052056880375555,0.0,200,0.18032407760620117,93.65604978909396,33.610821786425575,200,0.004406049841470299,0.0
1,1.5048058032989502,0.00701517293116637,0.0018796906831097101,0.008968762685067619,0.004752096755093937,0.0,0.14190534203425723,0.1,0.10402178764343262,1.6318845748901367,0.055449042,1.1811063,0.005463175869021531,0.0,0.0001371991027562329,0.0,200,0.16954636573791504,19.881236918445225,3.229082819995106,400,0.0037471068729776776,0.0
2,1.3197076320648193,0.0035834328241128787,0.00201877029752804,0.006673236919024923,0.0011730236897781986,0.0,0.15875850217176954,0.1,0.09549784660339355,1.5845344066619873,0.051430214,0.78238493,0.0052752015645306655,0.0,7.161930980557692e-05,0.0,200,0.17426657676696777,9.373595443536049,18.536217093107794,600,0.002858954029445349,0.0
3,1.3583557605743408,0.00883898020905113,0.008213648229972323,0.02253866032171171,0.000754942624288183,0.0,0.14426055586920677,0.1,0.09558510780334473,1.5956015586853027,0.05278995,1.119762,0.005631579428982712,0.0,0.0001764706015672401,0.0,200,0.17346978187561035,3.25741927373932,0.8393433766036049,800,0.003591039079079821,0.0
4,1.4117605686187744,0.00982905556596314,0.00484381105177818,0.018134319892168984,0.005941623088688721,0.0,0.1505061855685751,0.1,0.09560012817382812,1.624830722808838,0.0490937,1.0139537,0.006051327042680755,0.0,0.00019647589353137025,0.0,200,0.17138671875,0.5909474414171009,1.7301015717400994,1000,0.004212761759934147,0.0
5,1.446584701538086,0.009636384269937336,0.004224969080984376,0.014946674803305726,0.004694190623383386,0.0,0.15155814472823975,0.1,0.09874701499938965,1.6934072971343994,0.049173746,0.93385065,0.0064098327654064135,0.0,0.00018844569821281211,0.0,200,0.1722421646118164,1.6036165384810677,0.5032841589771524,1200,0.005484039402988594,0.0
6,1.5755784511566162,0.008377584867036037,0.006474231202793008,0.01740952063111158,0.002225153009578381,0.0,0.1507650085212962,0.1,0.09891819953918457,1.6991701126098633,0.053048965,0.9080311,0.006606607975569376,0.0,0.00016742980263051378,0.0,200,0.18205881118774414,0.6614884606555853,1.02143451945205,1400,0.010844555653032545,0.0
7,1.5484058856964111,0.005356053564809298,0.004302340221106643,0.012324790357944844,0.0009505373379467886,0.0,0.14478903272302204,0.1,0.09576797485351562,1.652904748916626,0.05026385,1.0378883,0.006481552534493368,0.0,0.00010565227145778316,0.0,200,0.17180538177490234,1.117398921400527,0.6555753922078676,1600,0.021553335072384706,0.0
8,1.4910492897033691,0.024501428038341596,0.03687431145858757,0.08832558703741408,0.0016037439706524912,0.0,0.14156613182345432,0.1,0.09922146797180176,1.6333558559417725,0.0498402,1.7733638,0.00828354008487819,0.0,0.0004867213076956423,0.0,200,0.16823887825012207,0.9589466431999029,0.7542430317040785,1800,0.02565642864416944,0.0
9,1.4359662532806396,0.012110896491724933,0.011609883466718313,0.031755498360061356,0.0031818021406658584,0.0,0.14873578113648164,0.1,0.10680794715881348,1.6247282028198242,0.05305646,1.4570051,0.008666275725562864,0.0,0.000241613074928914,0.0,200,0.17014861106872559,1.0199540019866769,1.1332028215181271,2000,0.020628581793737548,0.0
10,1.4304606914520264,0.037793274188820676,0.05388151822397515,0.130811830971292,0.0007989321757662203,0.0,0.14588012847515994,0.1,0.09743475914001465,1.675316333770752,0.04908152,1.6934587,0.011578975571888646,0.0,0.0007558191521384286,0.0,200,0.17340588569641113,0.772021959291838,0.7503019161515019,2200,0.01960070377245354,0.0
11,1.408397912979126,0.017833321780271236,0.013821197535621008,0.03823542744941557,0.0026700706473517643,0.0,0.14279802535229713,0.1,0.09611964225769043,1.6270005702972412,0.049901944,3.0711997,0.012204410192726906,0.0,0.00035360478177502637,0.0,200,0.16551709175109863,0.589520737304311,0.5099446563115735,2400,0.017429711921640664,0.0
12,1.3595881462097168,0.01450269517836142,0.010105279530854657,0.03168682965699844,0.00600987285491125,0.0,0.15186810188820146,0.1,0.0940406322479248,1.6337921619415283,0.050854374,1.4275585,0.012434238691290359,0.0,0.0002895005417995571,0.0,200,0.17710423469543457,0.7932284745809246,0.46338531120505794,2600,0.025703132647259378,0.0
13,1.4044568538665771,0.015914376616472027,0.02044461547914275,0.05086063249193129,0.001108843872576699,0.0,0.14092403586428287,0.1,0.09687447547912598,1.6096971035003662,0.049684573,1.5988367,0.012782252483808527,0.0,0.00031819370602787205,0.0,200,0.17016363143920898,0.7902644304507644,0.8134196345539295,2800,0.029576863993318703,0.0
14,1.359849452972412,0.09023598206190003,0.13215290633738253,0.3189297040009819,0.009224815187340476,0.0,0.13979851129675602,0.1,0.09467792510986328,1.2206430435180664,0.05174756,1.576201,0.020527625441617677,0.0,0.0018044393864439436,0.0,200,0.17098307609558105,0.9549012344483602,0.763695345300019,3000,0.03121661659012175,0.0
15,1.5633244514465332,0.008273792067675634,0.004856976817270416,0.01612685356772853,0.0035229021567890636,0.0,0.1409848158716829,0.1,0.04416823387145996,0.9964463710784912,0.050636765,1.1942301,0.019302242104223474,0.0,0.00016397296404024864,0.0,200,0.1673412322998047,28.585811507410778,35.986487960063805,3200,0.029566689643437827,0.0
16,1.506819725036621,0.02173662319185915,0.02377070414232884,0.06240171583839847,0.002181716559127503,0.0,0.1449314168214112,0.1,0.07810330390930176,1.347008466720581,0.049200606,1.5504569,0.01954568021298704,0.0,0.0004267524585745475,0.0,200,0.16462278366088867,2.291086161417397,0.7072103232188157,3400,0.06503861420118187,0.0
17,1.6273224353790283,0.0180573791805327,0.0095791023626516,0.03340826258236276,0.007621692533513863,0.0,0.14919762569830117,0.1,0.09988880157470703,1.6206505298614502,0.050799467,0.97099626,0.01939685010974161,0.0,0.00036059937133530834,0.0,200,0.168989896774292,0.8390671984824033,0.5580207197560627,3600,0.04797877531096267,0.0
18,1.50272798538208,0.0696025439364707,0.04243950606158165,0.1267198226103086,0.007269044483840182,0.0,0.14211979525591698,0.1,0.1022343635559082,1.666672945022583,0.049668875,1.1718792,0.024417419492414518,0.0,0.0013914644326890417,0.0,200,0.1795792579650879,0.873168067723124,0.8079194708527668,3800,0.030363394738549775,0.0
19,1.483041763305664,0.021566414933691363,0.017351870447036524,0.046113815482931586,0.004014996630565839,0.0,0.14010095787050225,0.1,0.0975193977355957,1.6192996501922607,0.050459653,1.3511084,0.024132319036542206,0.0,0.00042942619601635685,0.0,200,0.16982793807983398,0.6025871854946174,0.5350903518149556,4000,0.03791014392286895,0.0
20,1.5388569831848145,0.048899760111927905,0.04276430456830399,0.11917424086227527,0.01234069465948629,0.0,0.1422004782386167,0.1,0.09871482849121094,1.6066093444824219,0.048858393,1.3021021,0.026609063144080777,0.0,0.0009776833607329696,0.0,200,0.16465973854064941,0.6592477741809384,0.5700400313485509,4200,0.0549483406052158,0.0
21,1.3459110260009766,0.023226327918571793,0.018492137513497663,0.04923190798472337,0.0016079730563376827,0.0,0.13980714966098207,0.1,0.09937739372253418,1.585106372833252,0.050260097,1.4365791,0.02627078962152988,0.0,0.0004602075785322663,0.0,200,0.16724371910095215,1.0212745345928125,1.3144013666992453,4400,0.08194695377729976,0.0
22,1.4313440322875977,0.14727242766513127,0.14094002703192798,0.3496082222138843,0.00209174442302576,0.0,0.13791692341042405,0.1,0.10140156745910645,1.676786184310913,0.04959632,1.7327356,0.03837095342589002,0.0,0.0029453353693036036,0.0,200,0.1764509677886963,0.7833846853604906,0.701289338061567,4600,0.1867176702731694,0.0
23,1.4383952617645264,0.024162940006714456,0.013161023327491308,0.04123421066377507,0.005494590933834659,0.0,0.13881729356557848,0.1,0.10348105430603027,1.6930429935455322,0.050127637,1.0283319,0.03695015208397247,0.0,0.0004816460366114458,0.0,200,0.1733715534210205,3.5400823031624595,4.849764057097239,4800,0.14212033970965882,0.0
24,1.5219676494598389,0.11336411696377201,0.10975622822629916,0.29724985684170285,0.011503093215646952,0.0,0.124374793186164,0.1,0.10055351257324219,1.699404239654541,0.050150145,2.5666602,0.044591548571952425,0.0,0.002259131791863582,0.0,200,0.1804037094116211,0.628534976638612,0.614190651772677,5000,0.1578098595154858,0.0
25,1.5391802787780762,0.013500850023734884,0.005213672068970422,0.02251864459969918,0.010099407951946157,0.0,0.1499562499673252,0.1,0.10018563270568848,1.6970882415771484,0.049790684,2.2134447,0.04148247871713068,0.0,0.00026431378264459444,0.0,200,0.17366743087768555,27.659050468145796,16.381149902963276,5200,0.11763488697642993,0.0
26,1.4394168853759766,0.02455357168508851,0.027628352058493143,0.07198794749851317,0.004202993048150123,0.0,0.13983343290198705,0.1,0.09845399856567383,1.6921913623809814,0.04991514,1.3351309,0.039789588013926465,0.0,0.0004881618699614944,0.0,200,0.1764693260192871,1.733930092163504,0.7166146668269974,5400,0.17931907350268064,0.0
27,1.4202499389648438,0.014038905758081874,0.009677862129618967,0.030307583672348207,0.005051014377023148,0.0,0.13466198399450668,0.1,0.10013222694396973,1.7029328346252441,0.05102674,1.9436516,0.03721451978834201,0.0,0.0002807315872600121,0.0,200,0.17284870147705078,1.9883849979955548,0.564889646053676,5600,0.20495528202809635,0.0
28,1.4365527629852295,0.03351882377472369,0.031215407625828997,0.08069318642080642,0.005184145013047401,0.0,0.1322061718196264,0.1,0.10122442245483398,1.6769697666168213,0.049285512,1.5461441,0.036844950186980176,0.0,0.000669207329485558,0.0,200,0.1711416244506836,0.84468130485674,0.9808527048419532,5800,0.2646768281550589,0.0
29,1.3293488025665283,0.0875395334720183,0.12160523531622332,0.297101237706245,0.0013015351417152573,0.0,0.13750727830498147,0.1,0.10036182403564453,1.6633388996124268,0.049334012,1.6474733,0.04191440851548399,0.0,0.0017387011351430765,0.0,200,0.17647361755371094,1.0033881520599315,0.8775517427646945,6000,0.21232882269586736,0.0
30,1.4095289707183838,0.0930053717785494,0.06934455275343412,0.18193918022184088,0.011550696205395396,0.0,0.14110034274293778,0.1,0.09863662719726562,1.6839187145233154,0.049302652,1.1030414,0.047023504841790534,0.0,0.0018601222284260763,0.0,200,0.17493414878845215,0.7732205659324108,0.5979228743018193,6200,0.17848867781580613,0.0
31,1.3576176166534424,0.024540625998263278,0.016543674564565822,0.052000509972586775,0.007740581492928152,0.0,0.13635339286329662,0.1,0.09994268417358398,1.676767110824585,0.05008225,1.0926435,0.04477521695743781,0.0,0.0004907155430739648,0.0,200,0.17687153816223145,1.497727586755614,2.590173953598976,6400,0.13461764303122178,0.0
32,1.5078577995300293,0.016768174877615057,0.006787540391081573,0.02411771890830582,0.009735792503305106,0.0,0.13455140844333657,0.1,0.10659384727478027,1.717527151107788,0.04989997,0.7542246,0.04197451274945554,0.0,0.00032881298460129106,0.0,200,0.17634105682373047,9.121693506578454,6.992116925220199,6600,0.17450163116659026,0.0
33,1.4659600257873535,0.08510907252015752,0.06609195616707345,0.19899298197595755,0.0389856007950376,0.0,0.14601979808334548,0.1,0.12765932083129883,1.7053272724151611,0.049958974,1.1208969,0.04628796872652574,0.0,0.0016788154055456218,0.0,200,0.17582392692565918,0.5406120177160975,0.5506056647367056,6800,0.20481693703570056,0.0
34,1.5368638038635254,0.041746201767976124,0.029628734873469436,0.07868586121254574,0.00698120461849443,0.0,0.14214895925517146,0.1,0.09961152076721191,1.7260448932647705,0.049223285,1.137912,0.045833792030670784,0.0,0.00083074504945441,0.0,200,0.17898249626159668,0.6416451493945606,0.6047269140788717,7000,0.19819033418285645,0.0
35,1.5897221565246582,0.06865043196231248,0.07222276080287274,0.18542767443441427,0.005712739516910226,0.0,0.14375761747892707,0.1,0.09550333023071289,1.6865558624267578,0.05025624,1.3476061,0.048115456023834956,0.0,0.0013714742955343718,0.0,200,0.17745733261108398,0.638068548517017,0.6395248502318326,7200,0.24434559098810874,0.0
36,1.575840711593628,0.05154763008394014,0.044476425735439556,0.1108567942746382,0.0055015209986067695,0.0,0.1427249438030985,0.1,0.10128450393676758,1.7203543186187744,0.050255824,1.0260112,0.04845867342984547,0.0,0.001027835681657509,0.0,200,0.18232440948486328,0.5365971957006159,0.5339748427548237,7400,0.19179338701698026,0.0
37,1.4347593784332275,0.026584327103815947,0.016633715016691263,0.04980017492636387,0.009775209636401268,0.0,0.13670955311607064,0.1,0.10093998908996582,1.676574468612671,0.049941894,0.9947773,0.04627123879724252,0.0,0.0005072973996860404,0.0,200,0.17463922500610352,1.2242847113624524,0.9332825564263849,7600,0.22944673210105823,0.0
38,1.4575304985046387,0.1167546126144865,0.08357995463342077,0.24369667921483157,0.010812613095116165,0.0,0.13498289132795915,0.1,0.10239315032958984,1.6643352508544922,0.049286507,1.3876795,0.053319576178966925,0.0,0.002327912813868224,0.0,200,0.17229104042053223,0.6429583280541312,0.5999393154506344,7800,0.13683119096573357,0.0
39,1.5647554397583008,0.03222112722208711,0.024870331490987413,0.06451098945132058,0.004402995034400694,0.0,0.13978095286203218,0.1,0.10562276840209961,1.6880671977996826,0.04982565,1.0559107,0.05120973128327894,0.0,0.0006310315497498664,0.0,200,0.17594647407531738,0.8407121481114938,1.053659210853702,8000,0.1656900618086841,0.0
40,1.4805057048797607,0.06020468452651005,0.06865983920935438,0.17677309435388713,0.001969809451274709,0.0,0.14143415713008362,0.1,0.10259032249450684,1.6898236274719238,0.050273705,1.7711886,0.05210922660760206,0.0,0.0011981487172729986,0.0,200,0.176924467086792,0.6387680920617299,0.6345006079621529,8200,0.18507880252395412,0.0
41,1.462751865386963,0.08933907207853715,0.05131897716215662,0.15020809783420758,0.016665849234539606,0.0,0.13876765628244747,0.1,0.10721135139465332,1.6909501552581787,0.049628187,1.0034636,0.055832211154695575,0.0,0.0017759106065767564,0.0,200,0.18213534355163574,0.42189212873014764,0.39146025487589103,8400,0.3209410151469129,0.0
42,1.5522499084472656,0.06897368694453798,0.04969285686476035,0.1519687875991226,0.027584908093991563,0.0,0.1328605766135867,0.1,0.10163497924804688,1.7110624313354492,0.050764833,2.00962,0.05714635873367982,0.0,0.0013743053663485163,0.0,200,0.18207406997680664,0.44326743250741507,0.4423796342510366,8600,0.3653988834529704,0.0
43,1.510563850402832,0.16336505756532854,0.14536079016832457,0.40904136487221837,0.052168570304070634,0.0,0.14311206117959926,0.1,0.10358095169067383,1.6899278163909912,0.048946783,1.6651021,0.0677682286168447,0.0,0.0032548759021680967,0.0,200,0.18365478515625,0.6705116736663871,0.6068549753408385,8800,0.43370476980909173,0.0
44,1.6021199226379395,0.20876469472549597,0.21209253233094996,0.573845523814814,0.048850883146117484,0.0,0.15292580071454714,0.1,0.09648323059082031,1.6663172245025635,0.049515523,1.4490968,0.08186787522770983,0.0,0.004148365032445184,0.0,200,0.17586541175842285,0.7192567050616516,0.6267149010565498,9000,0.49438021012033223,0.0
45,1.4857420921325684,0.07448714480897607,0.04002661593901917,0.10944934348907687,0.009876552110468548,0.0,0.1386843164449885,0.1,0.10402488708496094,1.687530755996704,0.049639963,0.75315833,0.08112980218583646,0.0,0.0014263712502801786,0.0,200,0.1722245216369629,0.9821269162659351,1.1352487236868185,9200,0.5432116842362685,0.0
46,1.4378130435943604,0.06526449962563954,0.03195286894863291,0.12042302716934578,0.044654923616549214,0.0,0.14614502049351524,0.1,0.09752821922302246,1.6884541511535645,0.050006054,1.0756326,0.07954327192981676,0.0,0.0012999007209603826,0.0,200,0.17769289016723633,1.8731283325547428,0.8490261574873058,9400,0.46422758007457543,0.0
47,1.5638597011566162,0.0839879536084786,0.0480723070419897,0.13638616070634996,0.021860027320042708,0.0,0.13745409131381137,0.1,0.10402798652648926,1.7140328884124756,0.049103957,1.064731,0.07998774009768296,0.0,0.001637370493865358,0.0,200,0.18061470985412598,0.42680534503925577,0.31397852339144217,9600,0.4412088684438502,0.0
48,1.6182868480682373,0.16041242430295105,0.08868210611509142,0.277825314621457,0.07392144613933474,0.0,0.14194715806706418,0.1,0.09739351272583008,1.7016375064849854,0.04970896,1.1816988,0.08803020851820977,0.0,0.003207348803486336,0.0,200,0.1749265193939209,0.47717878926603646,0.5002563770840072,9800,0.5769192571444899,0.0
49,1.600797176361084,0.1439750259299285,0.11953148004797695,0.3428591631967554,0.02550242440448023,0.0,0.144792955232759,0.1,0.10066580772399902,1.7239060401916504,0.04986991,1.334483,0.09362469025938165,0.0,0.002863451766322,0.0,200,0.18305754661560059,0.6012994205200644,0.5598932140544852,10000,0.506928629808764,0.0
50,1.602043628692627,0.08981420348589478,0.059812034932282876,0.18548946513459078,0.020466618694205786,0.0,0.14198112883973352,0.1,0.10107088088989258,1.7163090705871582,0.05037911,1.2002747,0.09324364158203297,0.0,0.001733596391472823,0.0,200,0.1810297966003418,0.4135691456527925,0.42889990155461294,10200,0.5384599685489296,0.0
51,1.5888588428497314,0.10260754099785287,0.016171557247314342,0.11693844706059452,0.07514243724146612,0.0,0.14230371882968615,0.1,0.09779977798461914,1.6641778945922852,0.049978223,0.9107671,0.09418003152361495,0.0,0.0020510061632120972,0.0,200,0.17176508903503418,0.18646555450945576,0.19403885627448392,10400,0.5903798983622394,0.0
52,1.452162742614746,0.17263957289181797,0.10207034983133483,0.2910425784378912,0.010544285548668719,0.0,0.1309182493996858,0.1,0.10048127174377441,1.6713533401489258,0.05036562,1.1561081,0.10202598566043526,0.0,0.0034489971180059666,0.0,200,0.17567110061645508,0.42491487361352975,0.40025452313868026,10600,0.5331024071747968,0.0
53,1.3947560787200928,0.10809876314778341,0.07408355972863433,0.22854809609486695,0.028390621704261643,0.0,0.14244775756951578,0.1,0.09983181953430176,1.660752534866333,0.05041854,1.4527488,0.10263326340917008,0.0,0.0021510596581469847,0.0,200,0.17627501487731934,0.44314786560600855,0.4476845881905056,10800,0.5744860496622872,0.0
54,1.572641372680664,0.21303346809634552,0.14600110148353435,0.4460344628129106,0.0474772433597224,0.0,0.13718752158211087,0.1,0.09536027908325195,1.6682541370391846,0.05007665,2.1092095,0.11367328387788762,0.0,0.0041899526865389,0.0,200,0.17718982696533203,0.4732274488243842,0.4262490306307307,11000,0.4876823129254039,0.0
55,1.4920029640197754,0.10069352532788742,0.08513903591731317,0.2320976574999999,0.0196619174510441,0.0,0.13120848279691472,0.1,0.10244083404541016,1.6990783214569092,0.049239893,1.4147193,0.11237530802288762,0.0,0.0019759482011506924,0.0,200,0.17096996307373047,0.5731149459037921,0.6016866793582907,11200,0.4201708426809694,0.0
56,1.606496810913086,0.02805028101503514,0.02145281509533688,0.06460333491094555,0.009724243517406132,0.0,0.1378956817734981,0.1,0.10265231132507324,1.6777172088623047,0.050686847,0.92657435,0.10394280532210237,0.0,0.0005411912608568689,0.0,200,0.17677927017211914,12.778021644961694,6.217271589647391,11400,0.36137243993819274,0.0
57,1.7064266204833984,0.2361986304699084,0.24733940954859587,0.629099094093166,0.019591760518694434,0.0,0.13753657143652773,0.1,0.10556530952453613,1.678250789642334,0.049556267,1.5325136,0.11716838783688298,0.0,0.0046988487815300016,0.0,200,0.17428898811340332,0.6675431410409651,0.6776833280388204,11600,0.2806020601591337,0.0
58,1.5379045009613037,0.1023438614472292,0.046732237283280624,0.17781294321784527,0.05814923233758547,0.0,0.12913158062194327,0.1,0.10068774223327637,1.6540441513061523,0.049491096,2.0664084,0.1156859351979176,0.0,0.002046512662800377,0.0,200,0.17347431182861328,0.29499622559624455,0.30961035803285497,11800,0.30525800043580353,0.0
59,1.481055736541748,0.06218046374673108,0.037654318908616674,0.10926854731963827,0.01145552175396528,0.0,0.13759853061275576,0.1,0.09856939315795898,1.666229248046875,0.050309166,2.3575068,0.11033538805279895,0.0,0.001233941219945485,0.0,200,0.17137765884399414,1.1385645682051957,0.8945437040143872,12000,0.4302332190438077,0.0
60,1.7255864143371582,0.039311420636500255,0.020735274595257543,0.07051881337515768,0.01220118165770785,0.0,0.13338384035191356,0.1,0.10129642486572266,1.6641957759857178,0.050323367,0.995972,0.10323299131116909,0.0,0.0007861760732201667,0.0,200,0.16840219497680664,2.721957909025955,1.4698818056641394,12200,0.341548731185601,0.0
61,1.468268871307373,0.1431389178073852,0.04185271998716316,0.20319496665700418,0.09809719945383079,0.0,0.1301490556901362,0.1,0.10547399520874023,1.6894183158874512,0.04989312,1.2180219,0.10722358396079071,0.0,0.002801677724010571,0.0,200,0.17664098739624023,0.31698299096723986,0.3478049089935555,12400,0.2985764806922102,0.0
62,1.4280741214752197,0.2882637161934341,0.07880007235804219,0.39528747472575354,0.2078275150128001,0.0,0.13190203764306152,0.1,0.10337114334106445,1.6751892566680908,0.04933296,1.6347826,0.12532759718405506,0.0,0.005764337762149967,0.0,200,0.17789459228515625,0.5815623799475509,0.47459949166833687,12600,0.27448682344448555,0.0
63,1.450895071029663,0.22072064067542424,0.2360529998307342,0.6290647044816445,0.07397016133700918,0.0,0.1368783242959146,0.1,0.09767699241638184,1.685509204864502,0.049708642,2.7132013,0.13486690153319197,0.0,0.004339876804360751,0.0,200,0.17531871795654297,0.6856159927404253,0.616944721135136,12800,0.4517258879376282,0.0
64,1.4586169719696045,0.14505521170765046,0.05543126501288729,0.23219522401649695,0.09053106351599159,0.0,0.1316585381091763,0.1,0.09989023208618164,1.6934351921081543,0.04971595,1.6665506,0.13588573255063782,0.0,0.002677934549783518,0.0,200,0.17075085639953613,0.22587760910544644,0.2740494147424039,13000,0.324700828403632,0.0
65,1.3910093307495117,0.2179784241353509,0.12141331161165637,0.3803681694034654,0.06740982109862981,0.0,0.12532696564842985,0.1,0.10014557838439941,1.695972204208374,0.04930598,2.0319042,0.14409500170910913,0.0,0.00435790977975496,0.0,200,0.1749439239501953,0.35488641186118475,0.3581113152921224,13200,0.4645321812801802,0.0
66,1.5029792785644531,0.28698283564015803,0.12285020751921266,0.4651973506803402,0.12127556243522061,0.0,0.13279103382561736,0.1,0.09978270530700684,1.6966023445129395,0.049662784,1.5944229,0.15838378510221401,0.0,0.005689580860416482,0.0,200,0.17933225631713867,0.2836597599106297,0.25189824690178253,13400,0.5607316349969009,0.0
67,1.586580514907837,0.35950382997901065,0.29731612550139674,0.6922447100150917,0.042207847041247123,0.0,0.13678769705783697,0.1,0.09596943855285645,1.6897540092468262,0.049809173,1.171601,0.17849578958989368,0.0,0.007177078770661559,0.0,200,0.17963027954101562,0.525031114490603,0.4738532465891714,13600,0.4250565496333583,0.0
68,1.4189174175262451,0.12872520661719566,0.06367110079779319,0.2207572617897265,0.04085502531823136,0.0,0.14216805565179386,0.1,0.09957218170166016,1.668165683746338,0.050067373,0.82010674,0.17351873129262388,0.0,0.0025162124709381317,0.0,200,0.1751406192779541,2.350058040706441,1.7012551406623522,13800,0.33407452877876365,0.0
69,1.5389683246612549,0.34540483675062733,0.24091351174795056,0.671442143815527,0.03943646380549738,0.0,0.1367291298703762,0.1,0.09825468063354492,1.6775243282318115,0.05008934,1.0497557,0.19070734183842422,0.0,0.006770033838056593,0.0,200,0.17778515815734863,0.39964274913184533,0.4127046320469834,14000,0.5657949197832938,0.0
70,1.504859447479248,0.21609574875390314,0.20631604467248427,0.5355822769790827,0.01643115022077655,0.0,0.1260685626419184,0.1,0.10343813896179199,1.6940157413482666,0.050469965,1.690565,0.1932461825299721,0.0,0.00427744775301615,0.0,200,0.17501282691955566,0.5477316633330828,0.5411231145619547,14200,0.19645172623787668,0.0
71,1.5694096088409424,0.25631110508049093,0.2233305049508986,0.631301285596683,0.043289324357995713,0.0,0.1308001885621915,0.1,0.10019731521606445,1.6741909980773926,0.049087644,1.6607153,0.199552674785024,0.0,0.005041348318606267,0.0,200,0.17531728744506836,0.44718068403161293,0.43855932751994414,14400,0.25078834784459475,0.0
72,1.5180690288543701,1.2617147932378823,0.6461595943868816,2.332277405410669,0.7315932175847484,0.0,0.1329401816271415,0.1,0.09972214698791504,1.6996667385101318,0.049579863,1.9329759,0.3057688866303098,0.0,0.02489120711335632,0.0,200,0.17772507667541504,0.7401814268173519,0.6295858830697028,14600,0.17221260711830325,0.0
73,1.4765868186950684,0.16719153429392067,0.14530538374361474,0.37638508014305083,0.018026333822478133,0.0,0.13268243243446046,0.1,0.10542988777160645,1.6705458164215088,0.05062744,1.4991952,0.2919111513966709,0.0,0.003275583713628708,0.0,200,0.1784820556640625,1.257226864822986,2.392753275632595,14800,0.23893098416544956,0.0
74,1.6659667491912842,0.28925102350609067,0.25953778500321717,0.7327237235810617,0.07244224528647583,0.0,0.12090598106937867,0.1,0.09876632690429688,1.6729838848114014,0.04934442,2.5505192,0.2916451386076129,0.0,0.005776504614912894,0.0,200,0.17331290245056152,0.8072851989168125,0.8016371030244507,15000,0.1617074140996449,0.0
75,1.584871768951416,0.2812116863369187,0.06035824142306679,0.3686823186473185,0.19929862109260904,0.0,0.14080335022457013,0.1,0.10241007804870605,1.6804192066192627,0.049371768,1.3389549,0.2906017933805434,0.0,0.005606705627690969,0.0,200,0.17874860763549805,0.6817710749426602,0.3565924976385259,15200,0.17122425145768208,0.0
76,1.5717508792877197,0.310875307415494,0.2594362205082155,0.6866329967249407,0.032887133230443524,0.0,0.131839719371731,0.1,0.10132503509521484,1.6925241947174072,0.049516898,1.5484477,0.2926291447840385,0.0,0.006127788652379795,0.0,200,0.17977523803710938,0.5453879552726528,0.47478558956862266,15400,0.10129898556141655,0.0
77,1.3730826377868652,0.30364096979070526,0.17170057281658918,0.46533232631714244,0.05029549890188005,0.0,0.14103381489866829,0.1,0.1031949520111084,1.6667282581329346,0.050638475,0.9759453,0.29373032728470516,0.0,0.0060365209458791355,0.0,200,0.17802071571350098,0.28426733361928547,0.28725139830243407,15600,0.09955201517831526,0.0
78,1.4174649715423584,0.48497177934552627,0.41552878645100794,1.1987838493765,0.1609458421458717,0.0,0.1309139804374547,0.1,0.09651803970336914,1.7413091659545898,0.04895427,1.7415879,0.31285447249078724,0.0,0.009600427489874407,0.0,200,0.17760729789733887,0.5647939090707759,0.5548005937442638,15800,0.12920029785366552,0.0
79,1.4436841011047363,0.24092849396516375,0.12192459300059225,0.3854784083829492,0.07470681465399415,0.0,0.1325748581605939,0.1,0.09989619255065918,1.6790800094604492,0.049703956,1.0288109,0.3056618746382249,0.0,0.004801815197913702,0.0,200,0.16851115226745605,0.30463955941905724,0.31391254144866754,16000,0.09361309140930973,0.0
80,1.5879933834075928,0.36972121591971296,0.12132369414136283,0.48003295289102627,0.1647043568141795,0.0,0.13749189512758625,0.1,0.09868574142456055,1.6895956993103027,0.050589122,0.9337065,0.3120678087663737,0.0,0.007366477355756789,0.0,200,0.1744554042816162,0.20383859654243375,0.1912575569810208,16200,0.05833431354495457,0.0
81,1.5973684787750244,0.5169515372778,0.11899805927648649,0.6560953238924039,0.3746647659327211,0.0,0.12869059905255809,0.1,0.09877920150756836,1.6787514686584473,0.050144434,1.2563702,0.3325561816175163,0.0,0.010272421166149933,0.0,200,0.17426776885986328,0.2640179693356848,0.22155824050515133,16400,0.0950648032900774,0.0
82,1.6319363117218018,0.2404108835029513,0.14294073250265102,0.3874704109558554,0.041095015080508016,0.0,0.12815181968146502,0.1,0.09796786308288574,1.6852900981903076,0.050165877,1.1772503,0.32334165180605984,0.0,0.004795609255756345,0.0,200,0.17245864868164062,0.4455486298015886,0.48716304675243244,16600,0.12829599624809207,0.0
83,1.62483549118042,0.5935362454041158,0.2917129111699249,0.961643108800981,0.21855754102890698,0.0,0.12843853339999697,0.1,0.11091017723083496,1.7177555561065674,0.050056547,1.3507222,0.35036111116586544,0.0,0.011782311921982406,0.0,200,0.17847824096679688,0.3607081387424659,0.32671439342329167,16800,0.14217545080716357,0.0
84,1.6352157592773438,0.3729765551446495,0.25826376931044936,0.7977435781187511,0.13665689932219885,0.0,0.1380511029263836,0.1,0.09694385528564453,1.6875476837158203,0.049898777,1.8154614,0.35262265556374384,0.0,0.007167279421436706,0.0,200,0.18991994857788086,0.38780863549302813,0.3835561087989851,17000,0.0954608736332908,0.0
85,1.6719367504119873,0.39897701362535787,0.23195680469047694,0.6841155336536924,0.045397613430733376,0.0,0.12922788507198354,0.1,0.09688472747802734,1.6955626010894775,0.049889065,0.8971694,0.3572580913699053,0.0,0.00791148191632569,0.0,200,0.17829060554504395,0.33420449497790083,0.34037112019457616,17200,0.06812284772575863,0.0
86,1.6652207374572754,0.4507507287298002,0.2538659765371059,0.7421882656135131,0.052983665862946144,0.0,0.13606149199005727,0.1,0.0982213020324707,1.6925790309906006,0.050643176,0.88362014,0.36660735510589476,0.0,0.008913390486974291,0.0,200,0.17836570739746094,0.29510856557780185,0.2928738313539117,17400,0.08218589031636239,0.0
87,1.6704463958740234,0.7530465885662153,0.6071391891247041,1.7724922104183087,0.21626752882197928,0.0,0.1306121864614626,0.1,0.1004335880279541,1.7021641731262207,0.04958534,2.126486,0.4052512784519268,0.0,0.014895716775538418,0.0,200,0.17036938667297363,0.5343981604180378,0.5054794876175387,17600,0.16002102371138885,0.0
88,1.7391505241394043,0.5147423137508307,0.261012707080651,0.905896441089995,0.18923239125596553,0.0,0.13269339923457038,0.1,0.10707330703735352,1.7322077751159668,0.04966423,0.9567234,0.4162003819818172,0.0,0.01028129168391732,0.0,200,0.1765749454498291,0.28802175341174524,0.29618467144014754,17800,0.17022128389146332,0.0
89,1.7717599868774414,0.7202579867414365,0.6616661249202288,1.8228873761982376,0.0829813292383691,0.0,0.13282409590996888,0.1,0.1006009578704834,1.7070255279541016,0.049725913,1.7310535,0.44660614245777913,0.0,0.014247546918287056,0.0,200,0.17492008209228516,0.5205695783204111,0.4986053090679288,18000,0.46131774436395045,0.0
90,1.5965023040771484,0.5163431280291835,0.38264428504518805,1.1263960699363298,0.18557504096254718,0.0,0.13900062879150762,0.1,0.10460615158081055,0.7095010280609131,0.05043038,1.2033718,0.4535798410149196,0.0,0.010240436282440209,0.0,200,0.1727893352508545,0.38940018077702077,0.3828839080098385,18200,0.18323689527722223,0.0
91,1.7010021209716797,0.20628528173933758,0.17239867037995166,0.49200850187001527,0.031480767776255233,0.0,0.13028517577413984,0.1,0.10728669166564941,1.68477201461792,0.049766313,1.0884532,0.4288503850873614,0.0,0.003918722605491164,0.0,200,0.17464303970336914,3.1697482130871686,1.7911331719928403,18400,0.1295942576999851,0.0
92,1.5703251361846924,0.9382488593091824,0.815876712133608,2.1669824757294704,0.19020501761165462,0.0,0.12514761866715343,0.1,0.09570097923278809,1.6837162971496582,0.049553894,1.8888832,0.4797902325095435,0.0,0.018639538005846272,0.0,200,0.17975091934204102,0.5660960530915121,0.5687900228312944,18600,0.7271073320829906,0.0
93,1.6002867221832275,0.4832427061540321,0.28959220101692856,0.8876186394959872,0.07845436314992872,0.0,0.1353950647773336,0.1,0.10017967224121094,1.6687085628509521,0.050411593,1.1293062,0.4801354798739924,0.0,0.009602730371842397,0.0,200,0.17332077026367188,0.3350749628500205,0.33187894456493944,18800,0.6232157673472244,0.0
94,1.463409662246704,0.26539607632252193,0.08507284103987199,0.40800972550166814,0.18929769868981777,0.0,0.1393235641937161,0.1,0.10279130935668945,1.6682889461517334,0.05003933,1.073236,0.4586615395188454,0.0,0.005242589008529427,0.0,200,0.17457008361816406,0.9098055855293721,0.7700750560562426,19000,0.5274957537710526,0.0
95,1.4977366924285889,0.20902317893054617,0.08284892385197458,0.3448719881815454,0.12180955297544127,0.0,0.13634044805688186,0.1,0.09884858131408691,1.6808578968048096,0.049995612,1.0477548,0.4336977034600155,0.0,0.004168585392238205,0.0,200,0.17435550689697266,1.9015835811226707,1.1079621361610295,19200,0.35654800730454644,0.0
96,1.608567476272583,0.7563224148554867,0.2954041242606234,1.216130504129255,0.39153902738283153,0.0,0.13760172953627994,0.1,0.10338521003723145,1.6823008060455322,0.04995251,1.2778223,0.4659601745995626,0.0,0.015034710336192698,0.0,200,0.17408204078674316,0.3248895306967359,0.3426615938951691,19400,0.350653572615709,0.0
97,1.6034693717956543,0.5590538669441044,0.19778432222783246,0.8992973522270948,0.42428883739569995,0.0,0.12649724940099016,0.1,0.09805035591125488,1.7046868801116943,0.049427576,2.4007337,0.47526954383401687,0.0,0.011130505055431292,0.0,200,0.17128920555114746,0.28076718182313465,0.26361155926599944,19600,0.13697870399317008,0.0
98,1.6154775619506836,0.932198530679351,0.5487519623543612,1.6062024395014358,0.1454408979035667,0.0,0.13529783625329514,0.1,0.0984950065612793,1.6758065223693848,0.05061979,1.2067792,0.5209624425185503,0.0,0.01857530816736271,0.0,200,0.17107129096984863,0.5007497126182401,0.4451313127980143,19800,0.26967066903169196,0.0
99,1.6275196075439453,0.7444219292676248,0.2808806821295143,1.088263565121175,0.45309379980088876,0.0,0.13164618853651944,0.1,0.1010279655456543,1.6807003021240234,0.04973168,1.0443422,0.5433083911934578,0.0,0.014867164406814577,0.0,200,0.17012262344360352,0.2498230444720816,0.19031244026209704,20000,0.14997749191638296,0.0
100,1.6790552139282227,0.6022445663093206,0.5916219860182601,1.569522878938333,0.05438078252370285,0.0,0.12249940980931721,0.1,0.1035010814666748,1.713592529296875,0.05046701,2.3086083,0.549202008705044,0.0,0.01194028494314682,0.0,200,0.17925477027893066,0.5438451156525009,0.5511626561958121,20200,0.4877228922819407,0.0
101,1.6461679935455322,0.3863017407145876,0.1951636838305411,0.6816734375931691,0.20127146289686199,0.0,0.12149179163448894,0.1,0.10396957397460938,1.7293105125427246,0.049948283,5.9060125,0.5329119819059984,0.0,0.007700831069823724,0.0,200,0.17825841903686523,0.7593105060599598,0.6897300901015528,20400,0.5355900891808654,0.0
102,1.7498326301574707,0.3852857973427507,0.2938312522240887,0.8558686190479855,0.06342093881762571,0.0,0.14123516577147965,0.1,0.09725594520568848,1.6695234775543213,0.04987891,1.1756057,0.5181493634496737,0.0,0.007656383619345457,0.0,200,0.17704129219055176,0.743090180224855,0.5664563819200505,20600,0.4171138093801942,0.0
103,1.5319881439208984,0.7153378844241932,0.48579739429499635,1.4003383454825784,0.1962588087722508,0.0,0.1313683846198577,0.1,0.09758210182189941,1.654280185699463,0.04998373,1.3054651,0.5378682155471256,0.0,0.014189550551114684,0.0,200,0.17246794700622559,0.3858900647444939,0.40236968812861224,20800,0.4316815287234313,0.0
104,1.5637357234954834,0.838880917444797,0.32669986446882693,1.3970976535872508,0.5828607904025629,0.0,0.13716492925229343,0.1,0.09711933135986328,1.6676480770111084,0.049454432,1.5076998,0.5679694857368928,0.0,0.0167244149232508,0.0,200,0.17084884643554688,0.25931173784139666,0.2432168135930454,21000,0.5577327482817048,0.0
105,1.7309777736663818,0.5738045031612269,0.2001571812269749,0.7975000208686889,0.3516748760481052,0.0,0.1373416387591463,0.1,0.10325789451599121,1.7016112804412842,0.050298635,1.2266607,0.5685529874793263,0.0,0.01136516305026827,0.0,200,0.1737809181213379,0.16284324752192356,0.1627971028417948,21200,0.5663999372148726,0.0
106,1.691114902496338,0.6268297797645943,0.39173982693633924,1.0789443874643483,0.16694010704506557,0.0,0.1370534789403256,0.1,0.09695959091186523,1.7188620567321777,0.050091706,1.0589579,0.574380666707853,0.0,0.012472691224252026,0.0,200,0.17505431175231934,0.3228496447712526,0.3194243066112163,21400,1.3881996714031832,0.0
107,1.5075294971466064,0.8267138992590499,0.5205423059798385,1.4767508483814815,0.10527503820437074,0.0,0.13535269661166063,0.1,0.10035300254821777,1.6946911811828613,0.04965127,1.5005635,0.5996139899629727,0.0,0.016359586427055803,0.0,200,0.17595624923706055,0.3370996502352763,0.3154573647914941,21600,1.7205516630422475,0.0
108,1.554166555404663,0.66424548238482,0.16564594301878208,0.9228626929456261,0.4613053346010115,0.0,0.13450352622422035,0.1,0.10300803184509277,1.675379991531372,0.049906235,1.1123804,0.6060771392051574,0.0,0.013188800536189685,0.0,200,0.1754906177520752,0.11597323600974183,0.120528763353939,21800,1.41619482700032,0.0
109,1.5682933330535889,0.5101405324504524,0.2937368103214364,0.8649705651026489,0.05050944500575335,0.0,0.12850892419024623,0.1,0.10399580001831055,1.6799802780151367,0.050617043,0.8242574,0.596483478529687,0.0,0.010163947576608916,0.0,200,0.17858433723449707,0.47533372545249775,0.4278782614795142,22000,1.2210389882849462,0.0
110,1.5816452503204346,1.3672638097899807,1.3189333952327826,3.6175486621221267,0.28545535913830694,0.0,0.12798793670556283,0.1,0.10124993324279785,1.667137861251831,0.050330132,1.678694,0.6735615116557163,0.0,0.02726001341803508,0.0,200,0.177290678024292,0.6275159902932366,0.5963097268362204,22200,0.220694062784519,0.0
111,1.450899362564087,0.7922999562005921,0.4699249415300625,1.5141046597376973,0.29051455729008085,0.0,0.12620746508126413,0.1,0.09978532791137695,1.6654295921325684,0.050113503,1.7362168,0.685435356110204,0.0,0.01576874982519556,0.0,200,0.18106484413146973,0.2898245194964949,0.29630010054990824,22400,0.04171964134768653,0.0
112,1.477890968322754,0.3641503309980068,0.20556861931077733,0.5695628861362818,0.05255236441149704,0.0,0.1267024114031847,0.1,0.10053277015686035,1.6456260681152344,0.04919102,0.7011786,0.6533068535989843,0.0,0.007230994904491152,0.0,200,0.16706180572509766,1.648108258396518,1.380099111938927,22600,0.0511972260778154,0.0
113,1.482325553894043,0.823134343382627,0.9405399874136805,2.435435625769143,0.07338678295156364,0.0,0.12863076705750784,0.1,0.10199952125549316,1.672417163848877,0.049531393,2.2172883,0.6702896025773486,0.0,0.016384153588372433,0.0,200,0.17228460311889648,0.5807102223705874,0.5833302913633484,22800,0.03843093401187665,0.0
114,1.4960172176361084,0.5733218971848365,0.27829552245104666,0.8673070580338317,0.11627668217195411,0.0,0.1339926753905461,0.1,0.10017013549804688,1.6711182594299316,0.05000377,0.8029134,0.6605928320380974,0.0,0.011425541556967825,0.0,200,0.17528700828552246,0.2859955440818145,0.2575282414914565,23000,0.07958035779396658,0.0
115,1.7984418869018555,0.7940391509991854,0.36265870973622044,1.231544012516028,0.293474655972635,0.0,0.13400756190432025,0.1,0.10416603088378906,1.6912341117858887,0.050284844,1.0673223,0.6739374639342062,0.0,0.015731068405847457,0.0,200,0.1750025749206543,0.21282424113788778,0.21868763137876204,23200,0.08389217629009539,0.0
116,1.7442317008972168,0.47474855623993906,0.23700978535123865,0.7480996936348718,0.17572002312160911,0.0,0.1289482337598983,0.1,0.10021758079528809,1.7038586139678955,0.049906515,0.8004667,0.6540185731647795,0.0,0.009449864648184075,0.0,200,0.17212605476379395,0.347769852726667,0.308487026928752,23400,0.12925461636647032,0.0
117,1.6879627704620361,0.3643334449932201,0.1827308162219454,0.6767017661799786,0.21887858144546216,0.0,0.1285764711082174,0.1,0.09974527359008789,1.712435007095337,0.05009375,1.2606132,0.6250500603476236,0.0,0.007259215524502997,0.0,200,0.18264079093933105,0.6850954681324634,0.5079971495433315,23600,0.05558295897543839,0.0
118,1.5493147373199463,0.8026524003817852,0.5198112915590981,1.667487307916948,0.3127734415428615,0.0,0.1344660815111736,0.1,0.10063290596008301,1.6684050559997559,0.049932264,2.0956707,0.6428102943510396,0.0,0.01600043001033689,0.0,200,0.17162871360778809,0.39963946107942155,0.4042287890274534,23800,0.13058213682938688,0.0
119,1.605745553970337,0.6754514528587161,0.8491734350213028,2.1449878152011435,0.14463204332814253,0.0,0.12589051266333198,0.1,0.10109734535217285,1.6771612167358398,0.04878291,1.9163756,0.6460744102018073,0.0,0.013504430555930877,0.0,200,0.17914128303527832,0.6205406600400969,0.6182042701849928,24000,0.09574470414537299,0.0
120,1.5706427097320557,0.3974149622161281,0.36600303601939943,1.0012024929446552,0.0464471567859815,0.0,0.12336976016754954,0.1,0.10187816619873047,1.6672837734222412,0.049284782,1.2843341,0.6212084654032395,0.0,0.007947259497049662,0.0,200,0.17364931106567383,0.5722613010741979,0.5691747499359588,24200,0.0988171250661579,0.0
121,1.6816563606262207,0.81483396527716,0.631746719230946,1.8485160713044826,0.18965780996944845,0.0,0.12375338052859089,0.1,0.10225152969360352,1.6689903736114502,0.04994318,2.2961626,0.6405710153906315,0.0,0.01623982300176458,0.0,200,0.1803114414215088,0.461145191173415,0.45145926883738086,24400,0.05157098341433119,0.0
122,1.6424753665924072,0.7536693195816011,0.46147789632700986,1.4152273037161736,0.13832383408700002,0.0,0.13257423594831963,0.1,0.10368180274963379,1.7264456748962402,0.04966053,1.0046307,0.6518808458097285,0.0,0.015013799658422766,0.0,200,0.17844223976135254,0.32581746254549343,0.30945439910307093,24600,0.0509479699288268,0.0
123,1.8207509517669678,0.5652888128391235,0.40678316352264143,1.2355063369122719,0.22114781635403538,0.0,0.12186092852302435,0.1,0.0959775447845459,1.6759419441223145,0.0502445,2.32081,0.643221642512668,0.0,0.011235022148606935,0.0,200,0.17495322227478027,0.36311931595471025,0.3663011849023651,24800,0.07019505362932664,0.0
124,1.7768242359161377,0.397571392420733,0.22770735987073987,0.647391360836651,0.04030403545148679,0.0,0.12402182948210282,0.1,0.09731769561767578,1.6879382133483887,0.049916044,1.0229278,0.6186566175034744,0.0,0.007859378075584633,0.0,200,0.1799917221069336,0.4787824423626615,0.4581433014253086,25000,0.09514753674266259,0.0
125,1.6162569522857666,0.4507821005997704,0.311567392276805,0.8159461195538253,0.13191945900349974,0.0,0.1309258200776606,0.1,0.10022234916687012,1.6572322845458984,0.049603876,0.8768333,0.601869165813104,0.0,0.008999718407859146,0.0,200,0.17186427116394043,0.45138241001713014,0.39392720021047883,25200,0.1350225906013596,0.0
126,1.5536580085754395,0.5050635298465982,0.36404493111285474,1.1001128331587733,0.1724451159366945,0.0,0.13241472796102574,0.1,0.09830069541931152,1.676009178161621,0.049747363,1.3751636,0.5921886022164534,0.0,0.010081926231389154,0.0,200,0.1735553741455078,0.36337121542876194,0.355196890463805,25400,0.14233341224894372,0.0
127,1.5586891174316406,0.6383241519400977,0.43932246797983987,1.2279522099713795,0.19193551301191808,0.0,0.13184736907762087,0.1,0.10253667831420898,1.6780314445495605,0.050039984,0.97201914,0.5968021571888178,0.0,0.012405755311494196,0.0,200,0.18202614784240723,0.40755390113510115,0.4023287604087496,25600,0.10362649104436587,0.0
128,1.647840976715088,0.7752401124685884,0.6193446445495939,1.4504472191473783,0.13859459564476986,0.0,0.12813325279326923,0.1,0.10436320304870605,1.6863348484039307,0.04989178,1.0773815,0.6146459527167949,0.0,0.015454523087083848,0.0,200,0.17668628692626953,0.46411196988867987,0.44738615617986766,25800,0.22291914975888802,0.0
129,1.654904842376709,0.5988932852545573,0.3845772236578037,1.2405347958415163,0.26585243730681335,0.0,0.12411684930258181,0.1,0.09949684143066406,1.6944496631622314,0.04922157,1.3738521,0.6130706859705711,0.0,0.011769402195317453,0.0,200,0.1813037395477295,0.29917448384513046,0.2984393009533663,26000,0.12829086040723942,0.0
130,1.7134954929351807,0.8412784904196285,0.5931018596949628,1.8615474477513076,0.3957453913984468,0.0,0.12093805312032264,0.1,0.1058042049407959,1.6826765537261963,0.04994054,2.7967334,0.6358914664154769,0.0,0.016704404277521137,0.0,200,0.17656493186950684,0.4390376506341893,0.4223966046186603,26200,0.17109561750567856,0.0
131,1.7759497165679932,0.9413157902160522,0.4021903998808795,1.4261769220909257,0.3082822540879279,0.0,0.13579618637747273,0.1,0.09891343116760254,1.7171709537506104,0.04955629,0.9234246,0.6664338987955344,0.0,0.018582276234777474,0.0,200,0.18007516860961914,0.2700064507430993,0.2355599267113615,26400,0.1580296596566691,0.0
132,1.584364414215088,0.6253873236773864,0.1461243608426709,0.8249052425028988,0.4385569665004924,0.0,0.13963475741313927,0.1,0.10008072853088379,1.6956522464752197,0.04929744,1.0415957,0.6623292412837196,0.0,0.01226109171093899,0.0,200,0.17990779876708984,0.14465447336235032,0.16463680627437327,26600,0.1443200103870384,0.0
133,1.7457141876220703,1.0143998574625503,0.5717477151990463,1.9154948484767942,0.326779356636446,0.0,0.12604134700480485,0.1,0.10375261306762695,1.677133321762085,0.04918155,5.3068194,0.6975363029016027,0.0,0.02023499372523579,0.0,200,0.18147635459899902,0.3212513023749899,0.3047902798594871,26800,0.16599312744081282,0.0
134,1.615431308746338,0.403684388476742,0.09336042756761291,0.5297605426687445,0.27866142489242174,0.0,0.12763795685137036,0.1,0.10206770896911621,1.633195161819458,0.049853116,1.1254302,0.6681511114591167,0.0,0.007963554341450893,0.0,200,0.17134571075439453,1.1109686579288014,0.9179225145219791,27000,0.18783659172419667,0.0
135,1.69329833984375,0.29265917445311007,0.12283213783939552,0.41339043195725034,0.09668918674564807,0.0,0.12649831595071534,0.1,0.09784507751464844,1.636338233947754,0.047889605,0.6526364,0.630601917758516,0.0,0.005789481119746265,0.0,200,0.17684268951416016,2.6555990431079053,1.4789444041536999,27200,0.15381707274472084,0.0
136,1.808091163635254,0.6170387171624536,0.3906405640402345,1.2311069831328885,0.17769098794626528,0.0,0.12530167199803088,0.1,0.09994983673095703,1.6517274379730225,0.04993969,1.5584254,0.6292455976989099,0.0,0.012268966901950642,0.0,200,0.17452549934387207,0.3312578533448822,0.36105621469245136,27400,0.22662679375062442,0.0
137,1.7222304344177246,0.7377510782513206,0.5278335495626141,1.5031758026632527,0.06346853751822241,0.0,0.1263503622501892,0.1,0.09527993202209473,1.6222326755523682,0.05013504,1.3047615,0.640096145754151,0.0,0.014663043263671974,0.0,200,0.17093443870544434,0.4120140798420388,0.41721789624711064,27600,0.23638356719831063,0.0
138,1.6266303062438965,0.8816044675153722,0.4153687511248434,1.4937733234559765,0.4620573923099469,0.0,0.13853592735266623,0.1,0.09446310997009277,1.658229112625122,0.049913388,1.7232248,0.6642469779302731,0.0,0.01759242836967018,0.0,200,0.1728353500366211,0.3634152899989429,0.34168569031037765,27800,0.2095925900784977,0.0
139,1.6820502281188965,0.7442552925961302,0.17643874714890337,0.9829450218316266,0.49874007647685364,0.0,0.1333997360320553,0.1,0.09629082679748535,1.6699600219726562,0.049716,1.3569659,0.6722478093968588,0.0,0.014747895256632192,0.0,200,0.1777799129486084,0.2038861462352436,0.17584423372367863,28000,0.22645204985062803,0.0
140,1.6874396800994873,1.1922606863150509,0.8624366588945009,2.5641622009882576,0.34769394221648503,0.0,0.12567991444129295,0.1,0.08570694923400879,1.6132676601409912,0.050330475,3.8163357,0.724249097088678,0.0,0.02370790048112653,0.0,200,0.17290449142456055,0.521269721867324,0.4669649110483503,28200,0.5196146787727243,0.0
141,1.7572433948516846,0.4882522976874182,0.29008273311842864,0.8501927084501667,0.07991872081275408,0.0,0.11964584177380473,0.1,0.09691309928894043,1.6818625926971436,0.04899559,1.2787632,0.700649417148552,0.0,0.009749997405273369,0.0,200,0.17168641090393066,0.5491616917196057,0.6662841308010191,28400,0.28167850924682286,0.0
142,1.7535836696624756,0.9248065200680741,0.21393703284252216,1.2697328771940963,0.6976991528749417,0.0,0.13251555961130237,0.1,0.10139346122741699,1.6317508220672607,0.050507125,1.356565,0.7230651274405042,0.0,0.01841797212086942,0.0,200,0.17226862907409668,0.14014297374608672,0.13020017592462257,28600,0.20646992076584156,0.0
143,1.7863662242889404,0.5681509098000233,0.5047133216653628,1.4090967533929342,0.0760218056451254,0.0,0.12601722631301648,0.1,0.10230636596679688,1.6528539657592773,0.04957623,2.6403925,0.7075737056764562,0.0,0.01135232553739216,0.0,200,0.17435646057128906,0.6019800360507762,0.5834617814403567,28800,0.16839281116874963,0.0
144,1.533698320388794,0.7685924270105233,0.39744062302093397,1.3973601887358593,0.3656065482753228,0.0,0.13357374845596826,0.1,0.09821510314941406,1.6744778156280518,0.04984042,1.4032229,0.7136755778098629,0.0,0.015351845981382915,0.0,200,0.1780719757080078,0.2712770193668534,0.26055408386754086,29000,0.20655566999744931,0.0
145,1.6275441646575928,0.8702090572977516,0.60624092436906,1.7342428053432197,0.10920614466470445,0.0,0.1333461638707202,0.1,0.09867143630981445,0.5903811454772949,0.04952669,1.10336,0.7293289257586518,0.0,0.017316643136121433,0.0,200,0.016347169876098633,0.4022582481019538,0.40108753681039144,29200,0.5581598889130305,0.0
146,1.609903335571289,1.015269449301095,0.8322054891181269,2.2406245257982356,0.10650129259949956,0.0,0.1321168357287692,0.1,0.10330390930175781,1.656538724899292,0.050705522,1.7638861,0.7579229781128961,0.0,0.019979504486420538,0.0,200,0.19101715087890625,0.4707313581996188,0.4542245038431135,29400,0.49596623634774134,0.0
147,1.745323657989502,0.7469076388099484,0.6602142504295817,1.8633745996388238,0.17439456094704756,0.0,0.12637716743855004,0.1,0.10102486610412598,1.0278210639953613,0.049470633,1.5097244,0.7568214441826013,0.0,0.01480287033386637,0.0,200,0.11176013946533203,0.4840481609938021,0.48605277150884074,29600,0.6629514594592777,0.0
148,1.716625690460205,0.6075651537047482,0.4302732066882235,1.3196743581636248,0.19252773400412512,0.0,0.12221425747862516,0.1,0.09592771530151367,1.6518487930297852,0.04973118,2.2121885,0.741895815134816,0.0,0.012052975296784427,0.0,200,0.17962074279785156,0.43512830360362886,0.4069933568093432,29800,1.05459443419106,0.0
149,1.7003459930419922,1.3109784821220847,0.997046657510295,2.8332119065259085,0.18297170945745705,0.0,0.1417009797243271,0.1,0.10053873062133789,1.583423137664795,0.05000348,1.1187645,0.7988040818335429,0.0,0.026045819047657084,0.0,200,0.17138457298278809,0.4818621311023663,0.4648997695979868,30000,1.3498569137828345,0.0
150,1.6480910778045654,1.945905710233771,0.7744343554690297,3.245830763269604,1.2030265726886347,0.0,0.1283108083990289,0.1,0.09920358657836914,1.6398248672485352,0.049547788,1.9429268,0.9135142446735657,0.0,0.03853670277661797,0.0,200,0.1794281005859375,0.4300070764414609,0.32634678906247355,30200,0.8859100131255415,0.0
151,1.6696734428405762,1.4413232037575059,1.1679986157504743,3.4576875690533315,0.622164200611523,0.0,0.1303159153824138,0.1,0.0968780517578125,1.634082555770874,0.04946971,2.518451,0.9662951405819598,0.0,0.028540116566655598,0.0,200,0.1705920696258545,0.4593633731759975,0.42855829103341797,30400,1.09297215158113,0.0
152,1.7066938877105713,1.4797295897327063,0.9555089778613466,2.9205326978967348,0.5009744161082855,0.0,0.127731223945569,0.1,0.10035181045532227,1.653813362121582,0.04993908,1.1719518,1.0176385854970345,0.0,0.02921464894713908,0.0,200,0.1701641082763672,0.33932025786493164,0.3404819562457333,30600,1.2264422480007873,0.0
153,1.6508631706237793,0.646093592593782,0.4224924798034773,1.2950934355021566,0.22418825149260743,0.0,0.1317982920357287,0.1,0.10485267639160156,1.7085144519805908,0.04984883,1.0304451,0.9804840862067092,0.0,0.012669354706780805,0.0,200,0.1720890998840332,1.6787609957326328,1.0446331495128423,30800,0.5046365568152592,0.0
154,1.6631643772125244,0.6124192345609274,0.2565699263653101,0.8891578290099427,0.3378030822826357,0.0,0.1297408095124473,0.1,0.09419608116149902,1.6127586364746094,0.05014987,0.7745683,0.943677601042131,0.0,0.012187492855975677,0.0,200,0.16936016082763672,1.620844933101243,0.5355310109627154,31000,0.4141210484906875,0.0
155,1.7758915424346924,0.5384638085596298,0.3623361603002938,1.108627547213681,0.1692975804047206,0.0,0.12706247671373705,0.1,0.09866547584533691,1.561328649520874,0.04899412,0.6707826,0.9031562217938809,0.0,0.010746282086940454,0.0,200,0.1611473560333252,0.812113487796038,0.5121949990248057,31200,0.5162808084723746,0.0
156,1.790463924407959,1.0140261760615494,0.7378880625744416,2.1405385980918976,0.22296381532834636,0.0,0.1321555320303389,0.1,0.09645533561706543,1.6234261989593506,0.050104614,0.9766487,0.9142432172206478,0.0,0.020211522426459023,0.0,200,0.17470216751098633,0.6277310387279488,0.5724681971357624,31400,0.8613308382834761,0.0
157,1.8305730819702148,1.6458240090531429,1.0817402919841057,2.9901506590854097,0.08556919972532323,0.0,0.13564045431802815,0.1,0.09508419036865234,1.6312494277954102,0.050013848,0.9565714,0.9874012964038974,0.0,0.03225405711287995,0.0,200,0.16864991188049316,0.6959271089311442,0.5367379841436817,31600,0.7771249396758453,0.0
158,1.6769485473632812,1.666512828624024,1.7967504531520107,4.752131221729815,0.38943605366656375,0.0,0.1320603183045919,0.1,0.10528159141540527,1.684687614440918,0.049393546,2.0259635,1.05531244962591,0.0,0.03277211070063511,0.0,200,0.17842864990234375,0.6924660546363909,0.6180148224894648,31800,0.9117588778294564,0.0
159,1.6565771102905273,0.647948931368876,0.4784229207987083,1.4702913782277784,0.27836585746249654,0.0,0.12849157232718533,0.1,0.09936690330505371,1.658071517944336,0.04917665,1.3575817,1.0145760978002067,0.0,0.012930562565478738,0.0,200,0.1711564064025879,0.5917297742653773,0.8574477082264711,32000,0.4442215968159617,0.0
160,1.668156385421753,1.8177555165702426,0.739954800560965,2.7064058362397474,0.7135361179810307,0.0,0.13158158677174828,0.1,0.09886574745178223,1.6178843975067139,0.049761396,1.260563,1.0948940396772104,0.0,0.03613059741787794,0.0,200,0.16717529296875,0.28766222665689467,0.24823139698695676,32200,0.5227212843423324,0.0
161,1.6691641807556152,1.6591861867494062,0.9687583055650884,2.9606182271757486,0.2721907089835642,0.0,0.12936803856959336,0.1,0.09733295440673828,1.6290385723114014,0.05019797,1.32227,1.15132325438443,0.0,0.03291352895869318,0.0,200,0.1647346019744873,0.31646335852987156,0.3022739861416319,32400,0.5852172782751782,0.0
162,1.572223424911499,0.78163273513254,0.6695374298234605,1.4863703091562812,0.0989756040848714,0.0,0.12887937991043774,0.1,0.09486126899719238,1.5871508121490479,0.050053727,1.4000744,1.1143542024592412,0.0,0.015416184629621408,0.0,200,0.1659681797027588,0.812928118221181,0.8158900455491248,32600,0.6318476003584744,0.0
163,1.7293548583984375,1.6128307253112282,1.030538569820622,3.19681298123373,0.37434027502197714,0.0,0.13255496281805798,0.1,0.09357476234436035,1.6142122745513916,0.049953867,1.5021971,1.16420185474444,0.0,0.032081256458226015,0.0,200,0.1729426383972168,0.3567110107972996,0.34849421496599065,32800,0.730459962642538,0.0
164,1.6274774074554443,1.5961746573183593,1.2973177567199676,3.718061846272036,0.2728735605369586,0.0,0.12810822710839037,0.1,0.09723854064941406,1.6367065906524658,0.049225498,1.7477126,1.2073991350018318,0.0,0.03145474898831453,0.0,200,0.16804957389831543,0.41961578564540997,0.4184067179164412,33000,0.5321879019362148,0.0
165,1.7891020774841309,1.027889581833783,0.1493080131489317,1.1421646099025868,0.7712980825773823,0.0,0.1448110231568334,0.1,0.09837651252746582,1.6568963527679443,0.04931954,0.88103837,1.189448179685027,0.0,0.02046845325988882,0.0,200,0.16612720489501953,0.3116624232600897,0.24523555766290317,33200,0.5427025185189895,0.0
166,1.8333921432495117,1.1459960816326937,0.7148629044977505,2.3648673900301684,0.6222525305822206,0.0,0.13421064491124496,0.1,0.0985863208770752,1.6958024501800537,0.050159767,1.4939212,1.1851029698797937,0.0,0.022413897638008294,0.0,200,0.17410635948181152,0.3798240278474996,0.35937998823325257,33400,0.4039490677257878,0.0
167,1.7534611225128174,0.7440121169732338,0.4083636712676482,1.4110276141218177,0.3789805950977817,0.0,0.12285105233150953,0.1,0.09729480743408203,1.7081432342529297,0.049797677,1.1992236,1.1409938845891376,0.0,0.014485984984785167,0.0,200,0.17769885063171387,0.552368930025475,0.40027877483618407,33600,0.5074846569802023,0.0
168,1.8381400108337402,0.9436826936695979,0.5598798299208798,1.7625881640248835,0.3246243238176705,0.0,0.12783045744757418,0.1,0.09647154808044434,1.7008733749389648,0.04947867,1.4379445,1.1212627654971838,0.0,0.018660494051891678,0.0,200,0.1813957691192627,0.2885102112799357,0.2741955799050636,33800,0.49365106142923104,0.0
169,1.810351848602295,1.9274864163527323,0.8597881250415321,3.010858439647159,0.9028603766201949,0.0,0.12334830405798931,0.1,0.10705256462097168,1.7342402935028076,0.050033335,1.3914272,1.2018851305827387,0.0,0.03801203626891704,0.0,200,0.17905139923095703,0.408858285282782,0.39427722104610446,34000,0.5461734045493261,0.0
170,1.6956028938293457,0.6395230413466007,0.31070717483857024,1.086186512609888,0.3075347695928061,0.0,0.13857504980324747,0.1,0.1018984317779541,1.7058987617492676,0.049856,0.7833295,1.145648921659125,0.0,0.012523245818478338,0.0,200,0.1776421070098877,0.4793352049403028,0.5248136347977047,34200,0.4630744595232026,0.0
171,1.7715108394622803,1.2278578999573577,0.8001858031895319,2.4755263041310123,0.4437060818167652,0.0,0.12251984270120546,0.1,0.10196971893310547,1.7060184478759766,0.04949582,1.3891859,1.1538698194889485,0.0,0.02402180323160919,0.0,200,0.1792309284210205,0.3402883209030218,0.33406110628608676,34400,0.27304436419789596,0.0
172,1.7521796226501465,1.2444461020496798,0.8228031756168707,2.440160836858357,0.1272738420038482,0.0,0.12141161250017292,0.1,0.10133123397827148,1.6807153224945068,0.04977438,1.6502864,1.1629274477450215,0.0,0.024699026747954933,0.0,200,0.1809229850769043,0.37262348618952845,0.3622135557103454,34600,0.4724454358922081,0.0
173,1.6686792373657227,1.280340488799049,0.7853963649998714,2.63992118797247,0.8052094291095054,0.0,0.12908544238570838,0.1,0.10213398933410645,1.7036144733428955,0.049715623,1.5634911,1.1746687518504244,0.0,0.025349529785744895,0.0,200,0.1759943962097168,0.3371250860127563,0.32405482092616,34800,0.45449651556358955,0.0
174,1.7968616485595703,1.000897413374208,0.4890116691580907,1.5237309298256905,0.28928817615188224,0.0,0.1297453708993831,0.1,0.09892606735229492,1.6915900707244873,0.04977416,1.1693573,1.1572916180028028,0.0,0.019731897124141536,0.0,200,0.17874670028686523,0.2553703788105237,0.26314328419633976,35000,0.3106557491729211,0.0
175,1.7714872360229492,2.1281370570762514,1.677791014889762,4.569417535376626,0.26844059613863686,0.0,0.12502305567960317,0.1,0.10020709037780762,1.709986925125122,0.050310172,1.4499521,1.2543761619101477,0.0,0.041876952219920195,0.0,200,0.1728677749633789,0.5025770603179855,0.46985533763451004,35200,0.30621607558097474,0.0
176,1.759493112564087,1.5113512124231383,0.6360762448829096,2.522932802895675,0.7801639680602233,0.0,0.12377930328464153,0.1,0.0997152328491211,1.694751262664795,0.05032831,1.8508588,1.2800736669614468,0.0,0.029545062955846933,0.0,200,0.17412662506103516,0.20736526209332473,0.19504791045000938,35400,0.2642466786969812,0.0
177,1.7833034992218018,1.494213635898257,1.5373336931824546,4.112286225307718,0.3812478253418837,0.0,0.1197343968431937,0.1,0.09919166564941406,1.6974010467529297,0.050098952,1.9681122,1.3014876638551278,0.0,0.029238640414676602,0.0,200,0.17763042449951172,0.5271137609079479,0.5330698312998806,35600,0.34793592022192005,0.0
178,1.6920812129974365,1.1295804994487721,0.7341205560794277,2.0299586761250428,0.3407588052832159,0.0,0.12325187651967082,0.1,0.09869718551635742,1.6756186485290527,0.050214432,0.8569257,1.2842969474144923,0.0,0.022423889314037403,0.0,200,0.17572593688964844,0.531905189760539,0.5080949842014895,35800,0.289272128755984,0.0
179,1.6105234622955322,1.7464059970184767,1.1437230730659342,3.2908595367038975,0.5288803672894017,0.0,0.12327032129592365,0.1,0.1021735668182373,1.6576952934265137,0.049087014,1.539758,1.3305078523748908,0.0,0.03454896780458362,0.0,200,0.1709904670715332,0.331688813850509,0.3340996443860756,36000,0.40687260601253344,0.0
180,1.6207170486450195,1.4379868816471346,1.46339559276048,3.8004316421718727,0.039328304758564796,0.0,0.1259857051215517,0.1,0.09955358505249023,1.700495719909668,0.04993185,1.4282368,1.3412557553021152,0.0,0.028691266582203386,0.0,200,0.1791539192199707,0.5288744682822497,0.5229692661976172,36200,0.4939329814753907,0.0
181,1.704796314239502,2.02533465632291,0.8842696206167753,3.1868946799399076,1.0695409424854951,0.0,0.12814569337175885,0.1,0.10258364677429199,1.6663899421691895,0.05025022,2.4444702,1.4096636454041946,0.0,0.040314449340158584,0.0,200,0.17724990844726562,0.2676307127623753,0.26398139514313207,36400,0.4393308017754958,0.0
182,1.7645719051361084,1.6724378098773833,0.8446243922810175,2.8048751923368034,0.6228570415832675,0.0,0.1278481207483069,0.1,0.10217928886413574,1.7135813236236572,0.049937475,1.0079439,1.4359410618515136,0.0,0.03241744717346094,0.0,200,0.1723928451538086,0.25178987999070257,0.24489134838152107,36600,0.8857083064684463,0.0
183,1.7941601276397705,1.114068868923649,0.6888363768242184,1.8441049766861792,0.35872802888445887,0.0,0.12076278233231524,0.1,0.10244917869567871,1.6913096904754639,0.05006295,0.9740266,1.4037538425587273,0.0,0.021997673877256835,0.0,200,0.17748689651489258,0.3920642909960548,0.390420060116882,36800,0.5297471769328431,0.0
184,1.8050856590270996,1.748088811630422,0.9748016387604155,3.407315785924755,0.903792672164572,0.0,0.12919864923869237,0.1,0.09766077995300293,1.6870014667510986,0.049964815,1.5339264,1.4381873394658968,0.0,0.034157593276427346,0.0,200,0.18039870262145996,0.309362333974839,0.3089491207934979,37000,0.643465693280423,0.0
185,1.8159456253051758,1.540185007711194,1.6127602335345255,4.297608872712661,0.22085787561683215,0.0,0.12575961841319794,0.1,0.09835410118103027,1.7059121131896973,0.04963108,1.6671671,1.4483871062904266,0.0,0.029986459814183457,0.0,200,0.17155194282531738,0.5465896638960221,0.5449636336360764,37200,1.0194661498272117,0.0
186,1.6958489418029785,1.4036901422186927,0.8785671219583673,2.7927634370440395,0.5645810000554045,0.0,0.12827649330812502,0.1,0.10248732566833496,1.6749768257141113,0.050208524,1.2258191,1.4439174098832532,0.0,0.02770976091327694,0.0,200,0.17641544342041016,0.32488763409736,0.32056374173195346,37400,0.6370667698756123,0.0
187,1.6648719310760498,2.0771388394117904,0.8452890243266258,2.621891932419838,0.6152364360536753,0.0,0.1306039264549726,0.1,0.09980893135070801,1.6599977016448975,0.049779113,1.0130684,1.5072395528361069,0.0,0.04131816005979121,0.0,200,0.18049120903015137,0.24812591391792135,0.23731958922717725,37600,1.2283089478304121,0.0
188,1.738175868988037,1.3945778206365729,1.0753438151289534,3.2068992810408554,0.4479909813160231,0.0,0.12121524128088487,0.1,0.11843609809875488,1.6850471496582031,0.049575046,2.4405189,1.4959733796161536,0.0,0.027643467551413496,0.0,200,0.1819770336151123,0.4555496145046513,0.4593309494310204,37800,1.0698936335484157,0.0
189,1.8560981750488281,1.3801294698266031,0.23728383974412612,1.7545728969614205,1.1135854548267887,0.0,0.12404861764849874,0.1,0.1049199104309082,1.698087453842163,0.04927947,5.397219,1.4843889886371986,0.0,0.027325777261553424,0.0,200,0.17484712600708008,0.0831096030773011,0.07806321429573097,38000,1.3512820673258397,0.0
190,1.8449556827545166,2.4962754334561463,1.7244201534019894,4.908799937151377,0.04500363615788833,0.0,0.1252618787726204,0.1,0.10213804244995117,1.6897852420806885,0.04960824,1.619125,1.5855776331190934,0.0,0.048663216142502554,0.0,200,0.1765599250793457,0.430544322976924,0.40267488952776415,38200,1.4600584505166265,0.0
191,1.869192361831665,0.9999033499028309,0.4269236516449528,1.5308692114420939,0.504177505442076,0.0,0.12581800490942568,0.1,0.09817647933959961,1.7219798564910889,0.04983936,1.2544919,1.5270102047974672,0.0,0.019709790795352903,0.0,200,0.1797635555267334,0.7458257206294112,0.7703332016419886,38400,3.023350373347425,0.0
192,1.746208667755127,1.7397078245576743,0.9726187741935127,2.5232544089753617,0.1250752425030779,0.0,0.12702227273961364,0.1,0.10100507736206055,1.702624797821045,0.049658984,0.83562636,1.548279966773488,0.0,0.03460236125514418,0.0,200,0.17943906784057617,0.2585664566776336,0.24810535995860106,38600,1.8869697662186866,0.0
193,1.7163734436035156,0.8540761948181618,0.7144642501206612,2.069339422002742,0.28084403087563853,0.0,0.12363921616977376,0.1,0.1006166934967041,1.6884734630584717,0.05004283,1.1842836,1.4788595895779553,0.0,0.017014535535634593,0.0,200,0.17689967155456543,0.8947499713258773,0.700624319682607,38800,2.332709340052045,0.0
194,1.5952956676483154,1.9794037967100313,1.343836481774932,4.2808698998915045,0.9511264232958544,0.0,0.12563958019484378,0.1,0.10287690162658691,1.656843900680542,0.0499156,1.4938565,1.528914010291163,0.0,0.038860363809915976,0.0,200,0.17692947387695312,0.3770510465275555,0.3900082406140908,39000,2.489919222097537,0.0
195,1.6070342063903809,2.029289081817854,1.1180784981723266,3.591532191883822,0.53785624981265,0.0,0.1241012936956774,0.1,0.1013786792755127,1.6835765838623047,0.049554583,2.2854471,1.5789515174438322,0.0,0.03980750906774429,0.0,200,0.1730329990386963,0.33250328449110506,0.30803657085921254,39200,1.1141905958607192,0.0
196,1.7217185497283936,3.072836471375184,0.8731374018360388,3.641461719277946,1.5625162241659027,0.0,0.1252800313690869,0.1,0.09658074378967285,1.6786425113677979,0.04962874,1.0153214,1.7283400128369675,0.0,0.060251490167916893,0.0,200,0.17902112007141113,0.347343839427846,0.2502572996414933,39400,2.2966462459613375,0.0
197,1.7471535205841064,1.0811942624395505,0.44018751358799313,1.6788173398684072,0.5959658792098069,0.0,0.12833563553099603,0.1,0.1031494140625,1.689932107925415,0.05011448,0.88571775,1.663625437797226,0.0,0.021311333243345637,0.0,200,0.17351722717285156,0.5932532867285157,0.8441800820603377,39600,2.5369108532321705,0.0
198,1.7643778324127197,2.3355184661431316,1.5404100842128519,4.694260746651394,0.9164234664892456,0.0,0.1260950263185618,0.1,0.10326266288757324,1.6971373558044434,0.049912434,1.4685324,1.7308147406318166,0.0,0.04594300781040228,0.0,200,0.17583990097045898,0.3436883208007009,0.33687058095949174,39800,0.8300013435966509,0.0
199,1.9374902248382568,2.1523205976619266,0.9875618032295711,3.4731841607836635,0.9490347090444762,0.0,0.12855371739074473,0.1,0.10378170013427734,1.6935443878173828,0.049879074,1.6952312,1.7729653263348277,0.0,0.042123201660784884,0.0,200,0.17742466926574707,0.2286856143174769,0.22927129901666676,40000,0.9533293537232699,0.0
200,1.7968807220458984,1.149591860142124,1.4103780337362832,3.573375448728082,0.11964314970372,0.0,0.1253180353486631,0.1,0.09704732894897461,1.6998827457427979,0.050227784,1.6867633,1.7106279797155572,0.0,0.022862536184051152,0.0,200,0.17755866050720215,0.9999648089942006,0.8816259041812206,40200,0.9252968100787906,0.0
201,1.6893234252929688,1.959986181556167,1.302791469784635,3.9150609387634097,0.602796907035442,0.0,0.12589878563414247,0.1,0.10235095024108887,1.692192792892456,0.050140128,1.133623,1.735563799899618,0.0,0.03842240725601876,0.0,200,0.17409300804138184,0.31464814510074335,0.3142242462350244,40400,1.0150843407485315,0.0
202,1.678300142288208,1.3788982208501697,0.8205845428144739,2.597794749402453,0.28351245901377703,0.0,0.1274357283327889,0.1,0.10320067405700684,1.6753325462341309,0.049443793,1.6542653,1.6998972419946732,0.0,0.02726157251300804,0.0,200,0.1713860034942627,0.36113564581829694,0.3167693843209789,40600,0.9786606355944366,0.0
203,1.756608247756958,1.129802573821739,0.1332556268292699,1.3447236257193478,0.9929198703696694,0.0,0.13406835263803596,0.1,0.10061287879943848,1.678438663482666,0.0506069,1.0109107,1.6428877751773798,0.0,0.021652967710044362,0.0,200,0.17718911170959473,0.32239973975603226,0.18585493386220073,40800,0.8963347746701057,0.0
204,1.8965251445770264,2.1678621418921806,1.3419509802863052,3.937329381814595,0.2449674470386793,0.0,0.1291176036008001,0.1,0.09867167472839355,1.6927645206451416,0.050858486,1.0977005,1.69538521184886,0.0,0.04261304614192607,0.0,200,0.17956924438476562,0.36559633972232897,0.38140480836091767,41000,0.8354568937817857,0.0
205,1.932419776916504,2.3504257935598893,1.7295809590753788,4.941755702063962,0.2733023112198645,0.0,0.12067634351962209,0.1,0.0982964038848877,1.6848986148834229,0.050359827,1.6061816,1.760889270019963,0.0,0.04559110208692674,0.0,200,0.17682600021362305,0.47236935440703876,0.45206910632538044,41200,1.0525415704971584,0.0
206,1.75956392288208,1.8113667102653297,1.426297524536255,4.253511575167248,0.7532803731572448,0.0,0.12655984987893396,0.1,0.09920024871826172,1.7032885551452637,0.05007029,2.061571,1.7659370140444997,0.0,0.03575845453876444,0.0,200,0.17516088485717773,0.42735305271570245,0.4162610702970282,41400,0.1524316648216457,0.0
207,1.6466429233551025,2.6093970633104266,2.231536432664106,6.28556714858885,0.46889863402250714,0.0,0.12766126439088807,0.1,0.10402679443359375,1.6830871105194092,0.049558453,1.7761692,1.8502830189710924,0.0,0.05044432430781828,0.0,200,0.17341995239257812,0.5156960599067669,0.47666320717095373,41600,2.503013870430773,0.0
208,1.6143012046813965,0.9365936860386376,0.3953479978196809,1.4523191564596984,0.5030788886651302,0.0,0.13619041991565708,0.1,0.10455846786499023,1.6845123767852783,0.04973216,0.7573237,1.758914085677847,0.0,0.018405480548601624,0.0,200,0.17322564125061035,1.0245511061796184,1.2159545779281968,41800,0.47257264625747913,0.0
209,1.5293264389038086,1.5766945870476425,0.9936530330611264,3.129328176498472,0.3705372313222756,0.0,0.12653838177209722,0.1,0.09732294082641602,1.6685373783111572,0.049720354,1.3870474,1.7406921358148264,0.0,0.030813322600176312,0.0,200,0.1715869903564453,0.37419049689264583,0.35711161933637176,42000,0.4611854555459456,0.0
210,1.5558528900146484,2.0179686031350217,1.950804058941492,5.354093814296741,0.4934689692193923,0.0,0.12889808416521928,0.1,0.09984874725341797,1.6854348182678223,0.049058996,1.7994655,1.7684197825468462,0.0,0.03938622747026458,0.0,200,0.17479944229125977,0.5109400066781955,0.509175172463854,42200,1.4755864018890466,0.0
211,1.6011898517608643,2.2841585347622586,1.3303965320910431,4.2123535417530364,0.9729271890182453,0.0,0.1268041399910518,0.1,0.10148215293884277,1.7162513732910156,0.05025106,1.4982451,1.8199936577683875,0.0,0.04483476639546926,0.0,200,0.18907523155212402,0.30162383068298976,0.29755027941361634,42400,2.3484988252870598,0.0
212,1.9039702415466309,1.9048336963235002,0.927269450336753,3.444274232401095,0.9797976747985374,0.0,0.12050332455381499,0.1,0.09680032730102539,1.6842260360717773,0.049447402,1.6884292,1.828477661623899,0.0,0.037208033923454856,0.0,200,0.1735525131225586,0.24443187978366834,0.24330500583410608,42600,0.9390738110066105,0.0
213,1.7198128700256348,1.2786765530561213,0.6852204237741051,2.445593841838372,0.6969987249337539,0.0,0.12781669949231914,0.1,0.10062813758850098,1.721367597579956,0.049505726,1.1982088,1.7734975507671211,0.0,0.024596976839198627,0.0,200,0.18095803260803223,0.39756369783085077,0.36598088512973975,42800,0.6611191515574074,0.0
214,1.7410917282104492,1.9759439912090517,1.2068713057953129,3.659712979483001,0.6617713531741176,0.0,0.1300698293938823,0.1,0.10473918914794922,1.7024683952331543,0.05015767,1.6228276,1.7937421948113144,0.0,0.03838132547459616,0.0,200,0.17822909355163574,0.33061144719470487,0.33310972700973795,43000,0.4938143148512922,0.0
215,1.8179593086242676,1.542140402346229,0.8601414321951434,2.6796223424560606,0.6450678068000227,0.0,0.12384260331398868,0.1,0.10246109962463379,1.7098467350006104,0.04969963,2.3546853,1.7685820155648058,0.0,0.030482179395768864,0.0,200,0.18044137954711914,0.26963491011448776,0.2589786948908944,43200,0.7554918382033161,0.0
216,1.6391429901123047,1.9233561380212671,1.4353382589893058,4.276571570812324,0.5742816544765426,0.0,0.12581305237909796,0.1,0.1009073257446289,1.6962976455688477,0.04963648,1.8028492,1.784059427810452,0.0,0.03676235372164979,0.0,200,0.169694185256958,0.3947309949317461,0.39398864071302714,43400,0.6398465448157954,0.0
217,1.68666672706604,2.3933359967483594,1.708121822478007,4.795408901701611,0.32645866139899576,0.0,0.1253568300816887,0.1,0.10033822059631348,1.7021996974945068,0.049836095,1.2574284,1.8449870847042429,0.0,0.047027369366610235,0.0,200,0.17071890830993652,0.38903298047365265,0.3747647332118458,43600,0.6950093027388048,0.0
218,1.8273992538452148,2.928315661421841,1.2665048913551193,4.6292706292375465,1.1323245957834835,0.0,0.12606399124622825,0.1,0.10588860511779785,1.6908645629882812,0.049611703,2.3121312,1.9533199423760028,0.0,0.05767699015307847,0.0,200,0.1771700382232666,0.30326130914724453,0.25850192136748457,43800,0.3073621649906891,0.0
219,1.8031411170959473,4.142435529981386,2.0051720309347156,6.470180855732255,0.9584122993007859,0.0,0.12455590097486896,0.1,0.0961754322052002,1.702897071838379,0.049841512,1.2055246,2.172231501136541,0.0,0.082052911067209,0.0,200,0.17534613609313965,0.40778621431045375,0.31212171090196156,44000,0.4069164742001005,0.0
220,1.8198459148406982,1.4791639833452803,0.9245041146823892,2.673373404023829,0.10894768686115396,0.0,0.11744710287305805,0.1,0.11076760292053223,1.7052462100982666,0.050783135,0.98952544,2.102924749357415,0.0,0.029084326691675814,0.0,200,0.18003463745117188,0.8241533309684984,1.0332970643168151,44200,0.30877377974149683,0.0
221,1.7448365688323975,1.587850904678124,1.5541524958143749,4.251839501717584,0.48713642459254364,0.0,0.12288791866105848,0.1,0.09978175163269043,1.7136147022247314,0.049981557,1.5421228,2.051417364889486,0.0,0.03147702703453282,0.0,200,0.17442607879638672,0.9137842491274265,0.7310215073571674,44400,0.2926504539264592,0.0
222,1.60935640335083,1.517900897948667,1.691335865381602,4.42249269962012,0.3686629896228201,0.0,0.13510910968867634,0.1,0.10428881645202637,1.6819040775299072,0.04992936,1.7917789,1.9980657181954042,0.0,0.029130779972915598,0.0,200,0.1749415397644043,0.7504585148486745,0.5989537761433211,44600,0.5365164424593126,0.0
223,1.6678707599639893,2.579467397398115,0.9293985006455181,3.587469719185841,1.4852297113002892,0.0,0.13073670113218222,0.1,0.09939122200012207,1.68641996383667,0.049088728,0.96286756,2.0562058861156753,0.0,0.04987808165388518,0.0,200,0.18376612663269043,0.16016534785830822,0.1965182063948976,44800,0.37693652680948636,0.0
224,1.786808729171753,3.000972287322128,1.3764585885438438,5.334989772430078,1.767954957762086,0.0,0.12654713584548397,0.1,0.1015932559967041,1.716447114944458,0.050133653,1.7342267,2.150682526236321,0.0,0.05902819681968097,0.0,200,0.17752337455749512,0.3190278003606704,0.3038875655343232,45000,0.3147024457731615,0.0
225,1.7895984649658203,2.699407203253971,2.53317498272076,7.039864408073301,0.6648878742151768,0.0,0.126062720706278,0.1,0.1020975112915039,1.7217347621917725,0.04915074,1.8426557,2.205554993938086,0.0,0.052830957119933616,0.0,200,0.181748628616333,0.540003191463025,0.5206191621614541,45200,0.9149933738628562,0.0
226,1.8062589168548584,3.367276216979074,1.4159838278040504,5.182728011754005,1.361798505231877,0.0,0.12411029454243513,0.1,0.10657048225402832,1.7089126110076904,0.05008183,2.1175451,2.321727116242185,0.0,0.06565992559640721,0.0,200,0.17754292488098145,0.3158236300051835,0.2558136803089933,45400,1.7223818035113545,0.0
227,1.7366325855255127,4.040267805806141,2.7209940791694187,8.245354672120925,0.6496241805584492,0.0,0.12483277633228237,0.1,0.10496830940246582,1.681182861328125,0.049740266,1.5772213,2.4935811851985807,0.0,0.07968944818926277,0.0,200,0.1764209270477295,0.4259519677177721,0.3638545305940311,45600,1.3219518586424823,0.0
228,1.6832575798034668,1.190907799406117,0.8326347814895745,2.476826510577628,0.1938838617075346,0.0,0.13112473239648803,0.1,0.09496736526489258,1.6934258937835693,0.04989764,1.001533,2.3633138466193344,0.0,0.023667386237113043,0.0,200,0.17438840866088867,2.2228393742322847,2.2698535762456222,45800,1.2759126661107578,0.0
229,1.731288194656372,0.9770180326904068,0.39891166323044774,1.5996016316411303,0.4870477605325365,0.0,0.13481576253562264,0.1,0.1032109260559082,1.688643217086792,0.049715266,0.9318641,2.224684265226442,0.0,0.019128618807398846,0.0,200,0.17502570152282715,4.332580827646718,2.523712238007247,46000,2.379535296607691,0.0
230,1.8455181121826172,1.6884112288683903,1.3175547353907646,3.456424043448095,0.1353478358835095,0.0,0.12047895952096128,0.1,0.11733365058898926,1.7129387855529785,0.04993857,1.1601212,2.171056961590637,0.0,0.03349987501521431,0.0,200,0.17348074913024902,0.5791111072035339,0.43453880008128143,46200,0.6762380703110261,0.0
231,1.9053750038146973,1.3688019086061427,1.1510725068973036,2.9681431508398304,0.11160126093438118,0.0,0.12633669682396023,0.1,0.09991168975830078,1.7257297039031982,0.04995878,1.8449103,2.0908314562921877,0.0,0.02704908813510276,0.0,200,0.18145275115966797,0.6534799152813235,0.5313046739707947,46400,0.9006277871152554,0.0
232,1.8623206615447998,3.15470196576829,2.0085906319783065,6.066712548387848,0.7318398204160068,0.0,0.12828495372981744,0.1,0.10175132751464844,1.7058439254760742,0.049887415,1.5151259,2.197218507239798,0.0,0.061335644184518326,0.0,200,0.1749258041381836,0.47698095732867324,0.4950088085287365,46600,1.711141049244141,0.0
233,1.6961729526519775,1.512502382227746,1.5958740807268483,4.1334043912116165,0.21638488921052462,0.0,0.11857537000285523,0.1,0.10103106498718262,1.7198805809020996,0.04983662,1.9001586,2.128746894738593,0.0,0.029756317860995335,0.0,200,0.1758732795715332,0.5521478909719504,0.5486130146804894,46800,0.7865698184004698,0.0
234,1.890657663345337,3.9639612351814977,1.8834319200474903,6.122415660319627,1.838311698519651,0.0,0.12141826953904272,0.1,0.09932875633239746,1.697413444519043,0.04920157,1.4688394,2.3122683287828836,0.0,0.07621083502613676,0.0,200,0.17221903800964355,0.4780473082265696,0.44218524916911767,47000,1.4647157290869224,0.0
235,1.8648428916931152,1.3744886930986329,0.7278735965673331,2.317041593590797,0.4760433111973997,0.0,0.1250881114412341,0.1,0.10166501998901367,1.6911287307739258,0.05004815,1.5308002,2.2184903652144583,0.0,0.026608903585413842,0.0,200,0.18123435974121094,0.37961673209506147,0.43361131313826035,47200,1.417422157327502,0.0
236,1.740605354309082,3.290572816660993,2.1727502059542685,6.0237513281686725,0.2403029619562155,0.0,0.12039155150577525,0.1,0.10241842269897461,1.6913774013519287,0.04998894,1.2584922,2.3256986103591117,0.0,0.06422366023861892,0.0,200,0.18199753761291504,0.45365471727273754,0.4202728177109362,47400,1.4242306307714119,0.0
237,1.812227487564087,1.5813801996331183,0.7737045346643889,2.593131212846262,0.5465002924839413,0.0,0.13306215518541498,0.1,0.1025838851928711,1.7074363231658936,0.049845815,0.92072034,2.2512667692865125,0.0,0.03040783739975673,0.0,200,0.18891429901123047,0.29507835552414935,0.3432757014331761,47600,1.5162132477650283,0.0
238,1.9338345527648926,2.268645290003276,1.7565164549131183,5.1039936758371045,0.2904391046795353,0.0,0.12513421361119254,0.1,0.10100722312927246,1.7130813598632812,0.050106883,1.4447093,2.2530046213581887,0.0,0.04428826627224225,0.0,200,0.17502570152282715,0.3962642556162319,0.3972487555451133,47800,1.1212435828507663,0.0
239,1.853485345840454,3.8786681822852884,0.746104098505205,4.7860509193047855,2.7802717584462964,0.0,0.12498382513561297,0.1,0.10498714447021484,1.7402565479278564,0.049640637,1.418757,2.4155709774508987,0.0,0.07564839693576919,0.0,200,0.18543767929077148,0.23344990260863696,0.20026782239095026,48000,1.0540142249319826,0.0
240,2.0080931186676025,2.867585968034988,1.0524213969652485,4.351349857126646,1.4417211878230414,0.0,0.12598313543952916,0.1,0.10253643989562988,1.7330141067504883,0.050175194,1.6508908,2.460772476509308,0.0,0.056665327937132685,0.0,200,0.1824662685394287,0.17219744182868568,0.16459659748788358,48200,0.9524390186587444,0.0
241,1.8315682411193848,2.56499491162327,0.8935616266505461,3.925057279199674,1.4765707756482316,0.0,0.1272995222726894,0.1,0.10676908493041992,1.7249183654785156,0.050280567,1.3778943,2.4711947200207045,0.0,0.05042286006444921,0.0,200,0.18025827407836914,0.16410951543474528,0.17086625394241092,48400,1.8096131180880901,0.0
242,2.056234121322632,1.3575899513745693,0.22392393110498537,1.6323723569065272,1.052032048706055,0.0,0.13324863176010834,0.1,0.10392928123474121,1.7288992404937744,0.04952056,0.7475216,2.359834243156091,0.0,0.02618207987906966,0.0,200,0.1747286319732666,1.2172548145994673,1.0572471672763415,48600,1.2486674862522522,0.0
243,1.8333134651184082,1.8042264193188704,0.33954493432927,2.0588410178355567,1.2195455546584493,0.0,0.13038616324556512,0.1,0.10305905342102051,1.7083468437194824,0.048951674,1.2454808,2.304273460772369,0.0,0.03555380133394181,0.0,200,0.1768648624420166,0.3313841805917185,0.21235487821424948,48800,2.2736978408010122,0.0
244,1.6686632633209229,2.734845310691634,1.0691268637951128,3.846728427147365,1.1552781409942707,0.0,0.12250349907637588,0.1,0.09975481033325195,1.693568468093872,0.04959421,1.5220639,2.3473306457642957,0.0,0.052975155318191566,0.0,200,0.17842650413513184,0.17969641607009526,0.19050960706504552,49000,3.2999452227273616,0.0
245,1.631699800491333,2.200657594443965,2.2797296610161597,6.085466945940899,0.5473953400499468,0.0,0.12104590147739051,0.1,0.1018381118774414,1.7004444599151611,0.050010055,2.4819338,2.332663340632263,0.0,0.043280176656390876,0.0,200,0.1700432300567627,0.5098937859682366,0.5069877649254638,49200,2.3244531958384385,0.0
246,1.7503414154052734,2.20797871339012,2.045947235949895,4.6921244010117125,0.15181768507985705,0.0,0.12046962531583975,0.1,0.10263800621032715,1.6995441913604736,0.04962923,1.2835711,2.320194877908049,0.0,0.04265716160904934,0.0,200,0.17714548110961914,0.47254913146460314,0.47143378561354515,49400,2.030704190514443,0.0
247,1.6427855491638184,1.8560578189810029,0.9114750551199569,2.9376658609769892,0.41160224949607355,0.0,0.13015051690899726,0.1,0.1014101505279541,1.7105426788330078,0.05023268,0.8382881,2.2737811720153442,0.0,0.035723318081183175,0.0,200,0.18012714385986328,0.23379779415236743,0.22393158770543165,49600,0.6861989270260834,0.0
248,1.920710563659668,2.5228871220783198,2.0975969500861633,6.022250435847116,0.4392321948974034,0.0,0.11843411722741125,0.1,0.09993839263916016,1.7080204486846924,0.050239477,2.157945,2.2986917670216416,0.0,0.049749225532343344,0.0,200,0.17699384689331055,0.4752849335243619,0.47483974256382494,49800,0.5433357077579597,0.0
249,1.9375898838043213,1.9636890348202918,1.1379560390467867,3.7661661899208734,0.7992230821949703,0.0,0.12212157912266484,0.1,0.0994269847869873,1.708832025527954,0.049868975,1.2557443,2.265191493801507,0.0,0.03861799336677392,0.0,200,0.17898821830749512,0.295514737599877,0.29320089741975713,50000,1.1863606455039248,0.0
250,1.8241474628448486,2.1831825112278063,2.0922630039480956,5.2941773345129,0.1677405514101871,0.0,0.12809491546930538,0.1,0.10433554649353027,1.710381031036377,0.049555406,1.5639136,2.256990595544137,0.0,0.04312330208717767,0.0,200,0.18599820137023926,0.5284258990314983,0.5270525368087837,50200,1.0922147790953116,0.0
251,1.8906347751617432,3.143789466578492,1.984764081311936,6.0199918578557,0.5575422510511339,0.0,0.12128386894671563,0.1,0.10198783874511719,1.7067041397094727,0.049847685,1.7085725,2.3456704826475727,0.0,0.06202177474861188,0.0,200,0.177170991897583,0.40241693468528744,0.3901356685893462,50400,1.1993053096227835,0.0
252,1.9274835586547852,1.2610451800606763,0.8513260285052534,2.716978971580493,0.5576837344822866,0.0,0.12891343549629378,0.1,0.10761070251464844,1.6957004070281982,0.050078336,1.2150196,2.237207952388883,0.0,0.024677558235169737,0.0,200,0.1756143569946289,0.6689998142319022,0.680588256189064,50600,1.008258321257162,0.0
253,1.9821460247039795,2.6908870882436418,2.1747842053690225,6.127586935941842,0.5856511821009026,0.0,0.12488756801279043,0.1,0.10097503662109375,1.6822466850280762,0.049470473,1.6149722,2.282575865974359,0.0,0.05236561022361272,0.0,200,0.17990803718566895,0.4395888071274237,0.4386016911298428,50800,1.116415221317254,0.0
254,1.884756326675415,1.2485289064038587,1.1868457770898548,3.240914400599615,0.10729332901396169,0.0,0.11926858646863861,0.1,0.10154199600219727,1.7100598812103271,0.049708556,1.4124215,2.1791711700173093,0.0,0.024286642641277074,0.0,200,0.18611645698547363,0.7784831818048703,0.7456935087362414,51000,0.9261656966337565,0.0
255,1.8915812969207764,2.118486067153433,1.4777042874452417,4.322122624398187,0.16485603853276012,0.0,0.1304496068663279,0.1,0.10252785682678223,1.7113642692565918,0.049894705,1.0569768,2.1731026597309215,0.0,0.04163004960308673,0.0,200,0.17937397956848145,0.39091381389884294,0.3888189251077604,51200,1.171133751382897,0.0
256,2.0038905143737793,1.4406020194821116,0.5704196455453882,2.338836912290851,0.8104174450875619,0.0,0.12749440151739502,0.1,0.10162043571472168,1.694936990737915,0.04965406,3.9212286,2.0998525957060408,0.0,0.028394310315940977,0.0,200,0.1792278289794922,0.32333337448736543,0.29731662090159033,51400,1.0686928737497028,0.0
257,1.9940659999847412,1.9836228983506063,1.5756380676388018,3.737098373913608,0.34775587019447357,0.0,0.12658650814581612,0.1,0.09697508811950684,1.7059996128082275,0.049620673,1.2522745,2.0882296259704973,0.0,0.03929917275455076,0.0,200,0.1844472885131836,0.42096968868842044,0.41794809599296656,51600,1.001711047287057,0.0
258,2.1480672359466553,1.8694358016040036,1.3205174090533303,4.0032360399790345,0.4098975738281714,0.0,0.12605727119437002,0.1,0.10220742225646973,1.7095723152160645,0.049890727,1.4863831,2.066350243533848,0.0,0.0361003760686256,0.0,200,0.17909526824951172,0.3334814803726057,0.3331110857846299,51800,0.8039677102257202,0.0
259,2.0770981311798096,2.5456591339838117,1.055028620077544,4.0052615461064685,1.1442272010526362,0.0,0.1326631232182127,0.1,0.10546517372131348,1.7104837894439697,0.049852848,1.0047576,2.1142811325788444,0.0,0.05037300003256424,0.0,200,0.17448139190673828,0.2525638764287392,0.24574289528646387,52000,1.9257709895628468,0.0
260,1.8450148105621338,2.968917037223037,0.34516492547305133,3.2985654745586412,2.3909741985547424,0.0,0.1243055309896152,0.1,0.10073328018188477,1.6781461238861084,0.049913388,1.3388617,2.199744723043264,0.0,0.05814431583712748,0.0,200,0.18447208404541016,0.17592899786508587,0.15031186873373223,52200,1.655332173919117,0.0
261,1.6738228797912598,3.1832071499489603,0.7519308531576574,3.7841488549024804,1.9071005306178646,0.0,0.13084557889870446,0.1,0.09932446479797363,1.672027349472046,0.050211944,1.0604479,2.2980909657338335,0.0,0.062393859688746875,0.0,200,0.17629528045654297,0.203483365879997,0.1664021577264077,52400,0.8036429257156493,0.0
262,1.7979044914245605,2.083502663287379,1.5744372503457689,4.6259634996817836,0.3817783206412623,0.0,0.12435124058654207,0.1,0.10138440132141113,1.68062424659729,0.049888898,1.4009784,2.276632135489188,0.0,0.040325125051882946,0.0,200,0.18636393547058105,0.40077160923983474,0.4097213613395171,52600,0.9262368922984332,0.0
263,1.9292569160461426,1.5193352423957747,1.201971750238758,3.484908500778076,0.21738584569951816,0.0,0.1272538651089673,0.1,0.10221672058105469,1.6902368068695068,0.04948999,3.5052881,2.200902446179847,0.0,0.02943188909614889,0.0,200,0.17502760887145996,0.5976514559607142,0.5952055894998733,52800,1.0189706066146926,0.0
264,1.90053391456604,2.24391049554655,1.413801286802019,3.7490509365975906,0.6224669182391209,0.0,0.12370516280816492,0.1,0.0999908447265625,1.7036066055297852,0.049545836,1.5009776,2.2052032511165174,0.0,0.04429787882270479,0.0,200,0.18122172355651855,0.3584078284757295,0.3447007608492975,53000,2.014391639124,0.0
265,1.9433233737945557,1.7916612227877515,1.4005074960575072,3.4553924514765413,0.3933626144349559,0.0,0.12489259783244448,0.1,0.10375738143920898,1.7131013870239258,0.05014076,1.3365657,2.163849048283641,0.0,0.03524233136182847,0.0,200,0.18139266967773438,0.40273031451535457,0.384271485319159,53200,2.1853262293525306,0.0
266,1.942061424255371,1.9065228838830632,1.3979963734606144,3.570253693101206,0.06986696856383415,0.0,0.12690700575540126,0.1,0.09883379936218262,1.7067739963531494,0.04976239,1.1267861,2.1381164318435832,0.0,0.037815109921332773,0.0,200,0.18526530265808105,0.4141976663946252,0.40308187714052574,53400,3.1495689017263895,0.0
267,1.961028814315796,1.462315215662112,0.8443733764710739,2.5912150277395973,0.24009657963379288,0.0,0.12391213289402632,0.1,0.10745882987976074,1.7270140647888184,0.049981963,1.0575769,2.070536310225436,0.0,0.02875445527587788,0.0,200,0.17915773391723633,0.45007152744792706,0.34090959123229964,53600,1.6655243758835203,0.0
268,1.7657756805419922,1.801575287600388,1.2829941365434598,3.9771336766830467,0.7649654137520208,0.0,0.12171252994461186,0.1,0.09804654121398926,1.678722620010376,0.049840394,2.1682703,2.0436402079629317,0.0,0.03577086525035544,0.0,200,0.1768631935119629,0.37574406643896585,0.3667258583418139,53800,1.7540642949062448,0.0
269,1.777726650238037,3.0486244805687197,2.2473796834401747,6.065375691392976,0.8751158866802041,0.0,0.12457988815483623,0.1,0.10406661033630371,1.6930112838745117,0.050193775,1.208485,2.1441386352235106,0.0,0.060284581324152535,0.0,200,0.17906618118286133,0.5457412458880054,0.5211626173485242,54000,0.5603083329742035,0.0
270,1.7689599990844727,0.7363452152252511,0.38685920279209735,1.2813915327878502,0.18725678568668938,0.0,0.12877525169709897,0.1,0.10109591484069824,1.7118735313415527,0.049776908,1.1996862,2.0033592932236846,0.0,0.014161044614029837,0.0,200,0.1849374771118164,1.7482348308905402,1.8167161663343714,54200,1.847530232062252,0.0
271,1.8714368343353271,2.6926287952167836,1.3794061042806627,4.282148288800489,0.49786429601033527,0.0,0.1257848488284384,0.1,0.10064888000488281,1.7229857444763184,0.050074458,1.0059987,2.0722862434229947,0.0,0.05224817703670983,0.0,200,0.1780850887298584,0.338203474512587,0.3209438531933985,54400,0.6746192418665186,0.0
272,1.9511349201202393,2.9394789935463805,1.293265486194942,4.609096418504007,1.0474969178279727,0.0,0.12329757273933674,0.1,0.10415840148925781,1.7174763679504395,0.049719058,2.1487734,2.1590055184353334,0.0,0.058620123327100274,0.0,200,0.1771228313446045,0.33831148822624907,0.3021719613816865,54600,0.5290882372224567,0.0
273,1.9102613925933838,1.5021686534989636,0.9453426030221602,3.0432701748053663,0.47950582059370117,0.0,0.11468586565167667,0.1,0.10492157936096191,1.713923454284668,0.049597654,1.8753412,2.0933218319416964,0.0,0.02958239767499997,0.0,200,0.18178248405456543,0.36889641355900255,0.4024182516343719,54800,0.2880221778170783,0.0
274,1.9260296821594238,1.7137388763487824,1.2729997559526625,3.483726561664691,0.46498214563473245,0.0,0.12482413209300247,0.1,0.10268044471740723,1.706200122833252,0.04954009,1.2779107,2.055363536382405,0.0,0.033562120454409025,0.0,200,0.17808198928833008,0.43993226873791014,0.442172006620952,55000,0.6052790962143276,0.0
275,1.796595573425293,2.388386273189565,0.8494485535601533,3.8380688331766604,1.6701949208706566,0.0,0.12773285366735743,0.1,0.10139656066894531,1.7070527076721191,0.049883638,1.2849327,2.0886658100631212,0.0,0.04654527782595447,0.0,200,0.17447662353515625,0.1563753913163267,0.1536582952817136,55200,0.5425314892151718,0.0
276,1.7165260314941406,1.3849517441957295,1.1645896809439513,3.2856188588652175,0.31956978848451895,0.0,0.12601922073217028,0.1,0.10168933868408203,1.7003920078277588,0.049701754,1.3654321,2.018294403476382,0.0,0.027598732707914013,0.0,200,0.18272066116333008,0.57194748756156,0.5616066539736494,55400,0.7836412299599737,0.0
277,1.8034758567810059,1.34757781579217,0.9594638851721621,2.9033960159643177,0.2869169129054453,0.0,0.11970736225148543,0.1,0.10176825523376465,1.692246913909912,0.049378,3.5491652,1.9512227447079609,0.0,0.026410943712230236,0.0,200,0.177018404006958,0.5585235108532683,0.508099195350417,55600,0.6095462243752852,0.0
278,2.0620689392089844,2.0450312682649914,0.8841434964014558,3.3851464912911715,1.1516850465435358,0.0,0.12786498891011863,0.1,0.1071023941040039,1.7110211849212646,0.050210357,1.8444934,1.960603597063664,0.0,0.04012159132577547,0.0,200,0.1784811019897461,0.201350321110995,0.20412283354573266,55800,0.6589006573323182,0.0
279,2.012389659881592,2.4156448733260216,1.4360053756052449,3.8737788843063314,0.1702006018697608,0.0,0.12685445381522487,0.1,0.10788774490356445,1.699310302734375,0.04987216,0.95609117,2.0061077246898997,0.0,0.046944081459690076,0.0,200,0.17235112190246582,0.30375392423770403,0.30433587300177817,56000,1.2862702319110892,0.0
280,1.8973274230957031,3.502266189793316,1.8523815395157097,6.054559765571628,0.8618155356919492,0.0,0.12441159797401956,0.1,0.10633611679077148,1.723510980606079,0.05013789,1.9213274,2.1557235712002414,0.0,0.06876153673064336,0.0,200,0.18184995651245117,0.3921068879120988,0.3717706453260832,56200,0.21166419627688518,0.0
281,1.9288921356201172,2.9406940640898287,2.244542487618897,6.501697654702618,0.7173519982832428,0.0,0.12441945419778822,0.1,0.10155725479125977,1.7236690521240234,0.049970716,1.6541781,2.2342206204892,0.0,0.05695210053242529,0.0,200,0.17992711067199707,0.4501387488888668,0.4205211727720693,56400,0.32417054317657046,0.0
282,2.177016019821167,2.274120233865785,0.9824806533727714,3.1692070239167416,0.7250304311329517,0.0,0.12338823553263992,0.1,0.10438132286071777,1.705845832824707,0.04962911,1.0663635,2.2382105818268587,0.0,0.04479800302602041,0.0,200,0.1795361042022705,0.18298013093883833,0.18644496779234554,56600,0.543257997131394,0.0
283,1.729355812072754,1.8707404286526341,1.0752024437080316,3.3377051422317736,0.44248233546398325,0.0,0.13107921748333717,0.1,0.1007986068725586,1.6973295211791992,0.05052837,1.755954,2.201463566509436,0.0,0.03696385575522482,0.0,200,0.17580485343933105,0.3390678724324728,0.3539366374193637,56800,0.6426956277702952,0.0
284,1.6585118770599365,2.2383164463874055,0.940560166963422,3.7004946338264486,1.081709322663717,0.0,0.13072256926683498,0.1,0.09797978401184082,1.6746468544006348,0.049713764,1.0680484,2.2051488544972333,0.0,0.043681477584055356,0.0,200,0.18155622482299805,0.1876485456841201,0.18581419182840608,57000,1.1828742088050999,0.0
285,1.8322288990020752,2.309152638965019,1.4495424380035289,4.162258222841561,0.39294742062599153,0.0,0.11997305503757799,0.1,0.10314369201660156,1.7239983081817627,0.049911495,1.2760428,2.215549232944012,0.0,0.045073287612964655,0.0,200,0.179548978805542,0.31914472083757667,0.31452623529818197,57200,0.8591908972250399,0.0
286,1.8975985050201416,1.6631117692891055,1.2575258496511912,3.7590176645875912,0.6401752232015357,0.0,0.12111836754843572,0.1,0.10283160209655762,1.7175891399383545,0.0497102,2.1307778,2.160305486578521,0.0,0.032762375924249125,0.0,200,0.18056058883666992,0.4878108944529335,0.45142368275637074,57400,1.1842336070077957,0.0
287,1.9618499279022217,2.97301462667732,1.3725775077826625,5.007297116399958,1.2342624964735538,0.0,0.1271441802947058,0.1,0.1005089282989502,1.7489712238311768,0.04954263,1.3909233,2.2415764005884014,0.0,0.05855134994749637,0.0,200,0.17955493927001953,0.2435440330312432,0.24714774400425987,57600,0.45878479687754664,0.0
288,1.8841094970703125,2.0993245014398396,1.1721181996023615,3.612579758929921,0.7890485352777628,0.0,0.12762904385311435,0.1,0.1023402214050293,1.6931805610656738,0.049734555,1.1716073,2.2273512106735454,0.0,0.04033668860079653,0.0,200,0.1790776252746582,0.2919237827701006,0.2912240248683844,57800,0.2699198790275581,0.0
289,1.8043396472930908,0.9637912692355275,0.6352610080996266,2.011253088310502,0.33845733696173624,0.0,0.12974703207188973,0.1,0.09909462928771973,1.6862568855285645,0.050448876,1.057254,2.1009952165297436,0.0,0.01870912653703362,0.0,200,0.1801753044128418,1.593473959949674,1.3768716045703526,58000,0.7586534764730583,0.0
290,1.8762521743774414,3.2347914490075635,1.2021418906892452,4.826971302652782,1.5902480794927714,0.0,0.12417615825928156,0.1,0.09597468376159668,1.7021093368530273,0.05082817,1.6619997,2.2143748397775256,0.0,0.06321708242886837,0.0,200,0.1809847354888916,0.22675675190127423,0.23306293081133073,58200,0.7851801754519295,0.0
291,1.7203257083892822,3.3076655511773736,2.067858791371475,6.608975482979724,0.8987934259494791,0.0,0.13045939926411204,0.1,0.10313916206359863,1.6932470798492432,0.04946194,1.502827,2.3237039109175104,0.0,0.06415960201991872,0.0,200,0.18456530570983887,0.3823221274652911,0.36025221000542096,58400,0.7316601370354069,0.0
292,1.7321414947509766,2.874394439884526,2.164937748948006,6.466935985485411,1.1527542859315836,0.0,0.1278955430056438,0.1,0.10187554359436035,1.7107985019683838,0.04962284,1.5268767,2.378772963814212,0.0,0.056503434211711306,0.0,200,0.17731785774230957,0.4391886157331127,0.4176090853314137,58600,1.4666451310954915,0.0
293,1.8269717693328857,1.2949095906466868,0.990434866972496,2.9676592175973315,0.3904754389832346,0.0,0.12528986790736119,0.1,0.09762787818908691,1.6877272129058838,0.049529914,1.9866453,2.2703866264974595,0.0,0.025554208734838917,0.0,200,0.1825251579284668,0.9937463472158355,1.0228354221241551,58800,1.3805348821891565,0.0
294,1.877148151397705,1.8146634221233093,1.2330953907469933,3.810096586236933,0.48518258244137097,0.0,0.12925577635803803,0.1,0.09902191162109375,1.699876308441162,0.050119046,1.9579251,2.2248143060600443,0.0,0.035674953166179864,0.0,200,0.17544841766357422,0.4225069903335686,0.387810953019481,59000,1.115205850423257,0.0
295,1.9455299377441406,3.178849088375425,1.0816059452054676,4.6093989749935425,2.1088176808618933,0.0,0.1263491984486288,0.1,0.10162210464477539,1.7090857028961182,0.04930787,1.3895007,2.3202177842915823,0.0,0.06225272350119543,0.0,200,0.1840810775756836,0.1683598573778666,0.172123399128393,59200,0.6809683880981748,0.0
296,1.8407461643218994,2.39510080783776,1.334427880629558,4.310451667503586,0.8938213259346933,0.0,0.1280642984162386,0.1,0.10624432563781738,1.719437599182129,0.04985023,1.1040928,2.3277060866462005,0.0,0.0474421697744703,0.0,200,0.1728522777557373,0.27168092792234994,0.2700825046078757,59400,1.3899792827997166,0.0
297,2.0122604370117188,3.5000158432983866,2.437988905268691,7.156736794849409,1.123513077488115,0.0,0.1259963907732743,0.1,0.10396599769592285,1.6985106468200684,0.04939148,5.8163395,2.444937062311419,0.0,0.06840353133495558,0.0,200,0.1753082275390625,0.4241786857441753,0.4091820541647841,59600,3.3776694334705435,0.0
298,1.842456579208374,1.949713108932323,1.3401993860874069,4.036844626738177,0.5939643538351058,0.0,0.13053559587565178,0.1,0.09877991676330566,1.690913200378418,0.050049715,1.3082639,2.3954146669735095,0.0,0.03865829555077801,0.0,200,0.17495369911193848,0.39113952922520456,0.40419451485932284,59800,1.4817032164367079,0.0
299,1.7700018882751465,1.7394554140930039,0.9137160667640949,3.2022568477375812,0.9359105469897634,0.0,0.1330542022387183,0.1,0.10231995582580566,1.716698408126831,0.049997665,1.2815125,2.3298187416854588,0.0,0.033219688480923895,0.0,200,0.179854154586792,0.4344397937217296,0.4002356481844088,60000,0.9823859802597034,0.0
300,1.8975474834442139,1.352410304050881,1.0232414723470151,2.574566183583975,0.3324508941263421,0.0,0.12561123322931692,0.1,0.10319828987121582,1.7161900997161865,0.049925156,2.0243683,2.232077897922001,0.0,0.026070589368522825,0.0,200,0.1769249439239502,0.7833242670703988,0.6639087383207641,60200,0.992697801352437,0.0
301,1.9640097618103027,2.5243049926662153,2.074281946549656,5.85795129928861,0.24140971760204633,0.0,0.12663899880890256,0.1,0.10435962677001953,1.7047433853149414,0.04989003,1.3771778,2.2613006073964224,0.0,0.04868954459406144,0.0,200,0.1820840835571289,0.413476851297913,0.4195202116352063,60400,0.6373266565383063,0.0
302,2.057553291320801,4.08641829594171,1.657464608624438,5.687568847470854,1.3772404845827566,0.0,0.13037076585145407,0.1,0.10042953491210938,1.7187495231628418,0.05022185,1.0041002,2.443812376250951,0.0,0.07954221505210547,0.0,200,0.17959976196289062,0.3381990573815798,0.3100548200760215,60600,0.9365682610218448,0.0
303,2.0604779720306396,1.3914669037592595,0.74160081327067,2.3007618093188524,0.23300745591099173,0.0,0.13077113643947613,0.1,0.10333871841430664,1.743483543395996,0.050000247,0.77772707,2.3385778290017822,0.0,0.027324389190241365,0.0,200,0.174393892288208,0.5909482705230551,0.6318802289475663,60800,1.8374803790604206,0.0
304,1.9956603050231934,2.0328998541117382,1.5707233056376508,4.118432296382758,0.4416285804194281,0.0,0.12561252324464608,0.1,0.10168886184692383,1.7076990604400635,0.050349716,1.066893,2.308010031512778,0.0,0.040365250235098196,0.0,200,0.1818835735321045,0.40669139237783375,0.3986383641035921,61000,1.5473406269933474,0.0
305,1.811955451965332,4.043550671017684,1.429495679021665,6.279031140991077,2.5190218822279427,0.0,0.12802056995741215,0.1,0.10178709030151367,1.699439525604248,0.04956378,1.2019246,2.4815640954632685,0.0,0.07937567150026033,0.0,200,0.18289542198181152,0.30290757746350516,0.281918881859714,61200,3.033716151421013,0.0
306,1.9649693965911865,3.6429327936777156,1.8665568770986725,5.4211694982144385,0.9793462040598889,0.0,0.1318310986563643,0.1,0.09765768051147461,1.686999797821045,0.05024803,0.9274167,2.597700965284713,0.0,0.07163322960201034,0.0,200,0.17229962348937988,0.3490161802881322,0.3106389335775066,61400,1.0674446172556196,0.0
307,1.954153060913086,3.0003268852030978,1.9803444850658694,5.406795649391966,0.8935559871759505,0.0,0.12010513112926637,0.1,0.1041877269744873,1.7050111293792725,0.04993177,1.4522789,2.637963557276552,0.0,0.05897313236327785,0.0,200,0.18235397338867188,0.3411228779312576,0.341224072503914,61600,1.9707817721785483,0.0
308,1.9747154712677002,4.643665142341671,2.6478741069170884,8.574783733481945,1.298468902276585,0.0,0.12559310161541454,0.1,0.1047658920288086,1.700531244277954,0.049116984,1.4627824,2.8385337157830643,0.0,0.09157333818391497,0.0,200,0.1849052906036377,0.35321143689883683,0.31515833474158716,61800,1.6023943504727713,0.0
309,2.064664840698242,1.9551849782219723,0.779366722712063,2.7421172019203652,0.724104174187162,0.0,0.1309300099289896,0.1,0.10404610633850098,1.69350266456604,0.050059285,0.834489,2.750198842026955,0.0,0.038323175381083534,0.0,200,0.1782083511352539,0.6949837229143664,0.7069353664759109,62000,1.335293562173521,0.0
310,1.9783117771148682,1.543831910634455,0.776834251138472,2.741237962194161,0.6925216691642799,0.0,0.13486830119543558,0.1,0.10083317756652832,1.7361781597137451,0.050384775,1.1582166,2.6295621488877052,0.0,0.0303368373953029,0.0,200,0.1873033046722412,1.3039881516019682,0.9178334032699141,62200,1.738835222443548,0.0
311,1.8038344383239746,4.0135876099238015,1.515495633509819,6.392177114047102,2.2015012885848773,0.0,0.1266974070413479,0.1,0.10080456733703613,1.6978418827056885,0.04971474,1.20259,2.7679646949913153,0.0,0.07862131318877744,0.0,200,0.17532587051391602,0.2157079631228987,0.23199962423829212,62400,1.4585161261585828,0.0
312,1.8281371593475342,3.887408076217186,1.5665855320162685,5.577347083466376,1.771893401027472,0.0,0.12862851413510318,0.1,0.10195565223693848,1.6989355087280273,0.04951104,1.221091,2.8799090331139023,0.0,0.07616112936548022,0.0,200,0.17721843719482422,0.21097696206496214,0.20361617189612694,62600,1.8213142586603823,0.0
313,1.9304680824279785,2.89157866774904,1.2237560985708955,4.309596440146065,0.9520398841747275,0.0,0.12895452702656082,0.1,0.10202407836914062,1.7167165279388428,0.050064467,1.1242546,2.881075996577416,0.0,0.05550542631894182,0.0,200,0.17975831031799316,0.2072436587991381,0.20462251430605347,62800,1.875417892236512,0.0
314,2.066744327545166,5.82888366551788,2.1448097883561097,9.21120893599387,3.796891232911655,0.0,0.13056027803656814,0.1,0.10599160194396973,1.7150750160217285,0.049722113,1.4513669,3.175856763471463,0.0,0.1147225089892939,0.0,200,0.17754149436950684,0.33115846726729664,0.27763210186886056,63000,1.2550997936676784,0.0
315,2.1675851345062256,3.0105785803785423,2.5923413986884074,6.248402280801941,0.3120748572461933,0.0,0.1270032253584132,0.1,0.10408544540405273,1.7164440155029297,0.050368518,0.918259,3.159328945162171,0.0,0.05975902799761665,0.0,200,0.18113446235656738,0.4666801949261212,0.49420228769727986,63200,1.117342174734832,0.0
316,1.993453025817871,4.550365715895598,0.6942479888835256,5.705066641387792,3.92010448574238,0.0,0.13934885948442188,0.1,0.09682416915893555,1.7046833038330078,0.05015904,1.3212181,3.298432622235514,0.0,0.09023735406848467,0.0,200,0.17376255989074707,0.08877457096733062,0.07741792847167726,63400,0.8153132716315953,0.0
317,2.0579967498779297,0.6306271596934738,0.49089407434884785,1.241479048830997,0.07249698793877521,0.0,0.13037983771208475,0.1,0.10037946701049805,1.6896188259124756,0.050062653,0.9691847,3.03165207598131,0.0,0.01220553121026497,0.0,200,0.1808764934539795,18.436486989487836,15.2634901056869,63600,1.3705382812975786,0.0
318,1.8662521839141846,2.460165821989456,1.6335114842044478,4.217517665363984,0.3334482658589583,0.0,0.12812815721531232,0.1,0.10173320770263672,1.688255786895752,0.04998377,1.2261643,2.9745034505821244,0.0,0.04830566499189547,0.0,200,0.1757030487060547,0.5328465685605627,0.4049330155506333,63800,1.2924235152748302,0.0
319,1.8472743034362793,3.062922623402506,2.0383740820715337,6.219941729484915,1.2401900741424354,0.0,0.12406641625909337,0.1,0.1008005142211914,1.6896581649780273,0.049825326,2.7865937,2.983345367864163,0.0,0.05948654664937667,0.0,200,0.18181848526000977,0.2944676604408593,0.2977287089500237,64000,1.1585721696970757,0.0
320,2.059048891067505,1.7184719408026838,1.0458897033790184,3.4540840288538877,0.7909813757355802,0.0,0.12008927647078507,0.1,0.09901690483093262,1.7270033359527588,0.050250813,1.2369746,2.856858025158015,0.0,0.03347945957990145,0.0,200,0.18115448951721191,0.5979270520076008,0.46821836142381285,64200,1.4605853527707555,0.0
321,2.015162706375122,3.4319298211842937,1.1424744113287055,4.598219984811134,1.8385805690145378,0.0,0.12931947052162734,0.1,0.10548925399780273,1.7348296642303467,0.050078746,1.1980581,2.914365204760643,0.0,0.06745290309991053,0.0,200,0.17587614059448242,0.19709758104122416,0.21688182716306068,64400,1.3552875548941437,0.0
322,1.9834871292114258,2.083445515351621,1.3901935532464542,4.3029978107021005,0.5094120336516892,0.0,0.1329152728960191,0.1,0.10254693031311035,1.7124543190002441,0.050664455,1.1313106,2.8312732358197414,0.0,0.04125201447908075,0.0,200,0.17715859413146973,0.35606178530529603,0.34591716869532624,64600,1.441914453398782,0.0
323,1.9647672176361084,2.948892662172493,1.5221594362054003,5.145018786384329,0.8553722285933834,0.0,0.1232939351902533,0.1,0.10053110122680664,1.7105450630187988,0.050026666,1.3559167,2.8430351784550165,0.0,0.05868967329553822,0.0,200,0.18192553520202637,0.25882095060785776,0.25764194402144924,64800,1.2413924650125792,0.0
324,1.8157620429992676,2.8284518636640468,2.2971100527906856,6.502999027097422,0.17015297313858407,0.0,0.12116646364201804,0.1,0.10083651542663574,1.7049121856689453,0.049083233,2.1602705,2.8415768469759195,0.0,0.05614476518857053,0.0,200,0.17812466621398926,0.43222873325396177,0.42339443851859604,65000,1.115953196079738,0.0
325,1.8751492500305176,3.231309011656203,1.450502570100707,4.710117943104935,1.6895827349884267,0.0,0.12926007051257368,0.1,0.10331439971923828,1.7367677688598633,0.050411697,1.0423572,2.880550063443948,0.0,0.06382623218175164,0.0,200,0.17963027954101562,0.22697622161757655,0.20621408014640102,65200,1.2152750265474894,0.0
326,1.8490452766418457,2.55524268412546,0.48120441276508175,3.239823702117791,1.987137572024397,0.0,0.1250155597170618,0.1,0.102783203125,1.7231013774871826,0.049954563,1.1055794,2.848019325512099,0.0,0.05036188225322858,0.0,200,0.18268775939941406,0.11505810698557006,0.11656412775507351,65400,1.4477780523896608,0.0
327,1.7439610958099365,2.219162368207308,1.3490044947394564,4.35571414570226,0.6426603551633505,0.0,0.12928475732925204,0.1,0.10518598556518555,1.7229416370391846,0.050027046,1.0495025,2.78513362978162,0.0,0.043036360117895925,0.0,200,0.18015480041503906,0.3278196552540381,0.32899821485478836,65600,0.8410795836100963,0.0
328,1.9281463623046875,5.165871049708796,0.8320231947613258,6.15695831937912,3.863762184646132,0.0,0.12697242767592148,0.1,0.10147666931152344,1.6938612461090088,0.05006839,0.8961459,3.0232073717743377,0.0,0.10100878206576681,0.0,200,0.17395281791687012,0.25664028062741334,0.2212525578004588,65800,1.5749258849969856,0.0
329,1.7689437866210938,2.161188782670637,1.624598429734959,3.9430874255551474,0.4181881050720818,0.0,0.12610791057305326,0.1,0.09769153594970703,1.7150013446807861,0.0500126,0.92441314,2.937005512863968,0.0,0.042654217080606724,0.0,200,0.18137574195861816,0.44878405446331915,0.4894787452913479,66000,1.465942751529773,0.0
330,1.8176243305206299,4.384940731811427,1.2082524520478035,5.635458623893495,2.3893340965198484,0.0,0.13205493189282,0.1,0.10475468635559082,1.7026457786560059,0.049338788,1.0056877,3.081799034758714,0.0,0.08613765476492294,0.0,200,0.17942595481872559,0.1698048712440642,0.14825160964546152,66200,1.79869508322279,0.0
331,1.8235409259796143,2.5591037003154153,1.1121596597333132,4.048025883328699,0.9189152958665215,0.0,0.1310567729682706,0.1,0.10151314735412598,1.7139558792114258,0.049873967,0.9062563,3.029529501314384,0.0,0.050212124102247006,0.0,200,0.17843961715698242,0.25181026142963264,0.26798192310245783,66400,1.4211728651524826,0.0
332,1.7080118656158447,3.6330342854829074,2.0101335356188494,5.105125854648828,0.20305958689868647,0.0,0.1280719005369299,0.1,0.10350465774536133,1.6997811794281006,0.04927945,0.7820799,3.0898799797312364,0.0,0.07162234337181068,0.0,200,0.17387843132019043,0.23349014866070683,0.22730103774316826,66600,2.1275046526885713,0.0
333,1.892028570175171,2.852701245388178,1.4582153336858987,5.267166839436169,1.4248782346827258,0.0,0.12029445043711531,0.1,0.0965423583984375,1.7249031066894531,0.04964045,1.307405,3.0661621062969306,0.0,0.055081709436826574,0.0,200,0.18300461769104004,0.23037917116283527,0.22534617161530937,66800,1.9397161250069022,0.0
334,1.8613934516906738,3.8669708330130637,1.4293407010291448,5.554270502789864,1.7024145592712847,0.0,0.13119520417585995,0.1,0.10306453704833984,1.689495325088501,0.050174043,0.88437027,3.1462429789685444,0.0,0.07671011151763102,0.0,200,0.17464065551757812,0.15025016625406082,0.1493646138474685,67000,2.5717108310398986,0.0
335,1.8881661891937256,4.688249126442869,2.7087554947677304,7.295691360067144,0.19821764946951145,0.0,0.12068195422400886,0.1,0.09981799125671387,1.7030398845672607,0.049977247,0.7352583,3.300443593715977,0.0,0.09145621664279929,0.0,200,0.18056416511535645,0.3089557694988386,0.29103183737879873,67200,2.1702636044859145,0.0
336,1.801924228668213,4.242988788892051,2.416966626226788,8.008183035050909,1.7323064638287353,0.0,0.12441327378232905,0.1,0.09841012954711914,1.6954176425933838,0.05039626,1.4819487,3.3946981132335843,0.0,0.08332649458918578,0.0,200,0.18096566200256348,0.2568415976343715,0.24331289388571878,67400,2.423286581144637,0.0
337,1.9127721786499023,1.8396697635191541,0.7735580725326506,2.638301418754245,0.9294428859021052,0.0,0.13053068021193137,0.1,0.10047316551208496,1.7166163921356201,0.050134435,0.92994857,3.2391952782621414,0.0,0.03664193621562052,0.0,200,0.17993831634521484,1.4980817153841715,1.3190960838400692,67600,2.1478572118999817,0.0
338,1.9372584819793701,3.8738737285879528,1.5219884421545942,6.115063945193466,1.9309738928317468,0.0,0.12076554952734209,0.1,0.10323786735534668,1.697777509689331,0.050147157,2.9318912,3.302663123294723,0.0,0.0770516778145715,0.0,200,0.17617273330688477,0.14329269960080723,0.14130438693668024,67800,1.4625692927937208,0.0
339,1.9671516418457031,2.00614403787266,1.1244632743541285,3.329358305277903,0.6027727550369272,0.0,0.12996822938806843,0.1,0.09802889823913574,1.725024938583374,0.050035104,0.8711572,3.173011214752517,0.0,0.03932844087684761,0.0,200,0.18055367469787598,0.6058118288229558,0.48977223995380065,68000,3.600000208933628,0.0
340,1.784620761871338,2.417231734951855,0.8410254497497553,3.6439868897418455,1.3006074456023744,0.0,0.12417425007187513,0.1,0.10320901870727539,1.6918513774871826,0.05099217,2.2592983,3.097433266772451,0.0,0.04737903965937691,0.0,200,0.1783607006072998,0.23111584515387115,0.19556656680544643,68200,1.8567994699343986,0.0
341,2.0299184322357178,2.3736953971872237,1.382023688772557,3.964181365406397,0.9274869593759656,0.0,0.12815526203952163,0.1,0.10761308670043945,1.709254503250122,0.049388975,1.0374825,3.0250594798139283,0.0,0.04646827671758082,0.0,200,0.1738436222076416,0.2574343906128998,0.23178661309051907,68400,2.0592471486709942,0.0
342,1.9915623664855957,2.8470721890249986,2.789602451797657,6.0816901018173795,0.07032664601822688,0.0,0.12164475602907372,0.1,0.10525321960449219,1.713820219039917,0.049973387,1.3031453,3.007260750735035,0.0,0.056663692222621125,0.0,200,0.19075703620910645,0.5120394800827316,0.5114863229802843,68600,2.073522237812857,0.0
343,1.937389612197876,2.5908902320281717,0.6828922378988412,3.371235058436871,1.5188970753110747,0.0,0.13660279985966403,0.1,0.10984063148498535,1.6951651573181152,0.049772903,1.3495675,2.965623698864349,0.0,0.049442879354547734,0.0,200,0.17553305625915527,0.16225170198682118,0.15814200163021758,68800,1.7363782454632635,0.0
344,2.088918924331665,3.966153624468375,2.120730594928536,6.874048612647591,0.9359261845571739,0.0,0.11569377409525128,0.1,0.10159778594970703,1.7253601551055908,0.049737114,14.271454,3.0656766914247515,0.0,0.07778974650391957,0.0,200,0.17932415008544922,0.3440431376097768,0.3184841585080125,69000,3.309238988189518,0.0
345,2.0140814781188965,4.960632726922246,3.14511742074888,8.249754752042557,0.39352577800891747,0.0,0.12346501549160566,0.1,0.10218429565429688,1.7071731090545654,0.049789622,1.1917647,3.2551722949745012,0.0,0.09709588811124813,0.0,200,0.18309879302978516,0.45032276462638154,0.40863171641182233,69200,3.3829271888393904,0.0
346,1.9865155220031738,4.500951959226205,1.6437590889901035,6.3995728591593215,2.7705212091226654,0.0,0.13245157034470917,0.1,0.10182738304138184,1.7163009643554688,0.05015796,1.0346866,3.3797502613996717,0.0,0.08918423887801182,0.0,200,0.17819666862487793,0.2482202010212429,0.1985998520205536,69400,3.6165632333404427,0.0
347,1.9369969367980957,3.158145160379719,2.183113905330175,6.444229610826968,0.8617355650410452,0.0,0.13545353341400118,0.1,0.1001894474029541,1.7020931243896484,0.050238766,1.5567582,3.3575897512976765,0.0,0.06248489032672054,0.0,200,0.17867660522460938,0.3766845822216126,0.40598680448864016,69600,3.7045321075706834,0.0
348,1.9836502075195312,3.1438779249119384,0.9530779487485181,4.2174028411825075,1.606560501151302,0.0,0.12259759070782533,0.1,0.10233187675476074,1.7240233421325684,0.04940333,1.3708669,3.336218568659103,0.0,0.06136534861462194,0.0,200,0.17924904823303223,0.14704678690862455,0.1539905519099134,69800,4.046445952676913,0.0
349,1.9353299140930176,2.5990507049232154,1.7063468952664997,4.957299938469919,0.14111312908739565,0.0,0.12856519153650442,0.1,0.10359859466552734,1.741328477859497,0.050679434,1.001341,3.2625017822855145,0.0,0.05161678015031317,0.0,200,0.17866921424865723,0.5013309600602955,0.4642585839721445,70000,4.399843882218292,0.0
350,1.9019312858581543,3.0648557699952583,2.502558273541,7.182443882335512,0.6800828125519189,0.0,0.1334011227171968,0.1,0.10450267791748047,1.7308166027069092,0.050159186,1.3847121,3.242737181056489,0.0,0.0609125058448346,0.0,200,0.17610573768615723,0.4393173175350888,0.4273121452817923,70200,6.4652156106072525,0.0
351,2.121260166168213,2.389069439213692,0.624221356282135,3.0099804207809533,1.374339892800942,0.0,0.125212518141452,0.1,0.10922431945800781,1.7064995765686035,0.05000327,1.0562569,3.157370406872209,0.0,0.04727446017366968,0.0,200,0.18312382698059082,0.27142159042721176,0.18785687126442044,70400,5.326519025157216,0.0
352,1.8146016597747803,1.210158064378589,0.9308315899599752,2.720044793659121,0.42141215490869616,0.0,0.12766141816385662,0.1,0.09396481513977051,1.2148196697235107,0.049837627,1.1240999,2.9626491726228474,0.0,0.023588667032126382,0.0,200,0.02113032341003418,1.8730964783787432,1.3652115562600609,70600,6.912919241427379,0.0
353,1.662062406539917,3.235493541331546,1.3784509180595115,4.861572783346377,1.242549031822201,0.0,0.1231368629653035,0.1,0.010767221450805664,0.06186819076538086,0.04996394,1.7390369,2.9899336094937174,0.0,0.0631627699923279,0.0,200,0.01630544662475586,0.21754210920637398,0.24386328732953932,70800,6.726618928145824,0.0
354,1.6496706008911133,2.8430652399088534,1.0028701596624885,4.560622421941348,2.0785578813376873,0.0,0.12669802770517746,0.1,0.009356498718261719,0.05443429946899414,0.048642233,2.3133547,2.975246772535231,0.0,0.056345186255016076,0.0,200,0.016209125518798828,0.13861783531901317,0.1401141073556718,71000,6.17398400332187,0.0
355,1.6381175518035889,3.420183496494873,2.2659132133412587,7.010699888570952,1.0025433635408485,0.0,0.12507197792004343,0.1,0.0028133392333984375,0.07278585433959961,0.050101023,1.8343291,3.0197404449311955,0.0,0.06763677243757123,0.0,200,0.019217729568481445,0.38740229069078774,0.3756431228415332,71200,10.188747696522572,0.0
356,1.7189505100250244,3.1097677536362793,1.6412953155762688,5.87343129706827,1.6543217527905525,0.0,0.12495779894053445,0.1,0.003065824508666992,0.0544276237487793,0.049711786,1.9190274,3.0287431758017043,0.0,0.0601889529225164,0.0,200,0.01709747314453125,0.23375924575709398,0.22162809585036333,71400,6.311419950055225,0.0
357,1.6876275539398193,2.290478006285371,1.2829534522028123,4.397942520060295,0.9930633332491775,0.0,0.12477625032113461,0.1,0.0035123825073242188,0.06596946716308594,0.05026044,1.3153709,2.9549166588500713,0.0,0.044520499340678685,0.0,200,0.01900196075439453,0.2634375409104502,0.2677586828393589,71600,4.825845332524616,0.0
358,2.1252429485321045,2.5842114502831595,1.11969569733525,3.8137519477326567,0.761341753739211,0.0,0.11978191948007359,0.1,0.0027816295623779297,0.05468416213989258,0.05004595,1.4221073,2.91784613799338,0.0,0.05122187889026225,0.0,200,0.016721725463867188,0.21826777532876784,0.21791566003680893,71800,5.157654430969489,0.0
359,1.6590218544006348,4.078412633035285,1.0065076023660677,5.5488197495280716,2.7220523016339477,0.0,0.12734102401734038,0.1,0.002889871597290039,0.05492353439331055,0.049619153,1.6019359,3.033902787497571,0.0,0.08035967586095022,0.0,200,0.020467519760131836,0.16659452184895043,0.15475049764383605,72000,7.537822795394637,0.0
360,1.6971285343170166,2.513130883334474,1.2976443036304992,3.9736372966205113,0.9851847031303229,0.0,0.13038339934450324,0.1,0.09740495681762695,1.407343864440918,0.050568257,1.0275083,2.9818255970812615,0.0,0.04929468041360664,0.0,200,0.018009424209594727,0.3006487939971702,0.30707476493802643,72200,7.221240921434923,0.0
361,1.6963543891906738,1.9516039287417857,0.7740758319177587,3.081616914842596,0.9746096305572579,0.0,0.1266629551138246,0.1,0.09921932220458984,1.6073949337005615,0.050216362,1.0050875,2.8788034302473138,0.0,0.038171406454982064,0.0,200,0.16667485237121582,0.35353241746413067,0.3271521959778022,72400,6.841067587159642,0.0
362,1.727046012878418,2.956365302726262,3.275358528582091,8.605816510669959,0.5867242794302971,0.0,0.130268222391283,0.1,0.0028769969940185547,0.05516171455383301,0.050501686,1.8511487,2.886559617495209,0.0,0.05783186830387721,0.0,200,0.0171356201171875,0.5577178042193162,0.558525174060731,72600,5.858958344431314,0.0
363,1.659416675567627,0.6313752904663369,0.3511051259200844,1.0013599682764087,0.12070313528587964,0.0,0.1269058216316753,0.1,0.002759218215942383,0.05251765251159668,0.049969014,0.9301827,2.661041184792322,0.0,0.012380094238708414,0.0,200,0.0183408260345459,8.925905843260244,7.439046341097876,72800,6.814934593854843,0.0
364,1.7077159881591797,3.4127928090096784,0.8606150334938606,4.752218437327765,2.4015599801690097,0.0,0.1267257777871375,0.1,0.0029790401458740234,0.054038286209106445,0.050258465,2.163681,2.7362163472140577,0.0,0.06733891183173668,0.0,200,0.017182588577270508,0.12347237204490333,0.14079339575727906,73000,6.772745382448009,0.0
365,1.689875602722168,2.6739550571362622,1.1352951381707714,3.4823337685676927,0.7254413703032122,0.0,0.12326599846557917,0.1,0.09335947036743164,0.41193294525146484,0.04990249,0.9207374,2.7299902182062783,0.0,0.05302735214341875,0.0,200,0.015956401824951172,0.20842592790734482,0.2080737435609388,73200,6.707876782019752,0.0
