Iter | Sampling Pol | Evaluation Pol | Best (Sampled) 
   0  0.03  0.03 -100000000.00 
   1  0.04  0.04  0.03 
   2  0.03  0.04  0.04 
   3  0.03  0.05  0.04 
   4  0.11  0.06  0.04 
   5  0.08  0.08  0.11 
   6  0.05  0.10  0.11 
   7  0.03  0.11  0.11 
   8  0.14  0.12  0.11 
   9  0.11  0.14  0.14 
  10  0.05  0.09  0.14 
  11  0.17  0.09  0.14 
  12  0.12  0.10  0.17 
  13  0.12  0.11  0.17 
  14  0.20  0.13  0.17 
  15  0.07  0.17  0.20 
  16  0.08  0.35  0.20 
  17  0.15  0.34  0.20 
  18  0.34  0.31  0.20 
  19  0.18  0.31  0.34 
  20  0.14  0.31  0.34 
  21  0.13  0.31  0.34 
  22  0.31  0.33  0.34 
  23  0.13  0.41  0.34 
  24  0.17  0.42  0.34 
  25  0.13  0.23  0.34 
  26  0.16  0.19  0.34 
  27  0.05  0.20  0.34 
  28  0.08  0.21  0.34 
  29  0.14  0.23  0.34 
  30  0.16  0.25  0.34 
  31  0.22  0.22  0.34 
  32  0.15  0.33  0.34 
  33  0.25  0.32  0.34 
  34  0.16  0.38  0.34 
  35  0.22  0.30  0.34 
  36  0.18  0.33  0.34 
  37  0.18  0.34  0.34 
  38  0.16  0.50  0.34 
  39  0.21  0.43  0.34 
  40  0.25  0.44  0.34 
  41  0.31  0.64  0.34 
  42  0.21  0.44  0.34 
  43  0.45  0.45  0.34 
  44  0.35  0.67  0.45 
  45  0.12  0.68  0.45 
  46  0.17  0.58  0.45 
  47  0.25  0.53  0.45 
  48  0.45  0.97  0.45 
  49  0.26  0.79  0.45 
  50  0.20  0.84  0.45 
  51  0.21  0.67  0.45 
  52  0.20  0.63  0.45 
  53  0.18  0.62  0.45 
  54  0.31  1.06  0.45 
  55  0.23  1.07  0.45 
  56  0.38  0.73  0.45 
  57  0.23  0.67  0.45 
  58  0.27  1.40  0.45 
  59  0.18  0.92  0.45 
  60  0.32  0.68  0.45 
  61  0.22  0.39  0.45 
  62  0.35  0.46  0.45 
  63  0.23  0.50  0.45 
  64  0.23  0.53  0.45 
  65  0.46  0.53  0.45 
  66  0.27  0.51  0.46 
  67  0.20  0.44  0.46 
  68  0.48  0.54  0.46 
  69  0.39  0.45  0.48 
  70  0.27  0.39  0.48 
  71  0.26  0.45  0.48 
  72  0.52  0.33  0.48 
  73  0.59  0.42  0.52 
  74  0.25  0.58  0.59 
  75  0.24  0.48  0.59 
  76  0.53  0.76  0.59 
  77  0.55  0.74  0.59 
  78  0.30  0.62  0.59 
  79  0.31  0.51  0.59 
  80  0.41  0.77  0.59 
  81  0.62  0.46  0.59 
  82  0.37  0.77  0.62 
  83  0.66  0.40  0.62 
  84  0.42  0.40  0.66 
  85  0.63  1.00  0.66 
  86  0.69  1.32  0.66 
  87  0.35  1.02  0.69 
  88  0.60  1.07  0.69 
  89  0.55  1.35  0.69 
  90  0.39  0.86  0.69 
  91  0.29  0.68  0.69 
  92  0.34  0.83  0.69 
  93  0.38  0.59  0.69 
  94  0.37  0.45  0.69 
  95  0.23  0.36  0.69 
  96  0.53  0.38  0.69 
  97  0.59  0.44  0.69 
  98  0.41  0.41  0.69 
  99  0.55  0.42  0.69 
 100  0.32  0.53  0.69 
 101  0.47  0.39  0.69 
 102  0.74  0.49  0.69 
 103  0.81  0.36  0.74 
 104  0.43  0.36  0.81 
 105  0.58  0.31  0.81 
 106  0.52  0.31  0.81 
 107  0.53  0.29  0.81 
 108  0.61  0.32  0.81 
 109  0.20  0.36  0.81 
 110  0.41  0.44  0.81 
 111  0.59  0.44  0.81 
 112  0.63  0.32  0.81 
 113  0.33  0.73  0.81 
 114  0.54  0.43  0.81 
 115  0.50  0.64  0.81 
 116  0.46  0.69  0.81 
 117  0.51  0.56  0.81 
 118  0.71  0.81  0.81 
 119  0.77  0.72  0.81 
 120  0.50  1.13  0.81 
 121  0.57  0.92  0.81 
 122  0.63  0.72  0.81 
 123  0.29  0.51  0.81 
 124  0.38  0.79  0.81 
 125  0.80  1.47  0.81 
 126  0.46  0.41  0.81 
 127  0.67  0.52  0.81 
 128  0.55  0.71  0.81 
 129  0.45  1.00  0.81 
 130  0.38  0.79  0.81 
 131  0.73  0.60  0.81 
 132  0.75  0.94  0.81 
 133  0.64  0.82  0.81 
 134  0.45  0.82  0.81 
 135  0.42  1.23  0.81 
 136  0.73  1.10  0.81 
 137  0.47  0.91  0.81 
 138  0.69  0.92  0.81 
 139  0.51  0.85  0.81 
 140  0.91  0.83  0.81 
 141  0.51  0.66  0.91 
 142  0.40  0.60  0.91 
 143  0.71  0.60  0.91 
 144  0.36  0.90  0.91 
 145  0.65  0.86  0.91 
 146  0.64  0.47  0.91 
 147  0.45  0.33  0.91 
 148  0.86  0.40  0.91 
 149  0.45  0.60  0.91 
 150  0.70  0.94  0.91 
 151  0.58  1.00  0.91 
 152  0.63  1.26  0.91 
 153  0.41  1.21  0.91 
 154  0.69  0.94  0.91 
 155  0.78  0.52  0.91 
 156  0.83  0.62  0.91 
 157  0.75  1.02  0.91 
 158  0.59  0.87  0.91 
 159  0.77  1.01  0.91 
 160  0.82  1.30  0.91 
 161  0.43  1.29  0.91 
 162  0.55  1.07  0.91 
 163  0.42  0.65  0.91 
 164  0.78  0.68  0.91 
 165  0.61  0.77  0.91 
 166  0.87  0.75  0.91 
 167  0.53  1.32  0.91 
 168  0.52  0.84  0.91 
 169  0.83  0.85  0.91 
 170  1.00  1.10  0.91 
 171  0.74  1.31  1.00 
 172  0.63  1.15  1.00 
 173  1.06  0.98  1.00 
 174  0.83  0.92  1.06 
 175  0.44  1.02  1.06 
 176  0.66  1.52  1.06 
 177  0.70  1.58  1.06 
 178  0.66  1.50  1.06 
 179  0.63  1.24  1.06 
 180  0.39  1.12  1.06 
 181  0.57  1.01  1.06 
 182  0.63  0.77  1.06 
 183  0.70  1.89  1.06 
 184  0.58  1.07  1.06 
 185  0.63  0.77  1.06 
 186  1.05  0.73  1.06 
 187  0.55  0.79  1.06 
 188  0.78  2.33  1.06 
 189  0.73  1.97  1.06 
 190  0.67  0.83  1.06 
 191  0.54  0.72  1.06 
 192  0.51  0.88  1.06 
 193  0.70  1.31  1.06 
 194  0.41  0.62  1.06 
 195  0.64  0.52  1.06 
 196  0.47  0.50  1.06 
 197  0.62  0.44  1.06 
 198  0.60  0.42  1.06 
 199  0.67  0.45  1.06 
 200  0.75  0.50  1.06 
 201  0.95  0.80  1.06 
 202  0.64  0.44  1.06 
 203  0.35  0.59  1.06 
 204  0.78  0.87  1.06 
 205  0.89  0.39  1.06 
 206  0.71  0.45  1.06 
 207  0.91  0.47  1.06 
 208  0.68  0.47  1.06 
 209  0.50  0.92  1.06 
 210  1.45  1.08  1.06 
 211  1.01  0.48  1.45 
 212  0.39  0.77  1.45 
 213  0.58  0.56  1.45 
 214  0.62  1.13  1.45 
 215  0.80  0.51  1.45 
 216  0.71  1.36  1.45 
 217  1.18  1.13  1.45 
 218  0.52  0.71  1.45 
 219  0.69  0.84  1.45 
 220  0.47  0.51  1.45 
 221  0.55  1.05  1.45 
 222  1.02  1.19  1.45 
 223  0.80  1.08  1.45 
 224  0.73  1.20  1.45 
 225  0.55  1.04  1.45 
 226  0.73  1.40  1.45 
 227  1.46  1.66  1.45 
 228  0.60  1.29  1.46 
 229  0.36  1.29  1.46 
 230  0.59  1.09  1.46 
 231  0.27  1.28  1.46 
 232  0.86  1.32  1.46 
 233  1.08  0.48  1.46 
 234  0.74  0.45  1.46 
 235  0.71  0.41  1.46 
 236  0.74  0.37  1.46 
 237  0.72  0.42  1.46 
 238  0.47  0.46  1.46 
 239  0.66  0.37  1.46 
 240  0.60  0.42  1.46 
 241  0.67  0.55  1.46 
 242  0.94  0.44  1.46 
 243  0.80  0.38  1.46 
 244  0.64  0.39  1.46 
 245  0.85  1.38  1.46 
 246  0.62  1.45  1.46 
 247  1.06  0.53  1.46 
 248  0.66  0.43  1.46 
 249  0.89  0.42  1.46 
 250  0.46  0.42  1.46 
 251  0.60  0.44  1.46 
 252  0.86  0.93  1.46 
 253  0.77  0.40  1.46 
 254  0.62  0.38  1.46 
 255  0.86  0.45  1.46 
 256  0.82  0.37  1.46 
 257  0.67  0.34  1.46 
 258  0.50  0.42  1.46 
 259  0.77  0.42  1.46 
 260  0.68  0.40  1.46 
 261  1.34  0.39  1.46 
 262  1.10  0.35  1.46 
 263  0.34  0.31  1.46 
 264  0.84  0.43  1.46 
 265  0.77  0.36  1.46 
 266  1.30  0.41  1.46 
 267  0.69  0.42  1.46 
 268  1.01  0.40  1.46 
 269  1.00  0.52  1.46 
 270  0.47  0.43  1.46 
 271  0.95  0.72  1.46 
 272  0.85  0.83  1.46 
 273  0.55  1.38  1.46 
 274  0.97  1.35  1.46 
 275  0.92  2.26  1.46 
 276  1.28  2.28  1.46 
 277  0.69  2.24  1.46 
 278  0.54  0.96  1.46 
 279  0.78  0.61  1.46 
 280  0.84  0.87  1.46 
 281  1.05  1.36  1.46 
 282  0.93  0.34  1.46 
 283  1.17  0.52  1.46 
 284  1.18  0.50  1.46 
 285  1.07  0.73  1.46 
 286  1.32  0.49  1.46 
 287  0.90  0.65  1.46 
 288  0.77  0.45  1.46 
 289  1.18  0.65  1.46 
 290  0.75  0.89  1.46 
 291  1.40  0.96  1.46 
 292  0.73  1.18  1.46 
 293  1.31  1.27  1.46 
 294  0.76  1.27  1.46 
 295  1.03  1.14  1.46 
 296  1.15  1.64  1.46 
 297  0.75  2.09  1.46 
 298  0.74  1.49  1.46 
 299  0.81  1.59  1.46 
 300  0.44  1.62  1.46 
 301  0.72  1.54  1.46 
 302  0.95  1.38  1.46 
 303  1.34  1.14  1.46 
 304  1.10  0.78  1.46 
 305  1.19  0.73  1.46 
 306  0.51  0.84  1.46 
 307  0.94  0.87  1.46 
 308  1.41  0.74  1.46 
 309  1.67  0.54  1.46 
 310  0.88  0.86  1.67 
 311  1.23  0.86  1.67 
 312  1.29  0.77  1.67 
 313  0.69  0.61  1.67 
 314  1.67  0.79  1.67 
 315  1.26  0.84  1.67 
 316  1.33  0.88  1.67 
 317  0.90  0.86  1.67 
 318  0.93  0.75  1.67 
 319  0.75  0.92  1.67 
 320  0.90  0.92  1.67 
 321  1.04  1.00  1.67 
 322  0.70  0.93  1.67 
 323  1.39  0.94  1.67 
 324  1.22  0.88  1.67 
 325  0.96  0.99  1.67 
 326  1.46  0.95  1.67 
 327  0.91  0.85  1.67 
 328  1.09  1.06  1.67 
 329  0.70  1.00  1.67 
 330  1.35  1.04  1.67 
 331  0.86  1.18  1.67 
 332  1.13  1.04  1.67 
 333  1.16  1.04  1.67 
 334  1.15  0.93  1.67 
 335  0.73  1.10  1.67 
 336  1.05  1.06  1.67 
 337  1.10  0.84  1.67 
 338  0.74  1.12  1.67 
 339  1.22  1.11  1.67 
 340  1.06  1.13  1.67 
 341  1.51  1.09  1.67 
 342  0.75  0.67  1.67 
 343  1.64  0.90  1.67 
 344  0.78  0.76  1.67 
 345  1.47  0.69  1.67 
 346  0.60  0.70  1.67 
 347  1.31  1.06  1.67 
 348  1.73  0.57  1.67 
 349  1.46  0.98  1.73 
 350  1.01  0.96  1.73 
 351  1.38  0.85  1.73 
 352  1.47  0.84  1.73 
 353  1.09  0.97  1.73 
 354  0.94  0.93  1.73 
 355  1.25  0.34  1.73 
 356  1.40  0.91  1.73 
 357  1.43  0.34  1.73 
 358  1.48  0.81  1.73 
 359  1.48  0.26  1.73 
 360  1.01  0.94  1.73 
 361  0.96  1.13  1.73 
 362  0.72  1.10  1.73 
 363  0.72  0.46  1.73 
 364  0.78  0.26  1.73 
 365  1.97  0.37  1.73 
 366  2.06  0.39  1.97 
 367  1.44  0.42  2.06 
 368  1.34  0.32  2.06 
 369  0.94  0.27  2.06 
 370  1.59  0.22  2.06 
 371  0.81  0.24  2.06 
 372  0.83  0.21  2.06 
 373  0.99  0.40  2.06 
 374  0.73  0.22  2.06 
 375  0.86  0.39  2.06 
 376  0.69  0.47  2.06 
 377  1.82  0.77  2.06 
 378  1.09  0.76  2.06 
 379  0.72  0.32  2.06 
 380  0.95  0.23  2.06 
 381  0.50  0.29  2.06 
 382  0.87  0.42  2.06 
 383  1.32  0.32  2.06 
 384  1.05  0.34  2.06 
 385  0.91  0.43  2.06 
 386  1.95  0.84  2.06 
 387  0.63  0.50  2.06 
 388  1.36  1.07  2.06 
 389  0.79  1.24  2.06 
 390  0.92  0.83  2.06 
 391  0.61  0.67  2.06 
 392  0.72  0.39  2.06 
 393  1.36  0.40  2.06 
 394  0.89  0.74  2.06 
 395  0.86  0.85  2.06 
 396  1.06  0.66  2.06 
 397  1.04  0.82  2.06 
 398  1.72  0.73  2.06 
 399  0.95  0.91  2.06 
 400  0.88  0.88  2.06 
 401  1.20  0.57  2.06 
 402  1.04  0.53  2.06 
 403  0.96  0.40  2.06 
 404  1.22  0.31  2.06 
 405  1.41  0.35  2.06 
 406  1.34  0.32  2.06 
 407  1.00  0.63  2.06 
 408  1.05  0.37  2.06 
 409  1.18  0.55  2.06 
 410  1.56  0.71  2.06 
 411  0.80  0.62  2.06 
 412  1.98  0.62  2.06 
 413  0.90  0.74  2.06 
 414  0.75  0.60  2.06 
 415  1.48  0.73  2.06 
 416  1.51  0.76  2.06 
 417  1.51  1.18  2.06 
 418  0.64  0.79  2.06 
 419  1.07  1.03  2.06 
 420  1.55  1.13  2.06 
 421  1.57  0.93  2.06 
 422  0.80  0.89  2.06 
 423  0.69  0.82  2.06 
 424  0.79  0.84  2.06 
 425  0.82  0.64  2.06 
 426  1.40  1.50  2.06 
 427  1.60  0.80  2.06 
 428  1.35  0.71  2.06 
 429  1.43  1.04  2.06 
 430  0.66  1.81  2.06 
 431  1.67  1.80  2.06 
 432  1.61  1.81  2.06 
 433  0.94  1.72  2.06 
 434  0.89  1.73  2.06 
 435  0.99  1.68  2.06 
 436  1.23  1.32  2.06 
 437  0.98  1.43  2.06 
 438  1.31  1.29  2.06 
 439  1.02  1.13  2.06 
 440  0.96  1.34  2.06 
 441  1.26  1.20  2.06 
 442  1.55  1.23  2.06 
 443  1.93  1.33  2.06 
 444  1.28  1.45  2.06 
 445  0.98  1.31  2.06 
 446  0.94  1.45  2.06 
 447  1.52  1.67  2.06 
 448  1.48  1.48  2.06 
 449  1.27  1.53  2.06 
 450  1.93  1.39  2.06 
 451  0.74  1.48  2.06 
 452  1.74  1.44  2.06 
 453  0.86  1.49  2.06 
 454  0.97  1.53  2.06 
 455  1.55  1.45  2.06 
 456  1.68  1.21  2.06 
 457  1.71  1.11  2.06 
 458  1.06  1.76  2.06 
 459  0.85  1.51  2.06 
 460  1.32  1.77  2.06 
 461  1.36  1.72  2.06 
 462  1.17  1.29  2.06 
 463  1.15  0.93  2.06 
 464  1.32  1.05  2.06 
 465  1.58  1.44  2.06 
 466  1.45  1.48  2.06 
 467  1.32  1.28  2.06 
 468  1.23  1.00  2.06 
 469  0.81  0.98  2.06 
 470  1.13  1.40  2.06 
 471  0.43  0.95  2.06 
 472  0.76  1.02  2.06 
 473  1.95  0.87  2.06 
 474  1.11  1.17  2.06 
 475  1.30  1.11  2.06 
 476  1.11  0.92  2.06 
 477  0.81  0.87  2.06 
 478  1.60  1.15  2.06 
 479  1.15  0.81  2.06 
 480  0.76  0.98  2.06 
 481  1.07  1.27  2.06 
 482  1.37  1.21  2.06 
 483  1.55  1.66  2.06 
 484  1.28  1.26  2.06 
 485  1.15  1.31  2.06 
 486  1.50  1.37  2.06 
 487  1.57  0.80  2.06 
 488  0.86  0.44  2.06 
 489  1.19  0.83  2.06 
 490  1.64  0.90  2.06 
 491  1.63  0.90  2.06 
 492  0.81  1.04  2.06 
 493  1.32  1.26  2.06 
 494  1.22  1.24  2.06 
 495  1.09  1.33  2.06 
 496  0.97  1.56  2.06 
 497  1.03  1.35  2.06 
 498  1.54  0.88  2.06 
 499  1.64  0.75  2.06 
 500  1.68  0.59  2.06 
 501  0.76  0.92  2.06 
 502  1.50  1.50  2.06 
 503  1.76  0.91  2.06 
 504  0.89  1.55  2.06 
 505  1.34  1.83  2.06 
 506  1.23  1.78  2.06 
 507  1.43  1.42  2.06 
 508  1.41  1.16  2.06 
 509  1.43  0.71  2.06 
 510  1.31  0.71  2.06 
 511  1.56  0.69  2.06 
 512  1.26  0.29  2.06 
 513  1.05  0.91  2.06 
 514  1.71  1.36  2.06 
 515  1.74  0.99  2.06 
 516  0.69  1.01  2.06 
 517  0.69  0.57  2.06 
 518  1.92  1.04  2.06 
 519  1.88  1.00  2.06 
 520  1.19  1.19  2.06 
 521  1.84  1.02  2.06 
 522  1.31  1.09  2.06 
 523  1.41  1.26  2.06 
 524  1.07  1.28  2.06 
 525  0.85  1.05  2.06 
 526  1.68  1.08  2.06 
 527  1.47  0.97  2.06 
 528  0.82  1.02  2.06 
 529  0.73  1.04  2.06 
 530  1.69  0.98  2.06 
 531  1.42  0.99  2.06 
 532  1.39  1.09  2.06 
 533  0.92  0.40  2.06 
 534  1.60  0.15  2.06 
 535  0.66  1.06  2.06 
 536  1.38  1.37  2.06 
 537  1.27  1.31  2.06 
 538  2.24  0.95  2.06 
 539  0.86  0.96  2.24 
 540  1.42  1.05  2.24 
 541  1.48  0.86  2.24 
 542  1.02  0.93  2.24 
 543  1.29  0.94  2.24 
 544  1.42  1.35  2.24 
 545  1.17  1.15  2.24 
 546  1.19  1.40  2.24 
 547  0.59  1.35  2.24 
 548  1.11  2.73  2.24 
 549  1.47  1.08  2.24 
 550  1.49  0.70  2.24 
 551  1.36  0.68  2.24 
 552  1.14  0.73  2.24 
 553  0.86  0.65  2.24 
 554  1.15  0.85  2.24 
 555  0.86  1.06  2.24 
 556  1.09  1.02  2.24 
 557  1.63  1.10  2.24 
 558  1.54  2.89  2.24 
 559  0.65  2.15  2.24 
 560  1.15  2.24  2.24 
 561  1.44  1.95  2.24 
 562  1.84  1.68  2.24 
 563  0.89  2.84  2.24 
 564  1.42  3.21  2.24 
 565  1.52  3.17  2.24 
 566  0.83  2.26  2.24 
 567  1.14  1.62  2.24 
 568  2.51  2.13  2.24 
 569  0.65  0.88  2.51 
 570  1.03  0.84  2.51 
 571  1.81  0.86  2.51 
 572  0.67  0.78  2.51 
 573  1.52  0.80  2.51 
 574  1.51  0.94  2.51 
 575  1.69  1.53  2.51 
 576  0.96  1.35  2.51 
 577  1.20  1.45  2.51 
 578  1.42  1.27  2.51 
 579  1.97  1.55  2.51 
 580  2.17  1.19  2.51 
 581  1.46  1.54  2.51 
 582  2.29  1.08  2.51 
 583  1.84  1.79  2.51 
 584  1.14  1.07  2.51 
 585  1.28  1.01  2.51 
 586  2.16  1.06  2.51 
 587  1.72  1.10  2.51 
 588  2.19  0.99  2.51 
 589  1.28  1.92  2.51 
 590  1.44  1.61  2.51 
 591  0.90  2.44  2.51 
 592  1.03  2.27  2.51 
 593  1.02  2.07  2.51 
 594  0.95  2.36  2.51 
 595  1.01  2.23  2.51 
 596  1.07  3.48  2.51 
 597  1.78  1.43  2.51 
 598  0.97  1.79  2.51 
 599  1.50  1.53  2.51 
 600  1.22  1.68  2.51 
 601  1.53  1.40  2.51 
 602  2.04  1.59  2.51 
 603  1.76  1.63  2.51 
 604  1.02  1.68  2.51 
 605  1.57  2.13  2.51 
 606  1.35  2.24  2.51 
 607  1.45  1.97  2.51 
 608  1.08  2.09  2.51 
 609  2.42  1.69  2.51 
 610  0.95  2.39  2.51 
 611  1.25  2.67  2.51 
 612  2.07  1.88  2.51 
 613  1.25  1.86  2.51 
 614  1.45  2.21  2.51 
 615  2.55  2.24  2.51 
 616  2.17  3.11  2.55 
 617  1.77  1.57  2.55 
 618  1.46  3.48  2.55 
 619  1.53  3.08  2.55 
 620  1.48  2.28  2.55 
 621  1.27  2.79  2.55 
 622  0.79  1.67  2.55 
 623  1.93  2.58  2.55 
 624  1.97  1.82  2.55 
 625  1.39  2.13  2.55 
 626  1.03  2.62  2.55 
 627  1.17  3.04  2.55 
 628  1.47  3.48  2.55 
 629  1.25  1.89  2.55 
 630  1.01  1.76  2.55 
 631  1.68  2.01  2.55 
 632  1.10  1.82  2.55 
 633  1.44  2.06  2.55 
 634  1.73  1.86  2.55 
 635  1.90  2.58  2.55 
 636  1.34  2.87  2.55 
 637  1.08  2.17  2.55 
 638  1.17  2.59  2.55 
 639  1.47  2.27  2.55 
 640  1.07  1.16  2.55 
 641  1.38  1.50  2.55 
 642  1.83  2.59  2.55 
 643  1.16  3.30  2.55 
 644  2.04  2.81  2.55 
 645  0.75  3.19  2.55 
 646  1.43  2.70  2.55 
 647  0.81  3.41  2.55 
 648  1.70  2.05  2.55 
 649  1.79  3.31  2.55 
 650  1.81  2.36  2.55 
 651  2.20  2.21  2.55 
 652  1.35  2.32  2.55 
 653  0.81  2.48  2.55 
 654  0.98  2.64  2.55 
 655  1.48  1.05  2.55 
 656  1.16  2.22  2.55 
 657  2.36  1.49  2.55 
 658  2.08  3.45  2.55 
 659  1.58  1.12  2.55 
 660  1.34  2.70  2.55 
 661  1.73  2.36  2.55 
 662  1.88  2.98  2.55 
 663  2.06  3.15  2.55 
 664  1.50  2.25  2.55 
 665  1.31  2.20  2.55 
 666  0.60  2.95  2.55 
 667  0.99  2.01  2.55 
 668  2.18  2.76  2.55 
 669  1.74  2.63  2.55 
 670  1.78  2.57  2.55 
 671  2.14  1.76  2.55 
 672  1.34  2.04  2.55 
 673  1.52  2.05  2.55 
 674  1.14  1.57  2.55 
 675  1.14  2.92  2.55 
 676  1.53  2.40  2.55 
 677  1.69  2.95  2.55 
 678  1.87  2.41  2.55 
 679  1.98  2.91  2.55 
 680  1.36  2.43  2.55 
 681  1.66  2.54  2.55 
 682  1.38  2.15  2.55 
 683  1.23  1.45  2.55 
 684  2.14  1.59  2.55 
 685  1.04  0.78  2.55 
 686  1.71  1.50  2.55 
 687  0.72  1.30  2.55 
 688  1.38  2.03  2.55 
 689  1.46  1.22  2.55 
 690  1.73  1.21  2.55 
 691  0.91  0.66  2.55 
 692  1.81  1.09  2.55 
 693  0.44  1.32  2.55 
 694  1.51  0.75  2.55 
 695  1.52  2.01  2.55 
 696  2.10  3.17  2.55 
 697  1.24  1.86  2.55 
 698  1.94  2.97  2.55 
 699  1.79  3.51  2.55 
 700  2.03  2.44  2.55 
 701  1.28  1.77  2.55 
 702  0.71  3.17  2.55 
 703  1.03  1.56  2.55 
 704  1.70  3.07  2.55 
 705  1.81  1.73  2.55 
 706  2.06  2.40  2.55 
 707  1.99  3.08  2.55 
 708  2.30  1.11  2.55 
 709  1.81  2.32  2.55 
 710  1.61  2.18  2.55 
 711  1.95  2.80  2.55 
 712  0.77  0.85  2.55 
 713  1.89  1.14  2.55 
 714  2.10  1.35  2.55 
 715  1.33  1.51  2.55 
 716  1.08  1.07  2.55 
 717  2.18  1.17  2.55 
 718  1.89  1.38  2.55 
 719  1.76  1.49  2.55 
 720  1.97  1.28  2.55 
 721  2.58  2.07  2.55 
 722  1.56  1.51  2.58 
 723  2.53  1.74  2.58 
 724  2.13  2.33  2.58 
 725  1.75  1.99  2.58 
 726  1.33  1.51  2.58 
 727  1.07  1.89  2.58 
 728  1.15  2.78  2.58 
 729  1.00  1.50  2.58 
 730  1.61  1.48  2.58 
 731  1.86  1.42  2.58 
 732  0.74  1.52  2.58 
 733  1.34  1.56  2.58 
 734  0.74  1.44  2.58 
 735  1.69  1.68  2.58 
 736  1.60  2.39  2.58 
 737  1.21  1.76  2.58 
 738  1.91  1.53  2.58 
 739  1.97  1.41  2.58 
 740  1.86  2.17  2.58 
 741  2.18  1.50  2.58 
 742  1.21  1.53  2.58 
 743  1.17  1.61  2.58 
 744  1.61  2.13  2.58 
 745  1.64  1.74  2.58 
 746  2.41  1.14  2.58 
 747  0.91  1.68  2.58 
 748  1.52  1.77  2.58 
 749  1.43  2.19  2.58 
 750  1.29  1.77  2.58 
 751  0.51  2.30  2.58 
 752  2.13  1.53  2.58 
 753  2.53  1.65  2.58 
 754  1.73  1.23  2.58 
 755  2.09  1.27  2.58 
 756  0.84  1.46  2.58 
 757  2.07  1.54  2.58 
 758  1.02  1.66  2.58 
 759  0.70  1.41  2.58 
 760  1.75  1.90  2.58 
 761  2.41  1.74  2.58 
 762  1.72  1.51  2.58 
 763  1.54  1.81  2.58 
 764  1.31  1.45  2.58 
 765  2.19  1.41  2.58 
 766  1.26  1.26  2.58 
 767  2.05  1.08  2.58 
 768  1.36  1.52  2.58 
 769  1.55  2.31  2.58 
 770  1.36  1.92  2.58 
 771  1.22  1.38  2.58 
 772  1.72  1.13  2.58 
 773  2.40  1.31  2.58 
 774  1.63  1.38  2.58 
 775  2.51  1.31  2.58 
 776  1.72  1.23  2.58 
 777  1.44  1.04  2.58 
 778  2.19  1.19  2.58 
 779  0.95  1.19  2.58 
 780  1.24  1.08  2.58 
 781  1.25  1.12  2.58 
 782  1.18  3.10  2.58 
 783  1.85  2.32  2.58 
 784  1.40  2.67  2.58 
 785  1.61  1.13  2.58 
 786  2.56  1.21  2.58 
 787  1.73  2.26  2.58 
 788  1.00  3.36  2.58 
 789  2.04  2.32  2.58 
 790  1.69  1.19  2.58 
 791  0.92  1.75  2.58 
 792  2.26  1.30  2.58 
 793  1.49  1.32  2.58 
 794  1.54  0.94  2.58 
 795  1.01  1.14  2.58 
 796  1.90  1.24  2.58 
 797  1.77  1.97  2.58 
 798  2.53  1.66  2.58 
 799  2.73  1.37  2.58 
 800  1.58  1.28  2.73 
 801  1.35  1.35  2.73 
 802  2.52  1.16  2.73 
 803  1.99  1.21  2.73 
 804  1.72  1.04  2.73 
 805  1.30  0.98  2.73 
 806  2.01  0.93  2.73 
 807  1.18  1.01  2.73 
 808  1.02  1.66  2.73 
 809  1.94  1.97  2.73 
 810  2.48  1.79  2.73 
 811  1.21  2.05  2.73 
 812  1.52  1.37  2.73 
 813  2.35  1.50  2.73 
 814  1.77  1.38  2.73 
 815  1.50  1.21  2.73 
 816  1.71  1.20  2.73 
 817  1.12  1.77  2.73 
 818  2.23  1.18  2.73 
 819  1.46  0.92  2.73 
 820  1.88  1.50  2.73 
 821  2.29  1.64  2.73 
 822  1.81  1.67  2.73 
 823  1.51  1.26  2.73 
 824  1.80  2.11  2.73 
 825  2.59  1.27  2.73 
 826  2.83  1.37  2.73 
 827  2.02  2.02  2.83 
 828  1.88  0.67  2.83 
 829  1.71  0.61  2.83 
 830  1.66  1.25  2.83 
 831  1.04  2.33  2.83 
 832  0.98  1.90  2.83 
 833  1.05  1.16  2.83 
 834  1.92  1.15  2.83 
 835  1.63  1.21  2.83 
 836  3.26  1.07  2.83 
 837  1.17  0.94  3.26 
 838  1.65  0.98  3.26 
 839  0.98  1.42  3.26 
 840  1.33  0.99  3.26 
 841  1.44  1.10  3.26 
 842  2.04  1.36  3.26 
 843  1.33  0.87  3.26 
 844  1.49  0.97  3.26 
 845  1.60  1.20  3.26 
 846  1.81  1.22  3.26 
 847  1.46  0.99  3.26 
 848  1.49  1.04  3.26 
 849  2.45  0.73  3.26 
 850  1.26  0.89  3.26 
 851  0.94  1.08  3.26 
 852  1.94  1.53  3.26 
 853  1.26  1.60  3.26 
 854  1.63  2.40  3.26 
 855  0.72  2.08  3.26 
 856  3.00  1.73  3.26 
 857  2.06  1.52  3.26 
 858  1.78  1.67  3.26 
 859  2.08  1.38  3.26 
 860  1.62  0.97  3.26 
 861  2.41  2.17  3.26 
 862  1.23  1.79  3.26 
 863  1.53  1.95  3.26 
 864  1.13  1.56  3.26 
 865  2.62  1.82  3.26 
 866  1.54  2.00  3.26 
 867  1.25  1.29  3.26 
 868  0.50  1.18  3.26 
 869  1.15  1.00  3.26 
 870  1.32  1.56  3.26 
 871  2.33  2.46  3.26 
 872  1.97  1.76  3.26 
 873  1.36  1.83  3.26 
 874  1.31  1.83  3.26 
 875  1.66  3.24  3.26 
 876  1.56  1.75  3.26 
 877  0.94  2.52  3.26 
 878  1.63  2.24  3.26 
 879  2.17  3.57  3.26 
 880  1.41  1.70  3.26 
 881  2.00  1.60  3.26 
 882  1.85  1.79  3.26 
 883  1.53  1.14  3.26 
 884  1.81  0.83  3.26 
 885  2.16  1.14  3.26 
 886  1.94  1.39  3.26 
 887  1.50  1.82  3.26 
 888  2.74  2.15  3.26 
 889  1.76  3.11  3.26 
 890  1.10  1.64  3.26 
 891  2.32  2.18  3.26 
 892  1.68  2.18  3.26 
 893  2.67  1.85  3.26 
 894  1.58  1.62  3.26 
 895  1.33  1.94  3.26 
 896  2.14  2.64  3.26 
 897  2.23  2.19  3.26 
 898  2.51  2.44  3.26 
 899  1.94  3.04  3.26 
 900  1.74  2.32  3.26 
 901  2.36  2.40  3.26 
 902  1.61  2.68  3.26 
 903  1.74  2.45  3.26 
 904  1.13  2.87  3.26 
 905  2.66  2.46  3.26 
 906  1.36  2.34  3.26 
 907  2.16  2.52  3.26 
 908  1.88  2.96  3.26 
 909  1.33  2.80  3.26 
 910  0.70  2.94  3.26 
 911  1.61  3.60  3.26 
 912  1.23  3.55  3.26 
 913  1.48  3.21  3.26 
 914  2.25  3.17  3.26 
 915  1.73  2.01  3.26 
 916  1.01  2.35  3.26 
 917  1.41  3.35  3.26 
 918  2.63  2.59  3.26 
 919  2.38  2.30  3.26 
 920  1.90  2.48  3.26 
 921  1.64  1.93  3.26 
 922  0.95  2.69  3.26 
 923  1.23  3.12  3.26 
 924  1.27  1.87  3.26 
 925  2.04  2.81  3.26 
 926  2.68  2.36  3.26 
 927  2.41  2.37  3.26 
 928  1.81  2.56  3.26 
 929  2.13  2.99  3.26 
 930  1.78  2.99  3.26 
 931  1.84  1.56  3.26 
 932  1.34  1.48  3.26 
 933  1.39  1.61  3.26 
 934  1.28  1.85  3.26 
 935  1.20  3.16  3.26 
 936  1.32  2.73  3.26 
 937  1.43  1.63  3.26 
 938  1.48  1.54  3.26 
 939  1.25  1.94  3.26 
 940  1.02  1.97  3.26 
 941  1.46  1.60  3.26 
 942  1.41  1.84  3.26 
 943  2.32  1.47  3.26 
 944  2.34  1.72  3.26 
 945  2.35  1.81  3.26 
 946  1.48  1.79  3.26 
 947  2.59  1.98  3.26 
 948  1.05  1.54  3.26 
 949  1.49  2.08  3.26 
 950  1.76  1.62  3.26 
 951  1.32  2.14  3.26 
 952  1.82  1.65  3.26 
 953  1.54  1.69  3.26 
 954  1.43  1.64  3.26 
 955  1.53  1.84  3.26 
 956  1.64  1.62  3.26 
 957  1.26  1.83  3.26 
 958  2.09  0.86  3.26 
 959  1.97  1.99  3.26 
 960  1.82  1.62  3.26 
 961  1.43  1.46  3.26 
 962  1.69  1.90  3.26 
 963  3.05  1.06  3.26 
 964  2.33  1.46  3.26 
 965  1.44  1.72  3.26 
 966  1.03  1.42  3.26 
 967  1.14  1.93  3.26 
 968  2.59  1.46  3.26 
 969  1.61  1.89  3.26 
 970  1.90  1.61  3.26 
 971  1.82  1.31  3.26 
 972  2.23  1.45  3.26 
 973  2.70  1.80  3.26 
 974  2.49  1.68  3.26 
 975  1.64  2.09  3.26 
 976  1.94  1.45  3.26 
 977  1.63  1.49  3.26 
 978  1.90  1.44  3.26 
 979  0.98  1.55  3.26 
 980  1.04  1.39  3.26 
 981  1.62  1.39  3.26 
 982  1.40  1.67  3.26 
 983  1.71  2.25  3.26 
 984  1.35  1.78  3.26 
 985  1.76  1.80  3.26 
 986  1.64  2.90  3.26 
 987  2.15  2.27  3.26 
 988  0.74  1.54  3.26 
 989  1.35  3.32  3.26 
 990  1.53  2.33  3.26 
 991  2.42  1.87  3.26 
 992  2.66  2.73  3.26 
 993  1.96  2.05  3.26 
 994  1.52  1.57  3.26 
 995  3.07  1.33  3.26 
 996  0.89  1.33  3.26 
 997  1.57  1.62  3.26 
 998  1.08  1.90  3.26 
 999  1.81  1.92  3.26 
1000  1.96  1.54  3.26 
1001  1.65  1.35  3.26 
1002  2.15  1.11  3.26 
1003  1.38  2.87  3.26 
1004  1.59  1.22  3.26 
1005  1.73  0.83  3.26 
1006  1.95  0.73  3.26 
1007  2.47  0.87  3.26 
1008  1.68  0.79  3.26 
1009  0.72  0.87  3.26 
1010  1.59  0.96  3.26 
1011  1.34  1.00  3.26 
1012  0.69  1.14  3.26 
1013  1.71  0.85  3.26 
1014  1.08  0.76  3.26 
1015  1.19  0.73  3.26 
1016  2.64  0.92  3.26 
1017  0.85  1.01  3.26 
1018  1.41  0.75  3.26 
1019  1.78  0.71  3.26 
1020  1.14  0.73  3.26 
1021  1.58  0.79  3.26 
1022  1.73  0.88  3.26 
1023  0.84  0.86  3.26 
1024  0.79  0.75  3.26 
1025  1.08  0.84  3.26 
1026  2.02  1.06  3.26 
1027  1.23  1.13  3.26 
1028  3.10  1.22  3.26 
1029  1.55  0.81  3.26 
1030  2.28  0.38  3.26 
1031  1.03  0.45  3.26 
1032  1.57  0.47  3.26 
1033  1.28  0.57  3.26 
1034  1.93  0.48  3.26 
1035  1.45  0.41  3.26 
1036  1.41  0.52  3.26 
1037  1.34  0.58  3.26 
1038  1.19  0.55  3.26 
1039  1.79  0.86  3.26 
1040  1.75  1.30  3.26 
1041  0.59  1.76  3.26 
1042  1.89  1.76  3.26 
1043  1.76  1.57  3.26 
1044  1.81  2.23  3.26 
1045  1.14  1.93  3.26 
1046  1.12  2.10  3.26 
1047  0.56  1.38  3.26 
1048  1.17  1.58  3.26 
1049  1.21  0.68  3.26 
1050  2.27  0.65  3.26 
1051  1.20  0.48  3.26 
1052  1.73  0.77  3.26 
1053  2.01  1.46  3.26 
1054  1.84  1.55  3.26 
1055  1.84  1.74  3.26 
1056  1.65  1.60  3.26 
1057  0.87  1.48  3.26 
1058  1.69  0.62  3.26 
1059  0.86  0.84  3.26 
1060  1.73  1.40  3.26 
1061  1.17  1.10  3.26 
1062  1.38  0.63  3.26 
1063  1.84  1.58  3.26 
1064  1.46  2.39  3.26 
1065  1.19  2.13  3.26 
1066  1.38  1.60  3.26 
1067  2.07  1.87  3.26 
1068  2.29  1.77  3.26 
1069  2.20  1.47  3.26 
1070  2.18  1.29  3.26 
1071  3.21  1.74  3.26 
1072  1.43  1.86  3.26 
1073  1.93  1.14  3.26 
1074  1.24  1.51  3.26 
1075  0.96  1.93  3.26 
1076  1.64  1.76  3.26 
1077  1.08  0.74  3.26 
1078  1.57  1.01  3.26 
1079  2.52  2.50  3.26 
1080  1.71  1.46  3.26 
1081  1.61  1.29  3.26 
1082  1.56  0.77  3.26 
1083  1.79  1.03  3.26 
1084  1.76  0.79  3.26 
1085  1.42  0.95  3.26 
1086  2.57  0.97  3.26 
1087  0.68  1.10  3.26 
1088  2.93  0.94  3.26 
1089  1.63  0.63  3.26 
1090  1.22  0.57  3.26 
1091  2.05  0.69  3.26 
1092  1.76  0.46  3.26 
1093  0.96  0.61  3.26 
1094  1.91  0.45  3.26 
1095  2.04  0.49  3.26 
1096  1.69  0.71  3.26 
1097  2.26  0.45  3.26 
1098  2.62  1.65  3.26 
1099  0.75  3.34  3.26 
1100  2.34  2.76  3.26 
1101  1.85  3.94  3.26 
1102  1.75  2.48  3.26 
1103  1.92  1.19  3.26 
1104  2.20  1.53  3.26 
1105  0.89  1.53  3.26 
1106  2.19  1.86  3.26 
1107  1.72  2.33  3.26 
1108  0.75  1.10  3.26 
1109  3.39  3.50  3.26 
1110  1.22  2.52  3.39 
1111  1.02  2.36  3.39 
1112  1.05  2.47  3.39 
1113  1.81  2.39  3.39 
1114  1.71  1.94  3.39 
1115  2.23  2.80  3.39 
1116  1.43  2.94  3.39 
1117  1.18  3.27  3.39 
1118  2.19  4.01  3.39 
1119  1.48  4.08  3.39 
1120  0.90  3.31  3.39 
1121  1.61  3.37  3.39 
1122  1.96  3.48  3.39 
1123  1.64  3.52  3.39 
1124  1.54  3.67  3.39 
1125  1.42  3.33  3.39 
1126  1.63  3.25  3.39 
1127  1.77  4.08  3.39 
1128  1.47  2.23  3.39 
1129  0.92  0.99  3.39 
1130  1.94  1.74  3.39 
1131  1.28  2.52  3.39 
1132  2.16  2.47  3.39 
1133  1.06  3.06  3.39 
1134  1.28  3.13  3.39 
1135  1.67  2.08  3.39 
1136  1.28  3.16  3.39 
1137  0.91  2.18  3.39 
1138  1.41  3.90  3.39 
1139  2.23  2.88  3.39 
1140  1.21  2.41  3.39 
1141  1.60  2.75  3.39 
1142  1.52  1.24  3.39 
1143  2.09  2.91  3.39 
1144  1.35  2.77  3.39 
1145  2.17  3.97  3.39 
1146  1.79  3.71  3.39 
1147  2.12  3.83  3.39 
1148  1.99  2.30  3.39 
1149  1.87  2.80  3.39 
1150  1.24  2.67  3.39 
1151  1.88  2.99  3.39 
1152  2.33  0.68  3.39 
1153  1.21  2.04  3.39 
1154  1.79  1.81  3.39 
1155  0.68  2.01  3.39 
1156  1.29  2.88  3.39 
1157  1.61  2.35  3.39 
1158  1.29  2.06  3.39 
1159  1.13  1.87  3.39 
1160  1.03  0.79  3.39 
1161  2.65  2.12  3.39 
1162  0.91  3.69  3.39 
1163  2.05  2.23  3.39 
1164  1.87  1.98  3.39 
1165  0.79  2.56  3.39 
1166  1.83  1.93  3.39 
1167  1.51  1.40  3.39 
1168  1.18  1.53  3.39 
1169  1.72  1.61  3.39 
1170  1.99  1.46  3.39 
1171  0.96  1.51  3.39 
1172  1.08  1.36  3.39 
1173  2.00  1.90  3.39 
1174  2.29  2.64  3.39 
1175  2.16  2.78  3.39 
1176  1.40  2.88  3.39 
1177  1.62  2.43  3.39 
1178  1.69  2.55  3.39 
1179  1.23  2.99  3.39 
1180  1.70  2.34  3.39 
1181  1.81  1.30  3.39 
1182  1.56  0.95  3.39 
1183  1.34  0.70  3.39 
1184  2.18  0.57  3.39 
1185  1.64  0.64  3.39 
1186  2.36  1.29  3.39 
1187  2.01  0.68  3.39 
1188  1.87  0.53  3.39 
1189  1.75  0.67  3.39 
1190  1.62  0.58  3.39 
1191  2.06  0.62  3.39 
1192  1.84  0.68  3.39 
1193  1.72  0.59  3.39 
1194  1.09  0.53  3.39 
1195  2.04  0.59  3.39 
1196  2.23  0.58  3.39 
1197  2.28  0.59  3.39 
1198  1.68  0.61  3.39 
1199  1.38  0.65  3.39 
1200  1.80  0.58  3.39 
1201  1.63  0.55  3.39 
1202  2.91  0.59  3.39 
1203  2.08  0.66  3.39 
1204  1.70  0.63  3.39 
1205  2.62  0.61  3.39 
1206  1.01  0.68  3.39 
1207  2.35  0.75  3.39 
1208  2.21  0.54  3.39 
1209  2.45  0.84  3.39 
1210  0.99  0.79  3.39 
1211  1.63  1.13  3.39 
1212  1.85  1.39  3.39 
1213  1.49  3.26  3.39 
1214  1.56  3.40  3.39 
1215  2.49  2.10  3.39 
1216  3.15  3.22  3.39 
1217  1.42  3.44  3.39 
1218  2.63  3.02  3.39 
1219  0.93  2.73  3.39 
1220  1.62  2.59  3.39 
1221  2.03  3.05  3.39 
1222  2.31  3.79  3.39 
1223  1.65  3.11  3.39 
1224  1.76  2.58  3.39 
1225  0.46  2.78  3.39 
1226  1.54  2.79  3.39 
1227  1.53  3.24  3.39 
1228  2.97  3.21  3.39 
1229  0.88  2.88  3.39 
1230  2.47  2.88  3.39 
1231  2.24  1.57  3.39 
1232  2.75  1.05  3.39 
1233  2.15  0.75  3.39 
1234  0.99  0.60  3.39 
1235  2.08  0.87  3.39 
1236  2.56  0.64  3.39 
1237  1.53  3.38  3.39 
1238  2.67  2.93  3.39 
1239  1.93  3.04  3.39 
1240  3.09  2.55  3.39 
1241  1.62  2.48  3.39 
1242  2.06  2.05  3.39 
1243  2.16  1.99  3.39 
1244  1.63  2.19  3.39 
1245  2.31  2.91  3.39 
1246  1.41  2.30  3.39 
1247  1.22  2.09  3.39 
1248  2.36  1.39  3.39 
1249  1.30  1.56  3.39 
1250  1.86  1.72  3.39 
1251  1.73  1.95  3.39 
1252  2.61  1.51  3.39 
1253  0.70  1.35  3.39 
1254  1.52  1.48  3.39 
1255  1.70  1.76  3.39 
1256  2.41  2.33  3.39 
1257  2.09  2.60  3.39 
1258  1.87  1.57  3.39 
1259  2.17  1.58  3.39 
1260  0.93  1.96  3.39 
1261  0.85  1.69  3.39 
1262  1.02  0.92  3.39 
1263  2.19  1.11  3.39 
1264  2.42  1.28  3.39 
1265  2.29  1.65  3.39 
1266  1.70  1.64  3.39 
1267  1.69  1.17  3.39 
1268  0.94  2.10  3.39 
1269  1.52  1.55  3.39 
1270  1.89  1.17  3.39 
1271  1.65  0.90  3.39 
1272  0.94  1.36  3.39 
1273  1.26  1.29  3.39 
1274  1.56  0.97  3.39 
1275  2.37  0.97  3.39 
1276  1.71  1.14  3.39 
1277  2.07  1.14  3.39 
1278  1.25  1.62  3.39 
1279  0.80  1.42  3.39 
1280  2.33  1.51  3.39 
1281  1.77  1.14  3.39 
1282  1.45  1.54  3.39 
1283  1.46  1.45  3.39 
1284  1.81  1.45  3.39 
1285  0.98  1.24  3.39 
1286  2.55  1.55  3.39 
1287  1.82  1.48  3.39 
1288  2.69  1.18  3.39 
1289  1.25  1.46  3.39 
1290  2.06  1.66  3.39 
1291  1.55  1.66  3.39 
1292  2.02  1.78  3.39 
1293  2.59  1.90  3.39 
1294  1.20  2.17  3.39 
1295  1.73  2.23  3.39 
1296  2.14  1.59  3.39 
1297  1.65  1.73  3.39 
1298  1.51  1.65  3.39 
1299  2.15  2.05  3.39 
1300  1.48  1.38  3.39 
1301  1.68  2.44  3.39 
1302  1.82  2.30  3.39 
1303  2.13  2.05  3.39 
1304  1.12  1.78  3.39 
1305  2.11  2.13  3.39 
1306  1.73  2.03  3.39 
1307  2.07  2.31  3.39 
1308  1.53  2.70  3.39 
1309  2.81  2.10  3.39 
1310  1.74  2.15  3.39 
1311  1.80  2.73  3.39 
1312  2.27  2.89  3.39 
1313  1.73  3.06  3.39 
1314  2.45  2.87  3.39 
1315  1.67  3.24  3.39 
1316  2.02  3.56  3.39 
1317  2.32  2.76  3.39 
1318  2.24  3.10  3.39 
1319  1.71  3.23  3.39 
1320  1.39  3.27  3.39 
1321  0.75  3.26  3.39 
1322  1.49  2.40  3.39 
1323  1.58  3.03  3.39 
1324  2.64  2.59  3.39 
1325  1.41  3.33  3.39 
1326  1.90  3.76  3.39 
1327  1.46  3.32  3.39 
1328  1.91  3.33  3.39 
1329  1.37  2.60  3.39 
1330  1.84  3.15  3.39 
1331  1.76  3.17  3.39 
1332  3.28  2.84  3.39 
1333  1.84  3.02  3.39 
1334  2.07  2.55  3.39 
1335  1.71  3.01  3.39 
1336  2.20  2.95  3.39 
1337  2.19  2.83  3.39 
1338  2.14  3.21  3.39 
1339  1.61  2.71  3.39 
1340  2.09  3.15  3.39 
1341  2.31  3.46  3.39 
1342  1.92  2.27  3.39 
1343  1.94  2.82  3.39 
1344  2.10  2.90  3.39 
1345  2.03  2.66  3.39 
1346  1.53  2.85  3.39 
1347  1.57  2.92  3.39 
1348  2.08  2.70  3.39 
1349  0.95  2.77  3.39 
1350  2.35  2.75  3.39 
1351  1.89  2.16  3.39 
1352  2.18  2.37  3.39 
1353  1.42  2.84  3.39 
1354  1.81  3.21  3.39 
1355  1.65  2.85  3.39 
1356  1.52  3.57  3.39 
1357  2.10  2.98  3.39 
1358  1.85  2.16  3.39 
1359  2.73  2.38  3.39 
1360  1.95  2.23  3.39 
1361  2.24  2.00  3.39 
1362  0.77  2.42  3.39 
1363  1.91  2.88  3.39 
1364  2.23  2.61  3.39 
1365  0.63  2.14  3.39 
1366  2.22  3.15  3.39 
1367  1.79  3.15  3.39 
1368  1.95  2.73  3.39 
1369  1.24  2.51  3.39 
1370  2.10  2.75  3.39 
1371  1.67  2.68  3.39 
1372  1.49  2.45  3.39 
1373  2.71  2.61  3.39 
1374  1.79  3.17  3.39 
1375  2.61  2.91  3.39 
1376  1.91  2.97  3.39 
1377  2.48  2.87  3.39 
1378  1.64  2.75  3.39 
1379  1.53  2.50  3.39 
1380  1.91  2.94  3.39 
1381  1.05  2.53  3.39 
1382  2.66  2.76  3.39 
1383  1.75  2.96  3.39 
1384  1.70  2.97  3.39 
1385  1.52  2.37  3.39 
1386  1.57  2.80  3.39 
1387  1.63  2.94  3.39 
1388  2.78  3.40  3.39 
1389  2.02  3.04  3.39 
1390  1.42  3.08  3.39 
1391  1.38  3.06  3.39 
1392  1.92  3.39  3.39 
1393  2.50  3.10  3.39 
1394  2.50  2.97  3.39 
1395  0.83  3.69  3.39 
1396  2.22  4.02  3.39 
1397  1.23  3.28  3.39 
1398  1.62  2.97  3.39 
1399  1.99  2.43  3.39 
1400  1.80  3.06  3.39 
1401  2.04  2.84  3.39 
1402  2.64  2.80  3.39 
1403  3.27  2.65  3.39 
1404  2.10  3.40  3.39 
1405  1.87  2.72  3.39 
1406  1.98  3.32  3.39 
1407  1.50  2.12  3.39 
1408  2.32  3.24  3.39 
1409  1.98  2.46  3.39 
1410  1.71  3.08  3.39 
1411  1.02  3.27  3.39 
1412  1.98  2.02  3.39 
1413  2.69  2.81  3.39 
1414  2.05  2.34  3.39 
1415  2.88  2.30  3.39 
1416  1.78  2.29  3.39 
1417  1.16  2.30  3.39 
1418  1.68  2.42  3.39 
1419  2.45  2.98  3.39 
1420  1.44  2.45  3.39 
1421  2.25  2.43  3.39 
1422  2.37  2.47  3.39 
1423  2.06  2.12  3.39 
1424  1.81  2.01  3.39 
1425  1.35  2.07  3.39 
1426  1.36  2.22  3.39 
1427  2.27  2.32  3.39 
1428  2.49  1.89  3.39 
1429  2.96  2.44  3.39 
1430  2.07  3.07  3.39 
1431  2.37  3.14  3.39 
1432  1.81  2.84  3.39 
1433  1.14  2.34  3.39 
1434  2.20  2.55  3.39 
1435  2.08  2.70  3.39 
1436  1.38  1.87  3.39 
1437  1.80  1.34  3.39 
1438  1.48  2.44  3.39 
1439  0.87  2.58  3.39 
1440  1.53  2.97  3.39 
1441  2.03  2.86  3.39 
1442  2.03  2.97  3.39 
1443  2.62  2.82  3.39 
1444  1.92  3.62  3.39 
1445  2.06  3.20  3.39 
1446  2.80  3.58  3.39 
1447  1.23  3.37  3.39 
1448  1.67  3.38  3.39 
1449  1.69  3.45  3.39 
1450  3.33  2.90  3.39 
1451  2.00  3.14  3.39 
1452  2.50  3.54  3.39 
1453  2.10  2.85  3.39 
1454  1.68  2.51  3.39 
1455  1.32  2.80  3.39 
1456  1.83  2.76  3.39 
1457  2.64  1.75  3.39 
1458  1.53  2.35  3.39 
1459  2.17  2.83  3.39 
1460  1.35  2.79  3.39 
1461  1.00  2.56  3.39 
1462  2.04  3.08  3.39 
1463  2.73  2.87  3.39 
1464  2.22  3.31  3.39 
1465  1.01  3.13  3.39 
1466  0.99  3.29  3.39 
1467  1.80  2.72  3.39 
1468  1.82  2.84  3.39 
1469  1.92  2.71  3.39 
1470  1.14  3.20  3.39 
1471  2.44  2.72  3.39 
1472  2.93  2.45  3.39 
1473  1.65  2.29  3.39 
1474  1.89  2.64  3.39 
1475  1.59  3.07  3.39 
1476  2.62  3.05  3.39 
1477  3.17  2.64  3.39 
1478  2.54  2.10  3.39 
1479  1.47  2.67  3.39 
1480  1.79  2.76  3.39 
1481  1.43  2.67  3.39 
1482  2.07  2.42  3.39 
1483  1.55  2.54  3.39 
1484  1.79  2.39  3.39 
1485  2.40  2.70  3.39 
1486  1.85  3.19  3.39 
1487  1.45  2.51  3.39 
1488  1.24  2.97  3.39 
1489  2.67  3.31  3.39 
1490  1.93  3.16  3.39 
1491  2.55  3.16  3.39 
1492  1.40  3.17  3.39 
1493  1.64  3.22  3.39 
1494  1.76  3.14  3.39 
1495  1.43  2.79  3.39 
1496  2.10  3.18  3.39 
1497  1.87  3.04  3.39 
1498  1.37  2.83  3.39 
1499  2.48  3.66  3.39 
1500  2.31  3.13  3.39 
1501  1.87  2.98  3.39 
1502  2.38  2.23  3.39 
1503  0.99  3.49  3.39 
1504  2.44  2.86  3.39 
1505  2.53  3.57  3.39 
1506  2.10  3.69  3.39 
1507  1.37  3.44  3.39 
1508  1.83  2.28  3.39 
1509  0.61  2.84  3.39 
1510  1.63  2.86  3.39 
1511  1.81  2.88  3.39 
1512  2.21  2.79  3.39 
1513  2.45  2.77  3.39 
1514  1.73  2.81  3.39 
1515  2.30  3.03  3.39 
1516  2.51  3.05  3.39 
1517  1.81  3.42  3.39 
1518  1.86  3.31  3.39 
1519  1.35  3.28  3.39 
1520  2.58  3.23  3.39 
1521  1.66  3.32  3.39 
1522  2.04  2.98  3.39 
1523  2.23  3.56  3.39 
1524  1.93  3.46  3.39 
1525  2.13  3.19  3.39 
1526  2.07  2.93  3.39 
1527  2.21  2.83  3.39 
1528  1.11  2.54  3.39 
1529  1.35  3.10  3.39 
1530  1.97  3.32  3.39 
1531  1.77  2.86  3.39 
1532  2.17  3.13  3.39 
1533  1.24  2.95  3.39 
1534  1.30  3.40  3.39 
1535  2.92  3.51  3.39 
1536  1.40  3.02  3.39 
1537  2.40  3.58  3.39 
1538  2.39  3.34  3.39 
1539  2.02  3.09  3.39 
1540  1.74  2.81  3.39 
1541  1.84  2.81  3.39 
1542  2.35  2.56  3.39 
1543  1.24  2.90  3.39 
1544  1.84  3.18  3.39 
1545  1.62  3.15  3.39 
1546  2.19  2.62  3.39 
1547  2.04  2.88  3.39 
1548  1.59  3.00  3.39 
1549  1.51  2.15  3.39 
1550  1.36  2.21  3.39 
1551  2.39  1.92  3.39 
1552  2.10  3.15  3.39 
1553  1.47  3.30  3.39 
1554  2.39  2.64  3.39 
1555  1.81  2.03  3.39 
1556  1.18  1.41  3.39 
1557  1.69  1.72  3.39 
1558  1.97  1.90  3.39 
1559  2.65  1.24  3.39 
1560  2.16  2.82  3.39 
1561  2.02  2.40  3.39 
1562  2.22  2.78  3.39 
1563  1.53  2.27  3.39 
1564  1.40  3.04  3.39 
1565  2.81  2.10  3.39 
1566  2.38  2.71  3.39 
1567  3.11  2.52  3.39 
1568  2.66  2.78  3.39 
1569  2.42  2.97  3.39 
1570  2.15  2.88  3.39 
1571  1.31  3.22  3.39 
1572  2.08  2.07  3.39 
1573  2.68  3.00  3.39 
1574  1.73  3.24  3.39 
1575  3.03  3.11  3.39 
1576  2.30  2.70  3.39 
1577  2.59  3.34  3.39 
1578  1.57  3.56  3.39 
1579  1.84  2.81  3.39 
1580  2.13  3.10  3.39 
1581  1.90  3.40  3.39 
1582  1.99  3.16  3.39 
1583  1.37  3.05  3.39 
1584  2.36  2.68  3.39 
1585  1.57  3.21  3.39 
1586  1.73  2.93  3.39 
1587  1.24  3.12  3.39 
1588  1.36  2.81  3.39 
1589  2.91  2.33  3.39 
1590  0.85  2.05  3.39 
1591  1.93  2.18  3.39 
1592  1.37  2.49  3.39 
1593  2.16  2.15  3.39 
1594  1.67  2.07  3.39 
1595  2.00  2.85  3.39 
1596  2.00  2.79  3.39 
1597  1.91  2.36  3.39 
1598  1.48  2.57  3.39 
1599  1.96  3.08  3.39 
1600  2.52  2.86  3.39 
1601  3.15  2.91  3.39 
1602  1.77  2.68  3.39 
1603  1.41  2.66  3.39 
1604  2.34  3.24  3.39 
1605  1.85  2.99  3.39 
1606  3.01  2.94  3.39 
