iteration,time_sampling,stoc_pol_mean,stoc_pol_std,stoc_pol_max,stoc_pol_min,rollout_success,alpha,delta,time_vpg,time_npg,kl_dist,surr_improvement,running_score,rwd_sparse,rwd_dense,success_percentage,num_samples,time_VF,VF_error_before,VF_error_after,env_samples,eval_score,eval_success
0,1.7706048488616943,1.502901625426004,1.6623252895588911,4.010886203910114,0.00010026056822098894,0.0,0.0577121335759404,0.1,0.048792362213134766,0.03356528282165527,0.052775655,59.05158,1.502901625426004,0.0,0.01507213800351477,0.0,22,0.0031697750091552734,1.0024019564554818,1.0024019564554818,22,3.9373191610040235,0.0
1,1.584599256515503,8.065551580866492,5.838719483663895,18.07128346557031,4.010791150591304,0.0,0.11841705035412922,0.1,0.0057485103607177734,0.04865550994873047,0.05444138,1.4721968,2.159166620970053,0.0,0.14629051205798607,0.0,113,0.008101463317871094,0.9930967391281323,0.9930967391281323,135,3.864158590440443,0.0
2,1.6918878555297852,2.514845143476801,1.6716784995507488,4.056892659280464,0.00017983444489000355,0.0,0.08462010916070767,0.1,0.0031843185424804688,0.08498406410217285,0.04940253,4.7833924,2.194734473220728,0.0,0.035313891838298694,0.0,43,0.0025167465209960938,1.009256549231457,1.009256549231457,178,3.2797495244822064,0.0
3,1.5853331089019775,2.5258346029053613,1.525477569962468,4.0922035991938746,1.0001660115170343,0.0,0.09205814926008682,0.1,0.0023856163024902344,0.04439258575439453,0.05060102,8.294604,2.2278444861891913,0.0,0.04049820389459294,0.0,50,0.002445220947265625,1.0153285343210163,1.0153285343210163,228,4.365700128142579,0.0
4,1.8146212100982666,3.049312233471457,1.7607720877576385,4.112011492512045,0.00012005700771866579,0.0,0.10580907708422113,0.1,0.002421140670776367,0.0469820499420166,0.047403194,3.6638215,2.3099912609174176,0.0,0.05598439853455245,0.0,81,0.0027115345001220703,1.020454390899523,1.020454390899523,309,3.945247163944971,0.0
5,1.6477608680725098,0.000715283548130663,0.7079779363615911,1.0025130678337855,-0.9999502882916957,0.0,0.06430725099608182,0.1,0.0016567707061767578,0.02951979637145996,0.05124833,2.428151,2.079063663180489,0.0,-0.019977927186314998,0.0,8,0.005108356475830078,1.0329811386417653,1.0329811386417653,317,3.613991583847801,0.0
6,1.645228385925293,2.2609760023870873,1.7955974233644345,4.031753773074327,0.00012893953048354057,0.0,0.09211374467592504,0.1,0.0028455257415771484,0.07937097549438477,0.047667503,3.249316,2.0972548971011484,0.0,0.03520922949523182,0.0,45,0.002347230911254883,1.0136545388703413,1.0136545388703413,362,3.596962852344639,0.0
7,1.843414545059204,2.7973164006278166,1.3026520578688987,4.051482566188273,1.0004507496146124,0.0,0.09283703618286576,0.1,0.0024657249450683594,0.04611778259277344,0.044451714,6.2490053,2.1672610474538154,0.0,0.04593749329907747,0.0,71,0.0027806758880615234,1.0222621652357278,1.0222621652357278,433,3.444609785064818,0.0
8,1.6241424083709717,3.7511362745714525,0.433432488021328,4.002434976074338,3.00041015116311,0.0,0.07480249214048243,0.1,0.002286672592163086,0.10070466995239258,0.051526736,2.4384632,2.3256485701655794,0.0,0.06006345588952887,0.0,29,0.0023698806762695312,0.9921520811232454,0.9921520811232454,462,2.8549721439702758,0.0
9,1.732832670211792,3.2552619925129758,1.3001537344358887,4.014151832721556,1.0033469231352699,0.0,0.08080415692497465,0.1,0.002498149871826172,0.07843947410583496,0.05001302,3.993209,2.4186099124003193,0.0,0.05008933766230133,0.0,47,0.0024573802947998047,1.0061884622105701,1.0061884622105701,509,3.3620467701496026,0.0
10,1.5845353603363037,2.52467533786308,1.6808344987790813,4.0954155151491785,0.00010775506787252809,0.0,0.08722968766311741,0.1,0.002954244613647461,0.07791852951049805,0.04972431,5.0766416,2.4292164549465953,0.0,0.04047165444483325,0.0,48,0.0024368762969970703,1.0145917142483074,1.0145917142483074,557,4.549538845141885,0.0
11,1.7249271869659424,3.0695647130499744,1.7431169015265795,4.182471332011688,0.0525461905600062,0.0,0.11253419270859906,0.1,0.0025703907012939453,0.04784893989562988,0.050496556,3.419912,2.493251280756933,0.0,0.056354642559324236,0.0,104,0.004599571228027344,1.0244519820618967,1.0244519820618967,661,3.8763690987067876,0.0
12,1.7973341941833496,3.2768032659682436,1.3052201967688155,4.079301130951848,1.016698835248086,0.0,0.0968520272507681,0.1,0.0032377243041992188,0.046270132064819336,0.048670486,2.5209777,2.571606479278064,0.0,0.06047771686210619,0.0,55,0.0024573802947998047,1.00937651029147,1.00937651029147,716,3.608350132214523,0.0
13,1.7262475490570068,2.257176770924728,1.791695920282668,4.015663161008078,9.752254411843353e-05,0.0,0.07599292726794679,0.1,0.0022935867309570312,0.09946703910827637,0.051783327,5.020914,2.5401635084427303,0.0,0.030132473125152753,0.0,29,0.0021347999572753906,0.9999472121364488,0.9999472121364488,745,3.27145031682991,0.0
14,1.945770025253296,5.703295908091965,2.831007376705793,10.605643548704858,4.01873191713646,0.0,0.11257519557522143,0.1,0.0026335716247558594,0.049009084701538086,0.049521737,1.1818366,2.856476748407654,0.0,0.10905293489077411,0.0,99,0.0027163028717041016,0.988613751983201,0.988613751983201,844,4.3120573583044495,0.0
15,1.5665605068206787,3.7771321603150287,0.4484278800245602,4.0463876123926905,3.0005598368326893,0.0,0.10473152773488592,0.1,0.0050487518310546875,0.05417346954345703,0.049448732,3.1641707,2.9485422895983913,0.0,0.07053423743490687,0.0,95,0.002802133560180664,1.0178181251524685,1.0178181251524685,939,3.6299666852240455,0.0
16,1.7983543872833252,3.0201160149528548,1.7429179937149069,4.046945629635005,0.0013780131835823273,0.0,0.09731969634548723,0.1,0.0024094581604003906,0.05108451843261719,0.047277026,4.268248,2.9556996621338376,0.0,0.05538558829263498,0.0,84,0.002597332000732422,1.0182007277589855,1.0182007277589855,1023,3.5487529159198257,0.0
17,1.7916836738586426,3.7940718446301585,2.895502466166734,6.09037535755606,-0.9999502671331653,0.0,0.10515975580139583,0.1,0.0024051666259765625,0.0474703311920166,0.048427455,4.800946,3.03953688038347,0.0,0.05583761132106906,0.0,95,0.002621889114379883,0.9852208011257176,0.9852208011257176,1118,3.9185666684197265,0.0
18,1.8419666290283203,2.2569431931709576,1.7920201200897228,4.014481617735654,0.00011941039243645868,0.0,0.08677240432061215,0.1,0.0026154518127441406,0.07807421684265137,0.0495049,5.7974257,2.9612775116622188,0.0,0.035132588461410305,0.0,45,0.002537250518798828,1.0140828028540536,1.0140828028540536,1163,4.216643565546916,0.0
19,1.7417192459106445,3.2845852786195815,1.9516717375433152,5.133449489262849,0.00016947031767178267,0.0,0.08563065786251353,0.1,0.0022497177124023438,0.04489707946777344,0.05160945,4.9834666,2.993608288357955,0.0,0.05564797865207359,0.0,56,0.0022401809692382812,1.0051510436304243,1.0051510436304243,1219,3.634767309650823,0.0
20,1.82828950881958,2.289250075412475,2.9101311560786196,6.143776903457826,-0.9999466867004436,0.0,0.07962357685641117,0.1,0.002397775650024414,0.045441627502441406,0.049282707,10.037375,2.9231724670634067,0.0,0.025755785776200316,0.0,62,0.0023407936096191406,0.9884531280373128,0.9884531280373128,1281,3.5625264155269196,0.0
21,2.0120937824249268,3.550035022093007,0.8966484321022185,4.161116670090109,2.0002311052747417,0.0,0.09886758678837926,0.1,0.0024526119232177734,0.046799659729003906,0.049795967,3.4340696,2.985858722566367,0.0,0.06594319669012512,0.0,83,0.002620220184326172,1.0180531185302777,1.0180531185302777,1364,6.072154564481848,0.0
22,1.7603802680969238,2.5031532259816163,1.661016826046502,4.0108757778809,0.0001259620408278206,0.0,0.0778526438190557,0.1,0.0024728775024414062,0.1279282569885254,0.050954513,2.8307786,2.937588172907892,0.0,0.03504610667398855,0.0,25,0.0024309158325195312,0.9955802531480151,0.9955802531480151,1389,3.1207245335065568,0.0
23,1.7880301475524902,3.2781049958660655,1.3054662041956964,4.064326814379632,1.017244544520626,0.0,0.1085486982065649,0.1,0.0026955604553222656,0.04692435264587402,0.05008542,2.9007807,2.9716398552037093,0.0,0.060544372714148725,0.0,82,0.0026040077209472656,1.0169849826472048,1.0169849826472048,1471,4.620431817186393,0.0
24,1.7850852012634277,3.8349967804470553,0.49604134234276226,4.306303084062053,3.0008348952734454,0.0,0.10013359567880326,0.1,0.0024275779724121094,0.04526472091674805,0.049374823,2.8193226,3.057975547728044,0.0,0.07159711567833228,0.0,59,0.0023229122161865234,1.0079901092710986,1.0079901092710986,1530,3.805774722688478,0.0
25,1.823676586151123,2.5146077777427025,1.5068950510573258,4.035343589125246,1.0008976762819186,0.0,0.08023252105436432,0.1,0.0023131370544433594,0.08813023567199707,0.050539445,2.6682804,3.00363877072951,0.0,0.04028849237592011,0.0,34,0.002607107162475586,1.0092849986844057,1.0092849986844057,1564,4.261647211765381,0.0
26,1.677436113357544,3.267330214670418,1.309170453982798,4.063929995395808,1.0001965781178903,0.0,0.08729309315217022,0.1,0.0025548934936523438,0.04611635208129883,0.04945465,4.9745703,3.030007915123601,0.0,0.05534610699152513,0.0,53,0.0027430057525634766,1.0108270930905987,1.0108270930905987,1617,5.849880188328051,0.0
27,1.8427789211273193,4.0089700179588394,0.00758198173322588,4.021184165693155,4.001068633637422,0.0,0.09232039938358849,0.1,0.0023233890533447266,0.052916765213012695,0.050379436,1.957604,3.1279041254071247,0.0,0.08017661232624652,0.0,52,0.0026013851165771484,1.006164294968139,1.006164294968139,1669,9.109503209639763,0.0
28,1.580343246459961,2.002144590733098,2.1232384167391545,4.005105011313695,-0.9999464583295943,0.0,0.07122759698180996,0.1,0.0018754005432128906,0.031080245971679688,0.04921109,3.551861,3.0153281719397222,0.0,0.03003806795934114,0.0,23,0.003957033157348633,0.9959505909681297,0.9959505909681297,1692,7.3795941919263015,0.0
29,1.5308396816253662,2.002284662739268,2.1233503833490435,4.006595717113159,-0.9999429931071337,0.0,0.07090726873238112,0.1,0.0023262500762939453,0.10457944869995117,0.048973385,3.9348264,2.914023821019677,0.0,0.030042272814988807,0.0,26,0.0027587413787841797,1.0033122245501123,1.0033122245501123,1718,5.0419709226159375,0.0
30,1.6488540172576904,2.256292239351991,1.7908423705995569,4.020687434518506,0.00013652416847298454,0.0,0.08317599442094228,0.1,0.002678394317626953,0.08626604080200195,0.049506955,3.681436,2.8482506628529083,0.0,0.03509421728516532,0.0,40,0.0027751922607421875,1.0122915130826189,1.0122915130826189,1758,3.7173911569603066,0.0
31,1.7970938682556152,4.560565644997707,0.8953822997943718,6.111053672378428,4.024524542451866,0.0,0.11311816220230579,0.1,0.002573251724243164,0.048365116119384766,0.050413784,3.557633,3.0194821610673883,0.0,0.08118761872030217,0.0,107,0.005057334899902344,1.0056655687432416,1.0056655687432416,1865,4.032517859686349,0.0
32,1.864593267440796,4.062428266931702,0.06853393174304441,4.178671513803132,4.0081783570315155,0.0,0.10596492599919069,0.1,0.002638101577758789,0.04731559753417969,0.049841627,3.380597,3.12377677165382,0.0,0.08122134467706743,0.0,79,0.0026731491088867188,1.0150713732795664,1.0150713732795664,1944,3.2410429187779908,0.0
33,1.9463350772857666,4.038613943509674,0.03485380326394122,4.087531316288911,4.002837843870018,0.0,0.09433610340310514,0.1,0.0022492408752441406,0.045322418212890625,0.051055975,2.666473,3.215260488839405,0.0,0.08073056327627098,0.0,57,0.00244140625,1.0086390027434908,1.0086390027434908,2001,3.43787548887289,0.0
34,1.6203985214233398,3.7548125316517265,0.4355686813300592,4.008059848225981,3.0003911983549063,0.0,0.07977953046091284,0.1,0.0022771358489990234,0.08841204643249512,0.049099475,3.2236614,3.2692156931206373,0.0,0.07009296855064681,0.0,34,0.0023016929626464844,0.9946192532976943,0.9946192532976943,2035,4.001800045926787,0.0
35,1.7007780075073242,2.5122509085234785,2.0702981226600468,4.0285489485427775,-0.9999412818450781,0.0,0.07975412403396481,0.1,0.0026090145111083984,0.08026671409606934,0.04865836,11.276606,3.1935192146609213,0.0,0.04023011404604537,0.0,40,0.002265453338623047,1.006002026871247,1.006002026871247,2075,4.653772357571984,0.0
36,2.0456039905548096,1.7571496394408912,2.2844134163172924,4.025356462772409,-0.9999481589973886,0.0,0.06955719245893636,0.1,0.001554250717163086,0.02985978126525879,0.04890998,3.2235413,3.0498822571389184,0.0,0.02514020593163771,0.0,21,0.002420186996459961,0.9977627759058528,0.9977627759058528,2096,4.326335489039653,0.0
37,1.8581016063690186,5.866227201570497,2.0895935977289564,9.10326410544464,4.014326721696976,0.0,0.11174805547555446,0.1,0.003038167953491211,0.04793071746826172,0.049839187,1.3484062,3.3315167515820763,0.0,0.1022753477031896,0.0,106,0.004499912261962891,0.9874614388688391,0.9874614388688391,2202,3.8934588267208645,0.0
38,1.7144875526428223,1.754780082943045,2.2822514126224314,4.012968179923488,-0.9999467619228275,0.0,0.07647967368455875,0.1,0.0022547245025634766,0.11318039894104004,0.049666237,3.0833194,3.173843084718173,0.0,0.02508468728665893,0.0,27,0.0029115676879882812,1.005492224475896,1.005492224475896,2229,4.5155270429633125,0.0
39,1.6460275650024414,4.027592525367483,0.019353497101123444,4.04811497629504,4.002088497741369,0.0,0.0935772120069944,0.1,0.0024001598358154297,0.045983314514160156,0.04984823,4.0807214,3.2592180287831045,0.0,0.08052927728872797,0.0,71,0.0025343894958496094,1.0127330776782566,1.0127330776782566,2300,3.459645168748805,0.0
40,1.9463446140289307,4.068737573139154,0.09577675053421697,4.233612387160809,4.003982054846702,0.0,0.10554817171473092,0.1,0.0026810169219970703,0.04740476608276367,0.04877863,5.011288,3.34016998321871,0.0,0.08128249264469381,0.0,94,0.002637147903442383,1.0194378625470555,1.0194378625470555,2394,3.8329153834788485,0.0
41,1.698967695236206,4.06887127501923,0.03754221012211674,4.123203976616685,4.017123158616168,0.0,0.10143420720602972,0.1,0.002665996551513672,0.049481868743896484,0.05052754,3.7521806,3.413040112398762,0.0,0.08131143092161508,0.0,82,0.0028297901153564453,1.0163924595737146,1.0163924595737146,2476,3.6687142593854634,0.0
42,2.008761167526245,3.8066734687771158,1.850864273871634,6.2044429528011875,1.0012551862005696,0.0,0.10538231350742841,0.1,0.0026099681854248047,0.04977750778198242,0.05004757,3.1634595,3.4524034480365975,0.0,0.061089508015225134,0.0,78,0.0028715133666992188,0.9948686179885236,0.9948686179885236,2554,3.806183200995131,0.0
43,1.8749117851257324,4.083445053148823,0.06899833012032802,4.180734591355198,4.009611162831256,0.0,0.10884451137030186,0.1,0.002549886703491211,0.049224853515625,0.04882942,2.9822202,3.51550760854782,0.0,0.08146928638756525,0.0,89,0.002833127975463867,1.0167302244393086,1.0167302244393086,2643,4.565102964917734,0.0
44,1.6315395832061768,4.090394890088354,0.09382834400119981,4.243954994611857,4.004496763898305,0.0,0.10953659146078179,0.1,0.002612590789794922,0.05638384819030762,0.049953356,3.5076635,3.5729963367018738,0.0,0.08145391417423717,0.0,102,0.0050029754638671875,1.0200138183465894,1.0200138183465894,2745,3.714338558869375,0.0
45,1.6039059162139893,4.029346893606673,0.011538925246490509,4.040363135941236,4.0102350009656185,0.0,0.11147311422427755,0.1,0.002660989761352539,0.04997420310974121,0.049678165,3.2242794,3.618631392392354,0.0,0.08056362001181558,0.0,103,0.005688667297363281,1.0208570035943312,1.0208570035943312,2848,4.292656359514971,0.0
46,1.5914344787597656,4.033193793530062,0.023639222316604352,4.066596280949581,4.008108356233992,0.0,0.10411576914419225,0.1,0.0029103755950927734,0.047580718994140625,0.04925805,5.134292,3.6600876325061247,0.0,0.08058346493123937,0.0,91,0.0029616355895996094,1.016480750013916,1.016480750013916,2939,5.421371081596967,0.0
47,1.7688102722167969,4.6336536440720675,1.0217742388533773,6.40268724293382,4.004377400891704,0.0,0.10704310609922095,0.1,0.00244903564453125,0.04926419258117676,0.049711812,6.1712956,3.757444233662719,0.0,0.08262567124284599,0.0,114,0.006226062774658203,1.0052788289991827,1.0052788289991827,3053,5.310434021434223,0.0
48,1.8104255199432373,3.025214592417486,1.7467952616283897,4.085620081269147,0.00018580764969988728,0.0,0.09069407070490834,0.1,0.0028994083404541016,0.07996916770935059,0.04898931,3.0605824,3.6842212695381957,0.0,0.0554486550351893,0.0,48,0.001573324203491211,1.0092825408230182,1.0092825408230182,3101,3.552521327657453,0.0
49,1.772806167602539,2.505909659275441,1.6629318637416897,4.020733179267722,9.14281454171828e-05,0.0,0.0743900819038206,0.1,0.0025658607482910156,0.12447881698608398,0.049772367,2.5141835,3.56639010851192,0.0,0.040121350056348884,0.0,26,0.002525806427001953,1.0001611547442828,1.0001611547442828,3127,3.806238178229411,0.0
50,1.8326854705810547,9.639341896249764,4.72327257841959,15.37179332733959,4.007313131997208,0.0,0.12380782582841571,0.1,0.002817392349243164,0.05274820327758789,0.04980042,1.1472132,4.173685287285704,0.0,0.1477549787303326,0.0,156,0.02851557731628418,0.9903785049326087,0.9771813973925133,3283,3.8963422899977136,0.0
51,1.8476502895355225,4.124929461315736,0.13800168983432176,4.346468515863199,4.0013453440653635,0.0,0.11176952116567894,0.1,0.002648591995239258,0.04929018020629883,0.04871902,3.7423725,4.168809704688708,0.0,0.08238088223572379,0.0,100,0.002716064453125,1.0457656308379006,1.0457656308379006,3383,3.2798322330997944,0.0
52,1.8137407302856445,3.512187722146364,0.8729808956895341,4.036837245454866,2.000299921692159,0.0,0.07720016974443679,0.1,0.002362966537475586,0.1183474063873291,0.04977671,2.5465112,4.103147506434474,0.0,0.06523868274074487,0.0,31,0.0025866031646728516,0.9909145839510097,0.9909145839510097,3414,3.9416337511468966,0.0
53,1.8401634693145752,6.910032992940978,3.552965744262842,12.908740149052042,4.014102211200285,0.0,0.13009083097856985,0.1,0.0028281211853027344,0.050139665603637695,0.049716022,1.292817,4.3838360550851245,0.0,0.11755098919401409,0.0,135,0.011381864547729492,0.9789145473888959,0.9670576769331914,3549,5.262538659115914,0.0
54,2.0187997817993164,5.144106268518135,3.22731408954119,10.552927527213722,2.0107293712062084,0.0,0.11128989186088725,0.1,0.012598514556884766,0.04762911796569824,0.05103622,1.1244104,4.459863076428426,0.0,0.08281915975534998,0.0,94,0.004254579544067383,0.961473663640893,0.961473663640893,3643,3.6386289314022076,0.0
55,1.7383842468261719,4.546894628700803,0.9311818140008351,6.159727393181183,4.001441690486048,0.0,0.1096746721935265,0.1,0.0023353099822998047,0.051816463470458984,0.050398365,2.4040198,4.468566231655664,0.0,0.08093000072432185,0.0,95,0.0024657249450683594,1.014322144681982,1.014322144681982,3738,3.491237636303376,0.0
56,1.6187160015106201,1.7567842903416127,2.2842362878873184,4.014130287660609,-0.9999435422274736,0.0,0.07247634761543764,0.1,0.0021550655364990234,0.1313769817352295,0.049318522,5.1570454,4.1973880375242585,0.0,0.02013466416788688,0.0,24,0.0023424625396728516,1.0154471456311023,1.0154471456311023,3762,3.7831586289939465,0.0
57,1.6942169666290283,2.8043219580373426,2.1973665373105042,4.1788284176594885,-0.9999442593274617,0.0,0.10306518029373467,0.1,0.0030989646911621094,0.0501401424407959,0.051356155,7.152912,4.058081429575567,0.0,0.05108865817694799,0.0,81,0.0028209686279296875,1.0828390205638267,1.0828390205638267,3843,3.6076192996101253,0.0
58,1.6061675548553467,3.022932734521188,1.7454673442707542,4.079156767223133,0.00013939868625434393,0.0,0.08079005468652477,0.1,0.0023851394653320312,0.08202648162841797,0.05024993,3.282329,3.954566560070129,0.0,0.05539050977498995,0.0,39,0.0029947757720947266,1.0286368357794,1.0286368357794,3882,4.444524971059325,0.0
59,1.7217271327972412,4.362531913945509,0.5676727478971116,5.344973361115229,4.000534368278002,0.0,0.09624390009974218,0.1,0.002488374710083008,0.05126500129699707,0.049687397,4.170364,3.9953630954576673,0.0,0.08191947458784289,0.0,68,0.009972095489501953,1.0277014475215804,1.0277014475215804,3950,4.050792566044517,0.0
60,1.5999865531921387,4.01205477835552,0.006635851990755539,4.021946869948021,4.003262616213194,0.0,0.09247328974178641,0.1,0.002435922622680664,0.04683065414428711,0.049037036,2.11701,3.9970322637474527,0.0,0.08023208032278736,0.0,57,0.0027036666870117188,1.0438786318852278,1.0438786318852278,4007,3.267056937508704,0.0
61,1.5514090061187744,3.5122251494290984,0.8681864644048033,4.019145499866821,2.0085022089556404,0.0,0.0902144660150641,0.1,0.002403736114501953,0.0476224422454834,0.049497407,4.6897264,3.9485515523156174,0.0,0.06524030974934453,0.0,52,0.0025348663330078125,1.0552405078893223,1.0552405078893223,4059,3.7682165391844165,0.0
62,1.7912766933441162,4.041154076093195,0.03807591738249571,4.105192886222943,4.004990499617753,0.0,0.08884917652392671,0.1,0.0025551319122314453,0.07615303993225098,0.049400046,3.268112,3.9578118046933755,0.0,0.08079897321103238,0.0,49,0.002481698989868164,1.028874054706981,1.028874054706981,4108,3.4284860049757846,0.0
63,1.842228651046753,3.5581808143205476,0.8992387378437566,4.161586539732146,2.0036868607446463,0.0,0.09711663230611849,0.1,0.0024766921997070312,0.04864692687988281,0.049550932,2.9592552,3.9178487056560924,0.0,0.06615851506806143,0.0,72,0.00592494010925293,1.0684569059795799,1.0684569059795799,4180,4.202263741174899,0.0
64,1.7242562770843506,3.5305391444940106,1.509536753552772,4.994568323313631,1.000247354802264,0.0,0.10886597084487781,0.1,0.0027298927307128906,0.049889326095581055,0.04930141,5.699619,3.8791177495398843,0.0,0.06528181590508225,0.0,114,0.004594326019287109,1.0855489707119317,1.0855489707119317,4294,3.63190376461472,0.0
65,1.9694771766662598,4.032715689774794,0.027488550442433746,4.0706345036012115,4.00351941547726,0.0,0.10485731503008161,0.1,0.002603292465209961,0.0484623908996582,0.049529593,2.8762417,3.8944775435633754,0.0,0.08062729048316777,0.0,90,0.002877473831176758,1.0710623755416935,1.0710623755416935,4384,3.5099080860212895,0.0
66,2.351221799850464,4.09854178478477,0.08040208909102299,4.224662461685978,4.007923558220415,0.0,0.11069948769341327,0.1,0.002529621124267578,0.05060434341430664,0.048617154,3.4321637,3.914883967685515,0.0,0.08193060384680168,0.0,128,0.011418342590332031,1.0897206890693616,1.1069670385315908,4512,3.969002782908571,0.0
67,1.7056019306182861,3.257438262790589,1.3030925057041156,4.010692450215609,1.0004164265395599,0.0,0.08505314310175427,0.1,0.002621173858642578,0.08698773384094238,0.048720665,3.254346,3.8491393971960224,0.0,0.06017385654321574,0.0,36,0.002405881881713867,1.0256257048874098,1.0256257048874098,4548,4.042063399832206,0.0
68,2.1050057411193848,3.2939453195767725,1.3245156761902739,4.119734478308206,1.0009282778747264,0.0,0.10049626170033284,0.1,0.003261089324951172,0.04659748077392578,0.050666545,3.3175933,3.7936199894340974,0.0,0.06071690090056109,0.0,70,0.0026912689208984375,1.0851343647806193,1.0851343647806193,4618,3.7774465286083516,0.0
69,1.895683765411377,3.0132525405532657,1.7396504658572511,4.033393269512408,0.0001460710048915015,0.0,0.08834708844919102,0.1,0.002285480499267578,0.07578372955322266,0.05023256,3.003191,3.715583244546014,0.0,0.05526247105596615,0.0,49,0.002488851547241211,1.063465619359226,1.063465619359226,4667,4.112836804154209,0.0
70,1.8016574382781982,4.016279237838855,0.015293892443306275,4.039857670327379,4.001657911529923,0.0,0.10128373504776786,0.1,0.0023391246795654297,0.046736717224121094,0.049887557,3.2777703,3.7456528438752983,0.0,0.08027083630886067,0.0,80,0.0025491714477539062,1.0826993708796397,1.0826993708796397,4747,4.532102466307832,0.0
71,1.7598741054534912,4.544093957112683,0.8640831678265603,6.038748154185043,4.002306363973573,0.0,0.11213291878220229,0.1,0.0024368762969970703,0.0482635498046875,0.04911189,3.109619,3.825496955199037,0.0,0.08079990227071555,0.0,107,0.0045337677001953125,1.0367761079988398,1.0367761079988398,4854,3.981811509419112,0.0
72,1.6426210403442383,4.067507115690838,0.07665679657832866,4.195332738592414,4.0071694146339825,0.0,0.10046200436130208,0.1,0.0024483203887939453,0.047544002532958984,0.04998131,7.2847357,3.8496979712482173,0.0,0.08114729603299031,0.0,74,0.0024940967559814453,1.081534782160149,1.081534782160149,4928,3.09418635094798,0.0
73,1.540984869003296,5.557974367017826,2.664081471424165,10.172247278483756,4.005709337894517,0.0,0.10635136879973106,0.1,0.0027234554290771484,0.049300432205200195,0.049212117,1.9215068,4.020525610825178,0.0,0.09609520391289544,0.0,93,0.0028688907623291016,0.9514586775837123,0.9514586775837123,5021,3.2730317203736625,0.0
74,1.5699560642242432,3.260017457844012,0.8349999685223755,4.025854482708148,2.00038441413241,0.0,0.09203252090738318,0.1,0.0024538040161132812,0.0463871955871582,0.04989169,2.8055243,3.9444747955270616,0.0,0.05523505705960159,0.0,50,0.002520322799682617,1.0717899798514774,1.0717899798514774,5071,3.2126977379391453,0.0
75,1.6025116443634033,3.510094343970754,0.8706371003227222,4.02165907064334,2.0021364353974125,0.0,0.09712955885523541,0.1,0.0024292469024658203,0.04957151412963867,0.050484892,3.270582,3.901036750371431,0.0,0.0651931110977596,0.0,58,0.003040313720703125,1.07147581673975,1.07147581673975,5129,3.7063268400012,0.0
76,1.8827269077301025,3.679425554345611,2.3780694645376164,6.65148211625739,0.00012807251491353533,0.0,0.11030448828411704,0.1,0.0026807785034179688,0.0504450798034668,0.049055863,4.6137,3.8788756307688494,0.0,0.05840577564844211,0.0,100,0.0030374526977539062,1.0194117912569842,1.0194117912569842,5229,3.702900193535982,0.0
77,1.6999330520629883,2.01677664076254,1.5798710425962603,4.01850197766956,0.00024563967284607635,0.0,0.07686892274928891,0.1,0.0016062259674072266,0.030852317810058594,0.050504036,4.101285,3.6926657317682188,0.0,0.02537883948695155,0.0,23,0.002046346664428711,1.024150992809181,1.024150992809181,5252,4.135633038831213,0.0
78,1.6857216358184814,4.115915794996411,0.12283951572132039,4.325796862329952,4.018175107349753,0.0,0.11600068344598143,0.1,0.0027289390563964844,0.04982590675354004,0.050165743,3.2553034,3.7349907380910383,0.0,0.08227835732242497,0.0,108,0.006752729415893555,1.099199550045119,1.099199550045119,5360,3.9328138996767237,0.0
79,1.8397548198699951,4.538508496806708,0.9035510910961373,6.103476171100105,4.009585055463942,0.0,0.10908123509040674,0.1,0.0028753280639648438,0.048741817474365234,0.049769912,2.4698753,3.815342513962605,0.0,0.08075643657304493,0.0,97,0.0028333663940429688,1.0230355265801219,1.0230355265801219,5457,4.0350324148084455,0.0
80,2.026956081390381,3.5999320598084665,2.264242724588699,6.26675678736849,0.00012598375641981185,0.0,0.11246421646287566,0.1,0.002550840377807617,0.04974722862243652,0.051000927,3.5608923,3.7938014685471915,0.0,0.05699569006114656,0.0,115,0.0031402111053466797,1.0592068848904108,1.0592068848904108,5572,3.6972637074806527,0.0
81,1.9133102893829346,6.113642496102633,2.455741262628358,10.075983131048488,4.004558607002413,0.0,0.12083376913049809,0.1,0.002875804901123047,0.05077958106994629,0.04852075,2.4956317,4.025785571302736,0.0,0.10716700528731717,0.0,131,0.010324954986572266,0.9634566044201914,0.9578548487995404,5703,3.7628839910963077,0.0
82,1.7109968662261963,3.256036591614106,1.3022451300518403,4.016560272815787,1.0005008064237921,0.0,0.08386636454667476,0.1,0.0023903846740722656,0.08020186424255371,0.04946914,4.41962,3.948810673333873,0.0,0.060126698046951435,0.0,39,0.0026865005493164062,1.0407054645606306,1.0407054645606306,5742,3.6089372585667756,0.0
83,1.9598503112792969,3.5303323235957595,0.8836619647777368,4.0732066481240325,2.000406021404049,0.0,0.09715526127569193,0.1,0.0025212764739990234,0.04600882530212402,0.049298868,4.6947746,3.906962838360062,0.0,0.06558839998936168,0.0,68,0.002699136734008789,1.094663533251051,1.094663533251051,5810,3.77257397898418,0.0
84,1.6217358112335205,4.022264130597825,0.0171274273219304,4.049259782298265,4.001704020196545,0.0,0.08730739844393712,0.1,0.002221345901489258,0.07866764068603516,0.049204696,5.5198207,3.9184929675838385,0.0,0.08042713431925769,0.0,46,0.002424001693725586,1.0345039854537654,1.0345039854537654,5856,3.2897670487891055,0.0
85,1.6920831203460693,4.010193119554506,0.012274073203195221,4.031381908359269,4.002125523672063,0.0,0.08430071864128055,0.1,0.0023851394653320312,0.09269309043884277,0.050388496,2.6335955,3.9276629827809053,0.0,0.07020113074930565,0.0,34,0.002162456512451172,0.9781165802154261,0.9781165802154261,5890,4.0219737972226435,0.0
86,2.0556135177612305,3.2774931651950947,1.3149398719246705,4.065570062809254,1.0002347719300315,0.0,0.09060057961474541,0.1,0.0023233890533447266,0.04490017890930176,0.04991492,5.5720205,3.8626460010223242,0.0,0.06051774137333056,0.0,57,0.002588510513305664,1.0917000198485394,1.0917000198485394,5947,3.8544810687156215,0.0
87,2.1312191486358643,4.5326244094331685,0.8985761057417008,6.088888886939436,4.00441404980153,0.0,0.10606446136130199,0.1,0.002433300018310547,0.04683256149291992,0.05036674,3.0171583,3.9296438418634088,0.0,0.08061500811842037,0.0,79,0.0039539337158203125,0.9772560427639307,0.9772560427639307,6026,3.9385445228869163,0.0
88,1.7294373512268066,3.523426955390696,2.2053331222287973,6.088868219891666,0.00011492574374338815,0.0,0.09526971847321121,0.1,0.00226593017578125,0.0454411506652832,0.04859592,3.0111353,3.8890221532161378,0.0,0.055447181617562416,0.0,66,0.002484560012817383,0.9431225707490041,0.9431225707490041,6092,3.6795617696044123,0.0
89,1.7601332664489746,5.12805290617375,1.908349819998479,8.433033443411166,4.002071063396839,0.0,0.10488618889682838,0.1,0.0028228759765625,0.05018424987792969,0.049278263,2.142706,4.012925228511899,0.0,0.09749715713963981,0.0,92,0.0028638839721679688,0.9537289744355434,0.9537289744355434,6184,3.0091806381884223,0.0
90,1.9945247173309326,8.338872632283145,10.575463571336417,26.308383585799536,-0.9999454431826655,0.0,0.1053942243179575,0.1,0.0026025772094726562,0.048288583755493164,0.050185766,1.0510415,4.445519968889024,0.0,0.14671675867177622,0.0,75,0.0025093555450439453,0.9785928011483181,0.9785928011483181,6259,3.784216215363211,0.0
91,1.6806199550628662,4.048915326332465,0.041126183827479415,4.105219676739355,4.002674713019375,0.0,0.09693479794166611,0.1,0.002571582794189453,0.04947805404663086,0.049336273,4.088254,4.4058595046333675,0.0,0.0809586015669707,0.0,66,0.0027136802673339844,1.075499424563931,1.075499424563931,6325,3.685337149585214,0.0
92,2.0370848178863525,4.998270394313509,1.595008816496717,7.759656973015545,4.0071755066113655,0.0,0.12218144664050014,0.1,0.0026595592498779297,0.0506589412689209,0.050068107,1.510326,4.465100593601382,0.0,0.09991803386828846,0.0,126,0.005948543548583984,1.0296942569108387,1.0296942569108387,6451,3.9254813966884803,0.0
93,1.8896048069000244,3.8153398975634785,0.47476097769173586,4.2023171039778076,3.002818504130171,0.0,0.08646955638111396,0.1,0.0027008056640625,0.07928276062011719,0.0501099,2.8812234,4.400124523997592,0.0,0.071150176782367,0.0,49,0.002244234085083008,1.0514777466926875,1.0514777466926875,6500,3.6024346246446695,0.0
94,1.989844560623169,4.551714403031795,0.9073086617845236,6.1228396458163825,4.000826090856205,0.0,0.10707240167570994,0.1,0.002960681915283203,0.05440354347229004,0.049559895,2.8681953,4.415283511901012,0.0,0.08595539212825357,0.0,99,0.002694368362426758,1.0526881176273797,1.0526881176273797,6599,3.7584189434600686,0.0
95,1.70536470413208,4.016450584476509,0.010679284245850788,4.031852790200595,4.00545016763043,0.0,0.09411020992522004,0.1,0.0023245811462402344,0.047321319580078125,0.050147947,2.4277232,4.3754002191585615,0.0,0.07531535075092631,0.0,50,0.002499818801879883,1.0440643291842404,1.0440643291842404,6649,4.025351062173603,0.0
96,1.9332070350646973,4.03839331903835,0.03793888654642817,4.102044110057068,4.0031924533455,0.0,0.10268833261201815,0.1,0.0025975704193115234,0.049658775329589844,0.04950984,2.9459589,4.34169952914654,0.0,0.08062006140518144,0.0,91,0.002810955047607422,1.0998180457544273,1.0998180457544273,6740,4.544828661392744,0.0
97,1.8991069793701172,4.040753515835835,0.054873177630296636,4.1357154689829345,4.005522250819,0.0,0.11205611241407654,0.1,0.002636432647705078,0.049651384353637695,0.049092785,2.8084052,4.31160492781547,0.0,0.08078392970243954,0.0,99,0.0026023387908935547,1.1138595834623688,1.1138595834623688,6839,3.350948492734554,0.0
98,1.708315134048462,2.7782416781215393,2.1814660539914907,4.072771669465654,-0.999948312828685,0.0,0.09380727744775082,0.1,0.002583742141723633,0.045783042907714844,0.04905923,3.1184998,4.158268602846077,0.0,0.05054004764107254,0.0,60,0.002344369888305664,1.0960174531051485,1.0960174531051485,6899,3.939624618235938,0.0
99,1.622176170349121,2.7637404762410753,2.1729944748202863,4.034305220489131,-0.9999450089749979,0.0,0.08764805542364225,0.1,0.002409696578979492,0.04624223709106445,0.050001502,7.353957,4.0188157901855766,0.0,0.050267088943728735,0.0,62,0.0024445056915283203,1.1012854326425539,1.1012854326425539,6961,3.5957302313900255,0.0
100,1.719801425933838,2.2935618715683104,1.8169995109780988,4.141613748753272,0.020745351678407742,0.0,0.09331763402338362,0.1,0.0023033618927001953,0.07990407943725586,0.048907377,4.861727,3.84629039832385,0.0,0.035752084994062294,0.0,45,0.0025382041931152344,1.10720053172813,1.10720053172813,7006,3.3420414225535366,0.0
101,1.9488229751586914,6.839179125138521,3.7910782683828708,13.235247545333612,4.003921200841976,0.0,0.1178085085248237,0.1,0.002611875534057617,0.04941844940185547,0.050076995,1.4612143,4.145579271005317,0.0,0.11677356540453411,0.0,124,0.0052394866943359375,0.95203413797701,0.95203413797701,7130,3.1789464688313203,0.0
102,1.876114845275879,4.582128228667248,0.8691116352386852,6.085248469752665,4.013399047079655,0.0,0.1252032519701709,0.1,0.0028553009033203125,0.050306081771850586,0.0496805,1.8550484,4.18923416677151,0.0,0.08154514444634661,0.0,131,0.010716915130615234,1.0742666075799572,1.0784041078551336,7261,3.515165173063602,0.0
103,1.9048218727111816,4.8263965320046145,4.075695292888236,11.292315597509056,0.00013279443683411607,0.0,0.10989132391753204,0.1,0.002630949020385742,0.0477747917175293,0.04832703,1.1228538,4.252950403294821,0.0,0.08143561093020393,0.0,82,0.0027832984924316406,0.9443880298450631,0.9443880298450631,7343,3.929620404602072,0.0
104,1.781036615371704,4.021964189087498,0.019275660005347774,4.053349485084965,4.0007805811459765,0.0,0.09272828039202546,0.1,0.002275228500366211,0.047773122787475586,0.049717404,2.563764,4.229851781874088,0.0,0.07038427869734513,0.0,55,0.002449512481689453,1.0589762005950658,1.0589762005950658,7398,3.596084344917879,0.0
105,1.709526777267456,3.80775802773842,0.47272163384864563,4.216005903419273,3.0025266012323657,0.0,0.09911227085054379,0.1,0.0023865699768066406,0.04628610610961914,0.05007475,2.7780635,4.1876424064605215,0.0,0.07114663126452717,0.0,69,0.0024487972259521484,1.0894549594633358,1.0894549594633358,7467,3.675200520339373,0.0
106,1.9116623401641846,2.5213221316678576,1.677229075859466,4.073889218980117,0.00021251563800439577,0.0,0.09198486124724597,0.1,0.0028076171875,0.07403779029846191,0.04901314,2.7465441,4.021010378981256,0.0,0.04042101177024039,0.0,47,0.0025539398193359375,1.099301478711291,1.099301478711291,7514,3.3434043178510855,0.0
107,2.0118727684020996,4.060013555189434,0.07990642853254558,4.1965817779520656,4.001470782732505,0.0,0.1015101490900968,0.1,0.0026330947875976562,0.04941892623901367,0.049334545,3.364972,4.024910696602073,0.0,0.07613233713248657,0.0,82,0.0029506683349609375,1.0983336245705995,1.0983336245705995,7596,2.8561844619459236,0.0
108,2.0285985469818115,7.822024696633722,6.570719254206703,19.20277996079801,4.004882854919254,0.0,0.12476175577754083,0.1,0.0030329227447509766,0.05086398124694824,0.049756736,1.3448472,4.404622096605238,0.0,0.15137803157833363,0.0,129,0.009840011596679688,0.9757675618887717,0.9726169119350105,7725,3.9353863253539214,0.0
109,2.1057770252227783,5.8099874102657285,4.321419185156654,13.154195786520848,2.0003770652228763,0.0,0.09924483379432238,0.1,0.0045473575592041016,0.0538792610168457,0.04994942,1.2604523,4.545158627971287,0.0,0.10619271202283535,0.0,73,0.0026154518127441406,0.9447879965887879,0.9447879965887879,7798,4.19160350009859,0.0
110,1.7451059818267822,4.021874971097455,0.013149644623475596,4.04389922937641,4.009177819844158,0.0,0.09697575849189474,0.1,0.0025222301483154297,0.048519134521484375,0.049283624,6.915262,4.4928302622839045,0.0,0.08036531387762404,0.0,72,0.002452373504638672,1.1001762722540251,1.1001762722540251,7870,3.2125127092879286,0.0
111,1.8888962268829346,3.796485166680518,0.45665114961422554,4.150963926050953,3.011823868466749,0.0,0.08377306632671179,0.1,0.0027115345001220703,0.10318470001220703,0.04880537,1.7700845,4.423195752723566,0.0,0.06592909337317443,0.0,32,0.002429485321044922,0.99688185584446,0.99688185584446,7902,4.046128904629136,0.0
112,1.8211216926574707,2.2631255524715086,1.0922945176816639,4.012750518075563,1.0016133626631039,0.0,0.07507982328395746,0.1,0.002551555633544922,0.08495688438415527,0.049613725,33.84309,4.20718873269836,0.0,0.03026116432173278,0.0,39,0.007982492446899414,1.1305896132067272,1.1305896132067272,7941,4.038830448429449,0.0
113,1.7942218780517578,3.607663578935587,0.9376123548689038,4.361147950223114,2.0004132553273317,0.0,0.10031147925293854,0.1,0.002629995346069336,0.05001354217529297,0.05050379,6.237425,4.147236217322083,0.0,0.06708303346343078,0.0,72,0.0027294158935546875,1.1010780057813732,1.1010780057813732,8013,3.783109225468596,0.0
114,1.8571069240570068,4.841652826279766,3.397100417854931,10.324115171076707,1.0002241674204406,0.0,0.11186277575127496,0.1,0.002577066421508789,0.04906725883483887,0.050058488,1.8860211,4.216677878217852,0.0,0.0818083579858932,0.0,107,0.006215095520019531,0.9627390469405669,0.9627390469405669,8120,3.2027481333666707,0.0
115,1.974855661392212,2.8103510360625705,3.1084467211291114,7.212013994595868,-0.9999450115358532,0.0,0.10328851880265097,0.1,0.002593994140625,0.04745912551879883,0.04954074,3.6373367,4.076045194002324,0.0,0.031017363917872923,0.0,87,0.002675771713256836,0.970749888180958,0.970749888180958,8207,4.0603311843975955,0.0
116,1.684495449066162,3.5245047737099777,0.8790219501071633,4.049896768331391,2.0021711538120837,0.0,0.09653046284209249,0.1,0.0023546218872070312,0.04607415199279785,0.050070588,4.5960565,4.02089115197309,0.0,0.060487507705543266,0.0,63,0.0024747848510742188,1.1015876894097312,1.1015876894097312,8270,2.7735665801907277,0.0
117,1.881800651550293,3.041471807789855,1.7564426462278753,4.125291241332191,0.00013570682822883207,0.0,0.09236041798341928,0.1,0.0022881031036376953,0.045152902603149414,0.05035054,3.4717603,3.9229492175547667,0.0,0.05580967771710479,0.0,51,0.003152608871459961,1.0925525630829698,1.0925525630829698,8321,3.610904710827762,0.0
118,1.7135119438171387,4.005184294789851,0.004001125504572561,4.011390783316335,4.0007666544754565,0.0,0.0903984721052086,0.1,0.002727985382080078,0.07725882530212402,0.049717367,1.6433917,3.9311727252782753,0.0,0.08010253961127943,0.0,47,0.002366304397583008,1.0453299237154148,1.0453299237154148,8368,3.9489191714710614,0.0
119,1.5751967430114746,2.757260083928969,2.169229973507254,4.014933900219913,-0.9999450565476804,0.0,0.07795085457665905,0.1,0.0021889209747314453,0.10299968719482422,0.049191132,2.069802,3.8137814611433445,0.0,0.05014494109637381,0.0,29,0.0024826526641845703,1.014214009075027,1.014214009075027,8397,4.113488658426798,0.0
120,1.6746275424957275,3.7777149737546916,0.44965364348187226,4.080996584882483,3.000415902126443,0.0,0.09359372094824873,0.1,0.002362489700317383,0.04480290412902832,0.04965291,2.1308968,3.8101748124044796,0.0,0.07052611031329487,0.0,51,0.0025892257690429688,1.0810990606225217,1.0810990606225217,8448,3.51907209428447,0.0
121,1.7488548755645752,2.0068586304455316,1.2353539536539249,4.026323993204487,1.0002779705105114,0.0,0.06993949477486161,0.1,0.0016672611236572266,0.031601667404174805,0.049869694,4.79445,3.629843194208585,0.0,0.02513610982395682,0.0,19,0.002016305923461914,1.0115732707343659,1.0115732707343659,8467,4.030887449327338,0.0
122,2.004831314086914,3.0660192140035587,1.7704573350586286,4.136340578214057,0.0006164881950267986,0.0,0.1080795882065568,0.1,0.002355337142944336,0.047627925872802734,0.04870707,2.9167905,3.5734607961880824,0.0,0.0562346542014583,0.0,93,0.0025000572204589844,1.1483222115449407,1.1483222115449407,8560,4.0602379089943215,0.0
123,1.823955774307251,4.571516664787757,0.9725655876866235,6.256049501553779,4.009440999263371,0.0,0.1117533259039851,0.1,0.002400636672973633,0.048549652099609375,0.049514964,2.033818,3.67326638304805,0.0,0.08141810954265889,0.0,104,0.005501747131347656,1.0509457137320075,1.0509457137320075,8664,3.9432939632982578,0.0
124,1.7818305492401123,4.014129377922694,0.00599498058079877,4.022010902599563,4.006516139974981,0.0,0.09981430882309822,0.1,0.002472400665283203,0.04690980911254883,0.050293747,2.4620667,3.7073526825355145,0.0,0.08027652084224154,0.0,75,0.0051610469818115234,1.1056094047206706,1.1056094047206706,8739,1.8649085201716329,0.0
125,1.8080015182495117,4.572232680924786,0.984394429315825,6.277247986526224,4.001732889020509,0.0,0.1086282161886618,0.1,0.0028467178344726562,0.049655914306640625,0.049794964,3.5040011,3.793840682374442,0.0,0.0814353039929192,0.0,85,0.0027413368225097656,0.9861095871055653,0.9861095871055653,8824,3.4697703410865124,0.0
126,1.667323350906372,2.763439822435072,2.172817453223718,4.034302697042017,-0.9999437212760278,0.0,0.09701458091127982,0.1,0.0026650428771972656,0.047537803649902344,0.04942505,3.0307493,3.6908005963805053,0.0,0.050253479243074196,0.0,66,0.002604246139526367,1.121605172513142,1.121605172513142,8890,3.02303462436076,0.0
127,2.008568525314331,4.015594499210549,0.014012844952532234,4.03091359585679,4.0011791128752865,0.0,0.09946716077541318,0.1,0.0026140213012695312,0.0482935905456543,0.049462095,2.5783825,3.72327998666351,0.0,0.07530900201718341,0.0,68,0.002506256103515625,1.0957030606859288,1.0957030606859288,8958,4.521202659965129,0.0
128,2.0371816158294678,4.562308697852386,0.9008399795755865,6.121711175292876,4.002567729885355,0.0,0.11436505712442156,0.1,0.002747058868408203,0.04971480369567871,0.048664596,2.7576458,3.8071828577823976,0.0,0.08111282819014395,0.0,112,0.0029768943786621094,1.0557060114576966,1.0557060114576966,9070,4.523268820418422,0.0
129,2.001406669616699,3.016647898775302,1.7417236616317864,4.057682395725255,0.00012939858842875296,0.0,0.07856113343233817,0.1,0.002548694610595703,0.10909461975097656,0.049349353,2.1134744,3.728129361881688,0.0,0.055329572031035126,0.0,31,0.0023076534271240234,1.0200962092675048,1.0200962092675048,9101,3.930457353491329,0.0
130,1.7887475490570068,4.61177913337084,1.0008876638873707,6.3451639658112455,4.00910337503052,0.0,0.11773569434118179,0.1,0.0026862621307373047,0.0495758056640625,0.048884332,3.225598,3.816494339030603,0.0,0.08686597084117555,0.0,110,0.004796743392944336,1.084927467382115,1.084927467382115,9211,4.029941982384118,0.0
131,1.7354176044464111,4.015118214423313,0.006619419676246662,4.025212386012841,4.008358028435336,0.0,0.09404248245211747,0.1,0.002538919448852539,0.046979665756225586,0.049507666,4.0104423,3.8363567265698744,0.0,0.0802964332274159,0.0,60,0.002584695816040039,1.0839814656055975,1.0839814656055975,9271,3.3552344196126014,0.0
132,1.9145565032958984,4.017025014488077,0.011582587105356723,4.029883369830943,4.002824318869986,0.0,0.1000914204551654,0.1,0.002370595932006836,0.04623675346374512,0.04953305,2.4417882,3.8544235553616946,0.0,0.07039958883429512,0.0,62,0.002362489700317383,1.0798121286377813,1.0798121286377813,9333,4.0381235641774955,0.0
133,1.9292349815368652,6.65415652971423,4.5541860886588035,14.542207771510016,4.014287211802063,0.0,0.1208580218124424,0.1,0.002788066864013672,0.05022740364074707,0.049174115,1.4362435,4.134396852796948,0.0,0.1279776454546046,0.0,134,0.010632514953613281,0.9695283091366739,0.9648168611430189,9467,3.0291034796727554,0.0
134,1.750586986541748,4.062134027908629,0.06551828048670423,4.174245168301602,4.014616596071136,0.0,0.11248658284794182,0.1,0.002701282501220703,0.04885554313659668,0.049709093,2.6206038,4.127170570308117,0.0,0.08119405898748559,0.0,96,0.0027916431427001953,1.14602391517299,1.14602391517299,9563,4.055455401340057,0.0
135,1.930431604385376,9.335351302324066,9.220326648385306,25.30541498349581,4.00100652293657,0.0,0.10014695549973869,0.1,0.002495288848876953,0.047894954681396484,0.049768616,1.9615386,4.647988643509712,0.0,0.17155253234762363,0.0,85,0.002764463424682617,0.9689187514218176,0.9689187514218176,9648,4.105562129160153,0.0
136,1.869288444519043,4.030461356145605,0.023275501631875455,4.062439171324565,4.002426371276275,0.0,0.10382182692096824,0.1,0.002584695816040039,0.04840731620788574,0.049585737,4.2204595,4.586235914773301,0.0,0.08057640603589726,0.0,77,0.0026204586029052734,1.1168565023411756,1.1168565023411756,9725,3.3925182968326517,0.0
137,1.7170155048370361,3.763412344351943,0.4399277331601416,4.024510248018334,3.0015410593182352,0.0,0.09419251000423805,0.1,0.002366304397583008,0.0497288703918457,0.049249668,2.7739575,4.503953557731165,0.0,0.07030363409436272,0.0,54,0.0022668838500976562,1.1050346032448697,1.1050346032448697,9779,3.7982125473593595,0.0
138,2.083914041519165,8.064107753696526,8.215971016558251,22.22307753108051,2.0011279513743734,0.0,0.09975315243597359,0.1,0.0024263858795166016,0.047125816345214844,0.049925964,1.2824668,4.859968977327702,0.0,0.14628298242385757,0.0,74,0.002776622772216797,0.964187402078902,0.964187402078902,9853,3.7214326927413865,0.0
139,1.9340758323669434,5.29978115749255,2.2110273534793947,9.129375596494157,4.0158928969871335,0.0,0.11617645935843159,0.1,0.002682924270629883,0.05034971237182617,0.05060591,1.3423623,4.903950195344187,0.0,0.1009296344844536,0.0,107,0.007642507553100586,0.9822310267881832,0.9822310267881832,9960,4.057265354978142,0.0
140,1.780181646347046,4.575403611287559,0.862001878643488,6.060668885060568,4.008195767125139,0.0,0.10198127803693681,0.1,0.0032968521118164062,0.04720592498779297,0.0501618,5.194243,4.871095536938524,0.0,0.08151605884039084,0.0,87,0.0027959346771240234,1.0131350054543167,1.0131350054543167,10047,3.8665532021278715,0.0
141,1.8734877109527588,5.568095389778361,1.6992206851359275,8.11597705887832,4.016972419532772,0.0,0.10781271117164777,0.1,0.002390146255493164,0.04826235771179199,0.049843717,3.0928016,4.940795522222508,0.0,0.0963255307987813,0.0,99,0.0024890899658203125,0.9151663230846417,0.9151663230846417,10146,3.355474975175867,0.0
142,1.6670432090759277,2.7688088822181784,2.175939299361791,4.042068612138734,-0.9999454726637838,0.0,0.10207918437886207,0.1,0.002914905548095703,0.048792362213134766,0.04912208,5.9080653,4.723596858222076,0.0,0.050357421285494204,0.0,89,0.0027365684509277344,1.169112446441308,1.169112446441308,10235,4.055170655969431,0.0
143,1.5853533744812012,3.0031016626039615,1.2269072799891594,4.008197289591189,1.0004272026624483,0.0,0.07196386286883767,0.1,0.0032444000244140625,0.14154434204101562,0.049514268,1.9546856,4.5515473386602645,0.0,0.050065283823840574,0.0,24,0.002462148666381836,0.9643559490435945,0.9643559490435945,10259,4.025866618643765,0.0
144,1.7796356678009033,3.0097547390689368,1.737434334735025,4.017054527259591,0.0004430997070441478,0.0,0.08474763242656,0.1,0.0029952526092529297,0.10365462303161621,0.04982239,4.4431877,4.397368078701132,0.0,0.055178475271404986,0.0,49,0.0026199817657470703,1.105996056498525,1.105996056498525,10308,3.515009740336176,0.0
145,1.8318243026733398,3.2993892020715876,1.326968782448758,4.095068136923614,1.0012957369601925,0.0,0.11070683669770554,0.1,0.0029723644256591797,0.05055356025695801,0.049734596,5.372914,4.287570191038178,0.0,0.06098212021253751,0.0,100,0.0027735233306884766,1.172557181774117,1.172557181774117,10408,3.7730688334727347,0.0
146,2.019425392150879,5.136749394680788,1.0255954104944267,6.171340208657891,4.070960249020354,0.0,0.12542684934128764,0.1,0.00299072265625,0.0531916618347168,0.048282083,6.6215677,4.372488111402439,0.0,0.0827005344289109,0.0,168,0.011497259140014648,1.0507131711976485,1.057988273548381,10576,3.2070959703204287,0.0
147,1.8629775047302246,4.009637542194174,0.009906653186222799,4.0266344376452965,4.002852775147213,0.0,0.10254826378363194,0.1,0.0026373863220214844,0.05242609977722168,0.048678644,2.2407792,4.336203054481612,0.0,0.08017996968557557,0.0,65,0.002663135528564453,1.1190796526102011,1.1190796526102011,10641,4.0232371773673865,0.0
148,1.85237455368042,2.8433717512172554,1.3657984196518371,4.2954931082580305,1.0002847516896154,0.0,0.09199539927121876,0.1,0.002393484115600586,0.08096671104431152,0.049256578,2.349084,4.186919924155177,0.0,0.04686664749679488,0.0,43,0.003442525863647461,1.1345289233333509,1.1345289233333509,10684,3.6128991516461455,0.0
149,1.8764026165008545,2.8194010523835877,2.206302128546091,4.2101143284718905,-0.99994343111359,0.0,0.09979347962281686,0.1,0.002689838409423828,0.04891657829284668,0.048949905,4.19651,4.050168036978018,0.0,0.05130975095864847,0.0,72,0.0026254653930664062,1.161856642074684,1.161856642074684,10756,3.4582378662726074,0.0
150,1.7903878688812256,4.029104523177409,0.02810631197659084,4.072568123457723,4.002088893068214,0.0,0.11054693883436402,0.1,0.0025305747985839844,0.04855775833129883,0.050723605,2.9575474,4.048061685597958,0.0,0.08056304323506445,0.0,94,0.002906322479248047,1.1634930896419715,1.1634930896419715,10850,3.7830265244852046,0.0
151,1.9771182537078857,4.040123954105328,0.013675899625614229,4.05783599882415,4.0193996614405085,0.0,0.11477795115557106,0.1,0.002551555633544922,0.04882502555847168,0.05028487,3.5221884,4.047267912448695,0.0,0.08078076813475313,0.0,108,0.005883932113647461,1.1839482394290506,1.1839482394290506,10958,4.0321242153188654,0.0
152,1.8351130485534668,3.280792257185415,1.3167040700343042,4.087933873138756,1.0008089779962392,0.0,0.10264936618236363,0.1,0.0026268959045410156,0.04732918739318848,0.05039155,2.9570003,3.970620346922367,0.0,0.06060887708678145,0.0,73,0.002820730209350586,1.1504822698418018,1.1504822698418018,11031,3.855651119713082,0.0
153,1.8527648448944092,3.7615063105313276,0.43609285225933403,4.0172916420215286,3.0062090519477938,0.0,0.09024399437994998,0.1,0.002427816390991211,0.07518482208251953,0.050266076,2.1321752,3.9497089432832633,0.0,0.07025546916596896,0.0,44,0.0024666786193847656,1.0798617410875608,1.0798617410875608,11075,3.783457196823489,0.0
154,1.777493953704834,3.7792341377419847,0.44601924100180246,4.044802288581345,3.0067933185164044,0.0,0.10081112133165197,0.1,0.0023717880249023438,0.04625415802001953,0.04858684,5.985504,3.9326614627291354,0.0,0.07062615772457648,0.0,69,0.0023965835571289062,1.1473825793044956,1.1473825793044956,11144,3.022414871089112,0.0
155,2.471926212310791,3.505383469944776,0.8688449600378676,4.0117793470750005,2.0005104211868945,0.0,0.08813123161474884,0.1,0.0025293827056884766,0.07924246788024902,0.049255192,3.55277,3.8899336634507,0.0,0.06510461735834377,0.0,48,0.002498149871826172,1.100702310577097,1.100702310577097,11192,3.2825534952937727,0.0
156,1.8029074668884277,4.5318727485426855,3.395213875699903,10.10337131274745,1.001515736457333,0.0,0.09910025823213271,0.1,0.0023610591888427734,0.046733856201171875,0.04961462,1.6998758,3.9541275719598983,0.0,0.07563670656676613,0.0,83,0.0026712417602539062,0.913603048545098,0.913603048545098,11275,3.946758088200942,0.0
157,1.8844685554504395,3.52662353791554,0.8813227253921666,4.058012231256315,2.0005647172576735,0.0,0.10142276320882945,0.1,0.0023643970489501953,0.0466461181640625,0.049186092,4.303914,3.9113771685554624,0.0,0.06550960992988326,0.0,86,0.002991199493408203,1.1885515839260514,1.1885515839260514,11361,3.768201579124041,0.0
158,2.061441659927368,4.524393109450599,0.8786195261752887,6.046130187107366,4.003782933082534,0.0,0.10522032307548236,0.1,0.0024480819702148438,0.04832935333251953,0.049419448,3.8968625,3.972678762644976,0.0,0.08048400448361807,0.0,94,0.002682924270629883,1.049308641724054,1.049308641724054,11455,3.94698370026236,0.0
159,2.027867317199707,4.314976948918433,3.2374962272573007,9.129570430775994,0.000590387534542991,0.0,0.1046884991318681,0.1,0.0027921199798583984,0.04886794090270996,0.050079335,1.4413006,4.006908581272322,0.0,0.07615781500449159,0.0,82,0.0026445388793945312,0.9193064230103833,0.9193064230103833,11537,3.6033478688008063,0.0
160,1.7105331420898438,4.011665120082889,0.007555251345931157,4.021568781702053,4.000941126037319,0.0,0.10505229909787128,0.1,0.002722024917602539,0.04871535301208496,0.049619537,2.7458303,4.007384235153379,0.0,0.08022389657166464,0.0,84,0.0028939247131347656,1.1595789053606755,1.1595789053606755,11621,3.443289703644075,0.0
161,1.7448797225952148,4.026752501411094,0.017233827011533854,4.050618006328293,4.005731310181253,0.0,0.11527257901244098,0.1,0.0026068687438964844,0.05229306221008301,0.05011254,2.2536705,4.00932106177915,0.0,0.08050457381707588,0.0,88,0.002842426300048828,1.1627515835284503,1.1627515835284503,11709,3.8632715987875343,0.0
162,1.8626372814178467,2.768058970180531,2.1755157886724654,4.048045250565009,-0.9999437288870203,0.0,0.08941972788509654,0.1,0.002615690231323242,0.07703781127929688,0.04979076,3.0987363,3.885194852619288,0.0,0.0503408520640254,0.0,45,0.0024993419647216797,1.130457457675676,1.130457457675676,11754,3.1867878017803926,0.0
163,2.0802581310272217,3.3075736290383433,1.3328133042875667,4.138016320654465,1.0002453363162676,0.0,0.11704412738798205,0.1,0.002985239028930664,0.04979753494262695,0.050254177,4.1531487,3.8274327302611932,0.0,0.061143063269102474,0.0,105,0.006761789321899414,1.1892112842102358,1.1892112842102358,11859,2.6868225952190383,0.0
164,1.8142673969268799,4.035082037228555,0.019902686498862412,4.064927456835996,4.0165832447893965,0.0,0.10821447905636616,0.1,0.00278472900390625,0.050627708435058594,0.049736667,2.218747,3.8481976609579296,0.0,0.08066549379873789,0.0,71,0.0025048255920410156,1.1392407255346078,1.1392407255346078,11930,4.032483821596078,0.0
165,1.8100697994232178,4.072765863532708,0.08769355521220305,4.22275121126237,4.0034235346553695,0.0,0.09808348577935444,0.1,0.0024878978729248047,0.047714948654174805,0.049783666,2.3299239,3.8706544812154076,0.0,0.08143197139864469,0.0,69,0.002526998519897461,1.1384125650251569,1.1384125650251569,11999,4.316668204394261,0.0
166,1.8716564178466797,4.034096184861157,0.019255611815510568,4.049491923679911,4.002004025266659,0.0,0.10498551537478033,0.1,0.0025069713592529297,0.048624515533447266,0.049823027,3.2176425,3.886998651579983,0.0,0.07566829624255572,0.0,83,0.002543210983276367,1.1609872387581184,1.1609872387581184,12082,4.39432249275606,0.0
167,1.7656829357147217,3.006732300321476,1.735887701278679,4.021821771708161,0.00011787333448132209,0.0,0.07631792448885462,0.1,0.0024912357330322266,0.09365558624267578,0.04970444,2.858732,3.7989720164541327,0.0,0.04513231155235246,0.0,28,0.002480745315551758,0.9970741174740935,0.9970741174740935,12110,3.024418449684561,0.0
168,1.8408775329589844,4.0381461676975565,0.031515878601854654,4.09096018467207,4.008070118709224,0.0,0.11121767674836405,0.1,0.0027382373809814453,0.04912710189819336,0.049360875,3.2148733,3.822889431578475,0.0,0.08075275228551207,0.0,102,0.004594326019287109,1.1836658648773435,1.1836658648773435,12212,3.929388702679624,0.0
169,1.7848656177520752,4.029146449929975,0.033112121040377446,4.085834032608857,4.00225295871699,0.0,0.09679234311429157,0.1,0.0024492740631103516,0.046927690505981445,0.050459784,3.339088,3.8435151334136255,0.0,0.08056513106970042,0.0,63,0.0023581981658935547,1.111901785911511,1.111901785911511,12275,4.036383798003809,0.0
170,1.789346694946289,3.338147873427524,2.6777146523415314,6.330907062679889,-0.9999436230660963,0.0,0.11077516964470081,0.1,0.002573251724243164,0.04881119728088379,0.049291197,3.152859,3.7929784074150152,0.0,0.0517635889099103,0.0,92,0.002669811248779297,1.0485144643451163,1.0485144643451163,12367,3.619126451997794,0.0
171,1.8892648220062256,3.5576605368624756,0.8901945760106049,4.131433631059624,2.017899986990583,0.0,0.10017609270202471,0.1,0.002398252487182617,0.04688429832458496,0.05018607,8.73677,3.769446620359761,0.0,0.06609225787013809,0.0,83,0.002727508544921875,1.165753107485815,1.165753107485815,12450,4.2034943557017455,0.0
172,1.8113951683044434,3.5187883525439236,0.8766679100858806,4.045057284652314,2.000582115779809,0.0,0.08135419594921124,0.1,0.00235748291015625,0.0775766372680664,0.048575692,3.0337489,3.7443807935781774,0.0,0.06535472153615812,0.0,47,0.002332448959350586,1.0943194108491652,1.0943194108491652,12497,3.862832461162512,0.0
173,1.8693890571594238,3.517396619601775,0.8719318054760589,4.030201671420802,2.0072116868791317,0.0,0.09234090715632702,0.1,0.00223541259765625,0.04538440704345703,0.04935436,5.133955,3.7216823761805373,0.0,0.06533906192820327,0.0,61,0.0030117034912109375,1.1464116447425572,1.1464116447425572,12558,3.3518270638866223,0.0
174,1.707414150238037,4.019469348672444,0.00973859480279535,4.031480543241652,4.004330093905098,0.0,0.10729713156710856,0.1,0.0027434825897216797,0.04804182052612305,0.049462814,2.2985523,3.751461073429728,0.0,0.08037078263086195,0.0,71,0.002779245376586914,1.1489755213295516,1.1489755213295516,12629,3.446244167672831,0.0
175,1.8511238098144531,4.338988666757215,1.2002973742723093,6.2853471459378305,3.001896361680867,0.0,0.10007028830885067,0.1,0.0027472972869873047,0.04973721504211426,0.049364243,8.607917,3.810213832762477,0.0,0.071749750775252,0.0,108,0.005313873291015625,1.063186537037807,1.063186537037807,12737,4.026960960598928,0.0
176,1.8749337196350098,3.7642724068780975,0.4409314224749934,4.035756218929771,3.0008148443198124,0.0,0.09108587232876222,0.1,0.0025937557220458984,0.04650735855102539,0.049716666,1.9130778,3.805619690174039,0.0,0.07027882355965492,0.0,52,0.002596139907836914,1.0884307204215666,1.0884307204215666,12789,3.6218011281293414,0.0
177,1.849306583404541,3.5565111431165555,1.5197874807424046,5.089290986445553,1.0284100008628232,0.0,0.11095110276635942,0.1,0.002618551254272461,0.04959392547607422,0.048907407,3.986256,3.7807088354682907,0.0,0.06102899408308942,0.0,109,0.0030546188354492188,1.1758519610739626,1.1758519610739626,12898,3.7755086827657354,0.0
178,1.6461186408996582,3.0045316351466953,1.7311419130048604,4.005964985094165,0.006107860276218791,0.0,0.08047137983209067,0.1,0.0025353431701660156,0.11624383926391602,0.050036956,2.9685533,3.703091115436131,0.0,0.05009361638298855,0.0,30,0.002326488494873047,1.006660933297272,1.006660933297272,12928,3.696131254050542,0.0
179,1.7422456741333008,4.019462408011014,0.011923872859016669,4.035623475306341,4.005170940200582,0.0,0.0976559359316783,0.1,0.002879619598388672,0.04630017280578613,0.04942495,2.769197,3.734728244693619,0.0,0.08035570280363921,0.0,61,0.0023708343505859375,1.1155228350907334,1.1155228350907334,12989,3.719172574680236,0.0
180,1.7486796379089355,1.75968167419088,1.4844991412978883,4.0145925289044175,0.00012923248026575074,0.0,0.07422806645940173,0.1,0.0017244815826416016,0.03114795684814453,0.049343683,2.757822,3.5372235876433455,0.0,0.020184696692274053,0.0,23,0.0020198822021484375,1.1516517870364897,1.1516517870364897,13012,4.11999113324186,0.0
181,1.8272805213928223,4.023517315386514,0.01851501775415537,4.050172362247558,4.00610859241737,0.0,0.09924685679871444,0.1,0.0025475025177001953,0.047667503356933594,0.04943701,5.497828,3.5858529604176623,0.0,0.08044586765715496,0.0,77,0.002269744873046875,1.1402302047766215,1.1402302047766215,13089,4.124635134944219,0.0
182,1.876241683959961,4.038486468748682,0.03986404611704486,4.105554875557325,4.003620382516751,0.0,0.11465821922119615,0.1,0.0026895999908447266,0.04974627494812012,0.04924859,4.134438,3.6311163112507643,0.0,0.0807576486613884,0.0,116,0.002972126007080078,1.1906472789255114,1.1906472789255114,13205,4.221235503027173,0.0
183,1.959686040878296,4.082025774914998,0.06266559857376548,4.163738211565342,4.019762231605441,0.0,0.11425891451236922,0.1,0.002749919891357422,0.04928183555603027,0.04943544,2.7743185,3.676207257617188,0.0,0.08153365753864467,0.0,110,0.004770755767822266,1.1827732989924018,1.1827732989924018,13315,3.618951198155511,0.0
184,1.96736478805542,3.319603957662962,2.633682967100053,6.140323077016125,-0.9999410006417127,0.0,0.10982103138597249,0.1,0.0027582645416259766,0.04849815368652344,0.052155573,11.221055,3.6405469276217652,0.0,0.051369970106555335,0.0,104,0.005464315414428711,1.0788913524065022,1.0788913524065022,13419,3.779695878972381,0.0
185,1.7132740020751953,2.755129983989697,2.1679922145768646,4.008383253433762,-0.9999423132941194,0.0,0.08567114505233618,0.1,0.00237274169921875,0.08652591705322266,0.049929064,4.0807896,3.5520052332585585,0.0,0.05009328729843253,0.0,36,0.0025320053100585938,1.0657000650340354,1.0657000650340354,13455,3.9456420234589924,0.0
186,1.8917875289916992,3.2757435635510017,2.609801257494949,6.083920416535816,-0.9999443084190658,0.0,0.10396310380156618,0.1,0.0027604103088378906,0.04812979698181152,0.04972872,4.1257133,3.524379066287803,0.0,0.050485441824535196,0.0,81,0.002620220184326172,1.0243568327510653,1.0243568327510653,13536,3.1190364299521,0.0
187,2.136294364929199,3.540903650909483,0.8898522936191315,4.103633069242097,2.0008341842568003,0.0,0.1090626975836785,0.1,0.0025534629821777344,0.049307823181152344,0.04967053,4.6919336,3.526031524749971,0.0,0.06578967183514428,0.0,91,0.002687692642211914,1.1875544428742932,1.1875544428742932,13627,3.2045879664268377,0.0
188,1.8511762619018555,4.551099954062979,3.6419566629452675,10.186368458718968,0.00013556755017951616,0.0,0.09333352519906891,0.1,0.002516508102416992,0.04720139503479004,0.04940973,2.2678216,3.6285383676812724,0.0,0.08595754061281721,0.0,71,0.0026247501373291016,0.9115778794370162,0.9115778794370162,13698,3.954493487323583,0.0
189,1.9663476943969727,3.5227170968776242,0.8779684901604804,4.060554180905361,2.0024553518729498,0.0,0.0965122223046088,0.1,0.002515077590942383,0.047963619232177734,0.048574157,4.278361,3.6179562406009076,0.0,0.06543288162636435,0.0,75,0.0027174949645996094,1.158844829814482,1.158844829814482,13773,3.4526545443197456,0.0
190,2.1782877445220947,2.757022496441264,2.1691002252348794,4.022480707903474,-0.999943150245119,0.0,0.07646588488663561,0.1,0.0028798580169677734,0.08527708053588867,0.04944218,3.7369072,3.5318628661849436,0.0,0.050141666272840724,0.0,34,0.0020761489868164062,1.0470286397531092,1.0470286397531092,13807,4.034398979771567,0.0
191,1.7541515827178955,4.074917448748712,0.03942179489725112,4.139410395200491,4.03229796377165,0.0,0.11328946859997728,0.1,0.002815723419189453,0.050386667251586914,0.047699388,4.177277,3.5861683244413207,0.0,0.08149397094946394,0.0,111,0.006974220275878906,1.1884662306788931,1.1884662306788931,13918,3.039181792473046,0.0
192,1.9476161003112793,2.764341201534856,1.3126006065463651,4.050608046721942,1.0003064239930597,0.0,0.08777776850493177,0.1,0.0025141239166259766,0.04773068428039551,0.04989726,5.079975,3.5039856121506743,0.0,0.040272863098174946,0.0,54,0.0029692649841308594,1.1512507451082608,1.1512507451082608,13972,3.7064778756189587,0.0
193,1.8997089862823486,2.7595354989685146,2.1705470248653134,4.021773341838835,-0.9999416278184847,0.0,0.08648017585314564,0.1,0.0025908946990966797,0.08277392387390137,0.049493365,10.305903,3.4295406008324583,0.0,0.050188933111962306,0.0,42,0.0024788379669189453,1.0864390244616462,1.0864390244616462,14014,3.6471920482566866,0.0
194,2.0948410034179688,3.7679593282285317,0.4392815426493195,4.052980909705841,3.007857513012847,0.0,0.09362629543870564,0.1,0.0027387142181396484,0.0467684268951416,0.04982158,3.5524645,3.4633824735720657,0.0,0.07031293362668899,0.0,54,0.0024755001068115234,1.103314871532735,1.103314871532735,14068,3.697515801438561,0.0
195,2.0645487308502197,3.521876992844941,0.8787756143487754,4.068103013748884,2.000374183151874,0.0,0.10033412277638781,0.1,0.0028409957885742188,0.04874253273010254,0.04890631,3.1097217,3.4692319254993533,0.0,0.06542406200892568,0.0,73,0.002703428268432617,1.156689105098732,1.156689105098732,14141,3.3697470599680504,0.0
196,1.7682592868804932,2.010635601159647,1.8820615686197424,4.041697760086565,-0.9999429981024914,0.0,0.08277314051151526,0.1,0.0026450157165527344,0.049074411392211914,0.048703764,12.869572,3.3233722930653826,0.0,0.025218649988974044,0.0,51,0.0025205612182617188,1.1818319442873013,1.1818319442873013,14192,3.9069839745652573,0.0
197,1.9765024185180664,2.770240863928321,1.6544420228512147,4.062607542519064,0.0002600918336868041,0.0,0.09433984258496722,0.1,0.002718687057495117,0.05186200141906738,0.049802534,7.4359503,3.2680591501516765,0.0,0.0454228039542503,0.0,64,0.0025796890258789062,1.1661722227992977,1.1661722227992977,14256,4.989116253388125,0.0
198,1.863154411315918,5.554024091854435,2.667444530703145,10.174109311471017,4.001475055884782,0.0,0.10109649942628891,0.1,0.002689838409423828,0.049690961837768555,0.050057746,1.5298048,3.4966556443219527,0.0,0.11105371774312262,0.0,80,0.002893209457397461,0.9451708934106487,0.9451708934106487,14336,6.9171456777003115,0.0
199,1.9658899307250977,3.3404173482994555,1.3487509981231098,4.226565947668521,1.0082219170093372,0.0,0.11067443703739568,0.1,0.002680540084838867,0.049430131912231445,0.049589105,2.2823129,3.481031814719703,0.0,0.061532844602614864,0.0,85,0.00286865234375,1.1720177474700695,1.1720177474700695,14421,4.980788764530383,0.0
200,2.113304853439331,5.657990343780241,3.742669923190879,11.234271931727681,1.0003884445292677,0.0,0.10908694798286608,0.1,0.002676248550415039,0.051460981369018555,0.049728587,1.6471428,3.6987276676257568,0.0,0.09310713573705173,0.0,116,0.007855415344238281,0.902335087814047,0.902335087814047,14537,4.884060919617575,0.0
201,1.9067087173461914,4.0394424524021115,0.042716367883484145,4.111469674512509,4.004683225156585,0.0,0.09857447256587677,0.1,0.0026471614837646484,0.048784732818603516,0.04984938,3.5747917,3.7327991461033925,0.0,0.08074785941736393,0.0,74,0.0025489330291748047,1.1375216967817292,1.1375216967817292,14611,4.237198860544925,0.0
202,2.14581561088562,4.595968352398482,0.9303322003254523,6.20691258875902,4.026241865803104,0.0,0.11242036038366883,0.1,0.0026237964630126953,0.050652265548706055,0.049716875,2.4758444,3.8191160667329016,0.0,0.08191520715695413,0.0,118,0.004678010940551758,1.0888364933220118,1.0888364933220118,14729,4.22473432689546,0.0
203,1.7310938835144043,3.2569346071348253,1.2993629716171444,4.014607084908094,1.006387695478795,0.0,0.08164595186727944,0.1,0.0023589134216308594,0.09766411781311035,0.05048563,1.7053493,3.7628979207730944,0.0,0.05518822317642147,0.0,28,0.0025773048400878906,0.9828992936182912,0.9828992936182912,14757,4.352332902038413,0.0
204,1.9106414318084717,2.0429442434587157,2.043480450168388,4.165929923537432,0.00012597786897305951,0.0,0.08074285952979428,0.1,0.002336263656616211,0.08368945121765137,0.050104957,5.8460016,3.5909025530416567,0.0,0.030855336131309665,0.0,35,0.0023598670959472656,1.1179161694467143,1.1179161694467143,14792,3.6341210163762114,0.0
205,2.044424295425415,4.889077486104478,4.8226241438220665,12.436861899759126,-0.9999467588600672,0.0,0.09273606396911266,0.1,0.002666950225830078,0.048114776611328125,0.050681185,1.2027549,3.720720046347939,0.0,0.08273387076865839,0.0,71,0.0026099681854248047,0.9179689996829954,0.9179689996829954,14863,3.5307235907294494,0.0
206,1.9026901721954346,3.041266042715978,1.7564531651109248,4.133366742982619,0.00013896583509986904,0.0,0.09727289994537996,0.1,0.002463102340698242,0.048302650451660156,0.04976335,4.5440626,3.652774645984743,0.0,0.05569413448464252,0.0,74,0.0025031566619873047,1.1710848067328277,1.1710848067328277,14937,3.6128472177790356,0.0
207,1.8224711418151855,2.792996575619568,2.190018300653914,4.084270924810433,-0.9999425499511543,0.0,0.09032005027460767,0.1,0.002525806427001953,0.04630160331726074,0.049067643,3.9120445,3.5667968389482256,0.0,0.05085173588745782,0.0,51,0.002691507339477539,1.1378025237802818,1.1378025237802818,14988,3.108589136952178,0.0
208,1.8364579677581787,3.0375224153963796,2.373811202835574,5.115927176623659,-0.999946784017314,0.0,0.10464677485979137,0.1,0.0025587081909179688,0.04856514930725098,0.05034172,1.9404385,3.513869396593041,0.0,0.05571696767441795,0.0,64,0.002492666244506836,1.1229128196842662,1.1229128196842662,15052,2.8729233239467415,0.0
209,1.7007207870483398,3.5051163107654313,0.8687573148985326,4.012678126438187,2.0003981285111263,0.0,0.08324810379115714,0.1,0.002483367919921875,0.09462642669677734,0.050239697,2.5202692,3.5129940880102803,0.0,0.06509979626547571,0.0,32,0.0020751953125,1.0083835173392202,1.0083835173392202,15084,4.019268668426897,0.0
210,1.793647289276123,1.7535120614465693,2.280993990508069,4.007366974201945,-0.9999464857478904,0.0,0.0806641441400515,0.1,0.0025856494903564453,0.08235454559326172,0.049463496,5.477313,3.337045885353909,0.0,0.025080453870643102,0.0,36,0.0026209354400634766,1.1489040474826961,1.1489040474826961,15120,3.3559687607464626,0.0
211,1.9224286079406738,4.0417337679887435,1.4390153785250364,6.070467469721838,2.0006447301028594,0.0,0.1142680733387513,0.1,0.0027675628662109375,0.049483299255371094,0.049056765,3.104799,3.407514673617393,0.0,0.06583915815581282,0.0,108,0.006926298141479492,1.075645029249489,1.075645029249489,15228,3.019151175008616,0.0
212,1.8316681385040283,4.031217950150756,0.03710918482118816,4.094403951368852,4.001179080547708,0.0,0.08785656338423425,0.1,0.002699613571166992,0.04633617401123047,0.049560867,3.862128,3.4698850012707294,0.0,0.08062282453283948,0.0,53,0.0024597644805908203,1.0874906496441465,1.0874906496441465,15281,3.948438673655317,0.0
213,1.8862621784210205,4.04162342183489,4.964447237473479,12.036088245157163,-0.9999428334466265,0.0,0.09768856587535073,0.1,0.0027365684509277344,0.048063039779663086,0.05009392,1.6501818,3.5270588433271457,0.0,0.06577334366504457,0.0,84,0.002577066421508789,0.9263429134708056,0.9263429134708056,15365,3.6128621590241417,0.0
214,1.8051376342773438,3.5168058294549724,0.8736392691984943,4.0447676386292395,2.0038443876257777,0.0,0.0856641868663348,0.1,0.002390146255493164,0.0873720645904541,0.04992628,3.8348033,3.5260335419399285,0.0,0.06533392077138417,0.0,34,0.002463102340698242,1.0199217204415192,1.0199217204415192,15399,4.022654773895371,0.0
215,1.9772343635559082,4.032563505402509,0.02093991280738441,4.055568641215713,4.006588346607714,0.0,0.09450191444254431,0.1,0.002420186996459961,0.04643583297729492,0.050156172,4.7706494,3.5766865382861868,0.0,0.07562419080462623,0.0,61,0.0031731128692626953,1.107746068417609,1.107746068417609,15460,3.5350638542402635,0.0
216,1.9766473770141602,3.2683672403232746,1.3064089299036723,4.047486054694424,1.0057558386316339,0.0,0.09242686248112143,0.1,0.0023474693298339844,0.045877695083618164,0.05069106,2.881893,3.5458546084898956,0.0,0.06033389476965072,0.0,53,0.0024576187133789062,1.1281950369543392,1.1281950369543392,15513,3.6093303825119762,0.0
217,1.8225178718566895,3.017032563816789,1.741762039095676,4.0412285874522444,0.0003150814896526466,0.0,0.08043253053411256,0.1,0.0024912357330322266,0.07604050636291504,0.048518397,4.6680503,3.492972404022585,0.0,0.05031616455293972,0.0,42,0.0025224685668945312,1.0901124287676422,1.0901124287676422,15555,3.5309861400900737,0.0
218,1.8846840858459473,4.029938485806643,0.025523497442568235,4.073397442334096,4.009607750462859,0.0,0.10554257648088039,0.1,0.0025887489318847656,0.048011064529418945,0.049022797,3.5186572,3.546669012200991,0.0,0.0805936078993791,0.0,81,0.0024302005767822266,1.1527394681949092,1.1527394681949092,15636,3.5327249054209844,0.0
219,2.0656254291534424,3.1285539814444663,2.916705282873124,7.47641054374289,0.00014875009767911784,0.0,0.08984813960927855,0.1,0.0024285316467285156,0.046266794204711914,0.049605276,2.4939213,3.5048575091253387,0.0,0.04741972128385929,0.0,63,0.0024030208587646484,0.9519224057159943,0.9519224057159943,15699,3.5551280564127232,0.0
220,1.8550968170166016,3.7799704049624987,0.4501963663062239,4.082698349989354,3.0015749825057254,0.0,0.09747854224626891,0.1,0.0023975372314453125,0.048889875411987305,0.050217655,6.1768746,3.532368798709055,0.0,0.07054253137011443,0.0,58,0.002414703369140625,1.1270848261340733,1.1270848261340733,15757,3.958160134625171,0.0
221,1.8197450637817383,4.058872258141171,0.04347532827923592,4.12697948570802,4.011262527848493,0.0,0.10171503813995428,0.1,0.0024328231811523438,0.04653310775756836,0.04992072,2.4640818,3.5850191446522666,0.0,0.08109621698754416,0.0,63,0.0022461414337158203,1.1281586989777512,1.1281586989777512,15820,3.5294137083275707,0.0
222,1.8101599216461182,3.2679536761606958,1.309364644770044,4.04224191827542,1.0001636293377065,0.0,0.0884926604165333,0.1,0.002373933792114258,0.07788634300231934,0.05103484,2.120558,3.5533125978031097,0.0,0.06034821661299647,0.0,39,0.002414226531982422,1.0882499250454825,1.0882499250454825,15859,3.5349186655781977,0.0
223,1.8531386852264404,5.065187565612756,1.8125326239801178,8.204415086196452,4.001957949171868,0.0,0.10356208115409331,0.1,0.002542257308959961,0.04716229438781738,0.04998188,1.5836567,3.7045000945840743,0.0,0.10127628235045581,0.0,76,0.0026938915252685547,0.9476704435371229,0.9476704435371229,15935,2.878000885632368,0.0
224,1.8618860244750977,2.2687548307228074,2.0624036715595673,4.067303912063094,-0.9999457564815166,0.0,0.09563251110451397,0.1,0.0024077892303466797,0.04897642135620117,0.04909849,3.2555766,3.5609255681979475,0.0,0.03537525797797182,0.0,61,0.004224538803100586,1.1763673876485745,1.1763673876485745,15996,3.6225134040594376,0.0
225,1.8190503120422363,4.338465160568238,0.46501727826675643,5.143231696123629,4.040155715924762,0.0,0.12921719451199382,0.1,0.002826690673828125,0.050644636154174805,0.048829447,2.0716548,3.638679527434977,0.0,0.0817075217598107,0.0,134,0.011459589004516602,1.176213408878182,1.178233908839422,16130,3.7810028707374195,0.0
226,1.9137277603149414,3.1059116923673358,1.799417771454223,4.391680822740775,0.000609381690579891,0.0,0.0908895064332318,0.1,0.002676248550415039,0.048279762268066406,0.048789024,12.879161,3.5854027439282126,0.0,0.057115814257352154,0.0,78,0.0025331974029541016,1.1751644082702268,1.1751644082702268,16208,3.784147294813012,0.0
227,1.9225850105285645,5.047391862866984,1.7537480202821807,8.084601921253636,4.004680865440024,0.0,0.104099068361154,0.1,0.0026047229766845703,0.05025029182434082,0.049927615,3.5170844,3.73160165582209,0.0,0.09593435282454765,0.0,105,0.0051839351654052734,0.9704432277701107,0.9704432277701107,16313,3.7218695485788618,0.0
228,1.819929838180542,5.321984417587915,4.192517280993262,12.264394101438812,1.000198663454752,0.0,0.10034485527720713,0.1,0.0027451515197753906,0.047861337661743164,0.05011108,1.567142,3.8906399319986726,0.0,0.09141703460932694,0.0,83,0.0025129318237304688,0.9386248434185174,0.9386248434185174,16396,3.6107127847207514,0.0
229,1.8833026885986328,4.007202395971611,0.0016910996950625934,4.009686527621232,4.005394413318202,0.0,0.0877250139084073,0.1,0.002504110336303711,0.04590749740600586,0.04983765,2.930289,3.902296178395966,0.0,0.07513758574313195,0.0,52,0.002505779266357422,1.0950075844393243,1.0950075844393243,16448,3.9449548365427796,0.0
230,1.8562233448028564,3.025116135464463,1.746748872196135,4.085178875186785,0.00015940080661391853,0.0,0.09502538874881773,0.1,0.0023860931396484375,0.045825958251953125,0.049797412,3.7474844,3.8145781741028157,0.0,0.05552437546407248,0.0,55,0.0025517940521240234,1.1323244449263292,1.1323244449263292,16503,4.106658715651676,0.0
231,2.0483763217926025,4.039576932317134,0.02336877247367342,4.073948068078838,4.008006046051509,0.0,0.09524284244230438,0.1,0.0024001598358154297,0.04611849784851074,0.050196912,2.0185463,3.837078049924248,0.0,0.08078650321735581,0.0,59,0.0022444725036621094,1.1144958116688415,1.1144958116688415,16562,3.2224598774400484,0.0
232,2.121914863586426,4.019865718796921,0.01040028705812262,4.028128738833916,4.002051645723554,0.0,0.10353248753894925,0.1,0.0024628639221191406,0.04746818542480469,0.049701173,2.1912951,3.8553568168115153,0.0,0.07538083450786928,0.0,73,0.0025670528411865234,1.1549751898461809,1.1549751898461809,16635,4.040809489882894,0.0
233,1.921480655670166,2.012258469718005,2.132393381213245,4.043774359997868,-0.9999432584182437,0.0,0.07734561677545397,0.1,0.002373933792114258,0.08402323722839355,0.049996275,4.764599,3.6710469821021645,0.0,0.030247475418306215,0.0,35,0.0023305416107177734,1.1178586698662765,1.1178586698662765,16670,4.033834603016625,0.0
234,1.8746228218078613,2.255619900889128,1.7906914361478632,4.016135794669468,0.00013787347645766168,0.0,0.08220521418427798,0.1,0.0028595924377441406,0.10676860809326172,0.049147606,2.6613045,3.5295042739808613,0.0,0.035101828363736265,0.0,30,0.0023360252380371094,1.1027947286657134,1.1027947286657134,16700,4.126120042714255,0.0
235,1.830845594406128,4.02478341244256,0.014627189505007927,4.043834435818514,4.002757730948241,0.0,0.08984696025798886,0.1,0.0024225711822509766,0.046045541763305664,0.051115397,3.1643085,3.579032187827031,0.0,0.07548948455246382,0.0,58,0.002624988555908203,1.0993693817909016,1.0993693817909016,16758,4.793743874781757,0.0
236,1.7004287242889404,3.7680348403960817,0.42465406275434725,4.023789777734195,3.032598879611094,0.0,0.08234995885550835,0.1,0.0023560523986816406,0.08002161979675293,0.04975207,2.5434377,3.5979324530839363,0.0,0.06533867933927257,0.0,36,0.0019102096557617188,1.017615251157644,1.017615251157644,16794,4.366679474135574,0.0
237,1.7988922595977783,4.058607336564651,0.058230585282081686,4.156138142038401,4.007785616229475,0.0,0.10350576921169465,0.1,0.0024361610412597656,0.04728078842163086,0.05016754,2.6690457,3.643999941432008,0.0,0.08110289208997448,0.0,82,0.0025529861450195312,1.1573914311026348,1.1573914311026348,16876,5.542768465162843,0.0
238,1.9492499828338623,5.068800232996802,1.8291889004575987,8.237034888723155,4.0043356359353215,0.0,0.10085440894558421,0.1,0.0024566650390625,0.048146963119506836,0.050163034,2.0946124,3.7864799705884873,0.0,0.09629971883194584,0.0,94,0.002604246139526367,0.9536702319289265,0.9536702319289265,16970,3.52516759742608,0.0
239,1.9244728088378906,4.008536850723665,0.007258506881265884,4.021024327922591,4.0030909864818005,0.0,0.08800384074459237,0.1,0.002661466598510742,0.0802159309387207,0.049794838,2.4197233,3.808685658602005,0.0,0.08020688722551748,0.0,47,0.0024421215057373047,1.0547662914454348,1.0547662914454348,17017,4.046415797837908,0.0
240,1.739168405532837,3.513183902943389,0.8731800636061063,4.029434094452355,2.0008936304001836,0.0,0.10251961791037921,0.1,0.0025916099548339844,0.04957985877990723,0.05025411,2.8626485,3.7791354830361437,0.0,0.06523836686227551,0.0,57,0.0025124549865722656,1.1298903592406149,1.1298903592406149,17074,3.1111796301848424,0.0
241,1.7627627849578857,4.029949163661892,0.026073843233009954,4.058380309698206,4.0018710385701075,0.0,0.09318257729694111,0.1,0.0026407241821289062,0.046691179275512695,0.049431685,2.2526367,3.8042168510987184,0.0,0.08059402528462889,0.0,51,0.002521991729736328,1.087803979750415,1.087803979750415,17125,3.8585491801268255,0.0
242,1.8469898700714111,1.7589386580106998,1.488791888307301,4.025784277334987,0.00018731557004580957,0.0,0.07155407046453713,0.1,0.002484560012817383,0.1073920726776123,0.04829415,5.5568748,3.5996890317899166,0.0,0.020172100151311843,0.0,26,0.0025162696838378906,1.1516052510836927,1.1516052510836927,17151,3.450088015484891,0.0
243,1.9265820980072021,4.28798705478916,1.1448148587135918,6.139229782204517,3.0011126130523254,0.0,0.10531885917100704,0.1,0.0029621124267578125,0.0482485294342041,0.049229063,2.1982284,3.6685188340898414,0.0,0.07075541427733117,0.0,82,0.0024573802947998047,0.9896667541467437,0.9896667541467437,17233,3.1825982454186335,0.0
244,1.9269781112670898,4.0192693113692926,0.013545251706367143,4.040102785080675,4.002154244132828,0.0,0.09462436240137521,0.1,0.0024433135986328125,0.04607892036437988,0.04954804,2.6845913,3.7035938818177865,0.0,0.07534096572199608,0.0,50,0.002454996109008789,1.0794750053302917,1.0794750053302917,17283,4.04478780384353,0.0
245,1.6688787937164307,1.760592631316964,2.2880158375443207,4.038970923425882,-0.9999431564366903,0.0,0.0785435540406177,0.1,0.0023736953735351562,0.0894937515258789,0.049592245,5.868613,3.5092937567677045,0.0,0.025190771454975655,0.0,31,0.0025272369384765625,1.1278439290581102,1.1278439290581102,17314,4.027901036170667,0.0
246,1.7944843769073486,4.013523925213129,0.0100228232643885,4.029570430982882,4.003213055579112,0.0,0.08781129176006242,0.1,0.002452373504638672,0.04651618003845215,0.050168257,2.3763678,3.559716773612247,0.0,0.0752935995046658,0.0,52,0.003045320510864258,1.090078852990497,1.090078852990497,17366,3.8781535291452855,0.0
247,2.0302116870880127,3.068114493921734,1.7718382831359336,4.1405473817933895,0.00013089551604195115,0.0,0.11246101169612781,0.1,0.002666473388671875,0.048223018646240234,0.049976256,2.2311666,3.5105565456431957,0.0,0.056339191272584896,0.0,76,0.0025300979614257812,1.1796146471705622,1.1796146471705622,17442,3.4412178351556446,0.0
248,1.8727755546569824,4.054966436582633,0.06829143969551468,4.17178290138628,4.005663457446464,0.0,0.09988249066242225,0.1,0.002542257308959961,0.052828311920166016,0.049622342,2.9998405,3.56499753473714,0.0,0.08107670507785279,0.0,83,0.002580404281616211,1.158163753734877,1.158163753734877,17525,4.192413505714881,0.0
249,1.8297486305236816,3.075254724153681,1.777654921134884,4.2460644872902895,0.0001852862970732616,0.0,0.09809146874756709,0.1,0.0024251937866210938,0.04796338081359863,0.04987873,7.3728995,3.516023253678794,0.0,0.05647499340291508,0.0,67,0.0022263526916503906,1.1699435875688076,1.1699435875688076,17592,3.775519745388572,0.0
250,2.10532808303833,4.8578265969463565,1.2954648521365606,7.100380110168047,4.056779972581847,0.0,0.10826872223075212,0.1,0.002463102340698242,0.048502445220947266,0.05002826,2.0930119,3.6502035880055503,0.0,0.09201962594861639,0.0,90,0.0027353763580322266,1.0236113565124099,1.0236113565124099,17682,4.037614484694661,0.0
251,1.9900996685028076,3.7996224419734057,2.508455087752306,7.054137616988476,0.0010896182483086658,0.0,0.10148568339747037,0.1,0.002389192581176758,0.04721188545227051,0.04987538,2.1487951,3.665145473402336,0.0,0.06592694748979273,0.0,76,0.0024139881134033203,0.978739249995438,0.978739249995438,17758,3.7751908727313617,0.0
252,2.252429485321045,2.8253847775484733,2.2092529416321174,4.1769647450273375,-0.9999406390224097,0.0,0.1072358429574326,0.1,0.0025560855865478516,0.04801201820373535,0.0499465,4.814954,3.5811694038169497,0.0,0.05145497274498176,0.0,83,0.002576589584350586,1.2025361804444046,1.2025361804444046,17841,3.8617235017574476,0.0
253,1.8986992835998535,4.013185890221461,0.010967662292371103,4.030997319094954,4.0039714518294325,0.0,0.10026172030012023,0.1,0.0024225711822509766,0.04748249053955078,0.049601927,2.8921142,3.6243710524574007,0.0,0.08025666254656655,0.0,70,0.002322673797607422,1.1345904658332127,1.1345904658332127,17911,3.783991137139853,0.0
254,1.9179725646972656,4.007900876579724,0.005684337539286975,4.016166714291781,4.002297288155479,0.0,0.09205484969210997,0.1,0.002371072769165039,0.04649186134338379,0.050822835,2.34317,3.6627240348696333,0.0,0.07514161825317392,0.0,52,0.0025937557220458984,1.0879388574897542,1.0879388574897542,17963,4.536075041557442,0.0
255,1.8525025844573975,3.2649218690654123,1.307474485375336,4.028200425749339,1.0003354287389832,0.0,0.09986873292544299,0.1,0.002393484115600586,0.054410696029663086,0.050606497,2.8354423,3.6229438182892113,0.0,0.060276499703878744,0.0,53,0.002462148666381836,1.1385907121037457,1.1385907121037457,18016,3.0248586837312206,0.0
256,1.94124174118042,6.061675705560359,3.4640379042337406,12.060984089878522,4.001522996493981,0.0,0.10775397146503796,0.1,0.0026140213012695312,0.050720930099487305,0.050018564,1.5009371,3.866817007016326,0.0,0.12121913962959822,0.0,94,0.0026314258575439453,0.9352849847951304,0.9352849847951304,18110,3.122771042374032,0.0
257,1.9232850074768066,3.2734276459496603,1.312712001794842,4.074613053265924,1.0002117550809961,0.0,0.09368420607741916,0.1,0.0023856163024902344,0.07786202430725098,0.050034326,2.9093223,3.807478070909659,0.0,0.06048251937718577,0.0,47,0.0022923946380615234,1.108718438625765,1.108718438625765,18157,4.954973252091063,0.0
258,1.932340383529663,1.507227388949076,2.507182303551444,4.024477747968665,-0.999944853441789,0.0,0.07540735855960486,0.1,0.0022525787353515625,0.10429573059082031,0.049808282,4.7813854,3.5774530027136007,0.0,0.02012855931404557,0.0,27,0.00206756591796875,1.090514341540717,1.090514341540717,18184,4.608724913318982,0.0
259,1.932497501373291,4.027086724761749,0.032306261536501596,4.08240783489247,4.002471806146827,0.0,0.1067464377762165,0.1,0.002412080764770508,0.046594858169555664,0.049477927,2.7400408,3.6224163749184153,0.0,0.08052662319127896,0.0,67,0.0025916099548339844,1.120866162683277,1.120866162683277,18251,4.1319865460605465,0.0
260,1.9268507957458496,4.069777417300283,0.06911986029020994,4.176275628852846,4.005848913990446,0.0,0.11644038766452276,0.1,0.0025107860565185547,0.05209827423095703,0.049361765,3.112,3.667152479156602,0.0,0.08134973477963764,0.0,103,0.002946138381958008,1.1785687135627123,1.1785687135627123,18354,3.967790980364026,0.0
261,1.9577293395996094,4.5924524746115765,0.8830129124674374,6.119641732926575,4.005482780893208,0.0,0.12154054388801716,0.1,0.0026476383209228516,0.0499110221862793,0.049492322,2.5406303,3.7596824787021,0.0,0.08179125682326412,0.0,122,0.007071495056152344,1.1002982897791125,1.1002982897791125,18476,6.4218035321014995,0.0
262,2.078252077102661,3.51551304233621,0.8745538039789172,4.032942297984915,2.0008574614837835,0.0,0.0930684215543952,0.1,0.0024061203002929688,0.046173095703125,0.0497509,2.7307627,3.735265535065511,0.0,0.06528991704312978,0.0,55,0.002502918243408203,1.1434156426249795,1.1434156426249795,18531,4.126945017207521,0.0
263,1.8256585597991943,4.005443905086064,0.004461300267464658,4.01280306730292,4.00177501011045,0.0,0.08245733023659976,0.1,0.0022962093353271484,0.0803682804107666,0.049943145,2.2579732,3.7622833720675666,0.0,0.08009569634434159,0.0,39,0.0023393630981445312,1.0235055628429373,1.0235055628429373,18570,4.032659851066703,0.0
264,1.983069658279419,3.279057816824783,1.3157766447617083,4.057826568352343,1.0002459562614037,0.0,0.09658831862726981,0.1,0.0023670196533203125,0.04737496376037598,0.049617708,3.49545,3.7139608165432882,0.0,0.0605607303498699,0.0,59,0.0023233890533447266,1.141790670619914,1.141790670619914,18629,4.073569757317234,0.0
265,2.0302836894989014,5.578752141437694,2.6602223837941064,10.186181411804762,4.003228585058986,0.0,0.1100346208155835,0.1,0.0026013851165771484,0.05040693283081055,0.050893642,1.4406726,3.900439949032729,0.0,0.10155820664870902,0.0,110,0.0047109127044677734,0.9553314217386043,0.9553314217386043,18739,4.46505613240055,0.0
266,2.009369134902954,2.2635395190736025,1.798524678592423,4.0528333009040685,0.00014247161021052612,0.0,0.08373068883893225,0.1,0.0022928714752197266,0.09667277336120605,0.05010908,2.7196498,3.736749906036816,0.0,0.03526107833622707,0.0,30,0.0029914379119873047,1.0910195488199126,1.0910195488199126,18769,4.042576254908433,0.0
267,1.8020105361938477,3.256111948429117,1.301929800919333,4.01669367044592,1.001124786502974,0.0,0.08138724692951078,0.1,0.0023963451385498047,0.08468198776245117,0.049937624,5.6764812,3.688686110276046,0.0,0.05510913576741372,0.0,36,0.002660989761352539,1.0587622384317428,1.0587622384317428,18805,3.3147156378939013,0.0
268,2.027634620666504,5.064600340165586,1.0257179699059193,6.108890717492361,4.0192279691661215,0.0,0.12018344331643772,0.1,0.002782583236694336,0.051323890686035156,0.0505131,2.5988798,3.8262775332650003,0.0,0.08121940445075965,0.0,136,0.010378360748291016,1.0036500144171558,0.9974790989598736,18941,3.804239704413227,0.0
269,2.05513072013855,4.044187158730921,0.035069205267979554,4.079263380824609,4.002114243847853,0.0,0.1139198935890791,0.1,0.0026700496673583984,0.049845218658447266,0.048463363,3.6792088,3.8480684958115923,0.0,0.08082289537508981,0.0,106,0.0047757625579833984,1.1676603769657217,1.1676603769657217,19047,5.781078720847003,0.0
270,2.1767477989196777,4.302251843645079,0.4943298540502761,5.158368976533767,4.006930187588193,0.0,0.1110983361719089,0.1,0.0026636123657226562,0.04933929443359375,0.049423624,4.0726438,3.8934868305949415,0.0,0.08605450684268243,0.0,102,0.005188941955566406,1.1272635250721779,1.1272635250721779,19149,8.565277583356368,0.0
271,2.1793792247772217,3.7786497117061764,0.4507479388317888,4.096647782988402,3.0004268531152194,0.0,0.09557462313219496,0.1,0.0024271011352539062,0.04611086845397949,0.049954087,3.554501,3.8820031187060655,0.0,0.07051236715436986,0.0,54,0.0024666786193847656,1.1095247315112746,1.1095247315112746,19203,3.9238535447584204,0.0
272,2.21056866645813,8.387396061426772,9.398753349466222,24.526702815931,1.0004520956342193,0.0,0.09808332829958696,0.1,0.0024576187133789062,0.04845619201660156,0.04980285,1.4181515,4.332542412978136,0.0,0.14774892146829047,0.0,83,0.0024771690368652344,0.9649209611554019,0.9649209611554019,19286,4.077342758147185,0.0
273,1.9043915271759033,1.7727840770334662,2.3001815848434206,4.083291999316874,-0.9999447555168641,0.0,0.0909033042133796,0.1,0.002401590347290039,0.04559779167175293,0.049769722,15.247819,4.07656657938367,0.0,0.025452018715431617,0.0,55,0.002350330352783203,1.176274461797623,1.176274461797623,19341,6.200758379603871,0.0
274,2.1357641220092773,4.039163969663375,0.026317089482948933,4.074870635338391,4.000783415156967,0.0,0.11097121311751151,0.1,0.0027010440826416016,0.04858875274658203,0.05065197,2.9869652,4.07282631841164,0.0,0.08077441092383708,0.0,88,0.0026254653930664062,1.1593479023452937,1.1593479023452937,19429,5.056527894119956,0.0
275,1.9230480194091797,4.016886307010987,0.021258300995862955,4.05365579795315,4.002816189551686,0.0,0.09558066826285824,0.1,0.0023183822631835938,0.046172142028808594,0.050153993,1.9015056,4.067232317271575,0.0,0.0752758565452747,0.0,55,0.0023047924041748047,1.0920109121214983,1.0920109121214983,19484,4.754098423350437,0.0
276,1.9603219032287598,6.560002829452367,4.368478231553279,14.126382160454995,4.014096391268721,0.0,0.11841461565929488,0.1,0.0025281906127929688,0.049896955490112305,0.049472705,1.3322728,4.316509368489655,0.0,0.12617843854263255,0.0,118,0.003429412841796875,0.9568975828218278,0.9568975828218278,19602,5.6164632073568095,0.0
277,2.0994668006896973,2.7619929740359446,2.1719671702963175,4.027619538958463,-0.9999442299343149,0.0,0.09191908702404247,0.1,0.0025627613067626953,0.04674839973449707,0.04898655,4.1966195,4.161057729044284,0.0,0.05022952700680655,0.0,57,0.0027015209197998047,1.144899500454364,1.144899500454364,19659,4.659849591338232,0.0
278,1.7851636409759521,3.536520764741927,0.8872556206108436,4.093969123390465,2.000808496069502,0.0,0.09594303340254277,0.1,0.0023622512817382812,0.04861640930175781,0.050197892,2.779402,4.098604032614048,0.0,0.0656814193510134,0.0,52,0.002332448959350586,1.126176909652863,1.126176909652863,19711,4.585117528857874,0.0
279,2.121164560317993,3.569540726389284,0.9022784793982976,4.169421091820086,2.009048782320048,0.0,0.10860879069536378,0.1,0.0024688243865966797,0.047869205474853516,0.049739514,7.2423873,4.045697701991572,0.0,0.06638240439476326,0.0,87,0.002267122268676758,1.1793682741865148,1.1793682741865148,19798,5.726621641482204,0.0
280,1.8758413791656494,4.028663545834614,0.018406485200987963,4.049480145039021,4.006625825479339,0.0,0.1077051386713225,0.1,0.002423524856567383,0.04711103439331055,0.050151188,3.200042,4.043994286375876,0.0,0.07554596727949724,0.0,78,0.0030105113983154297,1.1306017031557847,1.1306017031557847,19876,6.750843593709932,0.0
281,2.0376691818237305,4.05294755633639,0.061781071793436663,4.158756771157277,4.002678973476898,0.0,0.107906057271009,0.1,0.0027246475219726562,0.04727673530578613,0.050643425,2.2466364,4.044889613371928,0.0,0.08101672049459148,0.0,81,0.0026535987854003906,1.1574538178020626,1.1574538178020626,19957,4.246145488830734,0.0
282,1.9420454502105713,4.036852241459756,0.03492740772599265,4.088268719295294,4.001206042753719,0.0,0.10470144592801474,0.1,0.002444028854370117,0.048394203186035156,0.04888449,3.6042602,4.044085876180711,0.0,0.08073236176146606,0.0,92,0.003041982650756836,1.1539445898120588,1.1539445898120588,20049,4.0689349512696245,0.0
283,1.981691837310791,7.113663175397939,4.779962792272451,15.358803750846967,4.001564896802797,0.0,0.11212436125757488,0.1,0.0025548934936523438,0.049375295639038086,0.050410073,0.9750363,4.351043606102434,0.0,0.12220919450993026,0.0,111,0.0046634674072265625,0.9437482230271869,0.9437482230271869,20160,3.79037313176963,0.0
284,1.9411718845367432,4.563001213736317,2.26491822143533,8.220738254179194,2.0069295051785225,0.0,0.09944072408587679,0.1,0.00246429443359375,0.047234535217285156,0.050418224,1.4503825,4.372239366865822,0.0,0.08114872950321117,0.0,67,0.002373933792114258,0.9205783989377841,0.9205783989377841,20227,4.3102406317742545,0.0
285,2.000479221343994,3.295801796103821,1.325634284686229,4.133433266628764,1.0010499279518585,0.0,0.11242501843965841,0.1,0.0031452178955078125,0.04957890510559082,0.05040441,2.0405135,4.264595609789621,0.0,0.06091279584130316,0.0,90,0.0026705265045166016,1.1875526005452135,1.1875526005452135,20317,3.5468288735883515,0.0
286,1.7821483612060547,2.5355979071340338,2.087309097772255,4.1283998469240535,-0.9999452376305249,0.0,0.09489331487870471,0.1,0.002712249755859375,0.04674410820007324,0.048782308,7.3778176,4.091695839524063,0.0,0.04068804805942691,0.0,58,0.002399921417236328,1.1603493661825075,1.1603493661825075,20375,3.5351323661325984,0.0
287,1.9356961250305176,3.5718393044146968,1.6961296147615974,6.165067866463436,2.0009434549767526,0.0,0.10519154432135193,0.1,0.0027065277099609375,0.048624515533447266,0.04944949,2.228831,4.039710186013126,0.0,0.051434120422426594,0.0,78,0.0024614334106445312,0.9926048345851953,0.9926048345851953,20453,3.553966015670374,0.0
288,2.004284143447876,4.055082016347383,0.06293451766985024,4.164014432547167,4.0153980512890035,0.0,0.11305347124577558,0.1,0.0030078887939453125,0.049433231353759766,0.05023697,3.1556017,4.041247369046552,0.0,0.08109065504980015,0.0,96,0.002810955047607422,1.1667170554988289,1.1667170554988289,20549,3.9582306052774867,0.0
289,2.2317264080047607,2.2575633762687,2.0493127288531467,4.013015109530244,-0.9999457836437669,0.0,0.07620378733243396,0.1,0.0024712085723876953,0.1268141269683838,0.050565068,3.1571398,3.862878969768767,0.0,0.03515531914481951,0.0,24,0.0029304027557373047,1.0098381572619768,1.0098381572619768,20573,3.279991570504746,0.0
290,1.9940071105957031,7.1250638627889575,5.955658077070065,17.414210470908685,3.0009492079884756,0.0,0.10039957805931211,0.1,0.0030798912048339844,0.052234649658203125,0.050222434,1.3489686,4.189097459070786,0.0,0.13241947762485667,0.0,92,0.002707958221435547,0.9496743912447309,0.9496743912447309,20665,2.8858623919309836,0.0
291,1.941103458404541,1.7632725072355928,2.2905824451128245,4.031881415386426,-0.999944384277438,0.0,0.0956647193574307,0.1,0.002733945846557617,0.0476682186126709,0.049124353,4.2105203,3.946514963887267,0.0,0.025264355869979438,0.0,59,0.002460479736328125,1.1859732000789593,1.1859732000789593,20724,3.950228773660696,0.0
292,2.73413348197937,2.7908220344448402,2.1886570216495542,4.075214864051286,-0.9999445852194557,0.0,0.10598885955501292,0.1,0.0026459693908691406,0.04722237586975098,0.04987773,2.3385606,3.8309456709430245,0.0,0.050714848047511724,0.0,68,0.0025391578674316406,1.1706900085353165,1.1706900085353165,20792,3.3567724388218614,0.0
293,2.0936622619628906,3.069896596486872,1.7730347988613187,4.162893272948594,0.00014275872419711177,0.0,0.09414053793828456,0.1,0.002417325973510742,0.047657012939453125,0.04921725,5.114559,3.754840763497409,0.0,0.05619951671324029,0.0,59,0.002465486526489258,1.1393891121484472,1.1393891121484472,20851,3.363277498219695,0.0
294,2.0287892818450928,6.088101553740534,4.173785094638909,13.280109426199527,3.0007191375488382,0.0,0.1037207886519186,0.1,0.0025911331176757812,0.04879951477050781,0.05001756,1.5987961,3.9881668425217214,0.0,0.11176172571781294,0.0,88,0.0026297569274902344,0.9388367460576424,0.9388367460576424,20939,3.3690964803485848,0.0
295,1.9759950637817383,4.022351849362844,0.02165569473070402,4.059725488458339,4.008284123037015,0.0,0.0989054465040246,0.1,0.002463817596435547,0.04932379722595215,0.050178535,2.0494587,3.991585343205834,0.0,0.07545804913614203,0.0,66,0.0026085376739501953,1.1221882602824143,1.1221882602824143,21005,4.015491359532819,0.0
296,2.043907642364502,7.106834871723095,5.219639643243322,16.145883232902747,4.004071703066445,0.0,0.10633908469361597,0.1,0.0025420188903808594,0.05128812789916992,0.049658965,1.6879272,4.303110296057561,0.0,0.13692797179109245,0.0,87,0.0027518272399902344,0.9492244078531943,0.9492244078531943,21092,3.513219499445808,0.0
297,2.036801815032959,3.0223953643175543,1.7449455403896397,4.052741339578976,0.00017073628210417802,0.0,0.09408940644794513,0.1,0.0025670528411865234,0.07532215118408203,0.050256748,3.308913,4.17503880288356,0.0,0.050421473900489455,0.0,48,0.002418994903564453,1.0951060569814883,1.0951060569814883,21140,3.5971286615466416,0.0
298,1.9815177917480469,4.65581711811182,1.0762691621236733,6.519435762917734,4.011297596826885,0.0,0.11240442912813887,0.1,0.0025746822357177734,0.0490422248840332,0.050072953,1.7037112,4.223116634406386,0.0,0.09283098447973312,0.0,84,0.0027778148651123047,1.0220940591348657,1.0220940591348657,21224,3.780243807929542,0.0
299,2.003864288330078,4.562553456437083,0.9175881005455917,6.151498466401553,4.000998456225338,0.0,0.11028585750688787,0.1,0.002618074417114258,0.05034232139587402,0.050325513,5.925328,4.257060316609456,0.0,0.08123938153530441,0.0,91,0.0027081966400146484,1.0198825387779336,1.0198825387779336,21315,2.6091461722955676,0.0
300,2.3378405570983887,2.774158612372567,2.1792741599678123,4.090675120891234,-0.9999449710728134,0.0,0.09565621662286031,0.1,0.0025489330291748047,0.04671430587768555,0.049729116,8.325858,4.108770146185767,0.0,0.05047649934879595,0.0,62,0.002295255661010742,1.1339217349797936,1.1339217349797936,21377,3.9518287878061744,0.0
301,2.0030412673950195,5.024045767712762,1.7578477445046445,8.068716276340723,4.0020803180613695,0.0,0.09300186975748487,0.1,0.002491474151611328,0.04636716842651367,0.05009294,3.042224,4.200297708338467,0.0,0.09543046982905284,0.0,57,0.0025594234466552734,0.9289644666571713,0.9289644666571713,21434,3.6276437221566713,0.0
302,1.9489948749542236,4.616214290230399,0.9965781635373142,6.341564584373016,4.0026880891073615,0.0,0.12395864491210802,0.1,0.002672910690307617,0.05049538612365723,0.049599793,3.8357627,4.24188936652766,0.0,0.08229177043948421,0.0,127,0.006687641143798828,1.0879232373545569,1.0879232373545569,21561,4.032977226913377,0.0
303,1.937131404876709,4.023909430481233,0.023850125132672276,4.064892662431305,4.005585170568298,0.0,0.10118078170305578,0.1,0.0026290416717529297,0.04704117774963379,0.04957905,2.7605233,4.220091372923018,0.0,0.08045363764005212,0.0,63,0.002528667449951172,1.1068764156987463,1.1068764156987463,21624,3.867534606944131,0.0
304,1.840193510055542,4.0584861415760045,0.043843401266274985,4.128124645074158,4.01704510083296,0.0,0.11315189294478169,0.1,0.002582550048828125,0.055516958236694336,0.050160542,1.7830492,4.203930849788317,0.0,0.08104170156389583,0.0,81,0.0028362274169921875,1.1528956287525522,1.1528956287525522,21705,3.2689302574286216,0.0
305,1.9437499046325684,4.025768908774992,0.01813716101400907,4.04581271962136,4.00210600678493,0.0,0.09254380651509916,0.1,0.0024895668029785156,0.04668593406677246,0.049920917,2.6831112,4.186114655686985,0.0,0.0804901175508411,0.0,56,0.0026040077209472656,1.0865400421275293,1.0865400421275293,21761,3.782264471218783,0.0
306,1.9425201416015625,2.7770465320112403,2.1806572975636636,4.042032628655747,-0.9999462806999349,0.0,0.09864234478375575,0.1,0.0024518966674804688,0.04571795463562012,0.04943759,2.7457514,4.04520784331941,0.0,0.0504463932549107,0.0,50,0.0024881362915039062,1.126660689899781,1.126660689899781,21811,4.041035118826127,0.0
307,1.98036527633667,4.065657494432918,0.05095224374786926,4.130439525778483,4.011271849465623,0.0,0.11216048019794166,0.1,0.002694368362426758,0.04942440986633301,0.05015338,2.564511,4.047252808430761,0.0,0.08113835718719073,0.0,93,0.002610921859741211,1.1588416120660043,1.1588416120660043,21904,3.6072155686153367,0.0
308,1.8505723476409912,4.321784014855328,2.580354584075092,8.26165259648688,1.019161928578818,0.0,0.09189445896695829,0.1,0.0026602745056152344,0.046402931213378906,0.049240682,2.336616,4.074705929073218,0.0,0.07636591414148097,0.0,56,0.0025403499603271484,0.8564033617800647,0.8564033617800647,21960,3.6906192058823772,0.0
309,2.044198751449585,3.5257305905804786,0.8806253001435236,4.078554264644122,2.001196730641288,0.0,0.0977654402280119,0.1,0.0024552345275878906,0.07088065147399902,0.050557088,3.7543736,4.0198083952239445,0.0,0.06550476025399027,0.0,46,0.0025370121002197266,1.0858112777508215,1.0858112777508215,22006,3.199784887708578,0.0
310,2.042383909225464,4.015815607446258,0.006389786136691799,4.023060629609006,4.006370690316647,0.0,0.10292804242361939,0.1,0.0025413036346435547,0.04713630676269531,0.049016565,2.1517193,4.019409116446176,0.0,0.08029532618476332,0.0,68,0.0027039051055908203,1.1322770289115687,1.1322770289115687,22074,3.844544894183771,0.0
311,2.0888118743896484,3.7974988315867435,2.5411625037189682,7.164847299361634,0.002817045558211717,0.0,0.1130912096621481,0.1,0.0025436878204345703,0.04753375053405762,0.0495038,2.1477633,3.997218087960233,0.0,0.06583604747417904,0.0,72,0.002422809600830078,0.9614178921004108,0.9614178921004108,22146,4.021210149584834,0.0
312,1.8717260360717773,4.060279122629019,0.04503776794245971,4.117360928201704,4.00644315849263,0.0,0.1048138128063141,0.1,0.002489805221557617,0.0471494197845459,0.050674625,1.8788521,4.003524191427112,0.0,0.08117838340744482,0.0,65,0.002560138702392578,1.1079985166768715,1.1079985166768715,22211,3.3641096674437487,0.0
313,1.9376599788665771,4.04513866086844,0.024537021240078727,4.0871831137914185,4.025335853535859,0.0,0.10846194330146942,0.1,0.0025534629821777344,0.0475926399230957,0.0499658,2.645354,4.007685638371245,0.0,0.08085680858378175,0.0,74,0.002750873565673828,1.1364153408606594,1.1364153408606594,22285,3.946676967304468,0.0
314,2.129128932952881,6.839673508094807,4.870578089792651,15.2757089004879,4.0035062841298625,0.0,0.10896607956235886,0.1,0.002596139907836914,0.04911231994628906,0.04998546,1.1321044,4.290884425343601,0.0,0.13148410272304722,0.0,91,0.002551555633544922,0.9447334047012179,0.9447334047012179,22376,4.778482051877165,0.0
315,2.1130731105804443,4.031005119204396,0.022124573315539603,4.068980649179941,4.0149972698458285,0.0,0.09631826368560523,0.1,0.002483844757080078,0.046288490295410156,0.050305955,1.9110771,4.2648964947296815,0.0,0.08060244326149063,0.0,54,0.002498626708984375,1.0910854144307842,1.0910854144307842,22430,4.959541653590516,0.0
316,1.9160089492797852,3.7788364484401322,0.44894382076212547,4.099515939006243,3.004069435140237,0.0,0.09699196581761246,0.1,0.0024166107177734375,0.04616880416870117,0.049263343,3.0286858,4.216290490100727,0.0,0.07058392976379631,0.0,51,0.002664804458618164,1.0776201081818175,1.0776201081818175,22481,4.450762863794139,0.0
317,1.9155166149139404,6.368862332067912,4.063909308904351,13.407717482756837,4.004502368780371,0.0,0.1026468803595484,0.1,0.0026798248291015625,0.0495457649230957,0.049473874,1.5152489,4.431547674297446,0.0,0.1173282117899968,0.0,89,0.0028748512268066406,0.9398324964679964,0.9398324964679964,22570,3.3156171835001342,0.0
318,2.0011725425720215,3.2893370991478186,1.321992932605694,4.094893229787562,1.0002608057406055,0.0,0.11145387189780438,0.1,0.0026521682739257812,0.04843568801879883,0.04773605,2.133602,4.317326616782483,0.0,0.060764131280022185,0.0,81,0.0026235580444335938,1.1731077346056187,1.1731077346056187,22651,3.438970993895687,0.0
319,2.221282958984375,3.0508960904994424,1.227460719410828,4.002571821942647,1.0025316215560816,0.0,0.07967475789876949,0.1,0.0016913414001464844,0.030131101608276367,0.049809165,2.5954347,4.190683564154179,0.0,0.04101759181410708,0.0,20,0.004031181335449219,0.8768636769573698,0.8768636769573698,22671,3.5233148351823815,0.0
320,1.982816219329834,4.023050306780343,0.02234993782800099,4.0614869177300905,4.006366960375474,0.0,0.11036421899782572,0.1,0.0025968551635742188,0.047780752182006836,0.049898837,1.8478187,4.1739202384167955,0.0,0.08045996258032627,0.0,77,0.0025572776794433594,1.1433407416645067,1.1433407416645067,22748,3.521766754708333,0.0
321,1.8249847888946533,3.018225066254292,1.7339347893557375,4.0260088494111885,0.014995509377961236,0.0,0.08839893170079295,0.1,0.0024847984313964844,0.08110785484313965,0.05017511,2.091962,4.058350721200545,0.0,0.05526918903120355,0.0,38,0.003049612045288086,1.0667029053557033,1.0667029053557033,22786,3.6890176710665954,0.0
322,2.0806474685668945,6.875661945216447,3.3840628836830255,12.323784812418422,4.023101274215775,0.0,0.10605103651551316,0.1,0.0026624202728271484,0.04935741424560547,0.04932978,1.4782914,4.340081843602135,0.0,0.13244031090869626,0.0,93,0.002637147903442383,0.9109005482748624,0.9109005482748624,22879,2.9511621634237364,0.0
323,1.9927566051483154,2.7795675058078224,2.1821363939347522,4.054160022285773,-0.9999447045639591,0.0,0.09215277854615443,0.1,0.0025856494903564453,0.07440710067749023,0.049954865,2.8331892,4.184030409822705,0.0,0.05055108505552605,0.0,48,0.003431081771850586,1.1180124022956062,1.1180124022956062,22927,5.965317867565581,0.0
324,2.239630699157715,3.5288675561459755,0.8827898486571422,4.070027185155461,2.000354098717439,0.0,0.09214462980691346,0.1,0.0027434825897216797,0.0468294620513916,0.050314795,3.7513912,4.118514124455031,0.0,0.06053213687886048,0.0,53,0.002550840377807617,1.1103852311412052,1.1103852311412052,22980,3.6189871335900676,0.0
325,1.8713910579681396,3.5572740118265505,0.8824219243113184,4.183492452187815,2.0340491420166877,0.0,0.10259654265004664,0.1,0.0026123523712158203,0.05102133750915527,0.0499812,3.6822898,4.062390113192183,0.0,0.06606059960037491,0.0,73,0.002490520477294922,1.1568218071929581,1.1568218071929581,23053,2.9379136316332133,0.0
326,1.9385027885437012,3.5558029596870666,2.2361621178469604,6.18919708748182,0.000288345230235576,0.0,0.10512515407709024,0.1,0.0026760101318359375,0.05308055877685547,0.048860226,3.7121618,4.011731397841672,0.0,0.056080815794401474,0.0,85,0.0025615692138671875,1.0149476557198005,1.0149476557198005,23138,4.113082657823124,0.0
327,2.0195605754852295,4.10073393055819,1.5401660520425116,6.354633866132894,2.004169477186746,0.0,0.10411211516106512,0.1,0.002567768096923828,0.04915809631347656,0.04867365,4.386091,4.020631651113324,0.0,0.06695348161887824,0.0,85,0.002482175827026367,0.985903563635622,0.985903563635622,23223,4.057379157874432,0.0
328,2.043910026550293,4.070415026081985,1.490185980346817,6.21377905397495,2.000304613488133,0.0,0.114727732853751,0.1,0.002547025680541992,0.049462080001831055,0.05019125,2.3039246,4.02560998861019,0.0,0.06629869805069055,0.0,90,0.0028100013732910156,1.027135694968217,1.027135694968217,23313,3.7684527059280946,0.0
329,2.1176509857177734,6.590814520345024,2.666305300421301,10.107083358085449,4.005120457668198,0.0,0.11109033364307494,0.1,0.0026578903198242188,0.05073738098144531,0.04996162,1.3250607,4.282130441783674,0.0,0.11678655463699197,0.0,109,0.006740570068359375,0.8896581918941281,0.8896581918941281,23422,4.211129878192753,0.0
330,2.01237416267395,3.0090373817966762,1.7371933615806305,4.022545323028709,0.00015269049351984698,0.0,0.09087270547782093,0.1,0.002491474151611328,0.07030105590820312,0.05001728,2.6465275,4.1548211357849745,0.0,0.05518230067173526,0.0,45,0.002344846725463867,1.113630655368103,1.113630655368103,23467,4.066049957254607,0.0
331,2.186502695083618,6.554633544017717,5.5760525600879465,16.10337450618141,2.007015667322341,0.0,0.10460600646604545,0.1,0.002655506134033203,0.04860711097717285,0.050311357,1.6824937,4.394802376608249,0.0,0.1210941358699324,0.0,93,0.0023674964904785156,0.9466047035590921,0.9466047035590921,23560,3.6864034110973427,0.0
332,1.9464836120605469,4.661899523435276,2.353834190113101,8.461930723244164,2.0036995571347163,0.0,0.11486924337131185,0.1,0.002652883529663086,0.04984283447265625,0.05072513,2.1602728,4.421512091290952,0.0,0.07807078897070825,0.0,113,0.005710601806640625,0.9583542572882942,0.9583542572882942,23673,3.777601820766101,0.0
333,2.2838287353515625,4.934062475139291,1.2678244174042133,7.088073333627636,4.007031312160813,0.0,0.10778467274532118,0.1,0.0025606155395507812,0.0477902889251709,0.0492153,2.080078,4.472767129675786,0.0,0.09337012704671556,0.0,83,0.002460956573486328,0.9888790526717072,0.9888790526717072,23756,3.774357066364997,0.0
334,2.273930788040161,4.349463644363881,1.2251081874979972,6.34370943115809,3.001462422010984,0.0,0.11839685682774555,0.1,0.0024843215942382812,0.04941678047180176,0.050146762,1.216623,4.460436781144595,0.0,0.07196773174270849,0.0,94,0.0026140213012695312,1.0206185930217193,1.0206185930217193,23850,3.1834285635606534,0.0
335,2.0432212352752686,3.5208119785908547,0.8752208537772153,4.041430532702939,2.005046155054912,0.0,0.09172662977298358,0.1,0.002802133560180664,0.08032846450805664,0.049801532,1.884485,4.366474300889221,0.0,0.06538730418338287,0.0,42,0.0023088455200195312,1.0712360873405258,1.0712360873405258,23892,3.600531291442231,0.0
336,1.9884614944458008,3.030021320270638,1.749371632895976,4.074485051451916,0.000246561049643379,0.0,0.09994400915691616,0.1,0.002760171890258789,0.04903817176818848,0.049351506,20.9813,4.232829002827363,0.0,0.055589975442707905,0.0,72,0.0024929046630859375,1.1603885420876134,1.1603885420876134,23964,4.026729103502954,0.0
337,1.949608325958252,3.3456272093447907,1.3612192754048378,4.35377567776547,1.000180165456901,0.0,0.09422774845904451,0.1,0.002622842788696289,0.04763364791870117,0.04954279,3.0853577,4.1441088234791055,0.0,0.0617759332502103,0.0,53,0.002590179443359375,1.0977898651271973,1.0977898651271973,24017,4.115028004899547,0.0
338,2.172126293182373,3.5350228276658417,0.8791504006794679,4.115784143001354,2.0143090546414797,0.0,0.09885346566267725,0.1,0.002530336380004883,0.04866671562194824,0.049834248,3.1724594,4.083200223897779,0.0,0.06564361702279949,0.0,53,0.0026903152465820312,1.107574791979695,1.107574791979695,24070,6.846963949273257,0.0
339,2.0299954414367676,4.03240073269095,0.02750372164788817,4.076588417338097,4.006411925624537,0.0,0.11005491694406075,0.1,0.0025451183319091797,0.0486760139465332,0.05026975,1.5636759,4.078120274777096,0.0,0.08059506281498229,0.0,64,0.004263877868652344,1.1174489041123659,1.1174489041123659,24134,4.300875066179682,0.0
340,1.9878828525543213,4.0318848637470595,0.015510947483413728,4.055914611982397,4.016572752321066,0.0,0.10625065250224798,0.1,0.0025658607482910156,0.04858231544494629,0.050611112,1.7646036,4.073496733674093,0.0,0.08058992202723518,0.0,67,0.002512693405151367,1.1231788999951726,1.1231788999951726,24201,2.9387147604490775,0.0
341,1.9327008724212646,4.102613195160809,0.06777322928553145,4.201757693591027,4.025819992600147,0.0,0.12112837030976384,0.1,0.002671480178833008,0.05066967010498047,0.049663723,3.4777868,4.076408379822764,0.0,0.08182139601950275,0.0,112,0.004251718521118164,1.171186050468005,1.171186050468005,24313,4.385102977373446,0.0
342,1.8520145416259766,2.0415616494463507,1.567445805109468,4.0232062723191255,9.550236361910436e-05,0.0,0.07302647637567515,0.1,0.0015985965728759766,0.028823137283325195,0.049698655,2.2652385,3.872923706785123,0.0,0.025124004369958625,0.0,17,0.0021123886108398438,0.9244764835411405,0.9244764835411405,24330,3.7695498281752435,0.0
343,1.9507391452789307,4.026467882104324,0.013675892424715588,4.040375463959631,4.008875755684519,0.0,0.09807507742087133,0.1,0.0025599002838134766,0.04681754112243652,0.049565017,2.4402804,3.888278124317043,0.0,0.07543347531650538,0.0,56,0.0024652481079101562,1.1036951546750182,1.1036951546750182,24386,4.10895235070998,0.0
344,2.0021321773529053,4.647334480224625,1.791806242125422,6.355494834195157,2.000480595952061,0.0,0.12138954542165345,0.1,0.0025663375854492188,0.05659055709838867,0.047091924,4.3393917,3.9641837599078014,0.0,0.06296594777214279,0.0,110,0.0030889511108398438,0.8567981901769327,0.8567981901769327,24496,4.391181524841059,0.0
345,2.3154942989349365,7.415741965429655,3.763279103217634,13.153747097019732,4.036370000374808,0.0,0.11875871816664325,0.1,0.0028181076049804688,0.051145076751708984,0.04958244,1.0490898,4.309339580459987,0.0,0.1381081897836015,0.0,126,0.0032150745391845703,0.928753179563299,0.928753179563299,24622,4.3693724879790095,0.0
346,1.8358550071716309,3.2672643584812793,1.3089482063797244,4.063658993770024,1.0005133948264882,0.0,0.09414337063261383,0.1,0.0025942325592041016,0.07261395454406738,0.049839944,2.7980762,4.205132058262117,0.0,0.05534405303968772,0.0,49,0.0028574466705322266,1.1040005615880437,1.1040005615880437,24671,4.288910511801835,0.0
347,2.048790216445923,4.057455318523149,3.762643138251946,10.216941526678752,1.0001474861803057,0.0,0.08911194725707532,0.1,0.0025072097778320312,0.045960426330566406,0.05051304,1.4638644,4.19036438428822,0.0,0.0711315471263515,0.0,59,0.0024957656860351562,0.8965981871451926,0.8965981871451926,24730,3.0184904220166575,0.0
348,2.068152904510498,9.02416119984126,8.58302813580343,23.89028602040196,4.033682945739249,0.0,0.10999455084286282,0.1,0.0026051998138427734,0.04880881309509277,0.049794495,1.4406598,4.673744065843524,0.0,0.17505511450241193,0.0,105,0.0030558109283447266,0.9651021658923387,0.9651021658923387,24835,4.026917023190032,0.0
349,2.012028932571411,4.140256085949543,0.1937466990122269,4.473586867686143,4.004785586719806,0.0,0.10332274219322891,0.1,0.0027968883514404297,0.04760479927062988,0.04993001,5.058676,4.620395267854126,0.0,0.08277128688225743,0.0,82,0.002653360366821289,1.1206487639308749,1.1206487639308749,24917,3.9512537070964644,0.0
350,2.155441999435425,4.048580030476283,0.052365088454538716,4.136778681773188,4.003690167114517,0.0,0.10501080662167583,0.1,0.0024302005767822266,0.05091261863708496,0.049520228,2.0127883,4.563213744116341,0.0,0.07593421232059812,0.0,72,0.0025420188903808594,1.1139822906400134,1.1139822906400134,24989,3.2757699749792857,0.0
351,2.0901448726654053,4.086217861558887,0.08658229494475811,4.226420895046292,4.010633229407944,0.0,0.11104170840858603,0.1,0.0025055408477783203,0.048952579498291016,0.049294267,4.1215773,4.515514155860596,0.0,0.08173173524733673,0.0,104,0.0032758712768554688,1.1734168363105861,1.1734168363105861,25093,5.2384836880376335,0.0
352,2.450451612472534,4.041394027298548,0.06291021723272636,4.150261264672041,4.001264464088495,0.0,0.10003387264079984,0.1,0.002398252487182617,0.0456089973449707,0.049528573,2.3135629,4.4681021430043915,0.0,0.08071209391755936,0.0,57,0.002269744873046875,1.0984197768061008,1.0984197768061008,25150,3.612095947276837,0.0
353,2.14296817779541,3.532973099673762,0.8851018875177084,4.069680137427011,2.000473028726833,0.0,0.10217526742618327,0.1,0.002387523651123047,0.04583287239074707,0.050277203,3.7294388,4.374589238671328,0.0,0.06561385415156767,0.0,50,0.0025742053985595703,1.1075262663210899,1.1075262663210899,25200,4.700020151933006,0.0
354,2.1019625663757324,5.840923490283107,4.969854179959556,14.165437663940972,1.0003256639840128,0.0,0.10439248690775506,0.1,0.0026884078979492188,0.05115818977355957,0.049397256,2.455777,4.521222663832506,0.0,0.11172537449425357,0.0,111,0.004756450653076172,0.9507474050291244,0.9507474050291244,25311,3.7742291893843016,0.0
355,1.9981796741485596,5.094706385518329,5.129159174046543,13.219691751444719,-0.9999452546351517,0.0,0.09465215757152921,0.1,0.0026960372924804688,0.04834914207458496,0.049493205,1.7324828,4.5785710360010885,0.0,0.09176693912693454,0.0,59,0.0025603771209716797,0.9272681373479369,0.9272681373479369,25370,3.8686472189974803,0.0
356,1.8706510066986084,4.0273763333873145,0.006850688696937821,4.036688458456561,4.01868846279035,0.0,0.1060047258184531,0.1,0.002594470977783203,0.0473332405090332,0.050239637,1.495942,4.523451565739712,0.0,0.08053079786325257,0.0,61,0.0024297237396240234,1.1066651631411073,1.1066651631411073,25431,3.695376006066675,0.0
357,1.9804418087005615,5.052646029552722,2.409628271411551,9.164416634043123,3.0075386723880646,0.0,0.0945192116697089,0.1,0.0025458335876464844,0.04683208465576172,0.049669374,2.6545787,4.576371012121013,0.0,0.09096598665943324,0.0,58,0.0024726390838623047,0.8890217484282313,0.8890217484282313,25489,3.0282221105630485,0.0
358,1.9561824798583984,4.594931989654474,3.653345662380787,10.227608045463773,0.00013622889749553835,0.0,0.10610077948984271,0.1,0.002659320831298828,0.04971623420715332,0.050457306,1.5826477,4.5782271098743585,0.0,0.08180470107643585,0.0,91,0.002535581588745117,0.9357068452781816,0.9357068452781816,25580,3.862885250458174,0.0
359,2.046839952468872,6.334384722338934,2.9515652613535868,11.234263881222763,4.003694875619936,0.0,0.10766819605366978,0.1,0.0027267932891845703,0.05086350440979004,0.050474506,1.107829,4.753842871120817,0.0,0.11664376255811477,0.0,91,0.0027806758880615234,0.9084854882582146,0.9084854882582146,25671,3.28336030057655,0.0
360,2.0586819648742676,4.028701750491453,0.03704838347222702,4.092759007357008,4.005555141914505,0.0,0.10369154258125839,0.1,0.002526521682739258,0.047771453857421875,0.049749255,2.2775571,4.68132875905788,0.0,0.07551537303218817,0.0,69,0.0026390552520751953,1.1192207158884364,1.1192207158884364,25740,4.360540886995085,0.0
361,2.0223331451416016,4.538891961440459,2.2363317479015254,8.143471684366478,2.000532949590474,0.0,0.09513240401027341,0.1,0.0024313926696777344,0.04662632942199707,0.050109237,1.6642845,4.667085079296139,0.0,0.08577110449235359,0.0,62,0.002424955368041992,0.9289570747095405,0.9289570747095405,25802,2.3599392426123083,0.0
362,2.13850474357605,4.043450562112966,0.026113147958774296,4.08258846285711,4.012178996113364,0.0,0.11007234346209185,0.1,0.0025162696838378906,0.04805350303649902,0.0506252,2.090348,4.604721627577821,0.0,0.08081425674629925,0.0,79,0.002825498580932617,1.1485782510599993,1.1485782510599993,25881,3.7906851789142046,0.0
363,2.2136359214782715,4.014941321960858,0.00996901672243542,4.024856040833081,4.002958886325234,0.0,0.10027048262083989,0.1,0.0024840831756591797,0.0485687255859375,0.0498036,2.786742,4.545743597016125,0.0,0.08028005361970561,0.0,62,0.0025784969329833984,1.1231896882413608,1.1231896882413608,25943,3.2094104709358517,0.0
364,2.053284168243408,4.048509455868724,0.02201209309399916,4.072634660736796,4.022921389275195,0.0,0.1120117467403453,0.1,0.0025260448455810547,0.04850125312805176,0.04980317,3.100358,4.496020182901385,0.0,0.08081735548824298,0.0,89,0.0026242733001708984,1.164135338531396,1.164135338531396,26032,3.451035318208303,0.0
365,2.133958101272583,4.580856783112466,0.9799676073884401,6.2781703423196635,4.004189460704107,0.0,0.11500211782166242,0.1,0.002500295639038086,0.049207210540771484,0.049035296,2.3558123,4.504503842922493,0.0,0.07660111375556929,0.0,96,0.002727985382080078,1.016030321269053,1.016030321269053,26128,4.06792603568272,0.0
366,1.9463088512420654,3.0248838487996803,1.7464395919333449,4.0520686138632405,0.00014838280774553958,0.0,0.08352416817308833,0.1,0.0024437904357910156,0.08288049697875977,0.049757075,4.2292495,4.356541843510212,0.0,0.055509070678879,0.0,37,0.002594470977783203,1.060591352007506,1.060591352007506,26165,4.041770570441938,0.0
367,2.1395034790039062,4.082084613768406,0.05940103257635282,4.1763208635295985,4.012331561943061,0.0,0.11455721929351086,0.1,0.0026755332946777344,0.04872918128967285,0.04948235,2.770878,4.329096120536032,0.0,0.0814175029172558,0.0,97,0.00275421142578125,1.170863712414055,1.170863712414055,26262,3.7163873402221888,0.0
