Iter | Sampling Pol | Evaluation Pol | Best (Sampled) 
   0  4.02  3.94 -100000000.00 
   1  4.02  3.86  4.02 
   2  4.02  3.78  4.02 
   3  4.07  2.86  4.02 
   4  2.77  3.78  4.07 
   5  4.07  3.85  4.07 
   6  3.26  4.03  4.07 
   7  3.51  4.71  4.07 
   8  4.02  4.54  4.07 
   9  4.03  3.78  4.07 
  10  3.26  3.45  4.07 
  11  4.04  3.77  4.07 
  12  2.79  3.20  4.07 
  13  4.07  4.56  4.07 
  14  3.04  4.05  4.07 
  15  4.03  3.95  4.07 
  16  3.77  4.38  4.07 
  17  3.51  4.19  4.07 
  18  4.05  4.11  4.07 
  19  4.03  4.02  4.07 
  20  4.01  4.20  4.07 
  21  4.56  3.28  4.07 
  22  4.04  3.78  4.56 
  23  3.77  3.20  4.56 
  24  4.02  4.20  4.56 
  25  2.79  3.86  4.56 
  26  1.51  3.35  4.56 
  27  4.01  3.68  4.56 
  28  3.76  4.18  4.56 
  29  3.26  4.03  4.56 
  30  4.02  4.36  4.56 
  31  3.26  3.79  4.56 
  32  4.56  3.52  4.56 
  33  4.02  3.60  4.56 
  34  4.02  3.44  4.56 
  35  4.03  3.86  4.56 
  36  4.03  3.28  4.56 
  37  5.09  3.80  4.56 
  38  4.20  4.04  5.09 
  39  4.04  4.37  5.09 
  40  4.55  3.70  5.09 
  41  4.09  4.30  5.09 
  42  3.77  4.54  5.09 
  43  4.54  4.20  5.09 
  44  3.01  2.51  5.09 
  45  4.02  3.62  5.09 
  46  4.09  3.96  5.09 
  47  2.77  4.22  5.09 
  48  2.54  3.79  5.09 
  49  4.19  3.97  5.09 
  50  2.76  4.04  5.09 
  51  2.29  3.54  5.09 
  52  3.14  3.77  5.09 
  53  4.63  3.54  5.09 
  54  4.53  3.61  5.09 
  55  5.12  3.89  5.09 
  56  2.78  3.27  5.12 
  57  3.78  3.95  5.12 
  58  2.53  4.03  5.12 
  59  2.50  3.21  5.12 
  60  4.42  3.79  5.12 
  61  4.01  3.86  5.12 
  62  4.06  3.77  5.12 
  63  4.01  2.43  5.12 
  64  4.57  3.96  5.12 
  65  4.02  3.71  5.12 
  66  3.51  4.32  5.12 
  67  3.08  2.85  5.12 
  68  2.79  4.02  5.12 
  69  4.86  4.01  5.12 
  70  3.01  3.80  5.12 
  71  4.54  3.43  5.12 
  72  4.11  3.52  5.12 
  73  3.78  3.93  5.12 
  74  3.89  4.41  5.12 
  75  4.06  3.87  5.12 
  76  4.04  4.31  5.12 
  77  4.09  3.36  5.12 
  78  3.26  3.03  5.12 
  79  3.51  3.25  5.12 
  80  4.02  3.21  5.12 
  81  4.63  3.13  5.12 
  82  4.04  4.72  5.12 
  83  4.09  3.81  5.12 
  84  2.79  3.66  5.12 
  85  3.80  4.15  5.12 
  86  5.09  4.14  5.12 
  87  3.29  3.64  5.12 
  88  4.01  3.48  5.12 
  89  4.05  3.79  5.12 
  90  4.21  4.05  5.12 
  91  3.55  4.37  5.12 
  92  3.96  3.78  5.12 
  93  3.62  4.17  5.12 
  94  2.75  4.24  5.12 
  95  2.82  4.24  5.12 
  96  3.07  3.28  5.12 
  97  4.03  4.04  5.12 
  98  4.08  3.89  5.12 
  99  4.04  4.60  5.12 
 100  3.54  3.22  5.12 
 101  4.03  4.33  5.12 
 102  4.31  4.07  5.12 
 103  4.04  3.67  5.12 
 104  3.54  4.26  5.12 
 105  3.31  3.90  5.12 
 106  4.05  3.53  5.12 
 107  3.33  4.39  5.12 
 108  4.01  4.17  5.12 
 109  2.01  3.82  5.12 
 110  6.41  3.89  5.12 
 111  3.29  3.51  6.41 
 112  4.02  3.64  6.41 
 113  3.03  3.95  6.41 
 114  4.01  3.49  6.41 
 115  4.11  4.03  6.41 
 116  4.09  3.20  6.41 
 117  4.04  3.29  6.41 
 118  4.71  3.84  6.41 
 119  4.02  3.85  6.41 
 120  4.11  3.36  6.41 
 121  4.01  3.82  6.41 
 122  3.04  3.03  6.41 
 123  4.02  3.62  6.41 
 124  4.04  3.55  6.41 
 125  3.32  4.03  6.41 
 126  4.04  3.95  6.41 
 127  3.64  4.03  6.41 
 128  4.06  2.95  6.41 
 129  3.02  4.15  6.41 
 130  3.55  3.99  6.41 
 131  5.09  3.65  6.41 
 132  4.67  4.84  6.41 
 133  4.10  4.71  6.41 
 134  4.53  3.87  6.41 
 135  4.03  4.34  6.41 
 136  2.52  3.55  6.41 
 137  4.02  3.89  6.41 
 138  3.52  3.72  6.41 
 139  4.05  4.32  6.41 
 140  4.09  3.48  6.41 
 141  1.76  4.65  6.41 
 142  3.79  3.94  6.41 
 143  4.01  4.16  6.41 
 144  3.08  4.07  6.41 
 145  3.04  4.05  6.41 
 146  4.64  3.89  6.41 
 147  3.27  3.51  6.41 
 148  3.03  4.20  6.41 
 149  3.55  3.49  6.41 
 150  2.79  4.32  6.41 
 151  2.80  3.28  6.41 
 152  4.06  3.26  6.41 
 153  3.52  4.28  6.41 
 154  4.03  4.12  6.41 
 155  4.04  4.34  6.41 
 156  2.76  3.45  6.41 
 157  3.26  4.22  6.41 
 158  4.40  4.54  6.41 
 159  4.02  3.85  6.41 
 160  4.87  3.39  6.41 
 161  1.51  4.02  6.41 
 162  3.27  3.82  6.41 
 163  4.05  3.39  6.41 
 164  4.03  3.65  6.41 
 165  4.02  3.70  6.41 
 166  4.57  4.21  6.41 
 167  2.79  3.49  6.41 
 168  4.04  3.09  6.41 
 169  3.60  3.80  6.41 
 170  1.26  4.36  6.41 
 171  4.02  3.81  6.41 
 172  4.12  3.95  6.41 
 173  3.14  3.78  6.41 
 174  4.01  4.12  6.41 
 175  2.51  3.46  6.41 
 176  4.01  4.37  6.41 
 177  4.52  3.35  6.41 
 178  4.75  4.55  6.41 
 179  2.29  4.59  6.41 
 180  2.52  4.06  6.41 
 181  4.61  3.73  6.41 
 182  4.54  3.47  6.41 
 183  2.75  4.06  6.41 
 184  4.02  4.26  6.41 
 185  3.51  4.36  6.41 
 186  3.92  3.67  6.41 
 187  2.07  4.40  6.41 
 188  4.82  3.05  6.41 
 189  3.76  3.96  6.41 
 190  4.01  3.80  6.41 
 191  3.26  4.18  6.41 
 192  4.67  3.65  6.41 
 193  3.29  3.60  6.41 
 194  4.03  4.05  6.41 
 195  3.83  4.31  6.41 
 196  2.83  4.37  6.41 
 197  4.02  3.79  6.41 
 198  3.64  3.85  6.41 
 199  3.04  4.20  6.41 
 200  4.40  3.29  6.41 
 201  4.22  4.09  6.41 
 202  4.06  3.48  6.41 
 203  3.78  3.96  6.41 
 204  4.01  4.03  6.41 
 205  3.27  3.02  6.41 
 206  3.85  3.85  6.41 
 207  3.57  4.23  6.41 
 208  3.04  3.88  6.41 
 209  4.54  2.64  6.41 
 210  4.04  4.07  6.41 
 211  3.27  4.21  6.41 
 212  3.02  3.66  6.41 
 213  3.81  4.02  6.41 
 214  4.52  5.20  6.41 
 215  3.02  4.46  6.41 
 216  4.02  3.30  6.41 
 217  3.27  3.17  6.41 
 218  4.05  4.07  6.41 
 219  2.79  3.63  6.41 
 220  3.37  4.30  6.41 
 221  4.03  3.81  6.41 
 222  2.76  3.96  6.41 
 223  5.67  3.33  6.41 
 224  3.01  4.21  6.41 
 225  4.01  4.05  6.41 
 226  3.02  3.42  6.41 
 227  3.10  4.25  6.41 
 228  4.05  2.53  6.41 
 229  4.11  3.75  6.41 
 230  3.45  3.65  6.41 
 231  4.14  3.32  6.41 
 232  4.17  3.38  6.41 
 233  2.76  3.82  6.41 
 234  4.06  3.23  6.41 
 235  3.77  3.82  6.41 
 236  2.53  3.24  6.41 
 237  3.80  4.30  6.41 
 238  4.04  3.88  6.41 
 239  3.03  3.82  6.41 
 240  4.02  3.80  6.41 
 241  3.51  2.62  6.41 
 242  4.06  3.97  6.41 
 243  4.62  4.43  6.41 
 244  2.51  4.24  6.41 
 245  3.26  3.80  6.41 
 246  4.02  4.38  6.41 
 247  4.04  3.90  6.41 
 248  4.08  2.72  6.41 
 249  4.01  3.50  6.41 
 250  4.69  4.11  6.41 
 251  3.02  2.91  6.41 
 252  3.07  3.82  6.41 
 253  2.76  3.71  6.41 
 254  3.01  4.16  6.41 
 255  2.26  4.04  6.41 
 256  3.59  3.90  6.41 
 257  4.11  4.14  6.41 
 258  4.04  3.47  6.41 
 259  4.15  3.60  6.41 
 260  4.03  3.79  6.41 
 261  4.63  3.96  6.41 
 262  4.22  3.43  6.41 
 263  3.12  3.31  6.41 
 264  4.71  3.54  6.41 
 265  4.16  3.99  6.41 
 266  3.27  3.97  6.41 
 267  4.27  3.16  6.41 
 268  3.11  3.53  6.41 
 269  4.64  3.91  6.41 
 270  2.76  3.69  6.41 
 271  4.15  3.89  6.41 
 272  4.04  4.57  6.41 
 273  4.13  4.57  6.41 
 274  3.52  3.79  6.41 
 275  3.80  3.66  6.41 
 276  3.61  4.12  6.41 
 277  4.01  3.47  6.41 
 278  4.29  2.46  6.41 
 279  4.03  3.58  6.41 
 280  4.02  3.92  6.41 
 281  4.13  3.79  6.41 
 282  4.61  3.82  6.41 
 283  5.21  2.80  6.41 
 284  4.70  3.83  6.41 
 285  4.30  4.01  6.41 
 286  2.08  2.93  6.41 
 287  5.19  3.83  6.41 
 288  2.78  3.62  6.41 
 289  4.05  3.52  6.41 
 290  4.04  3.97  6.41 
 291  4.05  2.71  6.41 
 292  3.32  3.40  6.41 
 293  3.94  3.81  6.41 
 294  2.76  3.96  6.41 
 295  4.04  3.53  6.41 
 296  4.16  4.04  6.41 
 297  4.12  3.54  6.41 
 298  3.78  3.79  6.41 
 299  4.61  4.04  6.41 
 300  4.07  3.86  6.41 
 301  4.59  3.29  6.41 
 302  4.13  4.06  6.41 
 303  4.03  3.40  6.41 
 304  2.77  4.25  6.41 
 305  3.27  4.05  6.41 
 306  4.14  3.72  6.41 
 307  1.50  3.72  6.41 
 308  3.09  3.44  6.41 
 309  4.05  3.93  6.41 
 310  4.02  3.94  6.41 
 311  3.52  4.09  6.41 
 312  4.03  4.08  6.41 
 313  4.12  3.76  6.41 
 314  3.51  3.45  6.41 
 315  4.03  3.22  6.41 
 316  2.50  3.73  6.41 
 317  3.81  3.82  6.41 
 318  3.55  4.34  6.41 
 319  4.02  3.82  6.41 
 320  4.63  3.91  6.41 
 321  4.11  4.18  6.41 
 322  3.88  4.30  6.41 
 323  3.86  3.69  6.41 
 324  4.07  3.84  6.41 
 325  2.61  3.65  6.41 
 326  2.78  4.56  6.41 
 327  4.03  4.22  6.41 
 328  4.07  3.71  6.41 
 329  3.06  3.70  6.41 
 330  3.79  4.08  6.41 
 331  3.07  2.94  6.41 
 332  2.97  2.13  6.41 
 333  3.39  4.08  6.41 
 334  4.04  3.64  6.41 
 335  3.79  3.82  6.41 
 336  4.99  3.85  6.41 
 337  4.06  3.25  6.41 
 338  4.32  3.39  6.41 
 339  3.85  3.79  6.41 
 340  2.29  3.74  6.41 
 341  3.51  4.10  6.41 
 342  2.77  3.89  6.41 
 343  2.57  3.51  6.41 
 344  3.86  3.58  6.41 
 345  3.66  4.04  6.41 
 346  3.83  4.23  6.41 
 347  4.11  3.79  6.41 
 348  3.78  3.93  6.41 
 349  3.51  3.63  6.41 
 350  2.78  4.60  6.41 
 351  3.18  3.37  6.41 
 352  3.01  3.98  6.41 
 353  4.36  3.33  6.41 
 354  3.04  4.01  6.41 
 355  3.26  3.66  6.41 
 356  4.84  3.77  6.41 
 357  3.38  4.02  6.41 
 358  4.05  3.29  6.41 
 359  3.36  3.99  6.41 
 360  3.40  2.94  6.41 
 361  4.12  4.17  6.41 
 362  4.18  3.50  6.41 
 363  4.59  4.19  6.41 
 364  4.02  3.37  6.41 
 365  3.83  2.78  6.41 
 366  4.85  4.13  6.41 
 367  4.03  3.33  6.41 
 368  4.44  4.14  6.41 
 369  4.02  3.96  6.41 
 370  2.79  3.77  6.41 
 371  2.98  3.88  6.41 
 372  1.76  4.09  6.41 
 373  3.26  2.97  6.41 
 374  4.14  3.90  6.41 
 375  3.61  3.36  6.41 
 376  4.21  3.63  6.41 
 377  3.60  3.96  6.41 
 378  2.86  3.69  6.41 
 379  3.80  3.88  6.41 
 380  4.29  4.15  6.41 
 381  3.28  3.40  6.41 
 382  3.28  3.29  6.41 
 383  4.48  3.61  6.41 
 384  4.26  2.86  6.41 
 385  4.59  4.06  6.41 
 386  3.03  3.64  6.41 
 387  4.62  4.04  6.41 
 388  3.13  3.55  6.41 
 389  3.80  4.99  6.41 
 390  3.28  3.78  6.41 
 391  3.82  3.56  6.41 
 392  4.01  3.71  6.41 
 393  4.16  4.12  6.41 
 394  3.89  4.45  6.41 
 395  3.58  4.06  6.41 
 396  4.09  4.23  6.41 
 397  3.76  3.94  6.41 
 398  4.03  3.34  6.41 
 399  4.64  3.69  6.41 
 400  3.95  4.00  6.41 
 401  4.03  3.93  6.41 
 402  4.23  3.24  6.41 
 403  3.76  3.44  6.41 
 404  4.18  3.37  6.41 
 405  2.27  3.82  6.41 
 406  3.82  3.73  6.41 
 407  3.07  3.71  6.41 
 408  1.58  4.12  6.41 
 409  3.62  4.18  6.41 
 410  4.03  3.63  6.41 
 411  2.76  4.04  6.41 
 412  4.13  3.29  6.41 
 413  4.02  4.21  6.41 
 414  3.27  4.28  6.41 
 415  2.97  3.52  6.41 
 416  4.20  2.51  6.41 
 417  2.76  4.46  6.41 
 418  3.58  3.70  6.41 
 419  2.92  3.87  6.41 
 420  4.03  3.62  6.41 
 421  4.21  3.19  6.41 
 422  4.03  4.05  6.41 
 423  4.58  3.89  6.41 
 424  4.03  4.05  6.41 
 425  4.57  4.04  6.41 
 426  4.16  3.54  6.41 
 427  4.18  2.88  6.41 
 428  3.68  3.63  6.41 
 429  2.00  3.87  6.41 
 430  4.03  3.88  6.41 
 431  3.78  3.45  6.41 
 432  3.77  3.71  6.41 
 433  4.24  3.69  6.41 
 434  3.48  3.40  6.41 
 435  2.78  4.20  6.41 
 436  2.34  3.84  6.41 
 437  4.04  4.11  6.41 
 438  4.02  3.22  6.41 
 439  2.54  2.52  6.41 
 440  4.01  4.37  6.41 
 441  3.85  3.70  6.41 
 442  2.01  3.95  6.41 
 443  3.33  4.67  6.41 
 444  4.04  3.81  6.41 
 445  4.06  3.97  6.41 
 446  1.79  4.21  6.41 
 447  4.05  3.75  6.41 
 448  4.54  3.86  6.41 
 449  3.00  4.11  6.41 
 450  3.02  3.71  6.41 
 451  2.77  3.95  6.41 
 452  4.23  3.69  6.41 
 453  4.85  4.04  6.41 
 454  4.52  3.88  6.41 
 455  4.01  3.80  6.41 
 456  3.58  3.82  6.41 
 457  4.02  4.73  6.41 
 458  4.14  3.76  6.41 
 459  3.10  3.80  6.41 
 460  4.67  3.47  6.41 
 461  4.02  3.08  6.41 
 462  3.02  3.50  6.41 
 463  3.03  4.38  6.41 
 464  4.11  4.06  6.41 
 465  4.58  4.20  6.41 
 466  3.89  4.20  6.41 
 467  3.06  3.69  6.41 
 468  4.03  3.61  6.41 
 469  4.15  3.72  6.41 
 470  3.12  3.62  6.41 
 471  4.02  3.38  6.41 
 472  3.52  4.21  6.41 
 473  3.59  4.34  6.41 
 474  2.80  3.61  6.41 
 475  3.26  3.20  6.41 
 476  4.05  3.78  6.41 
 477  4.36  4.04  6.41 
 478  3.84  3.70  6.41 
 479  3.27  3.63  6.41 
 480  3.26  3.12  6.41 
 481  4.02  2.78  6.41 
 482  2.76  3.78  6.41 
 483  4.08  4.28  6.41 
 484  4.16  3.86  6.41 
 485  3.01  3.68  6.41 
 486  3.98  3.87  6.41 
 487  3.05  3.29  6.41 
 488  4.11  3.54  6.41 
 489  4.14  2.80  6.41 
 490  2.88  3.79  6.41 
 491  4.16  4.05  6.41 
 492  2.81  3.63  6.41 
 493  3.45  3.63  6.41 
 494  3.60  4.19  6.41 
 495  4.06  4.20  6.41 
 496  4.05  3.61  6.41 
 497  3.35  3.11  6.41 
 498  3.63  3.51  6.41 
 499  3.27  4.04  6.41 
 500  4.04  3.69  6.41 
 501  2.03  3.70  6.41 
 502  4.20  3.52  6.41 
 503  3.03  3.44  6.41 
 504  4.14  3.69  6.41 
 505  4.96  4.02  6.41 
 506  4.59  3.86  6.41 
 507  4.28  4.28  6.41 
 508  2.93  3.52  6.41 
 509  1.55  3.35  6.41 
 510  4.01  3.60  6.41 
 511  3.15  3.69  6.41 
 512  2.76  3.86  6.41 
 513  2.87  3.35  6.41 
 514  3.06  3.11  6.41 
 515  4.12  3.26  6.41 
 516  3.26  3.43  6.41 
 517  3.30  3.69  6.41 
 518  4.04  3.03  6.41 
 519  4.09  3.62  6.41 
 520  4.01  3.95  6.41 
 521  3.04  3.79  6.41 
 522  4.10  2.19  6.41 
 523  4.26  3.70  6.41 
 524  2.54  3.38  6.41 
 525  1.77  4.06  6.41 
 526  2.01  3.80  6.41 
 527  4.03  3.66  6.41 
 528  4.02  3.29  6.41 
 529  2.65  2.60  6.41 
 530  4.17  3.91  6.41 
 531  3.68  3.68  6.41 
 532  4.04  3.19  6.41 
 533  3.60  2.56  6.41 
 534  4.05  3.09  6.41 
 535  4.21  4.77  6.41 
 536  4.02  3.97  6.41 
 537  3.67  3.74  6.41 
 538  4.04  3.62  6.41 
 539  3.78  4.20  6.41 
 540  2.32  3.70  6.41 
 541  4.59  3.78  6.41 
 542  4.52  3.35  6.41 
 543  4.08  3.64  6.41 
 544  1.76  2.81  6.41 
 545  2.39  3.87  6.41 
 546  2.26  3.84  6.41 
 547  3.11  2.70  6.41 
 548  4.61  3.96  6.41 
 549  4.12  2.68  6.41 
 550  4.26  3.71  6.41 
 551  4.13  3.63  6.41 
 552  3.55  3.38  6.41 
 553  3.17  3.70  6.41 
 554  4.11  3.69  6.41 
 555  3.08  4.24  6.41 
 556  4.90  3.53  6.41 
 557  1.58  4.03  6.41 
 558  3.52  3.60  6.41 
 559  4.05  3.70  6.41 
 560  3.36  3.20  6.41 
 561  2.87  3.44  6.41 
 562  4.40  3.69  6.41 
 563  4.65  3.85  6.41 
 564  4.09  3.98  6.41 
 565  3.27  3.06  6.41 
 566  4.64  4.22  6.41 
 567  2.45  3.71  6.41 
 568  4.71  3.81  6.41 
 569  4.02  4.15  6.41 
 570  4.18  3.70  6.41 
 571  4.05  3.30  6.41 
 572  3.01  3.74  6.41 
 573  4.14  3.87  6.41 
 574  3.70  4.20  6.41 
 575  3.42  4.29  6.41 
 576  4.07  2.60  6.41 
 577  3.95  3.87  6.41 
 578  3.23  2.78  6.41 
 579  4.19  3.29  6.41 
 580  4.07  2.39  6.41 
 581  4.02  4.02  6.41 
 582  3.05  4.06  6.41 
 583  2.00  4.14  6.41 
 584  3.40  3.02  6.41 
 585  3.53  2.67  6.41 
 586  4.11  4.05  6.41 
 587  3.52  3.50  6.41 
 588  3.80  4.02  6.41 
 589  4.28  3.76  6.41 
 590  2.13  3.53  6.41 
 591  3.84  3.79  6.41 
 592  4.85  3.90  6.41 
 593  4.19  3.55  6.41 
 594  4.09  4.06  6.41 
 595  4.27  3.79  6.41 
 596  4.28  3.06  6.41 
 597  4.26  3.99  6.41 
 598  4.25  3.69  6.41 
 599  3.70  3.87  6.41 
 600  3.58  3.73  6.41 
 601  3.11  3.65  6.41 
 602  4.58  3.31  6.41 
 603  4.40  3.59  6.41 
 604  3.94  3.83  6.41 
 605  3.78  3.66  6.41 
 606  1.72  3.39  6.41 
 607  4.11  3.57  6.41 
 608  4.47  4.11  6.41 
 609  4.32  2.92  6.41 
 610  5.07  3.38  6.41 
 611  4.61  4.11  6.41 
 612  4.21  3.74  6.41 
 613  4.53  3.69  6.41 
 614  4.04  3.80  6.41 
 615  4.19  4.04  6.41 
 616  3.10  3.61  6.41 
 617  4.24  3.59  6.41 
 618  4.56  2.48  6.41 
 619  2.84  3.46  6.41 
 620  4.15  3.77  6.41 
 621  4.33  3.81  6.41 
 622  4.91  4.10  6.41 
 623  4.02  3.34  6.41 
 624  3.05  2.93  6.41 
 625  4.53  3.76  6.41 
 626  4.42  3.75  6.41 
 627  3.36  3.41  6.41 
 628  4.65  3.01  6.41 
 629  4.33  3.33  6.41 
 630  4.64  3.80  6.41 
 631  3.54  3.85  6.41 
 632  4.06  4.18  6.41 
 633  3.03  3.27  6.41 
 634  3.69  4.17  6.41 
 635  4.08  4.29  6.41 
 636  3.56  3.61  6.41 
 637  3.29  4.18  6.41 
 638  4.11  3.70  6.41 
 639  3.90  3.10  6.41 
 640  3.49  4.10  6.41 
 641  4.13  3.93  6.41 
 642  2.85  3.99  6.41 
 643  4.72  3.78  6.41 
 644  3.38  3.64  6.41 
 645  4.07  3.71  6.41 
 646  2.30  3.74  6.41 
 647  3.84  3.73  6.41 
 648  2.77  3.68  6.41 
 649  4.64  3.58  6.41 
 650  4.15  4.28  6.41 
 651  2.77  4.16  6.41 
 652  4.43  4.11  6.41 
 653  2.03  3.69  6.41 
 654  2.77  3.93  6.41 
 655  2.96  3.44  6.41 
 656  4.44  3.94  6.41 
 657  3.97  3.11  6.41 
 658  4.53  3.85  6.41 
 659  3.40  3.72  6.41 
 660  3.39  3.87  6.41 
 661  4.06  4.12  6.41 
 662  4.20  4.07  6.41 
 663  4.38  3.79  6.41 
 664  4.14  4.20  6.41 
 665  4.66  3.18  6.41 
 666  4.06  3.99  6.41 
 667  4.38  3.16  6.41 
 668  3.13  4.14  6.41 
 669  1.79  3.60  6.41 
 670  4.18  4.35  6.41 
 671  4.15  4.87  6.41 
 672  4.40  3.54  6.41 
 673  5.46  3.87  6.41 
 674  4.56  3.88  6.41 
 675  4.29  4.06  6.41 
 676  4.39  3.72  6.41 
 677  4.41  3.96  6.41 
 678  2.84  3.16  6.41 
 679  4.80  3.58  6.41 
 680  4.09  3.79  6.41 
 681  2.79  3.77  6.41 
 682  4.12  3.65  6.41 
 683  3.03  4.22  6.41 
 684  3.81  4.23  6.41 
 685  3.80  4.35  6.41 
 686  2.02  3.67  6.41 
 687  3.31  3.17  6.41 
 688  3.84  4.00  6.41 
 689  3.26  4.23  6.41 
 690  4.12  4.22  6.41 
 691  3.29  4.47  6.41 
 692  3.28  4.35  6.41 
 693  2.78  4.06  6.41 
 694  4.28  4.18  6.41 
 695  4.28  4.15  6.41 
 696  4.15  4.14  6.41 
 697  4.06  4.43  6.41 
 698  3.72  4.25  6.41 
 699  4.52  3.61  6.41 
 700  3.06  3.26  6.41 
 701  4.03  4.40  6.41 
 702  4.22  2.81  6.41 
 703  2.84  4.01  6.41 
 704  1.52  3.47  6.41 
 705  4.30  4.10  6.41 
 706  4.49  4.19  6.41 
 707  3.44  3.34  6.41 
 708  4.01  3.83  6.41 
 709  4.77  3.78  6.41 
 710  4.27  4.17  6.41 
 711  4.28  4.17  6.41 
 712  4.19  4.42  6.41 
 713  2.89  4.86  6.41 
 714  4.57  4.42  6.41 
 715  3.44  3.80  6.41 
 716  2.93  3.26  6.41 
 717  3.91  3.72  6.41 
 718  3.11  3.86  6.41 
 719  4.21  3.25  6.41 
 720  3.27  3.39  6.41 
 721  4.16  4.33  6.41 
 722  4.16  3.60  6.41 
 723  4.28  4.15  6.41 
 724  3.92  4.18  6.41 
 725  3.14  3.59  6.41 
 726  4.02  3.28  6.41 
 727  4.03  3.22  6.41 
 728  4.01  3.22  6.41 
 729  2.76  3.78  6.41 
 730  4.07  3.69  6.41 
 731  4.15  3.78  6.41 
 732  4.34  2.47  6.41 
 733  2.95  3.85  6.41 
 734  4.05  4.31  6.41 
 735  2.84  4.82  6.41 
 736  4.22  3.65  6.41 
 737  4.62  3.21  6.41 
 738  0.27  3.12  6.41 
 739  4.33  3.86  6.41 
 740  3.41  4.02  6.41 
 741  3.27  2.93  6.41 
 742  4.09  3.86  6.41 
 743  4.20  4.21  6.41 
 744  5.20  3.81  6.41 
 745  3.55  3.36  6.41 
 746  4.28  3.75  6.41 
 747  4.23  4.19  6.41 
 748  3.63  2.45  6.41 
 749  4.07  3.87  6.41 
 750  3.02  3.77  6.41 
 751  3.62  3.67  6.41 
 752  3.96  4.07  6.41 
 753  4.48  4.12  6.41 
 754  4.68  3.51  6.41 
 755  4.42  4.00  6.41 
 756  5.01  3.33  6.41 
 757  4.19  3.87  6.41 
 758  3.85  3.85  6.41 
 759  4.05  4.02  6.41 
 760  3.78  3.96  6.41 
 761  4.14  3.95  6.41 
 762  4.38  3.58  6.41 
 763  4.03  3.92  6.41 
 764  2.97  3.83  6.41 
 765  4.05  4.12  6.41 
 766  2.92  3.83  6.41 
 767  4.09  3.93  6.41 
 768  3.37  4.25  6.41 
 769  2.78  4.18  6.41 
 770  4.23  4.30  6.41 
 771  2.83  3.15  6.41 
 772  6.06  3.37  6.41 
 773  3.84  3.78  6.41 
 774  3.58  3.43  6.41 
 775  4.38  3.39  6.41 
 776  1.54  3.43  6.41 
 777  3.69  3.77  6.41 
 778  4.37  3.92  6.41 
 779  4.34  3.16  6.41 
 780  3.35  3.72  6.41 
 781  4.52  3.89  6.41 
 782  4.02  3.39  6.41 
 783  4.19  3.46  6.41 
 784  3.61  3.36  6.41 
 785  4.29  3.70  6.41 
 786  2.29  3.78  6.41 
 787  4.12  3.36  6.41 
 788  2.77  3.12  6.41 
 789  3.53  3.28  6.41 
 790  2.38  3.61  6.41 
 791  4.08  3.11  6.41 
 792  2.98  3.54  6.41 
 793  4.95  3.52  6.41 
 794  3.27  3.95  6.41 
 795  2.77  3.62  6.41 
 796  4.05  4.04  6.41 
 797  3.29  3.88  6.41 
 798  4.24  3.61  6.41 
 799  4.51  3.79  6.41 
 800  3.69  3.70  6.41 
 801  4.17  3.34  6.41 
 802  4.07  3.89  6.41 
 803  2.81  3.82  6.41 
 804  4.14  4.12  6.41 
 805  4.62  3.51  6.41 
 806  5.76  3.71  6.41 
 807  3.85  3.94  6.41 
 808  3.67  4.13  6.41 
 809  4.06  3.30  6.41 
 810  3.93  3.42  6.41 
 811  4.51  3.80  6.41 
 812  4.31  2.77  6.41 
 813  4.04  3.68  6.41 
 814  4.12  3.25  6.41 
 815  4.17  4.16  6.41 
 816  2.80  3.97  6.41 
 817  4.04  3.76  6.41 
 818  3.45  2.66  6.41 
 819  4.44  4.38  6.41 
 820  4.13  4.30  6.41 
 821  3.03  2.89  6.41 
 822  3.27  3.71  6.41 
 823  4.42  3.45  6.41 
 824  4.63  3.01  6.41 
 825  4.31  3.36  6.41 
 826  4.43  3.49  6.41 
 827  4.05  3.66  6.41 
 828  4.06  3.60  6.41 
 829  4.45  4.20  6.41 
 830  3.88  3.53  6.41 
 831  3.57  3.71  6.41 
 832  4.11  3.61  6.41 
 833  3.88  4.13  6.41 
 834  3.62  3.22  6.41 
 835  4.12  3.30  6.41 
 836  4.69  3.73  6.41 
 837  2.77  3.69  6.41 
 838  2.91  3.83  6.41 
 839  4.14  4.26  6.41 
 840  3.27  4.33  6.41 
 841  4.28  3.87  6.41 
 842  4.47  3.63  6.41 
 843  4.99  3.61  6.41 
 844  4.52  3.33  6.41 
 845  2.02  4.33  6.41 
 846  4.39  3.51  6.41 
 847  4.68  2.93  6.41 
 848  4.43  3.50  6.41 
 849  4.29  3.90  6.41 
 850  4.30  3.57  6.41 
 851  4.42  3.78  6.41 
 852  4.21  4.08  6.41 
 853  4.57  3.58  6.41 
 854  4.33  4.09  6.41 
 855  3.26  4.01  6.41 
 856  3.24  4.83  6.41 
 857  4.87  4.00  6.41 
 858  4.70  3.91  6.41 
 859  3.56  3.85  6.41 
 860  4.16  4.40  6.41 
 861  3.86  4.25  6.41 
 862  4.43  4.81  6.41 
 863  3.35  3.69  6.41 
 864  2.87  3.34  6.41 
 865  4.57  3.27  6.41 
 866  1.76  2.91  6.41 
 867  4.30  3.13  6.41 
 868  3.14  4.05  6.41 
 869  4.17  4.03  6.41 
 870  4.16  3.54  6.41 
 871  3.75  4.26  6.41 
 872  4.38  3.83  6.41 
 873  4.75  3.18  6.41 
 874  4.04  4.32  6.41 
 875  4.71  4.12  6.41 
 876  3.39  4.58  6.41 
 877  5.29  3.86  6.41 
 878  4.19  3.79  6.41 
 879  5.04  4.17  6.41 
 880  4.58  4.36  6.41 
 881  4.10  4.54  6.41 
 882  3.69  2.98  6.41 
 883  4.27  4.15  6.41 
 884  4.56  3.17  6.41 
 885  4.10  3.48  6.41 
 886  4.10  4.09  6.41 
 887  2.92  4.33  6.41 
 888  4.35  3.82  6.41 
 889  3.60  4.23  6.41 
 890  1.75  3.94  6.41 
 891  3.02  4.10  6.41 
 892  4.65  3.11  6.41 
 893  4.51  4.35  6.41 
 894  2.88  3.46  6.41 
 895  4.36  3.93  6.41 
 896  3.55  3.89  6.41 
 897  4.60  3.84  6.41 
 898  3.07  3.52  6.41 
 899  3.53  3.35  6.41 
 900  2.93  2.57  6.41 
 901  4.11  3.91  6.41 
 902  4.40  3.53  6.41 
 903  4.37  4.11  6.41 
 904  4.85  3.47  6.41 
 905  4.14  3.48  6.41 
 906  5.07  3.99  6.41 
 907  4.27  3.99  6.41 
 908  3.62  4.16  6.41 
 909  3.39  3.86  6.41 
 910  2.35  3.12  6.41 
 911  2.91  3.57  6.41 
 912  4.05  4.02  6.41 
 913  4.39  3.74  6.41 
 914  3.20  2.40  6.41 
 915  4.03  3.72  6.41 
 916  4.62  3.60  6.41 
 917  3.33  3.58  6.41 
 918  3.56  3.85  6.41 
 919  3.84  3.69  6.41 
 920  3.43  3.41  6.41 
 921  3.19  3.63  6.41 
 922  2.84  3.60  6.41 
 923  4.98  4.05  6.41 
 924  3.23  4.16  6.41 
 925  3.97  3.64  6.41 
 926  4.85  3.31  6.41 
 927  4.34  3.38  6.41 
 928  3.46  2.71  6.41 
 929  3.02  4.07  6.41 
 930  3.03  3.31  6.41 
 931  3.17  3.28  6.41 
 932  3.53  3.36  6.41 
 933  4.13  3.05  6.41 
 934  4.21  3.55  6.41 
 935  4.42  3.35  6.41 
 936  5.21  3.75  6.41 
 937  4.40  3.30  6.41 
 938  2.77  3.82  6.41 
 939  4.08  3.81  6.41 
 940  4.44  4.17  6.41 
 941  4.19  3.48  6.41 
 942  3.06  2.88  6.41 
 943  2.82  3.70  6.41 
 944  4.52  3.65  6.41 
 945  2.58  3.72  6.41 
 946  4.15  3.81  6.41 
 947  4.71  2.89  6.41 
 948  3.68  4.17  6.41 
 949  4.18  3.70  6.41 
 950  4.19  4.01  6.41 
 951  4.57  3.78  6.41 
 952  4.07  3.78  6.41 
 953  4.09  3.89  6.41 
 954  3.00  3.40  6.41 
 955  4.24  3.55  6.41 
 956  4.54  4.17  6.41 
 957  3.51  4.18  6.41 
 958  3.73  4.17  6.41 
 959  3.69  3.32  6.41 
 960  4.94  3.93  6.41 
 961  4.37  3.96  6.41 
 962  3.31  3.89  6.41 
 963  3.49  4.07  6.41 
 964  2.45  3.96  6.41 
 965  4.54  3.77  6.41 
 966  4.12  4.19  6.41 
 967  2.87  3.77  6.41 
 968  3.41  3.44  6.41 
 969  4.20  3.81  6.41 
 970  4.99  3.80  6.41 
 971  4.28  3.83  6.41 
 972  4.18  3.77  6.41 
 973  3.36  3.26  6.41 
 974  4.82  3.25  6.41 
 975  4.58  3.83  6.41 
 976  4.13  3.68  6.41 
 977  4.35  3.61  6.41 
 978  4.82  3.76  6.41 
 979  3.29  4.40  6.41 
 980  2.07  3.21  6.41 
 981  3.00  3.33  6.41 
 982  4.43  3.59  6.41 
 983  4.42  3.42  6.41 
 984  2.83  4.01  6.41 
 985  3.15  4.22  6.41 
 986  4.21  3.67  6.41 
 987  4.32  3.56  6.41 
 988  3.08  3.31  6.41 
 989  2.91  3.08  6.41 
 990  4.09  3.30  6.41 
 991  3.55  4.17  6.41 
 992  4.91  4.07  6.41 
 993  4.73  3.81  6.41 
 994  4.22  3.79  6.41 
 995  1.65  3.77  6.41 
 996  3.76  3.99  6.41 
 997  4.52  2.94  6.41 
 998  4.59  3.78  6.41 
 999  4.29  3.78  6.41 
1000  4.60  3.32  6.41 
1001  4.46  4.38  6.41 
1002  3.54  4.43  6.41 
1003  3.52  4.83  6.41 
1004  3.11  3.76  6.41 
1005  4.53  4.23  6.41 
1006  4.29  3.39  6.41 
1007  2.80  3.87  6.41 
1008  2.79  4.30  6.41 
1009  4.80  4.10  6.41 
1010  2.74  3.52  6.41 
1011  4.39  4.08  6.41 
1012  3.64  3.94  6.41 
1013  3.02  4.28  6.41 
1014  2.68  3.92  6.41 
1015  4.02  3.33  6.41 
1016  4.49  2.74  6.41 
1017  3.82  3.25  6.41 
1018  4.26  3.89  6.41 
1019  4.34  4.32  6.41 
1020  3.26  3.14  6.41 
1021  4.78  4.20  6.41 
1022  5.15  3.43  6.41 
1023  2.89  4.37  6.41 
1024  5.02  3.52  6.41 
1025  4.41  4.15  6.41 
1026  2.84  4.18  6.41 
1027  2.06  4.35  6.41 
1028  3.39  3.77  6.41 
1029  4.95  4.02  6.41 
1030  3.63  4.37  6.41 
1031  3.52  4.41  6.41 
1032  3.54  4.28  6.41 
1033  4.75  4.12  6.41 
1034  5.33  4.31  6.41 
1035  3.49  3.53  6.41 
1036  3.16  4.79  6.41 
1037  3.49  3.59  6.41 
1038  5.52  3.77  6.41 
1039  4.92  3.36  6.41 
1040  4.88  3.83  6.41 
1041  4.77  3.87  6.41 
1042  3.21  4.40  6.41 
1043  3.10  5.92  6.41 
1044  4.83  5.23  6.41 
1045  5.05  5.44  6.41 
1046  4.58  4.75  6.41 
1047  4.55  4.64  6.41 
1048  3.30  5.00  6.41 
1049  4.53  4.02  6.41 
1050  2.90  4.83  6.41 
1051  4.08  4.32  6.41 
1052  5.11  4.32  6.41 
1053  4.91  4.08  6.41 
1054  4.48  5.18  6.41 
1055  3.24  4.30  6.41 
1056  4.38  5.15  6.41 
1057  5.17  4.27  6.41 
1058  4.67  3.29  6.41 
1059  4.15  3.31  6.41 
1060  3.01  4.48  6.41 
1061  1.11  4.23  6.41 
1062  4.38  3.66  6.41 
1063  3.04  4.33  6.41 
1064  4.28  4.25  6.41 
1065  4.67  3.66  6.41 
1066  3.41  3.84  6.41 
1067  4.44  3.81  6.41 
1068  4.38  3.58  6.41 
1069  5.00  3.65  6.41 
1070  3.88  3.79  6.41 
1071  4.41  4.09  6.41 
1072  4.42  3.92  6.41 
1073  4.21  3.38  6.41 
1074  4.67  3.81  6.41 
1075  3.04  3.54  6.41 
1076  4.05  3.58  6.41 
1077  1.73  3.69  6.41 
1078  2.37  4.81  6.41 
1079  4.03  3.99  6.41 
1080  4.29  4.33  6.41 
1081  4.61  4.61  6.41 
1082  2.96  3.62  6.41 
1083  3.39  4.20  6.41 
1084  4.03  3.08  6.41 
1085  3.87  4.25  6.41 
1086  4.10  3.97  6.41 
1087  4.67  3.41  6.41 
1088  2.35  4.08  6.41 
1089  4.37  3.45  6.41 
1090  4.77  2.98  6.41 
1091  4.62  4.31  6.41 
1092  4.08  4.38  6.41 
1093  4.45  3.97  6.41 
1094  4.58  4.75  6.41 
1095  1.79  5.00  6.41 
1096  5.64  3.43  6.41 
1097  2.30  4.27  6.41 
1098  4.27  4.42  6.41 
1099  4.17  4.93  6.41 
1100  4.10  4.64  6.41 
1101  2.76  4.29  6.41 
1102  4.63  4.88  6.41 
1103  4.62  3.78  6.41 
1104  4.47  3.15  6.41 
1105  3.57  4.36  6.41 
1106  4.24  3.33  6.41 
1107  4.43  4.15  6.41 
1108  3.90  5.06  6.41 
1109  3.58  3.57  6.41 
1110  4.47  3.11  6.41 
1111  4.19  4.57  6.41 
1112  3.11  4.14  6.41 
1113  5.80  3.55  6.41 
1114  4.85  3.33  6.41 
1115  4.29  4.31  6.41 
1116  4.29  3.55  6.41 
1117  4.43  3.76  6.41 
1118  3.05  4.13  6.41 
1119  3.43  4.24  6.41 
1120  3.41  3.59  6.41 
1121  4.13  3.91  6.41 
1122  4.39  3.52  6.41 
1123  2.89  3.95  6.41 
1124  4.40  3.85  6.41 
1125  5.08  4.40  6.41 
1126  4.75  3.62  6.41 
1127  4.24  4.58  6.41 
1128  5.14  3.90  6.41 
1129  4.90  4.28  6.41 
1130  4.66  3.66  6.41 
1131  3.42  3.79  6.41 
1132  4.92  3.83  6.41 
1133  3.26  5.01  6.41 
1134  3.86  3.22  6.41 
1135  4.39  4.78  6.41 
1136  3.75  4.39  6.41 
1137  4.57  4.03  6.41 
1138  3.73  4.72  6.41 
1139  3.02  2.74  6.41 
1140  4.56  4.10  6.41 
1141  5.42  4.01  6.41 
1142  4.64  3.76  6.41 
1143  3.74  4.06  6.41 
1144  4.18  3.98  6.41 
1145  4.14  4.90  6.41 
1146  4.61  3.62  6.41 
1147  2.97  4.57  6.41 
1148  4.04  4.96  6.41 
1149  3.83  4.47  6.41 
1150  3.70  4.38  6.41 
1151  2.80  4.84  6.41 
1152  4.25  4.23  6.41 
1153  4.61  4.37  6.41 
1154  2.93  4.54  6.41 
1155  3.05  3.21  6.41 
1156  3.71  4.50  6.41 
1157  1.52  3.70  6.41 
1158  3.51  4.46  6.41 
1159  4.34  4.37  6.41 
1160  4.16  4.07  6.41 
1161  4.15  4.59  6.41 
1162  4.73  4.66  6.41 
1163  4.48  3.77  6.41 
1164  4.05  4.64  6.41 
1165  3.83  3.61  6.41 
1166  4.50  3.80  6.41 
1167  4.22  4.05  6.41 
1168  3.89  4.37  6.41 
1169  4.17  4.46  6.41 
1170  5.19  3.50  6.41 
1171  4.26  4.54  6.41 
1172  4.13  4.61  6.41 
1173  4.65  4.47  6.41 
1174  4.51  3.95  6.41 
1175  5.82  3.99  6.41 
1176  4.29  3.30  6.41 
1177  4.72  3.63  6.41 
1178  4.52  4.19  6.41 
1179  4.30  4.24  6.41 
1180  4.26  4.05  6.41 
1181  4.50  3.66  6.41 
1182  4.38  4.79  6.41 
1183  3.03  4.42  6.41 
1184  3.65  3.70  6.41 
1185  4.30  4.77  6.41 
1186  4.55  4.67  6.41 
1187  4.85  3.53  6.41 
1188  5.02  4.24  6.41 
1189  4.53  4.49  6.41 
1190  4.20  3.43  6.41 
1191  4.52  4.86  6.41 
1192  4.85  4.64  6.41 
1193  4.18  4.86  6.41 
1194  4.39  4.97  6.41 
1195  4.17  4.36  6.41 
1196  4.48  4.55  6.41 
1197  4.22  4.29  6.41 
1198  4.26  3.77  6.41 
1199  2.80  3.99  6.41 
1200  3.17  3.11  6.41 
1201  4.07  4.50  6.41 
1202  4.72  3.95  6.41 
1203  4.68  4.14  6.41 
1204  3.27  4.08  6.41 
1205  4.71  4.22  6.41 
1206  3.05  5.68  6.41 
1207  5.86  4.84  6.41 
1208  4.40  4.71  6.41 
1209  3.38  3.19  6.41 
1210  4.58  5.00  6.41 
1211  5.23  4.38  6.41 
1212  3.01  4.68  6.41 
1213  3.16  4.99  6.41 
1214  4.67  4.89  6.41 
1215  4.62  3.09  6.41 
1216  5.45  4.18  6.41 
1217  3.38  3.70  6.41 
1218  4.48  4.54  6.41 
1219  3.35  4.48  6.41 
1220  4.57  4.07  6.41 
1221  4.76  5.25  6.41 
1222  3.46  4.29  6.41 
1223  4.19  4.91  6.41 
1224  4.15  4.58  6.41 
1225  4.16  4.25  6.41 
1226  3.27  5.60  6.41 
1227  4.37  4.89  6.41 
1228  3.30  3.88  6.41 
1229  4.18  4.14  6.41 
1230  3.44  3.89  6.41 
1231  4.18  4.62  6.41 
1232  3.29  4.35  6.41 
1233  2.99  3.12  6.41 
1234  4.64  4.15  6.41 
1235  3.66  4.02  6.41 
1236  4.44  3.53  6.41 
1237  4.27  3.71  6.41 
1238  3.90  3.73  6.41 
1239  4.24  3.92  6.41 
1240  4.19  4.42  6.41 
1241  2.88  4.13  6.41 
1242  4.47  4.27  6.41 
1243  4.57  4.17  6.41 
1244  5.15  4.11  6.41 
1245  4.34  4.30  6.41 
1246  2.81  3.94  6.41 
1247  4.41  4.36  6.41 
1248  2.82  3.99  6.41 
1249  3.16  4.96  6.41 
1250  4.50  4.53  6.41 
1251  4.23  4.92  6.41 
1252  3.69  3.65  6.41 
1253  4.09  3.81  6.41 
1254  4.32  4.84  6.41 
1255  3.14  4.16  6.41 
1256  4.40  4.17  6.41 
1257  3.68  4.11  6.41 
1258  4.05  5.31  6.41 
1259  3.48  4.60  6.41 
1260  3.06  4.68  6.41 
1261  3.41  4.60  6.41 
1262  4.82  4.87  6.41 
1263  3.17  3.76  6.41 
1264  4.08  4.11  6.41 
1265  3.40  5.14  6.41 
1266  3.07  4.92  6.41 
1267  3.51  4.80  6.41 
1268  4.90  4.40  6.41 
1269  3.09  4.38  6.41 
1270  4.22  4.58  6.41 
1271  4.37  4.25  6.41 
1272  3.81  5.30  6.41 
1273  4.44  4.24  6.41 
1274  2.42  3.89  6.41 
1275  4.33  5.52  6.41 
1276  2.74  4.67  6.41 
1277  2.69  3.81  6.41 
1278  4.18  4.29  6.41 
1279  2.82  4.67  6.41 
1280  3.94  5.09  6.41 
1281  4.60  4.44  6.41 
1282  4.65  4.02  6.41 
1283  4.17  4.28  6.41 
1284  2.96  4.92  6.41 
1285  4.41  4.88  6.41 
1286  3.38  4.65  6.41 
1287  4.67  3.28  6.41 
1288  4.38  4.53  6.41 
1289  3.73  5.14  6.41 
1290  5.06  3.92  6.41 
1291  4.18  4.30  6.41 
1292  3.67  4.28  6.41 
1293  4.12  4.63  6.41 
1294  4.37  4.18  6.41 
1295  4.47  3.35  6.41 
1296  4.90  3.97  6.41 
1297  3.78  4.89  6.41 
1298  4.16  4.12  6.41 
1299  4.28  4.28  6.41 
1300  3.91  4.97  6.41 
1301  4.44  4.10  6.41 
1302  4.16  4.34  6.41 
1303  1.75  4.83  6.41 
1304  4.12  4.93  6.41 
1305  3.91  4.25  6.41 
1306  3.07  4.52  6.41 
1307  3.32  4.71  6.41 
1308  4.40  3.81  6.41 
1309  4.67  4.26  6.41 
1310  4.73  4.10  6.41 
1311  4.25  3.73  6.41 
1312  3.35  3.10  6.41 
1313  4.94  3.71  6.41 
1314  3.15  4.06  6.41 
1315  3.11  4.37  6.41 
1316  4.42  5.01  6.41 
1317  3.83  4.64  6.41 
1318  3.51  4.20  6.41 
1319  3.02  4.19  6.41 
1320  5.49  5.30  6.41 
1321  4.29  4.27  6.41 
1322  2.26  4.40  6.41 
1323  3.02  4.76  6.41 
1324  3.28  4.31  6.41 
1325  4.52  3.85  6.41 
1326  4.06  4.53  6.41 
1327  3.87  4.31  6.41 
1328  3.33  2.53  6.41 
1329  4.32  3.49  6.41 
1330  4.76  3.87  6.41 
1331  4.36  3.63  6.41 
1332  4.18  3.97  6.41 
1333  4.29  3.92  6.41 
1334  4.32  3.82  6.41 
1335  4.42  3.27  6.41 
1336  4.18  4.43  6.41 
1337  4.14  4.50  6.41 
1338  4.01  3.06  6.41 
1339  3.85  3.92  6.41 
1340  4.67  4.20  6.41 
1341  4.30  3.57  6.41 
1342  4.03  4.08  6.41 
1343  4.08  4.02  6.41 
1344  3.58  4.34  6.41 
1345  4.71  4.40  6.41 
1346  4.83  4.72  6.41 
1347  3.28  4.72  6.41 
1348  4.64  4.70  6.41 
1349  3.42  5.03  6.41 
1350  4.58  4.19  6.41 
1351  4.41  4.91  6.41 
1352  4.31  4.51  6.41 
1353  4.24  4.07  6.41 
1354  4.61  4.89  6.41 
1355  4.13  3.36  6.41 
1356  2.11  4.69  6.41 
1357  2.05  4.26  6.41 
1358  4.39  4.18  6.41 
1359  4.34  4.42  6.41 
1360  4.24  5.02  6.41 
1361  4.18  4.73  6.41 
1362  3.61  4.26  6.41 
1363  1.78  4.70  6.41 
1364  4.07  3.99  6.41 
1365  4.12  3.25  6.41 
1366  3.14  3.42  6.41 
1367  3.47  4.07  6.41 
1368  4.47  4.47  6.41 
1369  3.59  5.05  6.41 
1370  4.67  4.07  6.41 
1371  1.88  4.10  6.41 
1372  4.62  2.81  6.41 
1373  4.12  4.85  6.41 
1374  2.98  4.92  6.41 
1375  4.05  4.31  6.41 
1376  4.20  4.38  6.41 
1377  3.61  3.59  6.41 
1378  4.04  4.40  6.41 
1379  3.79  3.48  6.41 
1380  2.13  4.16  6.41 
1381  4.61  4.43  6.41 
1382  3.96  4.78  6.41 
1383  2.34  4.42  6.41 
1384  4.22  4.41  6.41 
1385  1.68  4.31  6.41 
1386  4.34  4.00  6.41 
1387  3.75  4.54  6.41 
1388  4.39  3.22  6.41 
1389  3.52  3.85  6.41 
1390  3.53  4.08  6.41 
1391  3.33  4.34  6.41 
1392  4.11  4.12  6.41 
1393  3.03  3.58  6.41 
1394  3.78  4.34  6.41 
1395  1.62  4.21  6.41 
1396  3.58  4.47  6.41 
1397  3.66  4.38  6.41 
1398  4.55  4.37  6.41 
1399  4.11  4.74  6.41 
1400  4.06  3.67  6.41 
1401  4.74  3.80  6.41 
1402  4.32  4.27  6.41 
1403  4.05  3.54  6.41 
1404  5.26  4.91  6.41 
1405  4.19  4.16  6.41 
1406  4.87  4.33  6.41 
1407  4.91  4.82  6.41 
1408  4.26  4.11  6.41 
1409  4.29  4.86  6.41 
1410  4.40  3.97  6.41 
1411  4.15  3.96  6.41 
1412  4.87  3.85  6.41 
1413  4.78  3.93  6.41 
1414  3.67  4.68  6.41 
1415  4.68  3.92  6.41 
1416  4.82  3.56  6.41 
1417  4.40  4.36  6.41 
1418  3.35  4.54  6.41 
1419  3.50  4.22  6.41 
1420  3.02  3.83  6.41 
1421  4.62  4.28  6.41 
1422  3.54  4.38  6.41 
1423  2.51  5.04  6.41 
1424  4.87  4.22  6.41 
1425  2.56  3.79  6.41 
1426  5.55  4.00  6.41 
1427  4.85  3.52  6.41 
1428  1.98  4.58  6.41 
1429  4.63  4.58  6.41 
1430  3.68  3.76  6.41 
1431  3.96  4.68  6.41 
1432  2.94  3.41  6.41 
1433  4.03  3.87  6.41 
1434  4.44  4.45  6.41 
1435  4.07  4.34  6.41 
1436  2.75  3.80  6.41 
1437  4.49  4.07  6.41 
1438  2.51  4.72  6.41 
1439  4.29  3.99  6.41 
1440  2.84  4.81  6.41 
1441  4.29  3.82  6.41 
1442  4.33  3.71  6.41 
1443  3.38  5.01  6.41 
1444  5.01  2.89  6.41 
1445  3.71  4.22  6.41 
1446  4.89  4.28  6.41 
1447  4.43  4.08  6.41 
1448  4.66  3.90  6.41 
1449  4.10  4.36  6.41 
1450  4.72  4.90  6.41 
1451  4.75  4.83  6.41 
1452  4.87  3.99  6.41 
1453  3.53  4.64  6.41 
1454  3.23  4.07  6.41 
1455  3.60  4.76  6.41 
1456  4.52  4.14  6.41 
1457  4.36  3.75  6.41 
1458  4.14  4.70  6.41 
1459  4.87  4.32  6.41 
1460  4.31  3.81  6.41 
1461  4.44  4.41  6.41 
1462  4.49  3.61  6.41 
1463  3.34  4.30  6.41 
1464  4.45  4.32  6.41 
1465  4.22  4.27  6.41 
1466  4.53  3.93  6.41 
1467  4.33  4.09  6.41 
1468  4.58  4.40  6.41 
1469  4.11  4.34  6.41 
1470  3.52  3.73  6.41 
1471  4.23  3.67  6.41 
1472  4.11  3.67  6.41 
1473  4.38  3.81  6.41 
1474  4.54  3.81  6.41 
1475  4.46  3.93  6.41 
1476  2.86  3.68  6.41 
1477  4.12  4.13  6.41 
1478  3.28  3.59  6.41 
1479  4.29  3.84  6.41 
1480  4.28  3.37  6.41 
1481  3.03  4.21  6.41 
1482  4.47  3.27  6.41 
1483  2.87  3.89  6.41 
1484  4.34  3.97  6.41 
1485  4.10  3.12  6.41 
1486  4.79  4.01  6.41 
1487  4.41  4.07  6.41 
1488  3.06  3.73  6.41 
1489  4.22  3.49  6.41 
1490  2.92  4.11  6.41 
1491  5.17  4.26  6.41 
1492  4.22  3.04  6.41 
1493  4.03  3.47  6.41 
1494  4.33  2.50  6.41 
1495  4.73  3.97  6.41 
1496  3.77  3.84  6.41 
1497  4.15  3.91  6.41 
1498  4.05  3.86  6.41 
1499  4.28  3.21  6.41 
1500  4.66  3.58  6.41 
1501  4.16  4.15  6.41 
1502  4.38  3.75  6.41 
1503  3.42  3.32  6.41 
1504  4.57  3.81  6.41 
1505  4.12  3.97  6.41 
1506  4.60  3.99  6.41 
1507  2.85  3.66  6.41 
1508  4.41  3.42  6.41 
1509  4.73  3.34  6.41 
1510  4.37  3.72  6.41 
1511  4.28  4.11  6.41 
1512  3.74  3.59  6.41 
1513  3.79  2.90  6.41 
1514  4.26  3.76  6.41 
1515  4.18  2.98  6.41 
1516  4.02  3.87  6.41 
1517  4.27  3.24  6.41 
1518  3.38  3.73  6.41 
1519  3.04  3.02  6.41 
1520  3.43  4.12  6.41 
1521  3.78  2.76  6.41 
1522  3.37  3.81  6.41 
1523  4.34  2.52  6.41 
1524  4.31  3.50  6.41 
1525  3.85  3.68  6.41 
1526  3.98  3.97  6.41 
1527  2.99  3.31  6.41 
1528  4.30  3.73  6.41 
1529  4.29  4.20  6.41 
1530  4.44  4.06  6.41 
1531  4.42  3.68  6.41 
1532  2.83  2.98  6.41 
1533  4.13  3.60  6.41 
1534  4.73  3.91  6.41 
1535  4.79  4.14  6.41 
1536  3.07  3.96  6.41 
1537  2.55  3.38  6.41 
1538  3.02  4.14  6.41 
1539  3.56  3.36  6.41 
1540  4.15  2.72  6.41 
1541  4.39  3.94  6.41 
1542  4.02  4.01  6.41 
1543  2.78  3.72  6.41 
1544  3.96  3.94  6.41 
1545  4.69  4.29  6.41 
1546  4.03  3.42  6.41 
1547  4.04  3.94  6.41 
1548  3.30  3.99  6.41 
1549  3.66  4.04  6.41 
1550  4.78  4.34  6.41 
1551  2.80  3.22  6.41 
1552  4.29  3.88  6.41 
1553  2.82  3.45  6.41 
1554  4.02  4.60  6.41 
1555  4.08  4.57  6.41 
1556  4.22  4.75  6.41 
1557  4.32  3.94  6.41 
1558  4.29  4.40  6.41 
1559  4.16  4.34  6.41 
1560  4.20  3.82  6.41 
1561  4.33  3.64  6.41 
1562  3.44  4.27  6.41 
1563  4.29  4.25  6.41 
1564  4.28  4.91  6.41 
1565  3.43  3.50  6.41 
1566  3.39  5.66  6.41 
1567  4.42  4.33  6.41 
1568  3.96  4.07  6.41 
1569  4.84  4.76  6.41 
1570  3.76  3.91  6.41 
1571  4.61  5.37  6.41 
1572  3.73  5.08  6.41 
1573  4.07  4.60  6.41 
1574  4.37  4.72  6.41 
1575  4.29  4.54  6.41 
1576  3.64  4.58  6.41 
1577  4.07  4.14  6.41 
1578  3.69  4.22  6.41 
1579  4.56  3.97  6.41 
1580  4.73  4.64  6.41 
1581  4.37  4.48  6.41 
1582  2.96  4.57  6.41 
1583  4.02  4.76  6.41 
1584  3.77  4.45  6.41 
1585  4.26  4.00  6.41 
1586  4.24  4.11  6.41 
1587  4.33  4.24  6.41 
1588  5.21  4.13  6.41 
1589  4.20  4.40  6.41 
1590  4.27  4.61  6.41 
1591  4.58  5.04  6.41 
1592  4.55  4.64  6.41 
1593  4.15  3.82  6.41 
1594  4.38  4.49  6.41 
1595  4.36  3.19  6.41 
1596  0.76  4.89  6.41 
1597  2.79  4.40  6.41 
1598  4.17  3.86  6.41 
1599  4.91  4.70  6.41 
1600  4.13  4.87  6.41 
1601  5.00  4.81  6.41 
1602  4.54  3.37  6.41 
1603  4.55  3.48  6.41 
1604  3.73  3.37  6.41 
1605  3.14  4.79  6.41 
1606  2.91  4.93  6.41 
1607  3.42  5.03  6.41 
1608  2.36  4.62  6.41 
1609  3.37  3.55  6.41 
1610  3.06  3.68  6.41 
1611  5.10  4.33  6.41 
1612  3.18  4.60  6.41 
1613  3.69  5.19  6.41 
1614  4.14  5.17  6.41 
1615  4.31  4.79  6.41 
1616  5.35  3.15  6.41 
1617  4.22  4.19  6.41 
1618  4.17  4.71  6.41 
1619  5.01  4.47  6.41 
1620  4.40  3.95  6.41 
1621  4.24  3.86  6.41 
1622  4.50  4.00  6.41 
1623  4.28  4.28  6.41 
1624  4.19  4.49  6.41 
1625  3.39  4.70  6.41 
1626  4.14  4.33  6.41 
1627  3.52  3.86  6.41 
1628  4.05  3.35  6.41 
1629  4.33  4.54  6.41 
1630  4.74  4.29  6.41 
1631  4.61  4.35  6.41 
1632  4.09  4.53  6.41 
1633  4.54  4.39  6.41 
1634  3.93  4.57  6.41 
1635  3.74  4.44  6.41 
1636  4.41  3.78  6.41 
1637  3.12  4.32  6.41 
1638  2.15  4.47  6.41 
1639  5.08  4.48  6.41 
1640  2.03  5.00  6.41 
1641  2.56  3.59  6.41 
1642  3.71  4.75  6.41 
1643  2.24  4.31  6.41 
1644  4.80  4.37  6.41 
1645  4.19  3.89  6.41 
1646  3.85  3.77  6.41 
1647  4.35  4.19  6.41 
1648  4.11  4.28  6.41 
1649  3.04  3.39  6.41 
1650  4.99  3.59  6.41 
1651  3.53  3.98  6.41 
1652  4.63  3.69  6.41 
1653  3.77  4.45  6.41 
1654  4.16  4.36  6.41 
1655  4.56  2.84  6.41 
1656  3.64  4.86  6.41 
1657  4.78  4.42  6.41 
1658  4.12  4.95  6.41 
1659  2.76  4.26  6.41 
1660  4.51  4.18  6.41 
1661  4.34  4.53  6.41 
1662  2.53  4.58  6.41 
1663  3.43  3.15  6.41 
1664  4.39  3.92  6.41 
1665  4.13  4.00  6.41 
1666  4.77  2.95  6.41 
1667  4.07  4.46  6.41 
1668  3.09  3.18  6.41 
1669  4.00  3.22  6.41 
1670  4.44  3.94  6.41 
1671  3.52  4.69  6.41 
1672  3.63  3.49  6.41 
1673  4.13  3.34  6.41 
1674  3.63  3.15  6.41 
1675  4.12  3.49  6.41 
1676  4.31  4.11  6.41 
1677  4.03  3.57  6.41 
1678  3.95  4.14  6.41 
1679  3.22  3.27  6.41 
1680  4.13  4.64  6.41 
1681  2.01  4.47  6.41 
1682  4.68  3.72  6.41 
1683  4.34  4.31  6.41 
1684  3.48  4.26  6.41 
1685  3.15  3.81  6.41 
1686  2.29  4.00  6.41 
1687  3.25  3.87  6.41 
1688  4.26  3.90  6.41 
1689  4.97  4.01  6.41 
1690  4.19  4.24  6.41 
1691  4.30  4.13  6.41 
1692  3.06  3.94  6.41 
1693  4.28  4.41  6.41 
1694  3.08  3.61  6.41 
1695  5.96  4.01  6.41 
1696  4.26  3.99  6.41 
1697  4.30  3.88  6.41 
1698  3.33  3.81  6.41 
1699  4.13  4.06  6.41 
1700  4.66  4.01  6.41 
1701  4.63  3.86  6.41 
1702  4.50  3.58  6.41 
1703  3.33  4.30  6.41 
1704  4.27  2.86  6.41 
1705  4.38  4.24  6.41 
1706  4.56  3.58  6.41 
1707  4.44  3.78  6.41 
1708  4.26  3.58  6.41 
1709  2.97  4.86  6.41 
1710  3.73  5.15  6.41 
1711  3.00  4.68  6.41 
1712  4.63  3.78  6.41 
1713  4.19  3.67  6.41 
1714  4.37  4.10  6.41 
1715  3.66  4.14  6.41 
1716  3.53  4.33  6.41 
1717  4.16  3.70  6.41 
1718  3.73  4.35  6.41 
1719  2.99  4.78  6.41 
1720  4.81  4.01  6.41 
1721  4.62  2.52  6.41 
1722  3.79  4.07  6.41 
1723  4.21  2.94  6.41 
1724  4.53  4.29  6.41 
1725  3.92  4.46  6.41 
1726  3.27  3.55  6.41 
1727  3.81  3.80  6.41 
1728  3.83  4.13  6.41 
1729  2.62  5.32  6.41 
1730  4.19  3.76  6.41 
1731  3.66  4.09  6.41 
1732  4.10  4.52  6.41 
1733  3.74  4.31  6.41 
1734  4.21  3.46  6.41 
1735  4.64  3.94  6.41 
1736  3.78  3.88  6.41 
1737  4.19  4.55  6.41 
1738  4.50  4.29  6.41 
1739  4.46  4.13  6.41 
1740  3.52  4.86  6.41 
1741  3.41  4.11  6.41 
1742  2.86  4.43  6.41 
1743  4.24  4.52  6.41 
1744  4.15  4.73  6.41 
1745  3.52  4.39  6.41 
1746  4.10  4.65  6.41 
1747  3.09  4.24  6.41 
1748  4.22  4.51  6.41 
1749  3.56  3.85  6.41 
1750  3.51  5.01  6.41 
1751  3.54  4.23  6.41 
1752  4.71  4.68  6.41 
1753  4.37  4.76  6.41 
1754  3.16  4.06  6.41 
1755  3.38  4.82  6.41 
1756  4.60  4.89  6.41 
1757  2.83  4.62  6.41 
1758  2.72  4.26  6.41 
1759  2.78  4.50  6.41 
1760  4.19  4.49  6.41 
1761  3.12  4.17  6.41 
1762  3.35  3.94  6.41 
1763  4.52  3.25  6.41 
1764  3.61  4.26  6.41 
1765  4.77  4.09  6.41 
1766  3.67  3.87  6.41 
1767  4.41  4.00  6.41 
1768  4.48  4.41  6.41 
1769  4.10  3.26  6.41 
1770  4.49  4.01  6.41 
1771  4.45  4.12  6.41 
1772  5.19  4.24  6.41 
1773  1.83  4.01  6.41 
1774  3.08  4.53  6.41 
1775  3.70  3.38  6.41 
1776  3.72  3.59  6.41 
1777  5.11  4.51  6.41 
1778  2.52  4.07  6.41 
1779  5.37  4.34  6.41 
1780  3.73  4.09  6.41 
1781  3.55  3.96  6.41 
1782  3.89  3.93  6.41 
1783  3.26  4.74  6.41 
1784  2.15  4.29  6.41 
1785  4.71  3.60  6.41 
1786  3.73  4.14  6.41 
1787  2.53  3.59  6.41 
1788  4.06  4.70  6.41 
1789  3.59  4.71  6.41 
1790  4.28  4.59  6.41 
1791  4.53  3.36  6.41 
1792  4.09  4.30  6.41 
1793  3.78  4.32  6.41 
1794  3.05  3.25  6.41 
1795  4.40  3.93  6.41 
1796  2.65  4.12  6.41 
1797  2.86  3.40  6.41 
1798  4.19  3.87  6.41 
1799  4.41  4.05  6.41 
1800  5.05  4.44  6.41 
1801  4.35  3.74  6.41 
1802  4.61  4.73  6.41 
1803  3.09  4.25  6.41 
1804  4.59  4.48  6.41 
1805  4.08  4.36  6.41 
1806  3.60  4.46  6.41 
1807  4.13  3.76  6.41 
1808  4.43  4.81  6.41 
1809  4.18  4.32  6.41 
1810  3.11  3.83  6.41 
1811  2.77  5.28  6.41 
1812  2.03  4.50  6.41 
1813  3.73  4.68  6.41 
1814  3.46  4.82  6.41 
1815  3.01  3.99  6.41 
1816  3.58  3.69  6.41 
1817  3.92  3.94  6.41 
1818  4.05  4.53  6.41 
1819  4.72  4.57  6.41 
1820  3.54  4.55  6.41 
1821  3.48  4.81  6.41 
1822  4.78  4.33  6.41 
1823  4.36  3.82  6.41 
1824  3.24  3.96  6.41 
1825  4.33  3.44  6.41 
1826  3.83  4.21  6.41 
1827  4.76  4.25  6.41 
1828  4.14  4.42  6.41 
1829  3.51  4.18  6.41 
1830  4.34  3.72  6.41 
1831  5.49  3.51  6.41 
1832  4.12  3.83  6.41 
1833  2.77  3.86  6.41 
1834  4.55  3.74  6.41 
1835  3.29  4.01  6.41 
1836  4.05  3.73  6.41 
1837  3.93  3.35  6.41 
1838  4.07  3.75  6.41 
1839  5.68  3.98  6.41 
1840  4.21  3.53  6.41 
1841  3.34  3.40  6.41 
1842  4.56  4.26  6.41 
1843  4.13  3.98  6.41 
1844  4.11  4.60  6.41 
1845  4.21  4.35  6.41 
1846  2.42  4.56  6.41 
1847  4.22  3.22  6.41 
1848  4.37  2.97  6.41 
1849  4.33  3.90  6.41 
1850  3.39  3.29  6.41 
1851  2.93  2.96  6.41 
1852  3.02  3.96  6.41 
1853  4.95  3.65  6.41 
1854  2.13  3.46  6.41 
1855  3.07  3.32  6.41 
1856  4.42  4.00  6.41 
1857  4.77  4.51  6.41 
1858  4.55  4.28  6.41 
1859  3.69  4.67  6.41 
1860  3.26  4.48  6.41 
1861  4.42  3.77  6.41 
1862  4.40  3.63  6.41 
1863  3.21  4.36  6.41 
1864  4.17  3.46  6.41 
1865  2.91  4.05  6.41 
1866  3.88  3.64  6.41 
1867  3.85  3.91  6.41 
1868  3.83  4.16  6.41 
1869  4.37  3.13  6.41 
1870  3.70  3.22  6.41 
1871  3.46  3.73  6.41 
1872  4.23  4.09  6.41 
1873  3.66  4.94  6.41 
1874  4.47  4.54  6.41 
1875  3.26  3.81  6.41 
1876  4.02  3.81  6.41 
1877  4.11  3.53  6.41 
1878  4.46  4.79  6.41 
1879  3.28  4.58  6.41 
1880  4.20  4.31  6.41 
1881  3.51  4.41  6.41 
1882  2.52  4.48  6.41 
1883  4.23  4.10  6.41 
1884  3.04  3.74  6.41 
1885  4.18  4.52  6.41 
1886  3.90  4.26  6.41 
1887  3.71  4.18  6.41 
1888  4.39  4.55  6.41 
1889  4.32  4.07  6.41 
1890  4.13  4.81  6.41 
1891  4.43  4.39  6.41 
1892  4.02  3.96  6.41 
1893  3.51  4.41  6.41 
1894  3.77  4.12  6.41 
1895  3.61  4.22  6.41 
1896  4.15  3.62  6.41 
1897  4.68  3.72  6.41 
1898  5.51  4.52  6.41 
1899  4.34  4.88  6.41 
1900  4.12  4.46  6.41 
1901  2.89  4.58  6.41 
1902  4.63  4.23  6.41 
1903  2.80  3.50  6.41 
1904  3.11  4.02  6.41 
1905  4.38  3.11  6.41 
1906  4.26  3.61  6.41 
1907  4.14  4.56  6.41 
1908  4.59  3.73  6.41 
1909  3.37  3.68  6.41 
1910  4.41  3.53  6.41 
1911  4.24  3.81  6.41 
1912  4.10  4.11  6.41 
1913  3.06  3.76  6.41 
1914  4.68  4.02  6.41 
1915  3.85  3.71  6.41 
1916  3.16  3.99  6.41 
1917  4.17  3.74  6.41 
1918  4.81  3.45  6.41 
1919  4.29  3.77  6.41 
1920  4.50  4.08  6.41 
1921  4.18  3.50  6.41 
1922  4.12  3.71  6.41 
1923  4.70  4.36  6.41 
1924  3.12  4.42  6.41 
1925  3.18  3.89  6.41 
1926  2.82  3.88  6.41 
1927  4.18  4.33  6.41 
1928  3.06  3.41  6.41 
1929  4.53  4.23  6.41 
1930  3.03  4.08  6.41 
1931  4.18  4.23  6.41 
1932  4.39  4.24  6.41 
1933  4.73  4.15  6.41 
1934  3.27  4.08  6.41 
1935  4.30  3.89  6.41 
1936  4.07  3.67  6.41 
1937  4.23  4.78  6.41 
1938  4.52  3.66  6.41 
1939  4.64  4.01  6.41 
1940  4.18  3.07  6.41 
1941  4.79  3.67  6.41 
1942  2.86  4.46  6.41 
1943  2.89  3.59  6.41 
1944  4.67  3.72  6.41 
1945  3.89  4.58  6.41 
1946  2.85  4.15  6.41 
1947  3.95  3.96  6.41 
1948  4.24  4.27  6.41 
1949  3.43  3.92  6.41 
1950  4.48  5.20  6.41 
1951  4.24  4.01  6.41 
1952  4.59  3.83  6.41 
1953  4.32  4.11  6.41 
1954  4.47  4.44  6.41 
1955  4.36  4.51  6.41 
1956  4.39  4.73  6.41 
1957  4.63  4.12  6.41 
1958  3.13  3.88  6.41 
1959  3.37  4.26  6.41 
1960  4.20  4.15  6.41 
1961  4.10  4.01  6.41 
1962  4.31  3.85  6.41 
1963  3.55  4.33  6.41 
1964  4.47  3.67  6.41 
1965  4.25  4.40  6.41 
1966  3.24  3.46  6.41 
1967  4.38  3.58  6.41 
1968  4.49  4.25  6.41 
1969  4.30  3.76  6.41 
1970  4.19  3.65  6.41 
1971  4.23  3.25  6.41 
1972  4.43  4.19  6.41 
1973  4.69  3.74  6.41 
1974  0.80  4.46  6.41 
1975  4.25  3.94  6.41 
1976  4.18  4.56  6.41 
1977  4.96  3.31  6.41 
1978  4.15  3.91  6.41 
1979  4.19  4.31  6.41 
1980  1.35  4.22  6.41 
1981  3.10  3.88  6.41 
1982  4.38  4.19  6.41 
1983  3.85  3.71  6.41 
1984  4.23  4.14  6.41 
1985  3.75  3.75  6.41 
1986  4.18  3.61  6.41 
1987  4.21  3.90  6.41 
1988  4.37  4.16  6.41 
1989  4.24  4.32  6.41 
1990  3.12  3.75  6.41 
1991  2.79  3.26  6.41 
1992  4.12  3.89  6.41 
1993  3.32  3.51  6.41 
1994  3.53  4.04  6.41 
1995  4.35  3.94  6.41 
1996  4.24  4.25  6.41 
1997  4.84  4.16  6.41 
1998  4.52  3.94  6.41 
1999  4.48  3.66  6.41 
2000  3.96  4.51  6.41 
2001  4.80  3.63  6.41 
2002  4.04  4.46  6.41 
2003  4.19  3.87  6.41 
2004  4.16  3.86  6.41 
2005  3.84  3.09  6.41 
2006  4.37  3.48  6.41 
2007  4.32  3.62  6.41 
2008  3.01  3.80  6.41 
2009  4.28  3.01  6.41 
2010  3.76  3.26  6.41 
2011  4.69  3.88  6.41 
2012  4.30  3.98  6.41 
2013  4.58  4.09  6.41 
2014  3.70  4.02  6.41 
2015  2.94  4.13  6.41 
2016  3.83  4.43  6.41 
2017  4.12  4.26  6.41 
2018  3.07  3.88  6.41 
2019  4.80  4.26  6.41 
2020  3.82  3.75  6.41 
2021  4.25  3.25  6.41 
2022  4.39  4.65  6.41 
2023  4.45  3.89  6.41 
2024  2.49  3.56  6.41 
2025  4.23  3.82  6.41 
2026  3.20  3.74  6.41 
2027  3.77  3.51  6.41 
2028  3.40  3.74  6.41 
2029  2.99  3.71  6.41 
2030  2.80  4.16  6.41 
2031  4.54  3.68  6.41 
2032  4.13  3.37  6.41 
2033  3.48  4.08  6.41 
2034  4.08  4.11  6.41 
2035  3.59  3.88  6.41 
2036  4.12  3.67  6.41 
2037  3.22  4.10  6.41 
2038  4.11  3.97  6.41 
2039  4.35  3.58  6.41 
2040  4.28  3.36  6.41 
2041  3.85  3.73  6.41 
2042  3.56  3.83  6.41 
2043  4.34  3.16  6.41 
2044  2.83  3.86  6.41 
2045  4.35  4.16  6.41 
2046  4.12  4.11  6.41 
2047  4.09  3.36  6.41 
2048  2.13  4.00  6.41 
2049  4.13  3.75  6.41 
2050  3.16  3.67  6.41 
2051  4.16  4.06  6.41 
2052  2.90  4.13  6.41 
2053  3.09  4.36  6.41 
2054  4.24  4.22  6.41 
2055  3.42  3.57  6.41 
2056  4.09  4.03  6.41 
2057  3.36  4.02  6.41 
2058  3.64  4.34  6.41 
2059  4.27  3.90  6.41 
2060  4.34  3.24  6.41 
2061  4.18  3.06  6.41 
2062  4.26  4.38  6.41 
2063  4.31  4.03  6.41 
2064  4.42  3.90  6.41 
2065  3.40  2.96  6.41 
2066  4.50  4.05  6.41 
2067  4.28  3.25  6.41 
2068  4.32  4.28  6.41 
2069  3.45  3.69  6.41 
2070  4.45  3.89  6.41 
2071  3.16  3.55  6.41 
2072  3.51  4.16  6.41 
2073  3.35  3.84  6.41 
2074  4.11  3.43  6.41 
2075  4.53  3.98  6.41 
2076  4.51  4.32  6.41 
2077  2.31  3.80  6.41 
2078  4.60  4.00  6.41 
2079  3.37  3.73  6.41 
2080  3.09  3.50  6.41 
2081  2.07  3.34  6.41 
2082  3.89  3.47  6.41 
2083  3.52  3.58  6.41 
2084  4.10  3.80  6.41 
2085  3.08  2.86  6.41 
2086  3.32  4.28  6.41 
2087  3.37  3.41  6.41 
2088  4.08  3.53  6.41 
2089  3.52  3.88  6.41 
2090  4.26  3.47  6.41 
2091  3.61  3.85  6.41 
2092  3.20  3.47  6.41 
2093  3.43  4.12  6.41 
2094  4.20  4.72  6.41 
2095  4.24  4.13  6.41 
2096  3.74  3.05  6.41 
2097  4.69  2.89  6.41 
2098  4.67  4.21  6.41 
2099  4.34  3.64  6.41 
2100  4.32  4.44  6.41 
2101  4.38  3.85  6.41 
2102  4.21  3.12  6.41 
2103  2.78  3.99  6.41 
2104  4.44  3.76  6.41 
2105  4.02  4.25  6.41 
2106  1.30  4.58  6.41 
2107  3.61  3.97  6.41 
2108  4.62  3.53  6.41 
2109  4.49  4.59  6.41 
2110  4.57  3.22  6.41 
2111  4.15  4.59  6.41 
2112  3.67  4.14  6.41 
2113  4.43  4.05  6.41 
2114  4.33  4.39  6.41 
2115  4.41  3.68  6.41 
2116  4.06  3.34  6.41 
2117  3.87  4.16  6.41 
2118  4.08  3.52  6.41 
2119  3.53  4.00  6.41 
2120  3.18  4.33  6.41 
2121  4.83  3.50  6.41 
2122  3.25  4.33  6.41 
2123  4.07  3.61  6.41 
2124  4.29  4.37  6.41 
2125  3.27  3.70  6.41 
2126  4.44  4.29  6.41 
2127  4.91  3.96  6.41 
2128  4.31  4.17  6.41 
2129  3.89  4.33  6.41 
2130  3.64  4.72  6.41 
2131  4.19  3.92  6.41 
2132  5.05  3.53  6.41 
2133  2.76  4.51  6.41 
2134  4.04  3.98  6.41 
2135  4.11  4.47  6.41 
2136  3.45  4.57  6.41 
2137  4.28  4.00  6.41 
2138  3.30  4.78  6.41 
2139  2.61  4.23  6.41 
2140  4.24  4.53  6.41 
2141  3.53  4.13  6.41 
2142  4.05  4.48  6.41 
2143  2.14  4.63  6.41 
2144  4.03  3.68  6.41 
2145  3.01  4.36  6.41 
2146  3.82  4.28  6.41 
2147  2.45  4.06  6.41 
2148  4.25  4.35  6.41 
2149  4.03  4.20  6.41 
2150  3.86  4.04  6.41 
2151  3.93  3.63  6.41 
2152  3.33  4.21  6.41 
2153  4.01  3.90  6.41 
2154  3.20  4.36  6.41 
2155  4.23  3.75  6.41 
2156  4.34  3.62  6.41 
2157  4.27  3.83  6.41 
2158  4.76  4.31  6.41 
2159  5.82  3.75  6.41 
2160  4.13  3.56  6.41 
2161  3.38  3.98  6.41 
2162  3.78  4.11  6.41 
2163  2.77  4.00  6.41 
2164  4.29  3.54  6.41 
2165  3.01  3.86  6.41 
2166  4.37  4.06  6.41 
2167  4.25  4.03  6.41 
2168  4.32  3.20  6.41 
2169  4.32  3.71  6.41 
2170  2.26  4.05  6.41 
2171  4.01  3.52  6.41 
2172  2.76  2.95  6.41 
2173  3.37  3.43  6.41 
2174  4.17  2.87  6.41 
2175  3.28  3.43  6.41 
2176  4.42  3.68  6.41 
2177  3.50  3.36  6.41 
2178  4.01  4.45  6.41 
2179  4.53  3.69  6.41 
2180  4.32  4.04  6.41 
2181  5.29  3.46  6.41 
2182  2.53  4.19  6.41 
2183  4.11  3.87  6.41 
2184  4.15  3.62  6.41 
2185  3.06  2.60  6.41 
2186  4.32  4.04  6.41 
2187  4.30  3.36  6.41 
2188  2.83  3.89  6.41 
2189  3.26  3.61  6.41 
2190  3.41  4.21  6.41 
2191  4.33  4.30  6.41 
2192  4.42  4.88  6.41 
2193  4.45  2.95  6.41 
2194  4.28  3.11  6.41 
2195  4.04  3.03  6.41 
2196  1.78  3.76  6.41 
2197  4.39  3.75  6.41 
2198  4.52  4.09  6.41 
2199  4.26  3.33  6.41 
2200  3.22  3.85  6.41 
2201  4.72  3.24  6.41 
2202  3.25  3.71  6.41 
2203  3.14  4.12  6.41 
2204  4.52  3.84  6.41 
2205  3.44  3.66  6.41 
2206  4.36  3.35  6.41 
2207  4.12  3.98  6.41 
2208  4.43  3.07  6.41 
2209  2.51  4.05  6.41 
2210  4.30  3.06  6.41 
2211  3.16  3.63  6.41 
2212  3.06  4.04  6.41 
2213  4.48  4.14  6.41 
2214  3.72  4.08  6.41 
2215  4.20  3.96  6.41 
2216  4.23  3.62  6.41 
2217  4.23  4.16  6.41 
2218  3.80  3.85  6.41 
2219  4.39  3.74  6.41 
2220  3.96  3.84  6.41 
2221  2.61  4.16  6.41 
2222  3.66  3.45  6.41 
2223  4.20  3.46  6.41 
2224  4.55  3.27  6.41 
2225  4.45  3.64  6.41 
2226  4.04  4.18  6.41 
2227  4.07  3.23  6.41 
2228  4.20  3.41  6.41 
2229  4.28  3.96  6.41 
2230  4.45  3.63  6.41 
2231  4.26  4.43  6.41 
2232  4.41  3.63  6.41 
2233  4.39  3.68  6.41 
2234  3.35  4.00  6.41 
2235  4.01  4.13  6.41 
2236  3.61  3.91  6.41 
2237  4.27  4.32  6.41 
2238  4.00  3.89  6.41 
2239  2.80  3.55  6.41 
2240  4.10  3.53  6.41 
2241  4.30  4.11  6.41 
2242  4.12  3.83  6.41 
2243  4.55  4.19  6.41 
2244  2.31  3.56  6.41 
2245  3.46  2.94  6.41 
2246  2.09  3.09  6.41 
2247  4.39  3.81  6.41 
2248  3.33  4.01  6.41 
2249  3.03  4.28  6.41 
2250  4.25  2.93  6.41 
2251  3.07  4.34  6.41 
2252  4.16  4.22  6.41 
2253  4.40  3.85  6.41 
2254  3.17  4.19  6.41 
2255  4.37  3.29  6.41 
2256  3.05  3.71  6.41 
2257  2.96  4.24  6.41 
2258  4.18  4.30  6.41 
2259  4.10  4.14  6.41 
2260  2.77  4.08  6.41 
2261  4.10  3.77  6.41 
2262  4.13  3.37  6.41 
2263  4.54  3.89  6.41 
2264  4.57  3.94  6.41 
2265  3.48  4.36  6.41 
2266  4.56  4.11  6.41 
2267  3.48  3.78  6.41 
2268  4.36  3.75  6.41 
2269  4.19  4.49  6.41 
2270  4.28  3.43  6.41 
2271  4.51  4.38  6.41 
2272  4.19  3.91  6.41 
2273  4.10  4.23  6.41 
2274  4.65  3.71  6.41 
2275  3.83  3.73  6.41 
2276  2.98  4.10  6.41 
2277  4.54  4.47  6.41 
2278  4.38  4.37  6.41 
2279  4.47  4.46  6.41 
2280  2.91  4.50  6.41 
2281  4.47  4.21  6.41 
2282  2.74  4.51  6.41 
2283  4.28  4.31  6.41 
2284  4.21  2.64  6.41 
2285  4.88  3.35  6.41 
2286  2.10  3.98  6.41 
2287  2.25  4.41  6.41 
2288  4.59  3.89  6.41 
2289  4.80  3.70  6.41 
2290  3.05  4.32  6.41 
2291  4.36  3.92  6.41 
2292  3.60  3.87  6.41 
2293  4.36  3.72  6.41 
2294  3.08  4.56  6.41 
2295  3.67  4.70  6.41 
2296  2.78  4.54  6.41 
2297  3.98  3.04  6.41 
2298  4.07  3.61  6.41 
2299  4.21  4.66  6.41 
2300  6.57  4.88  6.41 
2301  3.01  4.29  6.57 
2302  3.06  3.65  6.57 
2303  4.15  4.41  6.57 
2304  4.68  2.85  6.57 
2305  4.55  3.76  6.57 
2306  4.17  4.11  6.57 
2307  3.45  3.28  6.57 
2308  4.27  3.81  6.57 
2309  4.23  4.10  6.57 
2310  4.07  3.44  6.57 
2311  4.30  4.32  6.57 
2312  3.42  4.21  6.57 
2313  2.40  3.83  6.57 
2314  4.20  3.83  6.57 
2315  3.45  3.71  6.57 
2316  3.67  4.11  6.57 
2317  4.09  4.02  6.57 
2318  3.01  3.82  6.57 
2319  4.18  3.82  6.57 
2320  4.35  3.29  6.57 
2321  4.51  3.37  6.57 
2322  4.43  4.51  6.57 
2323  3.95  3.89  6.57 
2324  4.24  4.42  6.57 
2325  4.60  3.54  6.57 
2326  3.61  3.59  6.57 
2327  4.08  4.22  6.57 
2328  4.46  4.42  6.57 
2329  4.27  3.31  6.57 
2330  4.26  3.95  6.57 
2331  4.64  3.51  6.57 
2332  4.24  4.24  6.57 
2333  4.58  4.40  6.57 
2334  4.07  3.86  6.57 
2335  4.09  4.40  6.57 
2336  4.30  4.45  6.57 
2337  4.45  4.10  6.57 
2338  3.84  3.86  6.57 
2339  4.65  3.79  6.57 
2340  4.92  3.71  6.57 
2341  4.68  3.99  6.57 
2342  4.20  4.09  6.57 
2343  4.80  4.54  6.57 
2344  4.16  3.17  6.57 
2345  1.78  3.48  6.57 
2346  4.24  4.43  6.57 
2347  4.49  4.53  6.57 
2348  4.47  4.78  6.57 
2349  4.29  4.83  6.57 
2350  4.58  3.79  6.57 
2351  4.17  3.73  6.57 
2352  3.64  3.66  6.57 
2353  4.44  3.28  6.57 
2354  3.11  3.71  6.57 
2355  3.52  3.86  6.57 
2356  4.51  2.79  6.57 
2357  4.69  4.16  6.57 
2358  4.59  3.30  6.57 
2359  5.16  4.58  6.57 
2360  4.45  4.31  6.57 
2361  3.15  3.14  6.57 
2362  3.36  3.93  6.57 
2363  3.46  3.40  6.57 
2364  3.27  4.27  6.57 
2365  4.33  4.27  6.57 
2366  4.90  4.47  6.57 
2367  4.29  4.11  6.57 
2368  4.46  4.53  6.57 
2369  4.19  4.25  6.57 
2370  3.87  4.35  6.57 
2371  4.21  3.61  6.57 
2372  3.65  4.11  6.57 
2373  4.41  4.31  6.57 
2374  4.56  3.49  6.57 
2375  4.47  4.35  6.57 
2376  3.12  3.59  6.57 
2377  4.23  4.29  6.57 
2378  4.24  4.35  6.57 
2379  4.56  4.60  6.57 
2380  2.76  3.45  6.57 
2381  3.33  3.96  6.57 
2382  4.27  4.12  6.57 
2383  3.78  4.00  6.57 
2384  4.41  4.21  6.57 
2385  2.25  4.02  6.57 
2386  1.82  3.04  6.57 
2387  4.43  4.34  6.57 
2388  4.18  3.77  6.57 
2389  2.95  2.76  6.57 
2390  5.29  4.37  6.57 
2391  4.59  3.90  6.57 
2392  4.25  3.89  6.57 
2393  4.52  4.13  6.57 
2394  3.52  4.38  6.57 
2395  3.07  3.64  6.57 
2396  4.31  3.51  6.57 
2397  4.19  4.05  6.57 
2398  3.94  3.28  6.57 
2399  3.82  3.24  6.57 
2400  3.76  3.43  6.57 
2401  5.08  3.50  6.57 
2402  3.09  2.67  6.57 
2403  4.23  3.91  6.57 
2404  4.20  3.91  6.57 
2405  4.27  4.14  6.57 
2406  3.00  3.88  6.57 
2407  2.67  3.62  6.57 
2408  3.96  3.26  6.57 
2409  5.21  4.12  6.57 
2410  4.56  3.70  6.57 
2411  4.42  3.69  6.57 
2412  4.14  3.49  6.57 
2413  4.94  3.13  6.57 
2414  3.54  3.68  6.57 
2415  3.07  4.68  6.57 
2416  4.13  4.21  6.57 
2417  4.37  3.63  6.57 
2418  3.50  3.94  6.57 
2419  4.70  3.95  6.57 
2420  4.42  4.67  6.57 
2421  1.25  4.21  6.57 
2422  3.49  4.17  6.57 
2423  4.56  4.76  6.57 
2424  4.68  3.97  6.57 
2425  3.02  4.48  6.57 
2426  3.37  3.61  6.57 
2427  4.40  3.37  6.57 
2428  3.16  2.81  6.57 
2429  3.25  4.30  6.57 
2430  4.41  4.80  6.57 
2431  4.52  4.25  6.57 
2432  3.02  4.66  6.57 
2433  4.23  3.81  6.57 
2434  4.39  3.40  6.57 
2435  4.51  3.59  6.57 
2436  5.25  3.28  6.57 
2437  4.22  4.05  6.57 
2438  5.44  4.63  6.57 
2439  1.83  4.23  6.57 
2440  4.37  4.51  6.57 
2441  4.20  3.96  6.57 
2442  3.04  4.02  6.57 
2443  4.19  3.81  6.57 
2444  4.11  3.78  6.57 
2445  2.86  3.49  6.57 
2446  4.48  3.72  6.57 
2447  4.31  4.46  6.57 
2448  4.29  4.13  6.57 
2449  4.64  4.41  6.57 
2450  2.98  4.49  6.57 
2451  4.06  4.45  6.57 
2452  3.85  3.87  6.57 
2453  4.31  4.29  6.57 
2454  4.28  4.45  6.57 
2455  4.28  3.63  6.57 
2456  4.45  4.66  6.57 
2457  3.00  3.48  6.57 
2458  4.57  3.84  6.57 
2459  4.50  4.89  6.57 
2460  4.23  3.14  6.57 
2461  3.00  3.70  6.57 
2462  4.38  4.13  6.57 
2463  4.38  3.83  6.57 
2464  3.45  4.81  6.57 
2465  2.02  3.79  6.57 
2466  4.38  3.48  6.57 
2467  4.18  3.67  6.57 
2468  3.41  4.35  6.57 
2469  3.98  3.67  6.57 
2470  4.10  4.04  6.57 
2471  2.10  3.79  6.57 
2472  3.79  4.88  6.57 
2473  4.26  3.38  6.57 
2474  4.57  3.91  6.57 
2475  2.59  4.53  6.57 
2476  3.09  3.29  6.57 
2477  5.31  3.73  6.57 
2478  3.37  4.26  6.57 
2479  3.76  4.11  6.57 
2480  3.38  4.19  6.57 
2481  3.43  4.61  6.57 
2482  2.88  3.88  6.57 
2483  4.65  4.24  6.57 
2484  4.25  4.23  6.57 
2485  3.49  4.33  6.57 
2486  6.11  3.69  6.57 
2487  3.07  4.31  6.57 
2488  4.49  3.59  6.57 
2489  3.68  3.10  6.57 
2490  4.27  4.02  6.57 
2491  4.30  3.09  6.57 
2492  3.65  3.57  6.57 
2493  4.73  2.94  6.57 
2494  5.08  3.64  6.57 
2495  4.68  4.67  6.57 
2496  3.44  3.96  6.57 
2497  3.99  4.65  6.57 
2498  4.56  4.23  6.57 
2499  4.91  3.34  6.57 
2500  4.60  4.30  6.57 
2501  4.24  3.41  6.57 
2502  4.98  3.45  6.57 
2503  3.35  3.70  6.57 
2504  4.50  3.46  6.57 
2505  4.75  3.93  6.57 
2506  5.00  3.43  6.57 
2507  4.05  3.34  6.57 
2508  2.64  3.44  6.57 
2509  3.32  3.16  6.57 
2510  4.28  3.36  6.57 
2511  4.31  3.78  6.57 
2512  2.87  3.31  6.57 
2513  4.06  4.59  6.57 
2514  2.88  4.07  6.57 
2515  3.19  3.81  6.57 
2516  4.14  3.56  6.57 
2517  3.72  3.83  6.57 
2518  3.68  2.68  6.57 
2519  4.85  3.70  6.57 
2520  3.98  3.59  6.57 
2521  4.41  3.68  6.57 
2522  4.39  3.85  6.57 
2523  2.74  4.15  6.57 
2524  2.78  3.99  6.57 
2525  4.50  3.95  6.57 
2526  3.51  3.28  6.57 
2527  4.12  4.10  6.57 
2528  3.34  3.54  6.57 
2529  4.71  3.30  6.57 
2530  4.57  3.25  6.57 
2531  2.83  3.77  6.57 
2532  3.46  3.26  6.57 
2533  3.22  3.26  6.57 
2534  4.13  3.53  6.57 
2535  3.94  4.01  6.57 
2536  4.34  3.27  6.57 
2537  6.04  3.77  6.57 
2538  4.03  3.60  6.57 
2539  2.97  3.59  6.57 
2540  4.54  4.02  6.57 
2541  4.11  4.02  6.57 
2542  4.80  3.00  6.57 
2543  3.11  3.61  6.57 
2544  4.48  3.44  6.57 
2545  4.14  3.54  6.57 
2546  3.21  3.81  6.57 
2547  4.86  4.35  6.57 
2548  3.53  4.12  6.57 
2549  3.72  4.06  6.57 
2550  3.55  3.69  6.57 
2551  3.12  3.85  6.57 
2552  2.87  3.93  6.57 
2553  2.78  3.10  6.57 
2554  4.05  3.78  6.57 
2555  3.16  4.07  6.57 
2556  5.17  4.64  6.57 
2557  2.64  4.25  6.57 
2558  4.13  3.35  6.57 
2559  3.87  3.71  6.57 
2560  4.26  3.63  6.57 
2561  2.72  3.65  6.57 
2562  4.21  3.52  6.57 
2563  3.39  3.19  6.57 
2564  2.75  3.70  6.57 
2565  4.00  3.95  6.57 
2566  4.33  4.04  6.57 
2567  4.26  3.95  6.57 
2568  3.33  4.04  6.57 
2569  3.76  3.59  6.57 
2570  4.33  3.84  6.57 
2571  3.48  3.63  6.57 
2572  1.85  4.15  6.57 
2573  5.70  4.03  6.57 
2574  3.50  3.59  6.57 
2575  3.61  3.68  6.57 
2576  3.68  3.10  6.57 
2577  4.61  3.76  6.57 
2578  3.02  3.93  6.57 
2579  4.04  4.02  6.57 
2580  4.24  3.26  6.57 
2581  4.71  3.76  6.57 
2582  4.02  4.01  6.57 
2583  3.48  3.51  6.57 
2584  3.01  3.43  6.57 
2585  3.94  3.01  6.57 
2586  4.02  3.17  6.57 
2587  1.87  3.18  6.57 
2588  4.68  3.19  6.57 
2589  4.04  3.94  6.57 
2590  3.41  3.27  6.57 
2591  2.75  3.02  6.57 
2592  4.10  3.69  6.57 
2593  4.22  3.43  6.57 
2594  3.08  1.93  6.57 
2595  3.93  3.55  6.57 
2596  3.95  2.85  6.57 
2597  3.47  3.78  6.57 
2598  4.18  4.02  6.57 
2599  3.09  4.03  6.57 
2600  4.69  3.95  6.57 
2601  2.78  3.02  6.57 
2602  4.63  3.52  6.57 
2603  3.72  3.38  6.57 
2604  3.33  2.94  6.57 
2605  2.79  3.31  6.57 
2606  3.25  3.37  6.57 
2607  3.38  3.86  6.57 
2608  3.77  3.70  6.57 
2609  1.29  3.03  6.57 
2610  4.34  3.39  6.57 
2611  4.05  3.64  6.57 
2612  2.06  3.69  6.57 
2613  3.10  3.36  6.57 
2614  4.57  3.56  6.57 
2615  1.53  3.45  6.57 
2616  4.46  3.79  6.57 
2617  4.59  2.60  6.57 
2618  3.04  3.26  6.57 
2619  4.63  4.12  6.57 
2620  3.52  4.11  6.57 
2621  3.28  4.01  6.57 
2622  2.25  3.28  6.57 
2623  4.67  3.34  6.57 
2624  4.28  3.62  6.57 
2625  4.30  3.18  6.57 
2626  3.45  3.59  6.57 
2627  3.20  4.04  6.57 
2628  4.27  3.68  6.57 
2629  4.09  4.06  6.57 
2630  4.06  4.13  6.57 
2631  4.38  3.75  6.57 
2632  4.64  4.13  6.57 
2633  4.99  4.19  6.57 
2634  3.20  3.73  6.57 
2635  4.56  3.37  6.57 
2636  4.28  3.10  6.57 
2637  3.43  4.07  6.57 
2638  5.10  3.78  6.57 
2639  3.82  3.69  6.57 
2640  4.21  3.64  6.57 
2641  5.29  4.08  6.57 
2642  4.35  3.56  6.57 
2643  4.46  3.81  6.57 
2644  4.24  3.37  6.57 
2645  3.24  3.43  6.57 
2646  3.34  3.71  6.57 
2647  3.20  3.83  6.57 
2648  2.53  3.84  6.57 
2649  4.10  4.08  6.57 
2650  3.45  3.70  6.57 
2651  5.28  3.82  6.57 
2652  4.70  3.58  6.57 
2653  4.51  3.27  6.57 
2654  5.21  3.58  6.57 
2655  4.29  3.77  6.57 
2656  4.29  3.34  6.57 
2657  3.56  3.75  6.57 
2658  4.41  3.32  6.57 
2659  4.10  4.02  6.57 
2660  4.49  3.00  6.57 
2661  4.26  3.88  6.57 
2662  3.46  3.69  6.57 
2663  4.07  4.27  6.57 
2664  5.16  4.36  6.57 
2665  2.98  3.38  6.57 
2666  4.31  4.05  6.57 
2667  4.42  3.85  6.57 
2668  2.91  3.85  6.57 
2669  4.23  3.77  6.57 
2670  2.33  3.31  6.57 
2671  2.93  3.86  6.57 
2672  3.06  4.05  6.57 
2673  3.26  4.36  6.57 
2674  4.24  3.05  6.57 
2675  4.19  3.94  6.57 
2676  3.34  3.19  6.57 
2677  3.35  3.66  6.57 
2678  3.28  4.33  6.57 
2679  3.02  4.39  6.57 
2680  4.33  3.80  6.57 
2681  4.18  4.16  6.57 
2682  2.32  3.52  6.57 
2683  4.50  4.53  6.57 
2684  3.87  4.56  6.57 
2685  4.12  3.79  6.57 
2686  3.64  4.02  6.57 
2687  4.66  3.50  6.57 
2688  4.41  4.16  6.57 
2689  4.21  4.00  6.57 
2690  4.25  4.42  6.57 
2691  3.19  4.22  6.57 
2692  4.17  3.51  6.57 
2693  2.51  4.06  6.57 
2694  3.15  3.89  6.57 
2695  4.68  2.49  6.57 
2696  4.32  3.14  6.57 
2697  2.62  3.86  6.57 
2698  4.25  3.52  6.57 
2699  4.58  3.85  6.57 
2700  3.42  2.76  6.57 
2701  4.33  3.10  6.57 
2702  4.22  3.68  6.57 
2703  4.68  4.02  6.57 
2704  3.58  3.59  6.57 
2705  3.07  3.44  6.57 
2706  4.05  3.85  6.57 
2707  4.04  3.85  6.57 
2708  3.01  3.43  6.57 
2709  4.07  4.02  6.57 
2710  4.37  3.26  6.57 
2711  2.92  3.93  6.57 
2712  4.44  4.02  6.57 
2713  3.79  3.76  6.57 
2714  3.89  3.51  6.57 
2715  4.56  3.09  6.57 
2716  4.24  4.01  6.57 
2717  4.18  3.93  6.57 
2718  4.33  3.11  6.57 
2719  4.45  3.34  6.57 
2720  4.59  3.68  6.57 
2721  2.26  3.92  6.57 
2722  4.03  3.51  6.57 
2723  4.04  3.00  6.57 
2724  4.05  2.92  6.57 
2725  4.82  3.69  6.57 
2726  2.34  3.26  6.57 
2727  4.14  3.18  6.57 
2728  4.15  3.25  6.57 
2729  3.31  3.42  6.57 
2730  4.27  3.84  6.57 
2731  4.62  3.42  6.57 
2732  4.40  4.01  6.57 
2733  4.12  3.59  6.57 
2734  4.23  3.84  6.57 
2735  4.21  3.34  6.57 
2736  4.41  3.84  6.57 
2737  4.35  3.85  6.57 
2738  2.83  4.01  6.57 
2739  3.38  3.67  6.57 
2740  4.48  3.59  6.57 
2741  3.43  3.94  6.57 
2742  2.83  3.52  6.57 
2743  3.13  3.59  6.57 
2744  3.70  3.34  6.57 
2745  3.13  3.59  6.57 
2746  4.32  3.34  6.57 
2747  4.42  3.60  6.57 
2748  4.80  3.18  6.57 
2749  3.77  3.01  6.57 
2750  3.54  3.17  6.57 
2751  3.71  3.60  6.57 
2752  4.28  2.50  6.57 
2753  4.39  3.76  6.57 
2754  3.49  3.34  6.57 
2755  4.18  3.76  6.57 
2756  4.03  2.67  6.57 
2757  4.73  3.00  6.57 
2758  2.99  2.92  6.57 
2759  4.43  3.84  6.57 
2760  4.62  3.60  6.57 
2761  3.76  3.59  6.57 
2762  4.22  4.01  6.57 
2763  3.26  3.68  6.57 
2764  3.08  3.42  6.57 
2765  4.24  4.00  6.57 
2766  4.14  3.51  6.57 
2767  4.62  3.26  6.57 
2768  4.19  4.02  6.57 
2769  3.01  3.34  6.57 
2770  3.27  3.84  6.57 
2771  2.23  3.42  6.57 
2772  4.31  3.34  6.57 
2773  3.20  3.92  6.57 
2774  3.81  3.60  6.57 
2775  4.15  3.43  6.57 
2776  4.46  3.67  6.57 
2777  4.21  3.51  6.57 
2778  3.11  3.51  6.57 
2779  3.30  3.43  6.57 
2780  3.48  3.35  6.57 
2781  3.31  3.28  6.57 
2782  4.30  3.78  6.57 
2783  4.15  3.70  6.57 
2784  3.31  3.71  6.57 
2785  5.14  3.11  6.57 
2786  3.55  3.86  6.57 
2787  4.40  3.46  6.57 
2788  3.95  3.60  6.57 
2789  2.00  3.44  6.57 
2790  4.17  2.68  6.57 
2791  4.06  3.80  6.57 
2792  4.17  4.09  6.57 
2793  4.17  3.56  6.57 
2794  4.40  4.01  6.57 
2795  3.83  3.43  6.57 
2796  4.17  4.02  6.57 
2797  4.76  3.69  6.57 
2798  3.16  3.25  6.57 
2799  3.45  3.17  6.57 
2800  4.80  3.34  6.57 
2801  1.75  3.68  6.57 
2802  4.16  3.68  6.57 
2803  3.25  3.68  6.57 
2804  4.32  3.93  6.57 
2805  2.76  3.59  6.57 
2806  4.20  3.09  6.57 
2807  3.96  3.93  6.57 
2808  4.08  2.43  6.57 
2809  4.09  4.02  6.57 
2810  4.82  3.49  6.57 
2811  4.56  4.01  6.57 
2812  3.02  3.86  6.57 
2813  3.59  3.48  6.57 
2814  4.16  3.78  6.57 
2815  3.41  3.29  6.57 
2816  3.33  3.70  6.57 
2817  3.41  2.95  6.57 
2818  3.24  3.70  6.57 
2819  4.49  2.42  6.57 
2820  3.79  3.69  6.57 
2821  4.59  3.44  6.57 
2822  4.20  3.28  6.57 
2823  4.70  4.02  6.57 
2824  4.13  3.20  6.57 
2825  4.14  3.41  6.57 
2826  3.92  3.93  6.57 
2827  3.11  4.02  6.57 
2828  3.59  3.85  6.57 
2829  3.59  3.60  6.57 
2830  3.08  4.02  6.57 
2831  1.61  3.43  6.57 
2832  4.25  3.51  6.57 
2833  3.75  3.85  6.57 
2834  3.40  3.52  6.57 
2835  4.40  4.01  6.57 
2836  4.25  3.60  6.57 
2837  4.27  3.60  6.57 
2838  3.52  3.60  6.57 
2839  3.29  3.52  6.57 
2840  3.29  3.09  6.57 
2841  3.10  3.51  6.57 
2842  2.84  3.85  6.57 
2843  4.12  4.01  6.57 
2844  4.18  3.43  6.57 
2845  4.40  2.76  6.57 
2846  4.60  3.93  6.57 
2847  4.63  3.09  6.57 
2848  4.29  3.09  6.57 
2849  4.21  3.59  6.57 
2850  3.68  3.85  6.57 
2851  4.46  3.85  6.57 
2852  5.11  3.59  6.57 
2853  3.69  4.01  6.57 
2854  3.59  3.17  6.57 
2855  4.53  3.18  6.57 
2856  4.48  3.17  6.57 
2857  4.04  4.01  6.57 
2858  4.43  3.68  6.57 
2859  2.89  4.02  6.57 
2860  3.77  3.34  6.57 
2861  4.64  3.68  6.57 
2862  4.23  3.76  6.57 
2863  3.42  3.68  6.57 
2864  4.07  3.36  6.57 
2865  3.86  2.60  6.57 
2866  4.06  2.68  6.57 
2867  4.90  4.01  6.57 
2868  2.76  3.78  6.57 
2869  4.92  3.35  6.57 
2870  4.29  3.43  6.57 
2871  3.48  3.51  6.57 
2872  5.08  3.86  6.57 
2873  4.46  3.02  6.57 
2874  3.60  3.26  6.57 
2875  4.42  3.85  6.57 
2876  4.34  3.76  6.57 
2877  4.01  3.51  6.57 
2878  4.19  3.78  6.57 
2879  4.47  4.01  6.57 
2880  4.54  3.77  6.57 
2881  4.12  3.69  6.57 
2882  4.17  3.18  6.57 
2883  2.88  4.02  6.57 
2884  3.81  3.82  6.57 
2885  5.07  3.20  6.57 
2886  4.09  3.97  6.57 
2887  4.20  3.97  6.57 
2888  3.09  3.85  6.57 
2889  4.39  3.92  6.57 
2890  4.10  3.78  6.57 
2891  3.31  3.91  6.57 
2892  4.06  3.77  6.57 
2893  3.24  4.06  6.57 
2894  4.29  4.33  6.57 
2895  5.19  3.44  6.57 
2896  4.02  3.06  6.57 
2897  4.54  4.03  6.57 
2898  3.02  4.03  6.57 
2899  3.89  3.86  6.57 
2900  5.34  3.63  6.57 
2901  3.79  3.49  6.57 
2902  3.05  4.11  6.57 
2903  4.81  3.95  6.57 
2904  1.66  3.62  6.57 
2905  4.53  3.36  6.57 
2906  4.09  3.68  6.57 
2907  4.12  3.27  6.57 
2908  4.68  3.60  6.57 
2909  2.99  3.61  6.57 
2910  4.84  3.36  6.57 
2911  2.42  3.43  6.57 
2912  4.29  3.52  6.57 
2913  3.80  3.77  6.57 
2914  3.83  3.44  6.57 
2915  4.16  3.94  6.57 
2916  4.75  3.69  6.57 
2917  2.22  3.42  6.57 
2918  3.49  4.02  6.57 
2919  5.00  3.43  6.57 
2920  0.86  3.17  6.57 
2921  3.51  3.60  6.57 
2922  3.02  4.01  6.57 
2923  2.78  3.43  6.57 
2924  4.71  2.92  6.57 
2925  4.03  3.59  6.57 
2926  4.35  3.26  6.57 
2927  3.01  3.09  6.57 
2928  2.87  3.18  6.57 
2929  4.22  3.68  6.57 
2930  4.34  3.26  6.57 
2931  4.53  3.11  6.57 
2932  4.27  3.85  6.57 
2933  3.84  4.02  6.57 
2934  4.22  3.76  6.57 
2935  4.45  3.60  6.57 
2936  3.55  3.17  6.57 
2937  4.35  3.27  6.57 
2938  1.96  3.34  6.57 
2939  4.66  3.68  6.57 
2940  4.50  3.84  6.57 
2941  4.23  4.02  6.57 
2942  2.00  3.60  6.57 
2943  2.96  4.01  6.57 
2944  4.49  3.51  6.57 
2945  4.46  3.86  6.57 
2946  4.77  3.09  6.57 
2947  3.57  3.51  6.57 
2948  4.15  4.01  6.57 
2949  4.23  4.01  6.57 
2950  2.85  2.59  6.57 
2951  4.48  3.68  6.57 
2952  4.36  3.43  6.57 
2953  3.33  3.69  6.57 
2954  3.84  3.09  6.57 
2955  4.85  4.01  6.57 
2956  4.23  3.93  6.57 
2957  2.38  3.59  6.57 
2958  3.64  3.35  6.57 
2959  4.67  3.59  6.57 
2960  2.86  4.02  6.57 
2961  3.78  3.93  6.57 
2962  4.12  3.67  6.57 
2963  4.28  3.76  6.57 
2964  4.54  2.76  6.57 
2965  4.16  3.17  6.57 
2966  4.02  3.35  6.57 
2967  3.26  3.26  6.57 
2968  3.67  3.59  6.57 
2969  3.07  4.02  6.57 
2970  3.75  3.51  6.57 
2971  4.55  4.01  6.57 
2972  4.21  3.67  6.57 
2973  4.01  3.59  6.57 
2974  4.02  3.34  6.57 
2975  4.16  3.43  6.57 
2976  4.09  3.92  6.57 
2977  3.16  3.77  6.57 
2978  4.00  3.76  6.57 
2979  1.75  3.51  6.57 
2980  2.79  4.01  6.57 
2981  3.53  4.02  6.57 
2982  3.62  3.51  6.57 
2983  3.75  3.94  6.57 
2984  4.01  3.51  6.57 
2985  4.34  3.69  6.57 
2986  0.77  4.01  6.57 
2987  4.04  4.01  6.57 
2988  4.07  3.85  6.57 
2989  4.55  3.59  6.57 
2990  2.31  2.68  6.57 
2991  1.75  3.68  6.57 
2992  3.42  4.01  6.57 
2993  3.86  3.85  6.57 
2994  4.46  2.93  6.57 
2995  2.28  3.35  6.57 
2996  4.03  3.34  6.57 
2997  4.37  3.84  6.57 
2998  4.05  3.52  6.57 
2999  3.37  3.51  6.57 
3000  2.99  3.43  6.57 
3001  4.39  4.01  6.57 
3002  1.51  3.26  6.57 
3003  4.25  3.34  6.57 
3004  3.79  3.35  6.57 
3005  4.01  3.93  6.57 
3006  3.22  3.34  6.57 
3007  3.12  3.60  6.57 
3008  4.34  3.59  6.57 
3009  4.12  3.18  6.57 
3010  4.08  2.59  6.57 
3011  3.33  3.87  6.57 
3012  3.74  3.93  6.57 
3013  4.25  4.01  6.57 
3014  4.42  3.58  6.57 
3015  4.15  3.76  6.57 
3016  4.24  3.72  6.57 
3017  2.76  3.54  6.57 
3018  3.26  2.79  6.57 
3019  4.01  3.17  6.57 
3020  4.20  3.27  6.57 
3021  4.28  4.02  6.57 
3022  4.19  3.59  6.57 
3023  4.18  3.85  6.57 
3024  3.57  3.68  6.57 
3025  4.33  3.65  6.57 
3026  4.22  3.89  6.57 
3027  3.01  3.60  6.57 
3028  4.04  3.09  6.57 
3029  3.16  3.68  6.57 
3030  2.78  3.76  6.57 
3031  7.50  3.76  6.57 
3032  3.27  3.49  7.50 
3033  5.51  3.34  7.50 
3034  4.35  3.77  7.50 
3035  4.00  3.85  7.50 
3036  4.32  3.59  7.50 
3037  3.92  3.67  7.50 
3038  4.02  4.01  7.50 
3039  4.30  2.84  7.50 
3040  4.05  3.67  7.50 
3041  4.09  3.93  7.50 
3042  4.23  3.84  7.50 
3043  3.02  4.01  7.50 
3044  1.76  3.51  7.50 
3045  2.01  3.69  7.50 
3046  4.01  3.34  7.50 
3047  4.03  3.76  7.50 
3048  4.29  4.01  7.50 
3049  3.01  3.68  7.50 
3050  4.02  3.45  7.50 
3051  3.00  4.38  7.50 
3052  4.00  4.07  7.50 
3053  4.18  3.53  7.50 
3054  3.06  3.27  7.50 
3055  4.27  3.59  7.50 
3056  3.73  3.78  7.50 
3057  4.04  3.01  7.50 
3058  3.40  3.68  7.50 
3059  3.80  3.68  7.50 
3060  4.31  3.67  7.50 
3061  3.63  2.59  7.50 
3062  5.07  3.76  7.50 
3063  3.10  3.10  7.50 
3064  4.21  3.93  7.50 
3065  2.86  3.92  7.50 
3066  3.77  4.00  7.50 
3067  4.07  3.76  7.50 
3068  4.02  3.26  7.50 
3069  4.50  4.01  7.50 
3070  3.54  3.10  7.50 
3071  4.33  4.01  7.50 
3072  4.00  4.01  7.50 
3073  3.45  3.51  7.50 
3074  2.50  3.67  7.50 
3075  4.42  3.51  7.50 
3076  4.11  3.35  7.50 
3077  4.05  3.60  7.50 
3078  4.17  3.09  7.50 
3079  2.00  3.17  7.50 
3080  4.00  3.35  7.50 
3081  4.07  2.93  7.50 
3082  4.17  3.76  7.50 
3083  4.76  3.59  7.50 
3084  2.54  2.84  7.50 
3085  4.97  3.51  7.50 
3086  3.75  3.18  7.50 
3087  4.41  3.25  7.50 
3088  3.79  3.36  7.50 
3089  4.02  3.68  7.50 
3090  4.07  3.26  7.50 
3091  4.02  3.42  7.50 
3092  3.02  3.68  7.50 
3093  2.76  3.34  7.50 
3094  4.00  3.34  7.50 
3095  4.23  3.68  7.50 
3096  4.01  3.76  7.50 
3097  4.19  3.00  7.50 
3098  4.40  3.92  7.50 
3099  4.22  3.25  7.50 
3100  3.76  3.77  7.50 
3101  4.31  3.01  7.50 
3102  2.01  2.68  7.50 
3103  1.00  3.93  7.50 
3104  3.55  3.68  7.50 
3105  4.01  4.01  7.50 
3106  2.76  3.84  7.50 
3107  2.87  4.01  7.50 
3108  3.81  3.67  7.50 
3109  4.30  3.42  7.50 
3110  4.03  3.76  7.50 
3111  4.02  3.50  7.50 
3112  4.01  4.02  7.50 
3113  4.19  3.60  7.50 
3114  3.61  3.59  7.50 
3115  4.11  3.01  7.50 
3116  4.07  3.27  7.50 
3117  2.59  3.92  7.50 
3118  5.39  3.92  7.50 
3119  4.02  3.60  7.50 
3120  3.25  3.85  7.50 
3121  3.26  3.51  7.50 
3122  3.20  3.52  7.50 
3123  4.02  3.51  7.50 
3124  3.43  2.92  7.50 
3125  2.95  3.34  7.50 
3126  3.66  3.92  7.50 
3127  4.22  3.42  7.50 
3128  2.76  3.01  7.50 
3129  4.01  3.84  7.50 
3130  4.19  4.01  7.50 
3131  4.02  2.92  7.50 
3132  4.19  3.17  7.50 
3133  3.52  3.60  7.50 
3134  4.95  3.59  7.50 
3135  3.35  3.68  7.50 
3136  3.34  4.18  7.50 
3137  3.31  3.61  7.50 
3138  3.27  4.03  7.50 
3139  2.87  4.18  7.50 
3140  4.10  3.60  7.50 
3141  4.05  4.02  7.50 
3142  2.81  3.54  7.50 
3143  2.03  3.62  7.50 
3144  3.07  4.04  7.50 
3145  3.31  4.03  7.50 
3146  4.26  4.10  7.50 
3147  3.52  3.71  7.50 
3148  3.46  4.01  7.50 
3149  4.13  3.38  7.50 
3150  2.75  3.54  7.50 
3151  3.84  3.87  7.50 
3152  4.29  3.91  7.50 
3153  2.95  3.39  7.50 
3154  3.42  3.30  7.50 
3155  3.12  3.78  7.50 
3156  4.51  4.05  7.50 
3157  4.57  4.12  7.50 
3158  1.51  4.16  7.50 
3159  4.08  4.38  7.50 
3160  3.08  3.61  7.50 
3161  3.53  3.27  7.50 
3162  4.01  3.73  7.50 
3163  3.76  3.78  7.50 
3164  3.09  4.02  7.50 
3165  3.36  2.86  7.50 
3166  4.03  4.06  7.50 
3167  4.15  4.27  7.50 
3168  4.77  3.71  7.50 
3169  3.14  3.71  7.50 
3170  4.15  4.12  7.50 
3171  4.33  2.85  7.50 
3172  4.01  3.70  7.50 
3173  4.51  3.63  7.50 
3174  3.01  3.17  7.50 
3175  4.62  4.09  7.50 
3176  2.76  3.26  7.50 
3177  4.39  4.00  7.50 
3178  4.15  4.20  7.50 
3179  4.02  4.42  7.50 
3180  4.01  4.49  7.50 
3181  4.20  3.60  7.50 
3182  4.07  4.71  7.50 
3183  4.39  4.32  7.50 
3184  4.25  4.11  7.50 
3185  4.39  4.20  7.50 
3186  4.18  4.74  7.50 
3187  3.41  3.19  7.50 
3188  3.94  3.34  7.50 
3189  4.01  3.76  7.50 
3190  3.87  3.58  7.50 
3191  4.14  3.65  7.50 
3192  2.75  3.89  7.50 
3193  4.16  4.28  7.50 
3194  3.55  3.45  7.50 
3195  3.78  4.16  7.50 
3196  3.12  4.22  7.50 
3197  3.20  4.27  7.50 
3198  4.34  4.87  7.50 
3199  2.78  3.20  7.50 
3200  4.51  3.92  7.50 
3201  1.87  4.05  7.50 
3202  3.42  3.91  7.50 
3203  4.13  3.93  7.50 
3204  3.94  3.94  7.50 
3205  3.25  4.75  7.50 
3206  4.06  3.47  7.50 
3207  4.44  3.75  7.50 
3208  4.06  3.90  7.50 
3209  2.75  3.30  7.50 
3210  4.16  4.98  7.50 
3211  3.58  3.25  7.50 
3212  4.10  4.08  7.50 
3213  3.76  3.87  7.50 
3214  4.65  3.98  7.50 
3215  4.03  4.13  7.50 
3216  3.78  3.18  7.50 
3217  4.40  3.93  7.50 
3218  4.00  3.81  7.50 
3219  4.07  3.45  7.50 
3220  4.33  3.76  7.50 
3221  3.94  3.76  7.50 
3222  3.28  3.43  7.50 
3223  4.62  3.34  7.50 
3224  4.13  3.26  7.50 
3225  4.01  3.62  7.50 
3226  2.53  3.80  7.50 
3227  4.58  4.46  7.50 
3228  3.84  4.10  7.50 
3229  2.87  2.98  7.50 
3230  4.07  3.70  7.50 
3231  4.14  4.18  7.50 
3232  4.13  4.13  7.50 
3233  2.01  3.35  7.50 
3234  4.29  3.63  7.50 
3235  3.11  4.10  7.50 
3236  4.25  3.80  7.50 
3237  3.20  3.90  7.50 
3238  2.68  3.93  7.50 
3239  2.92  4.33  7.50 
3240  4.14  4.23  7.50 
3241  4.76  3.96  7.50 
3242  4.10  4.25  7.50 
3243  4.27  3.98  7.50 
3244  3.89  3.96  7.50 
3245  1.81  3.74  7.50 
3246  4.10  3.96  7.50 
3247  2.78  4.41  7.50 
3248  2.95  4.95  7.50 
3249  4.47  3.49  7.50 
3250  4.15  3.54  7.50 
3251  4.18  4.53  7.50 
3252  4.09  3.58  7.50 
3253  4.08  4.31  7.50 
3254  3.53  2.80  7.50 
3255  3.65  3.48  7.50 
3256  5.52  3.66  7.50 
3257  4.12  3.72  7.50 
3258  4.43  3.76  7.50 
3259  2.85  4.40  7.50 
3260  4.11  4.57  7.50 
3261  3.04  3.75  7.50 
3262  3.75  3.91  7.50 
3263  2.28  4.14  7.50 
3264  4.33  4.08  7.50 
3265  3.60  3.38  7.50 
3266  4.18  3.74  7.50 
3267  2.79  3.65  7.50 
3268  4.03  3.89  7.50 
3269  4.05  3.28  7.50 
3270  2.77  3.55  7.50 
3271  4.02  3.55  7.50 
3272  4.25  3.86  7.50 
3273  3.28  2.96  7.50 
3274  4.24  3.29  7.50 
3275  2.28  4.04  7.50 
3276  4.29  2.95  7.50 
3277  4.03  3.03  7.50 
3278  4.21  3.95  7.50 
3279  4.66  3.95  7.50 
3280  4.15  3.80  7.50 
3281  3.58  4.08  7.50 
3282  3.85  4.35  7.50 
3283  4.22  3.73  7.50 
3284  3.78  3.80  7.50 
3285  4.17  3.96  7.50 
3286  2.63  3.29  7.50 
3287  2.82  3.11  7.50 
3288  2.11  3.11  7.50 
3289  2.36  4.05  7.50 
3290  5.02  4.07  7.50 
3291  3.44  4.45  7.50 
3292  4.65  3.05  7.50 
3293  5.59  3.89  7.50 
3294  3.26  3.54  7.50 
3295  5.19  3.64  7.50 
3296  2.96  3.55  7.50 
3297  4.30  3.48  7.50 
3298  4.12  3.99  7.50 
3299  4.08  3.41  7.50 
3300  3.65  4.07  7.50 
3301  4.11  4.07  7.50 
3302  4.31  4.18  7.50 
3303  2.88  3.75  7.50 
3304  3.52  3.84  7.50 
3305  3.42  4.10  7.50 
3306  3.58  3.67  7.50 
3307  4.32  4.01  7.50 
3308  4.20  3.01  7.50 
3309  2.88  3.44  7.50 
3310  4.20  3.87  7.50 
3311  2.06  4.24  7.50 
3312  4.45  3.97  7.50 
3313  4.17  4.18  7.50 
3314  4.21  3.61  7.50 
3315  2.38  4.10  7.50 
3316  2.86  4.15  7.50 
3317  2.86  3.97  7.50 
3318  3.95  4.00  7.50 
3319  4.43  5.06  7.50 
3320  4.34  4.16  7.50 
3321  4.07  4.34  7.50 
3322  4.08  4.54  7.50 
3323  3.10  2.71  7.50 
3324  4.06  4.96  7.50 
3325  3.31  4.42  7.50 
3326  2.81  3.99  7.50 
3327  4.61  4.02  7.50 
3328  4.13  4.02  7.50 
3329  4.27  4.37  7.50 
3330  4.19  4.64  7.50 
3331  2.41  3.89  7.50 
3332  4.25  4.62  7.50 
3333  4.08  4.22  7.50 
3334  4.21  4.81  7.50 
3335  3.12  4.33  7.50 
3336  4.53  3.57  7.50 
3337  4.06  3.42  7.50 
3338  4.14  4.13  7.50 
3339  4.02  3.72  7.50 
3340  4.11  4.10  7.50 
3341  4.93  3.73  7.50 
3342  4.63  4.15  7.50 
3343  4.07  4.54  7.50 
3344  4.27  3.29  7.50 
3345  4.09  4.24  7.50 
3346  4.11  4.38  7.50 
3347  3.30  3.47  7.50 
3348  4.14  3.95  7.50 
3349  4.09  4.69  7.50 
3350  4.01  4.36  7.50 
3351  2.80  3.92  7.50 
3352  3.65  4.24  7.50 
3353  4.47  4.31  7.50 
3354  3.17  4.48  7.50 
3355  4.25  5.27  7.50 
3356  3.11  4.41  7.50 
3357  3.61  4.91  7.50 
3358  5.29  4.34  7.50 
3359  4.04  4.29  7.50 
3360  4.18  4.22  7.50 
3361  4.13  4.64  7.50 
3362  4.06  4.72  7.50 
3363  1.59  4.14  7.50 
3364  2.78  3.34  7.50 
3365  2.87  4.02  7.50 
3366  4.23  4.47  7.50 
3367  3.06  3.19  7.50 
3368  2.83  4.19  7.50 
3369  5.36  4.29  7.50 
3370  4.23  3.90  7.50 
3371  5.03  4.35  7.50 
3372  4.21  4.64  7.50 
3373  4.98  3.09  7.50 
3374  4.17  4.30  7.50 
3375  3.15  3.71  7.50 
3376  3.18  4.72  7.50 
3377  4.14  3.84  7.50 
3378  4.92  3.95  7.50 
3379  4.07  3.78  7.50 
3380  0.30  3.72  7.50 
3381  4.09  4.01  7.50 
3382  3.81  4.08  7.50 
3383  3.72  4.01  7.50 
3384  4.39  3.80  7.50 
3385  4.17  3.75  7.50 
3386  4.12  3.18  7.50 
3387  4.16  3.82  7.50 
3388  3.32  4.34  7.50 
3389  4.08  3.59  7.50 
3390  2.27  4.56  7.50 
3391  3.68  4.88  7.50 
3392  2.88  4.39  7.50 
3393  2.14  4.40  7.50 
3394  3.10  3.73  7.50 
3395  3.54  4.05  7.50 
3396  2.87  3.59  7.50 
3397  4.21  3.52  7.50 
3398  4.07  3.83  7.50 
3399  3.08  3.92  7.50 
3400  3.13  4.15  7.50 
3401  4.19  3.81  7.50 
3402  4.19  3.89  7.50 
3403  2.15  3.72  7.50 
3404  2.83  3.64  7.50 
3405  2.97  3.80  7.50 
3406  3.49  3.99  7.50 
3407  4.11  3.38  7.50 
3408  4.11  3.21  7.50 
3409  4.19  3.39  7.50 
3410  4.13  3.64  7.50 
3411  3.65  3.91  7.50 
3412  4.18  3.85  7.50 
3413  4.90  3.13  7.50 
3414  3.16  3.94  7.50 
3415  4.14  3.23  7.50 
3416  4.40  3.63  7.50 
3417  4.10  3.68  7.50 
3418  4.17  3.66  7.50 
3419  3.01  4.44  7.50 
3420  3.13  4.19  7.50 
3421  2.95  3.24  7.50 
3422  1.75  3.49  7.50 
3423  2.27  3.83  7.50 
3424  4.14  5.22  7.50 
3425  2.57  4.70  7.50 
3426  2.76  3.36  7.50 
3427  4.44  4.12  7.50 
3428  4.05  3.68  7.50 
3429  4.22  3.63  7.50 
3430  1.18  4.09  7.50 
3431  2.05  3.95  7.50 
3432  4.31  4.16  7.50 
3433  4.32  5.48  7.50 
3434  4.29  4.08  7.50 
3435  4.12  3.91  7.50 
3436  4.06  4.21  7.50 
3437  4.32  3.74  7.50 
3438  3.19  4.31  7.50 
3439  4.17  4.28  7.50 
3440  3.83  4.31  7.50 
3441  4.54  2.84  7.50 
3442  2.10  3.21  7.50 
3443  4.18  3.95  7.50 
3444  2.94  3.79  7.50 
3445  4.45  3.63  7.50 
3446  4.23  4.04  7.50 
3447  4.16  4.41  7.50 
3448  4.39  3.09  7.50 
3449  4.73  3.80  7.50 
3450  4.22  3.46  7.50 
3451  2.83  3.66  7.50 
3452  4.29  3.84  7.50 
3453  4.46  3.06  7.50 
3454  4.81  3.43  7.50 
3455  3.87  3.47  7.50 
3456  3.36  3.95  7.50 
3457  4.05  3.66  7.50 
3458  3.49  3.03  7.50 
3459  4.17  4.30  7.50 
3460  4.92  3.77  7.50 
3461  3.69  4.15  7.50 
3462  2.90  4.07  7.50 
3463  3.99  3.70  7.50 
3464  3.17  3.73  7.50 
3465  3.10  4.89  7.50 
3466  4.11  4.97  7.50 
3467  3.20  4.10  7.50 
3468  4.15  3.53  7.50 
3469  3.61  3.89  7.50 
3470  3.55  4.15  7.50 
3471  4.11  4.31  7.50 
3472  4.38  3.92  7.50 
3473  2.54  4.06  7.50 
3474  3.49  4.45  7.50 
3475  5.73  4.20  7.50 
3476  4.24  3.97  7.50 
3477  4.35  3.18  7.50 
3478  2.87  3.73  7.50 
3479  5.18  3.77  7.50 
3480  3.11  4.01  7.50 
3481  4.95  4.12  7.50 
3482  4.51  4.64  7.50 
3483  2.86  3.64  7.50 
3484  4.24  4.16  7.50 
3485  3.15  4.29  7.50 
3486  4.20  3.77  7.50 
3487  2.86  3.75  7.50 
3488  4.17  4.18  7.50 
3489  4.12  3.63  7.50 
3490  3.33  4.78  7.50 
3491  3.40  5.21  7.50 
3492  4.83  4.30  7.50 
3493  4.32  4.30  7.50 
3494  4.05  3.80  7.50 
3495  5.25  3.96  7.50 
3496  4.51  3.83  7.50 
3497  3.11  3.75  7.50 
3498  4.95  4.36  7.50 
3499  2.99  3.75  7.50 
3500  4.08  2.88  7.50 
3501  4.22  3.34  7.50 
3502  3.63  4.42  7.50 
3503  4.17  4.78  7.50 
3504  3.35  4.16  7.50 
3505  4.15  3.40  7.50 
3506  3.06  2.97  7.50 
3507  4.65  3.24  7.50 
3508  4.74  3.31  7.50 
3509  4.12  4.13  7.50 
3510  3.10  3.46  7.50 
3511  4.08  3.55  7.50 
3512  3.84  3.93  7.50 
3513  4.19  4.11  7.50 
3514  4.16  3.88  7.50 
3515  3.84  4.18  7.50 
3516  6.74  3.90  7.50 
3517  4.13  4.11  7.50 
3518  3.59  3.63  7.50 
3519  2.61  3.14  7.50 
3520  2.07  3.78  7.50 
3521  3.36  3.89  7.50 
3522  3.43  3.70  7.50 
3523  4.62  4.15  7.50 
3524  4.53  4.14  7.50 
3525  4.19  3.43  7.50 
3526  4.08  3.52  7.50 
3527  4.32  3.35  7.50 
3528  3.34  3.49  7.50 
3529  3.28  3.68  7.50 
3530  4.19  3.74  7.50 
3531  4.11  3.69  7.50 
3532  3.60  3.43  7.50 
3533  4.52  3.37  7.50 
3534  3.80  3.10  7.50 
3535  3.12  3.95  7.50 
3536  3.01  3.55  7.50 
3537  4.35  4.03  7.50 
3538  4.21  2.27  7.50 
3539  2.83  3.77  7.50 
3540  2.79  3.72  7.50 
3541  4.35  3.60  7.50 
3542  4.19  4.18  7.50 
3543  4.08  3.66  7.50 
3544  3.01  3.33  7.50 
3545  4.02  4.19  7.50 
3546  2.81  4.09  7.50 
3547  4.09  3.88  7.50 
3548  4.18  3.55  7.50 
3549  4.14  3.82  7.50 
3550  4.43  3.40  7.50 
3551  3.56  3.86  7.50 
3552  3.38  4.13  7.50 
3553  4.21  3.84  7.50 
3554  3.10  4.20  7.50 
3555  4.26  3.85  7.50 
3556  2.77  3.86  7.50 
3557  4.06  3.75  7.50 
3558  4.26  3.85  7.50 
3559  5.18  4.04  7.50 
3560  4.23  3.35  7.50 
3561  2.13  4.09  7.50 
3562  3.35  3.33  7.50 
3563  4.03  4.09  7.50 
3564  4.22  3.93  7.50 
3565  3.88  3.83  7.50 
3566  2.76  3.85  7.50 
3567  4.17  3.87  7.50 
3568  3.08  3.42  7.50 
3569  3.83  3.31  7.50 
3570  4.02  4.12  7.50 
3571  4.15  3.95  7.50 
3572  4.06  4.00  7.50 
3573  3.00  3.94  7.50 
3574  4.13  3.37  7.50 
3575  2.57  3.55  7.50 
3576  3.80  3.79  7.50 
3577  3.37  2.89  7.50 
3578  4.98  4.13  7.50 
3579  4.15  4.12  7.50 
3580  1.77  3.26  7.50 
3581  1.77  3.41  7.50 
3582  2.77  3.49  7.50 
3583  4.32  4.00  7.50 
3584  4.32  3.48  7.50 
3585  4.03  4.12  7.50 
3586  3.52  4.21  7.50 
3587  4.31  3.61  7.50 
3588  4.34  3.72  7.50 
3589  4.33  3.39  7.50 
3590  3.14  3.70  7.50 
3591  4.02  4.22  7.50 
3592  3.91  3.61  7.50 
3593  4.12  4.23  7.50 
3594  4.18  4.21  7.50 
3595  4.21  2.94  7.50 
3596  3.84  4.19  7.50 
3597  3.69  4.58  7.50 
3598  3.27  3.94  7.50 
3599  2.87  4.30  7.50 
3600  4.22  2.74  7.50 
3601  4.09  4.02  7.50 
3602  2.85  3.41  7.50 
3603  4.77  3.88  7.50 
3604  3.52  3.50  7.50 
3605  3.84  3.80  7.50 
3606  3.29  3.26  7.50 
3607  4.12  4.30  7.50 
3608  2.20  3.04  7.50 
3609  4.23  3.82  7.50 
3610  3.34  3.78  7.50 
3611  3.87  4.09  7.50 
3612  4.12  3.41  7.50 
3613  3.83  4.19  7.50 
3614  3.39  4.36  7.50 
3615  3.94  4.05  7.50 
3616  4.82  3.51  7.50 
3617  4.63  3.95  7.50 
3618  4.00  4.81  7.50 
3619  3.82  4.81  7.50 
3620  4.03  3.83  7.50 
3621  4.26  4.74  7.50 
3622  3.08  4.45  7.50 
3623  4.16  4.29  7.50 
3624  4.13  3.32  7.50 
3625  4.12  4.23  7.50 
3626  3.39  4.40  7.50 
3627  3.86  3.95  7.50 
3628  4.03  4.39  7.50 
3629  4.10  3.91  7.50 
3630  4.19  3.88  7.50 
3631  4.11  4.11  7.50 
3632  4.13  4.30  7.50 
3633  2.76  3.86  7.50 
3634  4.14  3.77  7.50 
3635  4.13  2.73  7.50 
3636  4.68  3.29  7.50 
3637  4.11  3.29  7.50 
3638  3.32  3.69  7.50 
3639  3.83  3.25  7.50 
3640  3.52  4.73  7.50 
3641  4.15  3.57  7.50 
3642  4.08  3.84  7.50 
3643  3.57  3.92  7.50 
3644  4.26  3.93  7.50 
3645  4.36  3.54  7.50 
3646  3.03  3.72  7.50 
3647  4.56  3.64  7.50 
3648  4.39  3.83  7.50 
3649  4.16  3.30  7.50 
3650  4.06  3.70  7.50 
3651  4.24  3.98  7.50 
3652  4.09  4.31  7.50 
3653  4.12  4.11  7.50 
3654  3.96  3.68  7.50 
3655  3.98  4.10  7.50 
3656  4.14  4.14  7.50 
3657  4.47  4.20  7.50 
3658  1.55  3.81  7.50 
3659  5.08  4.45  7.50 
3660  3.06  3.74  7.50 
3661  3.57  3.42  7.50 
3662  4.17  3.84  7.50 
3663  3.82  4.40  7.50 
3664  4.08  4.10  7.50 
3665  3.41  3.65  7.50 
3666  4.03  2.40  7.50 
3667  4.04  3.60  7.50 
3668  4.15  3.37  7.50 
3669  4.06  3.60  7.50 
3670  4.22  3.66  7.50 
3671  4.13  3.52  7.50 
3672  3.29  4.23  7.50 
3673  3.25  3.25  7.50 
3674  3.30  3.87  7.50 
3675  4.12  3.39  7.50 
3676  3.30  3.62  7.50 
3677  4.65  3.77  7.50 
3678  1.77  3.71  7.50 
3679  3.34  3.88  7.50 
3680  4.05  4.45  7.50 
3681  3.60  3.71  7.50 
3682  4.29  3.81  7.50 
3683  4.02  4.33  7.50 
3684  2.91  3.31  7.50 
3685  4.24  3.22  7.50 
3686  3.12  4.16  7.50 
3687  4.18  4.18  7.50 
3688  4.26  3.97  7.50 
3689  4.18  3.60  7.50 
3690  4.07  3.28  7.50 
3691  4.44  4.29  7.50 
3692  4.39  3.96  7.50 
3693  2.88  3.12  7.50 
3694  2.86  4.00  7.50 
3695  4.18  4.29  7.50 
3696  3.92  3.80  7.50 
3697  4.04  2.99  7.50 
3698  3.05  3.14  7.50 
3699  4.04  3.49  7.50 
3700  3.09  4.07  7.50 
3701  4.05  3.68  7.50 
3702  4.17  3.24  7.50 
3703  4.42  3.88  7.50 
3704  2.63  4.16  7.50 
3705  3.44  4.12  7.50 
3706  2.53  4.00  7.50 
3707  4.12  3.98  7.50 
3708  4.04  4.25  7.50 
3709  3.90  3.57  7.50 
3710  2.84  3.84  7.50 
3711  4.15  3.59  7.50 
3712  4.14  4.26  7.50 
3713  4.08  3.36  7.50 
3714  4.04  4.20  7.50 
3715  3.85  3.89  7.50 
3716  4.13  3.73  7.50 
3717  4.13  3.75  7.50 
3718  3.63  3.76  7.50 
3719  4.13  3.99  7.50 
3720  4.16  3.69  7.50 
3721  2.79  3.77  7.50 
3722  4.11  3.50  7.50 
3723  4.09  3.19  7.50 
3724  4.00  3.71  7.50 
3725  2.52  4.23  7.50 
3726  4.11  3.54  7.50 
3727  4.08  3.44  7.50 
3728  4.15  4.61  7.50 
3729  2.99  4.75  7.50 
3730  4.15  3.66  7.50 
3731  3.83  3.51  7.50 
3732  4.08  4.67  7.50 
3733  2.88  4.47  7.50 
3734  4.20  4.08  7.50 
3735  4.44  4.30  7.50 
3736  2.80  4.27  7.50 
3737  4.16  2.94  7.50 
3738  2.84  4.12  7.50 
3739  2.97  4.07  7.50 
3740  4.10  3.72  7.50 
3741  3.80  3.53  7.50 
3742  4.21  4.03  7.50 
3743  4.37  2.52  7.50 
3744  3.02  3.34  7.50 
3745  3.59  4.06  7.50 
3746  2.32  3.07  7.50 
3747  3.12  4.11  7.50 
3748  4.75  3.37  7.50 
3749  4.08  4.14  7.50 
3750  3.11  3.34  7.50 
3751  3.65  3.98  7.50 
3752  4.07  3.70  7.50 
3753  2.79  3.15  7.50 
3754  2.91  4.15  7.50 
3755  2.91  3.54  7.50 
3756  3.81  3.03  7.50 
3757  3.66  3.38  7.50 
3758  4.25  4.03  7.50 
3759  4.13  4.11  7.50 
3760  4.18  4.12  7.50 
3761  4.04  3.16  7.50 
3762  3.05  3.94  7.50 
3763  4.10  4.09  7.50 
3764  3.58  4.23  7.50 
3765  4.19  4.19  7.50 
3766  4.07  4.30  7.50 
3767  2.80  4.02  7.50 
3768  3.26  4.10  7.50 
3769  4.06  3.66  7.50 
3770  3.03  3.59  7.50 
3771  3.04  2.95  7.50 
3772  3.28  3.92  7.50 
3773  4.18  4.05  7.50 
3774  4.09  3.72  7.50 
3775  3.20  3.42  7.50 
3776  4.18  3.66  7.50 
3777  3.29  3.32  7.50 
3778  4.01  3.79  7.50 
3779  2.90  3.90  7.50 
3780  4.16  3.73  7.50 
3781  3.39  3.99  7.50 
3782  3.82  3.24  7.50 
3783  2.57  4.03  7.50 
3784  2.85  4.20  7.50 
3785  3.12  3.73  7.50 
3786  4.14  3.80  7.50 
3787  3.79  4.21  7.50 
3788  4.09  3.89  7.50 
3789  4.03  3.19  7.50 
3790  4.18  3.19  7.50 
3791  4.07  3.34  7.50 
3792  4.23  3.76  7.50 
3793  4.07  3.21  7.50 
3794  4.12  3.64  7.50 
3795  4.25  4.08  7.50 
3796  4.40  4.05  7.50 
3797  4.18  3.86  7.50 
3798  2.52  4.13  7.50 
3799  4.27  4.31  7.50 
3800  4.29  4.28  7.50 
3801  3.65  3.65  7.50 
3802  3.52  3.41  7.50 
3803  4.05  3.89  7.50 
3804  4.11  3.66  7.50 
3805  3.07  3.41  7.50 
3806  3.32  4.29  7.50 
3807  4.05  4.56  7.50 
3808  3.28  4.37  7.50 
3809  4.06  4.22  7.50 
3810  4.04  4.24  7.50 
3811  3.82  4.55  7.50 
3812  4.74  3.74  7.50 
3813  4.59  5.04  7.50 
3814  3.58  4.30  7.50 
3815  3.29  4.22  7.50 
3816  4.13  3.67  7.50 
3817  3.39  3.58  7.50 
3818  3.30  3.96  7.50 
3819  4.22  3.91  7.50 
3820  3.56  3.84  7.50 
3821  4.09  3.08  7.50 
3822  3.41  2.87  7.50 
3823  3.06  2.95  7.50 
3824  2.82  3.72  7.50 
3825  4.06  4.13  7.50 
3826  4.19  4.13  7.50 
3827  3.47  3.23  7.50 
3828  3.32  2.64  7.50 
3829  5.29  3.84  7.50 
3830  4.20  3.44  7.50 
3831  4.10  3.72  7.50 
3832  2.76  4.15  7.50 
3833  4.09  3.23  7.50 
3834  4.05  3.94  7.50 
3835  2.95  3.75  7.50 
3836  4.09  4.11  7.50 
3837  4.03  4.06  7.50 
3838  2.89  3.64  7.50 
3839  3.90  3.76  7.50 
3840  4.08  3.46  7.50 
3841  4.02  3.12  7.50 
3842  4.05  3.93  7.50 
3843  4.68  6.78  7.50 
3844  4.25  4.19  7.50 
3845  4.07  3.27  7.50 
3846  3.31  4.00  7.50 
3847  4.14  4.01  7.50 
3848  4.66  3.33  7.50 
3849  4.20  3.64  7.50 
3850  4.12  3.90  7.50 
3851  4.18  3.39  7.50 
3852  4.03  3.74  7.50 
3853  3.52  3.88  7.50 
3854  4.11  3.38  7.50 
3855  4.07  3.15  7.50 
3856  3.51  3.99  7.50 
3857  1.52  3.47  7.50 
3858  4.24  3.38  7.50 
3859  2.64  3.82  7.50 
3860  4.02  2.95  7.50 
3861  4.34  3.90  7.50 
3862  3.77  3.93  7.50 
3863  4.05  3.35  7.50 
3864  2.78  3.25  7.50 
3865  4.04  3.41  7.50 
3866  4.05  4.19  7.50 
3867  4.90  3.19  7.50 
3868  3.63  3.91  7.50 
3869  4.03  3.69  7.50 
3870  3.53  3.23  7.50 
3871  4.16  3.40  7.50 
3872  3.03  5.48  7.50 
3873  4.16  3.64  7.50 
3874  4.45  4.22  7.50 
3875  4.10  3.47  7.50 
3876  4.07  4.20  7.50 
3877  4.38  3.89  7.50 
3878  4.16  4.20  7.50 
3879  3.80  3.66  7.50 
3880  4.31  4.16  7.50 
3881  4.53  3.21  7.50 
3882  4.10  3.47  7.50 
3883  4.18  3.78  7.50 
3884  2.84  4.01  7.50 
3885  3.68  4.78  7.50 
3886  4.03  6.22  7.50 
3887  3.54  5.96  7.50 
3888  3.03  4.84  7.50 
3889  4.18  4.60  7.50 
3890  3.32  6.85  7.50 
3891  2.62  7.24  7.50 
3892  4.04  6.43  7.50 
3893  4.13  6.59  7.50 
3894  4.60  3.12  7.50 
3895  3.93  4.14  7.50 
3896  3.04  3.42  7.50 
3897  4.04  3.40  7.50 
3898  4.37  3.89  7.50 
3899  3.06  3.29  7.50 
3900  4.20  3.72  7.50 
3901  3.82  4.55  7.50 
3902  2.36  3.92  7.50 
3903  2.85  5.35  7.50 
3904  3.56  4.36  7.50 
3905  4.10  4.51  7.50 
3906  3.01  4.66  7.50 
3907  3.89  4.47  7.50 
3908  3.03  4.44  7.50 
3909  4.26  4.19  7.50 
3910  4.16  4.45  7.50 
3911  3.59  4.73  7.50 
3912  3.11  4.75  7.50 
3913  4.23  4.20  7.50 
3914  4.45  3.39  7.50 
3915  3.84  5.09  7.50 
3916  4.14  3.61  7.50 
3917  3.02  3.57  7.50 
3918  4.22  3.80  7.50 
3919  4.07  4.59  7.50 
3920  3.87  3.57  7.50 
3921  3.55  3.38  7.50 
3922  2.69  3.50  7.50 
3923  4.19  4.04  7.50 
3924  3.08  3.39  7.50 
3925  4.13  4.11  7.50 
3926  2.88  3.58  7.50 
3927  4.25  3.65  7.50 
3928  2.81  3.67  7.50 
3929  4.60  3.57  7.50 
3930  3.52  3.69  7.50 
3931  3.27  2.78  7.50 
3932  4.39  3.64  7.50 
3933  2.83  3.72  7.50 
3934  4.08  4.17  7.50 
3935  4.12  3.03  7.50 
3936  1.25  4.15  7.50 
3937  4.02  3.72  7.50 
3938  2.98  4.22  7.50 
3939  4.07  4.49  7.50 
3940  4.16  5.27  7.50 
3941  3.79  5.62  7.50 
3942  4.04  5.78  7.50 
3943  2.09  5.02  7.50 
3944  4.05  4.40  7.50 
3945  4.03  5.95  7.50 
3946  3.64  4.56  7.50 
3947  4.51  4.68  7.50 
3948  4.33  6.78  7.50 
3949  3.43  3.66  7.50 
3950  3.08  4.67  7.50 
3951  3.52  4.14  7.50 
3952  4.04  6.39  7.50 
3953  4.21  5.69  7.50 
3954  4.16  4.65  7.50 
3955  3.35  6.88  7.50 
3956  4.02  3.61  7.50 
3957  1.41  5.17  7.50 
3958  3.01  5.74  7.50 
3959  4.10  6.10  7.50 
3960  3.12  5.20  7.50 
3961  4.32  6.34  7.50 
3962  4.28  4.77  7.50 
3963  3.35  4.86  7.50 
3964  4.06  5.40  7.50 
3965  4.17  5.84  7.50 
3966  4.13  4.16  7.50 
3967  4.29  3.73  7.50 
3968  3.08  4.15  7.50 
3969  4.12  4.45  7.50 
3970  4.23  4.98  7.50 
3971  2.96  6.07  7.50 
3972  4.13  5.16  7.50 
3973  3.26  6.66  7.50 
3974  3.13  4.47  7.50 
3975  3.80  4.26  7.50 
3976  4.15  5.47  7.50 
3977  4.50  5.14  7.50 
3978  4.04  4.65  7.50 
3979  2.79  3.84  7.50 
3980  4.10  3.58  7.50 
3981  3.08  4.05  7.50 
3982  3.69  4.99  7.50 
3983  4.17  5.99  7.50 
3984  4.07  6.19  7.50 
3985  4.16  3.65  7.50 
3986  3.34  4.08  7.50 
3987  4.55  5.67  7.50 
3988  4.27  4.35  7.50 
3989  4.12  4.06  7.50 
3990  3.83  4.62  7.50 
3991  5.09  4.89  7.50 
3992  4.30  4.32  7.50 
3993  4.61  4.04  7.50 
3994  4.73  3.81  7.50 
3995  4.40  6.63  7.50 
3996  4.33  4.61  7.50 
3997  2.30  4.70  7.50 
3998  3.88  4.10  7.50 
3999  2.10  3.61  7.50 
4000  3.28  3.95  7.50 
4001  3.64  3.70  7.50 
4002  4.10  3.71  7.50 
4003  5.49  4.17  7.50 
4004  4.48  2.91  7.50 
4005  4.90  3.81  7.50 
4006  4.15  3.97  7.50 
4007  3.45  3.70  7.50 
4008  6.05  4.30  7.50 
4009  3.02  3.62  7.50 
4010  4.23  3.98  7.50 
4011  4.18  3.93  7.50 
4012  4.17  4.79  7.50 
4013  2.36  3.99  7.50 
4014  3.04  4.75  7.50 
4015  4.03  4.41  7.50 
4016  3.21  3.66  7.50 
4017  4.19  3.59  7.50 
4018  4.13  4.70  7.50 
4019  2.53  3.60  7.50 
4020  3.96  3.30  7.50 
4021  2.52  3.92  7.50 
4022  4.01  4.15  7.50 
4023  4.02  3.55  7.50 
4024  2.78  3.01  7.50 
4025  4.16  4.02  7.50 
4026  2.79  3.82  7.50 
4027  3.60  4.01  7.50 
4028  3.34  4.11  7.50 
4029  4.18  3.55  7.50 
4030  3.85  3.65  7.50 
4031  4.19  4.08  7.50 
4032  2.84  4.32  7.50 
4033  4.46  3.74  7.50 
4034  3.12  3.72  7.50 
4035  4.38  2.77  7.50 
4036  4.14  4.25  7.50 
4037  5.35  4.06  7.50 
4038  4.18  3.72  7.50 
4039  2.93  4.06  7.50 
4040  4.25  4.64  7.50 
4041  3.26  4.09  7.50 
4042  4.32  3.38  7.50 
4043  4.20  3.74  7.50 
4044  3.80  4.28  7.50 
4045  4.09  4.20  7.50 
4046  4.01  4.84  7.50 
4047  4.26  3.84  7.50 
4048  4.14  3.87  7.50 
4049  3.42  4.26  7.50 
4050  4.16  4.30  7.50 
4051  4.11  2.15  7.50 
4052  4.14  3.48  7.50 
4053  3.18  4.03  7.50 
4054  4.15  3.58  7.50 
4055  2.96  3.12  7.50 
4056  4.10  3.71  7.50 
4057  4.89  3.11  7.50 
4058  3.55  4.35  7.50 
4059  4.11  3.77  7.50 
4060  3.50  3.56  7.50 
4061  4.96  3.75  7.50 
4062  5.02  3.87  7.50 
4063  4.42  3.40  7.50 
4064  4.13  3.97  7.50 
4065  4.00  4.02  7.50 
4066  4.52  4.23  7.50 
4067  4.41  4.33  7.50 
4068  3.84  3.98  7.50 
4069  3.25  4.39  7.50 
4070  1.98  3.74  7.50 
4071  3.09  3.88  7.50 
4072  2.51  3.70  7.50 
4073  3.85  4.09  7.50 
4074  4.96  4.68  7.50 
4075  2.76  4.39  7.50 
4076  4.05  4.02  7.50 
4077  4.28  3.14  7.50 
4078  2.59  4.02  7.50 
4079  4.22  4.49  7.50 
4080  4.35  3.55  7.50 
4081  2.28  4.31  7.50 
4082  4.08  3.89  7.50 
4083  4.16  3.95  7.50 
4084  3.35  3.49  7.50 
4085  3.77  4.04  7.50 
4086  4.20  4.12  7.50 
4087  4.02  4.38  7.50 
4088  3.63  4.10  7.50 
4089  4.04  2.76  7.50 
4090  4.02  3.17  7.50 
4091  2.82  3.15  7.50 
4092  2.51  4.17  7.50 
4093  4.01  4.45  7.50 
4094  4.19  4.01  7.50 
4095  2.56  3.92  7.50 
4096  3.30  2.99  7.50 
4097  2.88  4.05  7.50 
4098  4.07  4.07  7.50 
4099  4.09  2.57  7.50 
4100  4.06  3.78  7.50 
4101  3.13  3.54  7.50 
4102  4.40  4.05  7.50 
4103  5.22  4.07  7.50 
4104  3.50  4.13  7.50 
4105  3.51  4.28  7.50 
4106  3.87  3.43  7.50 
4107  4.66  4.18  7.50 
4108  2.83  4.28  7.50 
4109  4.09  4.13  7.50 
4110  2.80  4.43  7.50 
4111  3.59  4.30  7.50 
4112  4.04  4.55  7.50 
4113  3.40  4.42  7.50 
4114  3.07  4.44  7.50 
4115  4.36  4.19  7.50 
4116  3.35  4.37  7.50 
4117  4.07  4.18  7.50 
4118  3.22  3.48  7.50 
4119  5.29  4.63  7.50 
4120  2.75  4.25  7.50 
4121  4.37  4.48  7.50 
4122  4.07  4.40  7.50 
4123  3.28  4.11  7.50 
4124  4.48  3.01  7.50 
4125  4.11  3.84  7.50 
4126  4.13  3.35  7.50 
4127  3.88  4.06  7.50 
4128  3.20  3.05  7.50 
4129  4.21  3.77  7.50 
4130  3.78  3.98  7.50 
4131  3.37  3.92  7.50 
4132  4.05  3.20  7.50 
4133  5.22  3.19  7.50 
4134  2.28  3.66  7.50 
4135  4.11  5.39  7.50 
4136  4.14  3.60  7.50 
4137  4.27  4.21  7.50 
4138  4.23  4.42  7.50 
4139  4.04  4.28  7.50 
4140  4.26  4.50  7.50 
4141  4.17  3.64  7.50 
4142  3.42  3.96  7.50 
4143  4.01  5.29  7.50 
4144  4.10  4.15  7.50 
4145  2.88  4.88  7.50 
4146  4.21  3.94  7.50 
4147  3.36  2.85  7.50 
4148  3.20  3.92  7.50 
4149  3.53  4.11  7.50 
4150  4.25  4.45  7.50 
4151  4.33  3.61  7.50 
4152  3.06  4.38  7.50 
4153  4.21  4.21  7.50 
4154  4.27  4.19  7.50 
4155  1.79  4.18  7.50 
4156  4.22  4.20  7.50 
4157  4.19  3.70  7.50 
4158  4.19  3.77  7.50 
4159  4.20  3.65  7.50 
4160  4.29  3.99  7.50 
4161  4.07  3.31  7.50 
4162  2.93  3.65  7.50 
4163  3.01  3.87  7.50 
4164  3.05  3.83  7.50 
4165  4.07  3.65  7.50 
4166  4.15  3.85  7.50 
4167  4.18  3.51  7.50 
4168  4.36  3.74  7.50 
4169  4.23  4.19  7.50 
4170  4.10  3.51  7.50 
4171  4.17  4.03  7.50 
4172  4.09  3.55  7.50 
4173  4.26  3.70  7.50 
4174  4.12  4.28  7.50 
4175  3.95  3.41  7.50 
4176  4.06  4.19  7.50 
4177  4.00  4.16  7.50 
4178  4.20  3.41  7.50 
4179  4.07  3.68  7.50 
4180  4.26  3.82  7.50 
4181  3.34  4.19  7.50 
4182  2.37  4.16  7.50 
4183  3.51  4.02  7.50 
4184  2.85  3.96  7.50 
4185  4.38  3.91  7.50 
4186  2.99  3.94  7.50 
4187  4.63  3.59  7.50 
4188  3.68  3.32  7.50 
4189  4.26  4.24  7.50 
4190  2.06  3.98  7.50 
4191  4.19  3.79  7.50 
4192  3.49  3.81  7.50 
4193  4.41  3.60  7.50 
4194  2.84  3.47  7.50 
4195  4.12  4.25  7.50 
4196  4.10  4.15  7.50 
4197  3.58  3.49  7.50 
4198  3.40  4.16  7.50 
4199  3.82  4.07  7.50 
4200  3.65  3.76  7.50 
4201  3.65  3.78  7.50 
4202  4.10  3.33  7.50 
4203  4.35  3.84  7.50 
4204  4.11  4.08  7.50 
4205  1.75  2.16  7.50 
4206  2.84  2.77  7.50 
4207  4.12  3.81  7.50 
4208  4.17  3.89  7.50 
4209  5.24  3.55  7.50 
4210  4.20  3.62  7.50 
4211  3.55  3.60  7.50 
4212  3.12  3.21  7.50 
4213  4.19  4.66  7.50 
4214  3.22  3.88  7.50 
4215  4.18  4.12  7.50 
4216  4.15  3.92  7.50 
4217  4.98  2.99  7.50 
4218  3.22  4.07  7.50 
4219  4.11  4.21  7.50 
4220  3.76  4.13  7.50 
4221  5.12  3.96  7.50 
4222  4.18  3.82  7.50 
4223  3.54  3.89  7.50 
4224  2.90  3.30  7.50 
4225  3.30  3.54  7.50 
4226  3.40  3.75  7.50 
4227  4.13  3.52  7.50 
4228  4.32  3.31  7.50 
4229  3.20  3.70  7.50 
4230  3.19  3.60  7.50 
4231  3.65  3.43  7.50 
4232  3.53  4.16  7.50 
4233  3.45  4.03  7.50 
4234  2.94  3.43  7.50 
4235  4.07  3.94  7.50 
4236  2.80  3.43  7.50 
4237  2.56  3.38  7.50 
4238  4.22  3.85  7.50 
4239  3.66  2.77  7.50 
4240  3.76  2.63  7.50 
4241  4.30  4.15  7.50 
4242  4.25  3.46  7.50 
4243  4.27  3.70  7.50 
4244  3.26  3.77  7.50 
4245  3.79  3.41  7.50 
4246  2.76  3.90  7.50 
4247  4.49  3.60  7.50 
4248  4.01  4.11  7.50 
4249  5.40  4.04  7.50 
4250  4.21  3.64  7.50 
4251  2.87  3.56  7.50 
4252  4.03  3.54  7.50 
4253  4.05  3.68  7.50 
4254  4.27  4.13  7.50 
4255  4.37  3.83  7.50 
4256  4.58  3.75  7.50 
4257  4.20  3.41  7.50 
4258  4.19  3.72  7.50 
4259  3.03  4.05  7.50 
4260  2.91  3.95  7.50 
4261  4.11  3.69  7.50 
4262  4.14  4.18  7.50 
4263  4.29  3.78  7.50 
4264  1.79  3.40  7.50 
4265  3.26  3.65  7.50 
4266  3.08  2.95  7.50 
4267  2.84  3.84  7.50 
4268  3.02  3.40  7.50 
4269  2.91  3.88  7.50 
4270  4.34  3.40  7.50 
4271  4.23  2.92  7.50 
4272  4.14  4.03  7.50 
4273  4.43  3.38  7.50 
4274  4.11  3.18  7.50 
4275  3.37  3.76  7.50 
4276  2.88  3.59  7.50 
4277  4.21  4.03  7.50 
4278  0.77  4.01  7.50 
4279  4.78  3.76  7.50 
4280  3.64  3.51  7.50 
4281  3.34  3.35  7.50 
4282  4.12  3.35  7.50 
4283  4.70  3.76  7.50 
4284  4.09  3.68  7.50 
4285  3.91  3.59  7.50 
4286  4.07  3.59  7.50 
4287  5.00  3.93  7.50 
4288  4.03  2.68  7.50 
4289  2.78  3.76  7.50 
4290  4.32  3.71  7.50 
4291  4.80  4.02  7.50 
4292  4.43  3.70  7.50 
4293  2.91  3.61  7.50 
4294  3.11  4.05  7.50 
4295  4.14  4.03  7.50 
4296  3.08  4.12  7.50 
4297  4.11  3.62  7.50 
4298  4.18  3.74  7.50 
4299  4.04  4.02  7.50 
4300  2.76  4.12  7.50 
4301  3.07  3.77  7.50 
4302  4.07  3.61  7.50 
4303  2.88  4.12  7.50 
4304  4.20  3.43  7.50 
4305  4.32  3.74  7.50 
4306  3.41  3.81  7.50 
4307  4.20  3.84  7.50 
4308  4.04  3.76  7.50 
4309  3.35  3.78  7.50 
4310  4.09  3.10  7.50 
4311  4.08  3.95  7.50 
4312  3.31  4.13  7.50 
4313  3.77  3.88  7.50 
4314  2.29  3.08  7.50 
4315  2.77  3.57  7.50 
4316  2.69  4.20  7.50 
4317  4.24  3.32  7.50 
4318  3.11  3.51  7.50 
4319  5.31  3.67  7.50 
4320  3.19  4.11  7.50 
4321  3.49  4.05  7.50 
4322  3.97  3.81  7.50 
4323  5.23  4.17  7.50 
4324  2.75  3.84  7.50 
4325  4.24  3.45  7.50 
4326  4.07  3.97  7.50 
4327  3.41  3.66  7.50 
4328  4.04  3.73  7.50 
4329  3.03  3.29  7.50 
4330  3.04  3.76  7.50 
4331  4.12  3.50  7.50 
4332  4.17  4.10  7.50 
4333  3.86  3.57  7.50 
4334  4.27  3.86  7.50 
4335  2.87  3.70  7.50 
4336  4.21  4.25  7.50 
4337  1.88  3.05  7.50 
4338  4.28  3.66  7.50 
4339  4.12  3.30  7.50 
4340  4.08  4.07  7.50 
4341  2.90  3.48  7.50 
4342  4.23  3.49  7.50 
4343  3.52  3.48  7.50 
4344  4.26  3.46  7.50 
4345  3.63  2.97  7.50 
4346  4.02  3.93  7.50 
4347  3.58  2.93  7.50 
4348  3.56  3.65  7.50 
4349  4.08  3.46  7.50 
4350  2.81  3.39  7.50 
4351  4.07  4.16  7.50 
4352  4.12  3.21  7.50 
4353  4.10  3.73  7.50 
4354  2.99  3.99  7.50 
4355  3.91  3.19  7.50 
4356  3.89  3.44  7.50 
4357  4.16  4.00  7.50 
4358  3.85  3.30  7.50 
4359  4.11  3.27  7.50 
4360  3.58  3.98  7.50 
4361  4.20  3.20  7.50 
4362  5.68  2.73  7.50 
4363  3.02  3.91  7.50 
4364  4.03  3.91  7.50 
4365  4.61  3.75  7.50 
4366  3.46  4.10  7.50 
4367  4.07  3.01  7.50 
4368  4.68  4.12  7.50 
4369  2.96  3.41  7.50 
4370  3.79  2.69  7.50 
4371  4.18  3.94  7.50 
4372  3.53  3.76  7.50 
4373  2.78  3.78  7.50 
4374  4.59  4.19  7.50 
4375  4.03  3.54  7.50 
4376  4.10  4.24  7.50 
4377  4.23  3.60  7.50 
4378  4.11  4.14  7.50 
4379  3.00  3.58  7.50 
4380  3.28  4.21  7.50 
4381  4.01  4.25  7.50 
4382  3.51  4.00  7.50 
4383  3.31  3.67  7.50 
4384  4.20  3.60  7.50 
4385  4.13  3.81  7.50 
4386  4.03  2.97  7.50 
4387  3.57  3.31  7.50 
4388  3.31  3.57  7.50 
4389  4.06  4.03  7.50 
4390  4.17  3.62  7.50 
4391  3.56  3.62  7.50 
4392  4.03  4.14  7.50 
4393  5.32  4.19  7.50 
4394  4.01  3.17  7.50 
4395  4.24  2.24  7.50 
4396  4.10  3.24  7.50 
4397  3.36  3.12  7.50 
4398  4.02  3.73  7.50 
4399  3.35  3.04  7.50 
4400  4.12  3.25  7.50 
4401  2.78  4.12  7.50 
4402  4.13  3.84  7.50 
4403  3.04  2.94  7.50 
4404  4.15  3.74  7.50 
4405  4.25  3.79  7.50 
4406  4.16  3.38  7.50 
4407  4.02  3.26  7.50 
4408  4.86  3.45  7.50 
4409  4.04  3.39  7.50 
4410  3.04  3.71  7.50 
4411  3.39  4.08  7.50 
4412  4.03  3.66  7.50 
4413  3.81  4.11  7.50 
4414  4.20  3.50  7.50 
4415  3.77  2.71  7.50 
4416  2.26  2.65  7.50 
4417  4.40  2.21  7.50 
4418  3.06  3.31  7.50 
4419  1.54  3.34  7.50 
4420  4.77  3.86  7.50 
4421  1.80  3.63  7.50 
4422  5.42  4.15  7.50 
4423  4.14  3.70  7.50 
4424  3.25  4.03  7.50 
4425  3.16  3.19  7.50 
4426  2.78  3.34  7.50 
4427  3.44  3.55  7.50 
4428  4.32  3.87  7.50 
4429  4.33  3.40  7.50 
4430  2.77  3.82  7.50 
4431  3.59  3.79  7.50 
4432  4.05  3.67  7.50 
4433  4.17  3.23  7.50 
4434  3.44  3.93  7.50 
4435  4.08  4.00  7.50 
4436  3.51  3.17  7.50 
4437  2.76  3.71  7.50 
4438  4.23  3.19  7.50 
4439  4.20  4.18  7.50 
4440  3.92  4.11  7.50 
4441  4.05  3.83  7.50 
4442  2.77  3.65  7.50 
4443  3.28  3.43  7.50 
4444  1.92  3.83  7.50 
4445  2.08  3.88  7.50 
4446  3.14  4.08  7.50 
4447  2.18  3.99  7.50 
4448  5.12  3.77  7.50 
4449  2.84  3.47  7.50 
4450  3.04  4.08  7.50 
4451  4.05  3.66  7.50 
4452  4.03  3.69  7.50 
4453  3.79  3.78  7.50 
4454  4.61  4.19  7.50 
4455  2.67  3.62  7.50 
4456  2.99  3.74  7.50 
4457  4.02  3.38  7.50 
4458  3.67  3.61  7.50 
4459  4.09  3.51  7.50 
4460  4.12  3.34  7.50 
4461  3.48  3.55  7.50 
4462  4.20  3.25  7.50 
4463  4.09  4.12  7.50 
4464  4.30  3.40  7.50 
4465  2.86  3.31  7.50 
4466  4.18  4.28  7.50 
4467  4.02  3.38  7.50 
4468  4.16  3.39  7.50 
4469  1.55  3.42  7.50 
4470  4.05  3.81  7.50 
4471  3.06  3.28  7.50 
4472  4.03  4.40  7.50 
4473  3.64  3.50  7.50 
4474  4.91  3.34  7.50 
4475  4.16  3.78  7.50 
4476  3.25  2.92  7.50 
4477  4.17  3.28  7.50 
4478  4.52  3.71  7.50 
4479  4.46  4.15  7.50 
4480  3.62  2.97  7.50 
4481  4.26  3.23  7.50 
4482  3.20  3.85  7.50 
4483  4.25  4.08  7.50 
4484  4.02  3.38  7.50 
4485  4.25  3.13  7.50 
4486  4.11  3.46  7.50 
4487  2.89  3.93  7.50 
4488  4.17  3.75  7.50 
4489  4.18  4.32  7.50 
4490  4.71  3.49  7.50 
4491  4.26  3.85  7.50 
4492  4.13  2.69  7.50 
4493  4.26  4.06  7.50 
4494  4.40  3.78  7.50 
4495  2.93  3.75  7.50 
4496  2.81  3.59  7.50 
4497  1.89  3.77  7.50 
4498  4.10  3.59  7.50 
4499  4.13  3.78  7.50 
4500  5.21  3.71  7.50 
4501  4.13  4.12  7.50 
4502  5.34  3.85  7.50 
4503  4.02  3.94  7.50 
4504  4.15  2.69  7.50 
4505  2.96  3.67  7.50 
4506  3.60  3.34  7.50 
4507  2.14  3.98  7.50 
4508  3.40  4.11  7.50 
4509  3.83  3.89  7.50 
4510  3.09  2.86  7.50 
4511  4.22  3.39  7.50 
4512  4.08  3.63  7.50 
4513  3.64  3.32  7.50 
4514  3.41  3.50  7.50 
4515  2.93  3.68  7.50 
4516  4.09  3.50  7.50 
4517  4.39  3.19  7.50 
4518  4.02  3.67  7.50 
4519  2.92  4.05  7.50 
4520  3.02  4.04  7.50 
4521  3.84  3.95  7.50 
4522  3.65  3.62  7.50 
4523  4.17  3.81  7.50 
4524  4.01  3.81  7.50 
4525  2.86  3.76  7.50 
4526  4.20  4.13  7.50 
4527  4.29  2.85  7.50 
4528  3.34  3.38  7.50 
4529  4.03  3.64  7.50 
4530  4.07  3.30  7.50 
4531  4.06  3.30  7.50 
4532  3.00  3.65  7.50 
4533  2.50  3.74  7.50 
4534  4.05  3.31  7.50 
4535  4.05  3.72  7.50 
4536  4.85  2.95  7.50 
4537  3.31  4.15  7.50 
4538  2.78  3.70  7.50 
4539  3.70  3.88  7.50 
4540  4.03  4.41  7.50 
4541  3.61  3.11  7.50 
4542  3.84  2.84  7.50 
4543  4.38  3.87  7.50 
4544  2.80  3.79  7.50 
4545  4.48  3.92  7.50 
4546  4.09  3.89  7.50 
4547  3.44  3.90  7.50 
4548  4.16  3.81  7.50 
4549  4.11  3.83  7.50 
4550  2.54  3.99  7.50 
4551  4.12  3.08  7.50 
4552  4.05  3.03  7.50 
4553  3.45  4.06  7.50 
4554  3.90  3.78  7.50 
4555  4.25  3.96  7.50 
4556  4.10  2.76  7.50 
4557  4.36  4.04  7.50 
4558  3.81  4.26  7.50 
4559  4.18  3.95  7.50 
4560  4.61  3.18  7.50 
4561  3.63  3.70  7.50 
4562  3.25  3.51  7.50 
4563  2.80  3.46  7.50 
4564  4.21  4.80  7.50 
4565  3.06  3.93  7.50 
4566  4.07  4.02  7.50 
4567  4.32  4.36  7.50 
4568  3.51  3.72  7.50 
4569  4.10  4.95  7.50 
4570  4.53  3.45  7.50 
4571  5.62  3.60  7.50 
4572  4.27  2.07  7.50 
4573  4.36  4.82  7.50 
4574  4.11  4.18  7.50 
4575  4.33  3.79  7.50 
4576  3.00  3.75  7.50 
4577  4.71  3.93  7.50 
4578  4.06  4.03  7.50 
4579  4.18  2.79  7.50 
4580  3.61  4.14  7.50 
4581  4.42  3.91  7.50 
4582  3.82  4.09  7.50 
4583  4.12  4.30  7.50 
4584  4.08  4.13  7.50 
4585  3.98  3.85  7.50 
4586  3.16  3.89  7.50 
4587  3.86  4.16  7.50 
4588  4.16  4.33  7.50 
4589  1.81  2.36  7.50 
4590  3.53  4.12  7.50 
4591  2.82  3.19  7.50 
4592  3.04  3.90  7.50 
4593  2.86  3.86  7.50 
4594  4.37  3.57  7.50 
4595  5.40  3.79  7.50 
4596  3.54  3.43  7.50 
4597  3.64  4.13  7.50 
4598  4.27  4.01  7.50 
4599  4.20  3.41  7.50 
4600  3.30  3.59  7.50 
4601  3.36  3.60  7.50 
4602  4.26  3.93  7.50 
4603  3.86  2.89  7.50 
4604  4.33  3.93  7.50 
4605  4.16  3.11  7.50 
4606  4.28  4.44  7.50 
4607  1.79  2.91  7.50 
4608  4.15  4.22  7.50 
4609  4.61  4.00  7.50 
4610  3.52  3.57  7.50 
4611  4.43  3.78  7.50 
4612  4.42  4.28  7.50 
4613  4.34  3.48  7.50 
4614  3.90  3.37  7.50 
4615  4.12  4.39  7.50 
4616  4.02  3.67  7.50 
4617  3.07  3.82  7.50 
4618  4.57  4.33  7.50 
4619  4.31  4.25  7.50 
4620  3.07  2.77  7.50 
4621  3.32  3.16  7.50 
4622  3.47  3.71  7.50 
4623  4.46  4.21  7.50 
4624  2.81  4.18  7.50 
4625  2.78  4.10  7.50 
4626  3.37  3.10  7.50 
4627  4.21  4.22  7.50 
4628  1.78  3.62  7.50 
4629  3.56  4.25  7.50 
4630  2.10  4.20  7.50 
4631  4.08  3.28  7.50 
4632  2.45  4.06  7.50 
4633  4.29  4.00  7.50 
4634  4.36  3.81  7.50 
4635  3.93  3.71  7.50 
4636  3.11  4.16  7.50 
4637  4.19  2.68  7.50 
4638  2.77  4.00  7.50 
4639  3.56  2.96  7.50 
4640  4.17  4.00  7.50 
4641  3.02  3.40  7.50 
4642  1.51  3.63  7.50 
4643  4.17  3.93  7.50 
4644  3.80  4.21  7.50 
4645  4.20  3.77  7.50 
4646  4.11  3.55  7.50 
4647  4.08  3.12  7.50 
4648  4.07  3.81  7.50 
4649  3.17  3.33  7.50 
4650  2.90  4.04  7.50 
4651  4.32  4.11  7.50 
4652  2.50  3.72  7.50 
4653  4.07  3.86  7.50 
4654  4.24  3.92  7.50 
4655  4.61  3.08  7.50 
4656  4.07  3.76  7.50 
4657  2.82  3.26  7.50 
4658  3.61  4.20  7.50 
4659  4.04  3.48  7.50 
4660  3.30  3.57  7.50 
4661  4.10  3.05  7.50 
4662  4.06  3.79  7.50 
4663  2.80  3.32  7.50 
4664  3.79  3.71  7.50 
4665  4.02  3.86  7.50 
4666  4.02  3.78  7.50 
4667  2.78  3.96  7.50 
4668  3.89  3.85  7.50 
4669  3.66  3.89  7.50 
4670  4.13  4.25  7.50 
4671  4.06  3.03  7.50 
4672  2.54  3.77  7.50 
4673  4.07  2.95  7.50 
4674  4.08  4.06  7.50 
4675  4.03  4.16  7.50 
4676  3.30  4.09  7.50 
4677  4.19  3.74  7.50 
4678  2.92  3.54  7.50 
4679  3.58  3.91  7.50 
4680  2.87  3.38  7.50 
4681  4.31  3.18  7.50 
4682  3.13  3.50  7.50 
4683  4.14  3.86  7.50 
4684  4.11  4.14  7.50 
4685  5.38  3.04  7.50 
4686  3.83  2.99  7.50 
4687  4.06  3.86  7.50 
4688  3.07  3.67  7.50 
4689  4.12  3.78  7.50 
4690  5.41  2.97  7.50 
4691  4.16  3.40  7.50 
4692  3.81  3.79  7.50 
4693  3.04  3.16  7.50 
4694  4.09  3.81  7.50 
4695  4.06  2.82  7.50 
4696  4.03  4.16  7.50 
4697  4.12  3.85  7.50 
4698  4.01  3.88  7.50 
4699  4.02  2.85  7.50 
4700  4.12  3.97  7.50 
4701  4.08  3.99  7.50 
4702  4.01  3.12  7.50 
4703  4.33  3.41  7.50 
4704  2.83  3.18  7.50 
4705  4.10  3.96  7.50 
4706  4.04  4.04  7.50 
4707  4.04  3.59  7.50 
4708  4.03  3.31  7.50 
4709  4.60  3.95  7.50 
4710  4.07  3.88  7.50 
4711  3.09  4.14  7.50 
4712  4.24  3.82  7.50 
4713  3.77  3.14  7.50 
4714  4.03  3.95  7.50 
4715  3.27  3.51  7.50 
4716  3.31  4.11  7.50 
4717  2.80  4.14  7.50 
4718  2.78  4.02  7.50 
4719  3.28  3.65  7.50 
4720  2.78  4.09  7.50 
4721  1.57  4.17  7.50 
4722  3.00  3.53  7.50 
4723  4.00  3.70  7.50 
4724  3.14  3.27  7.50 
4725  4.08  2.85  7.50 
4726  3.75  3.60  7.50 
4727  4.05  3.19  7.50 
4728  3.26  4.02  7.50 
4729  4.07  4.02  7.50 
4730  2.25  4.06  7.50 
4731  4.28  4.03  7.50 
4732  3.54  4.05  7.50 
4733  3.03  3.21  7.50 
4734  1.87  2.86  7.50 
4735  3.54  3.28  7.50 
4736  4.07  3.85  7.50 
4737  3.80  3.60  7.50 
4738  4.06  3.29  7.50 
4739  4.05  4.10  7.50 
4740  2.28  3.53  7.50 
4741  4.64  3.92  7.50 
4742  2.77  3.68  7.50 
4743  4.10  3.63  7.50 
4744  1.56  3.02  7.50 
4745  4.16  2.59  7.50 
4746  1.79  3.44  7.50 
4747  4.73  3.98  7.50 
4748  4.23  3.14  7.50 
4749  3.66  3.74  7.50 
4750  4.06  2.96  7.50 
4751  2.56  3.84  7.50 
4752  4.04  3.90  7.50 
4753  3.61  4.24  7.50 
4754  4.10  3.75  7.50 
4755  3.92  3.52  7.50 
4756  4.26  3.77  7.50 
4757  2.88  3.68  7.50 
4758  4.21  3.53  7.50 
4759  4.09  4.01  7.50 
4760  2.97  3.67  7.50 
4761  4.34  3.76  7.50 
4762  3.14  2.84  7.50 
4763  3.19  3.52  7.50 
4764  4.07  3.67  7.50 
4765  3.89  3.68  7.50 
4766  3.02  2.94  7.50 
4767  3.71  3.85  7.50 
4768  4.14  3.60  7.50 
4769  2.97  3.53  7.50 
4770  4.04  3.27  7.50 
4771  2.87  3.10  7.50 
4772  3.83  3.34  7.50 
4773  1.50  3.26  7.50 
4774  3.00  4.02  7.50 
4775  4.02  3.53  7.50 
4776  4.06  3.12  7.50 
4777  3.78  3.36  7.50 
4778  4.59  3.26  7.50 
4779  4.05  3.76  7.50 
4780  2.76  3.68  7.50 
4781  4.01  4.01  7.50 
4782  3.35  3.92  7.50 
4783  4.06  3.42  7.50 
4784  4.03  4.01  7.50 
4785  4.06  2.75  7.50 
4786  4.09  3.93  7.50 
4787  4.09  3.27  7.50 
4788  3.81  2.68  7.50 
4789  4.03  3.84  7.50 
4790  4.06  3.26  7.50 
4791  4.62  3.18  7.50 
4792  3.59  3.76  7.50 
4793  4.03  3.93  7.50 
4794  4.21  3.34  7.50 
4795  4.13  3.25  7.50 
4796  4.10  3.42  7.50 
4797  2.76  3.76  7.50 
4798  4.02  3.59  7.50 
4799  1.81  3.51  7.50 
4800  4.03  3.67  7.50 
4801  4.13  3.94  7.50 
4802  3.11  3.67  7.50 
4803  4.15  3.43  7.50 
4804  2.08  3.09  7.50 
4805  4.02  3.36  7.50 
4806  2.77  3.51  7.50 
4807  2.76  3.70  7.50 
4808  3.31  3.68  7.50 
4809  4.06  3.26  7.50 
4810  4.02  4.26  7.50 
4811  4.02  4.03  7.50 
4812  4.15  2.71  7.50 
4813  4.75  3.69  7.50 
4814  3.06  4.03  7.50 
4815  4.12  3.60  7.50 
4816  4.31  3.77  7.50 
4817  4.20  4.01  7.50 
4818  3.03  3.51  7.50 
4819  1.25  3.52  7.50 
4820  3.60  3.67  7.50 
4821  3.31  3.92  7.50 
4822  4.01  4.01  7.50 
4823  3.83  4.04  7.50 
4824  3.91  3.76  7.50 
4825  3.65  3.60  7.50 
4826  4.02  3.76  7.50 
4827  4.14  2.93  7.50 
4828  4.01  3.68  7.50 
4829  4.08  3.68  7.50 
4830  3.27  3.65  7.50 
4831  4.12  3.59  7.50 
4832  6.26  3.42  7.50 
4833  2.79  3.09  7.50 
4834  3.60  3.94  7.50 
4835  4.04  3.59  7.50 
4836  3.01  4.19  7.50 
4837  4.08  4.11  7.50 
4838  3.46  3.87  7.50 
4839  4.72  3.27  7.50 
4840  4.08  3.91  7.50 
4841  3.40  3.75  7.50 
4842  4.09  4.28  7.50 
4843  3.02  3.91  7.50 
4844  3.97  4.69  7.50 
4845  2.76  3.30  7.50 
4846  3.29  3.75  7.50 
4847  3.00  4.00  7.50 
4848  4.14  3.97  7.50 
4849  4.02  3.69  7.50 
4850  3.02  3.92  7.50 
4851  4.31  3.77  7.50 
4852  4.08  3.38  7.50 
4853  2.56  3.79  7.50 
4854  2.77  4.15  7.50 
4855  4.06  3.57  7.50 
4856  4.01  4.06  7.50 
4857  2.59  4.02  7.50 
4858  3.54  3.34  7.50 
4859  2.84  3.52  7.50 
4860  4.96  3.60  7.50 
4861  4.13  3.17  7.50 
4862  3.25  3.59  7.50 
4863  3.71  3.42  7.50 
4864  3.26  3.68  7.50 
4865  4.05  3.85  7.50 
4866  4.01  4.01  7.50 
4867  4.04  3.76  7.50 
4868  4.08  2.84  7.50 
4869  4.03  3.59  7.50 
4870  4.26  4.02  7.50 
4871  2.37  3.43  7.50 
4872  2.91  3.77  7.50 
4873  3.53  4.01  7.50 
4874  3.03  2.75  7.50 
4875  4.06  3.93  7.50 
4876  4.08  3.84  7.50 
4877  2.93  3.26  7.50 
4878  4.14  3.59  7.50 
4879  3.82  3.54  7.50 
4880  1.75  3.77  7.50 
4881  3.86  3.68  7.50 
4882  3.84  3.59  7.50 
4883  4.13  3.01  7.50 
4884  3.28  3.93  7.50 
4885  3.33  4.02  7.50 
4886  4.11  4.01  7.50 
4887  3.56  3.43  7.50 
4888  3.76  3.61  7.50 
4889  4.02  3.93  7.50 
4890  3.34  3.68  7.50 
4891  4.19  3.68  7.50 
4892  4.57  3.51  7.50 
4893  2.76  3.34  7.50 
4894  2.02  4.01  7.50 
4895  3.91  3.26  7.50 
4896  4.14  3.10  7.50 
4897  4.03  3.93  7.50 
4898  4.10  3.42  7.50 
4899  3.63  3.60  7.50 
4900  3.37  3.02  7.50 
4901  3.26  3.35  7.50 
4902  1.76  3.13  7.50 
4903  4.03  4.02  7.50 
4904  3.88  3.84  7.50 
4905  4.19  3.59  7.50 
4906  3.01  3.70  7.50 
4907  5.14  3.56  7.50 
4908  4.20  4.24  7.50 
4909  3.02  3.61  7.50 
4910  4.30  3.57  7.50 
4911  4.05  3.87  7.50 
4912  4.18  3.15  7.50 
4913  4.27  3.29  7.50 
4914  2.50  3.43  7.50 
4915  3.11  2.99  7.50 
4916  2.90  3.30  7.50 
4917  4.69  3.95  7.50 
4918  4.17  4.54  7.50 
4919  4.03  4.15  7.50 
4920  4.85  4.04  7.50 
4921  4.67  3.89  7.50 
4922  3.40  3.92  7.50 
4923  3.48  3.70  7.50 
4924  3.35  4.32  7.50 
4925  3.11  4.02  7.50 
4926  5.29  3.94  7.50 
4927  5.59  3.96  7.50 
4928  4.16  4.26  7.50 
4929  3.91  4.30  7.50 
4930  4.16  3.86  7.50 
4931  4.04  4.35  7.50 
4932  3.94  4.07  7.50 
4933  2.88  4.43  7.50 
4934  3.22  3.29  7.50 
4935  3.30  3.63  7.50 
4936  4.25  3.59  7.50 
4937  4.37  3.71  7.50 
4938  3.32  3.96  7.50 
4939  4.01  3.92  7.50 
4940  2.34  3.78  7.50 
4941  4.17  3.67  7.50 
4942  4.64  3.78  7.50 
4943  4.14  4.88  7.50 
4944  3.69  4.23  7.50 
4945  3.30  4.11  7.50 
4946  4.03  3.55  7.50 
4947  4.12  4.29  7.50 
4948  4.05  3.52  7.50 
4949  3.21  2.91  7.50 
4950  3.26  4.75  7.50 
4951  4.02  4.09  7.50 
4952  3.79  3.94  7.50 
4953  4.29  3.79  7.50 
4954  3.62  4.08  7.50 
4955  3.07  3.77  7.50 
4956  4.01  3.55  7.50 
4957  4.13  4.10  7.50 
4958  4.14  4.42  7.50 
4959  4.99  3.39  7.50 
4960  4.14  3.21  7.50 
4961  4.35  3.74  7.50 
4962  3.36  3.40  7.50 
4963  4.09  3.82  7.50 
4964  4.16  3.87  7.50 
4965  2.76  4.26  7.50 
4966  2.94  3.08  7.50 
4967  3.34  4.27  7.50 
4968  2.81  4.72  7.50 
4969  4.04  4.26  7.50 
4970  3.03  3.60  7.50 
4971  5.00  3.70  7.50 
4972  4.20  3.93  7.50 
4973  4.01  3.83  7.50 
4974  4.06  3.75  7.50 
4975  4.02  5.02  7.50 
4976  4.33  4.39  7.50 
4977  4.23  3.88  7.50 
4978  4.06  3.34  7.50 
4979  4.07  3.68  7.50 
4980  3.76  3.00  7.50 
4981  4.14  4.11  7.50 
4982  4.02  3.45  7.50 
4983  4.18  3.87  7.50 
4984  4.02  3.79  7.50 
4985  4.04  2.88  7.50 
4986  4.21  3.27  7.50 
4987  2.95  3.77  7.50 
4988  4.28  3.18  7.50 
4989  4.06  2.87  7.50 
4990  4.22  3.27  7.50 
4991  3.51  5.01  7.50 
4992  5.07  3.46  7.50 
4993  4.16  3.39  7.50 
4994  4.52  3.54  7.50 
4995  5.26  3.72  7.50 
4996  4.87  3.49  7.50 
