iteration,time_sampling,stoc_pol_mean,stoc_pol_std,stoc_pol_max,stoc_pol_min,rollout_success,alpha,delta,time_vpg,time_npg,kl_dist,surr_improvement,running_score,rwd_sparse,rwd_dense,success_percentage,num_samples,time_VF,VF_error_before,VF_error_after,env_samples,eval_score,eval_success
0,0.852165699005127,-18.47934285883779,2.944269417072469,-15.745731121353753,-22.771641408342305,0.0,0.11821264052396174,0.1,0.03195667266845703,0.0472567081451416,0.052103646,1.3134029,-18.47934285883779,-0.21082171186648205,-0.24397752291400474,0.0,94,0.006999492645263672,0.9909873097268026,0.9909873097268026,94,-10.935493649568203,0.0
1,0.7688310146331787,-18.790038779755715,2.7451968585295643,-16.13812263909749,-22.53759997166467,0.0,0.19818499011497456,0.1,0.0023260116577148438,0.04629063606262207,0.051416915,0.6324942,-18.510412450929582,-0.22684496993814215,-0.24886726931756256,0.0,93,0.002613067626953125,0.9909478074790224,0.9909478074790224,187,-10.562304132121838,0.0
2,0.7736358642578125,-17.0802751914472,2.844446903762491,-14.055406778370438,-20.729639794347197,0.0,0.18462213913589287,0.1,0.002233743667602539,0.04569387435913086,0.047802478,0.71670985,-18.367398724981346,-0.20649608307477457,-0.2141754643105406,0.0,85,0.002276897430419922,0.9902935334632517,0.9902935334632517,272,-10.53191479619683,0.0
3,0.798208475112915,-19.29820932732159,2.605762459192767,-16.22920794017516,-22.56817631203408,0.0,0.17803700547023638,0.1,0.0022881031036376953,0.04629349708557129,0.0490655,0.9834247,-18.46047978521537,-0.24087401448036505,-0.2574478758643957,0.0,95,0.0024309158325195312,0.9912035120722954,0.9912035120722954,367,-9.80321715301608,0.0
4,0.8204226493835449,-17.662541683620475,1.6009364899456133,-15.56959212995394,-20.000619925095585,0.0,0.17966666037876564,0.1,0.002312183380126953,0.04597902297973633,0.051078983,1.1209831,-18.38068597505588,-0.22135751212189803,-0.22636898502430022,0.0,87,0.004278898239135742,0.990272750441862,0.990272750441862,454,-9.348576252402237,0.0
5,0.7810719013214111,-18.035730224685956,3.270720469140092,-15.166259206723442,-23.38410808873745,0.0,0.188993503340351,0.1,0.002289295196533203,0.04599404335021973,0.048056666,0.92970043,-18.346190400018887,-0.21590183005736802,-0.2346843053138727,0.0,89,0.002233743667602539,0.9908022179483592,0.9908022179483592,543,-9.506099597559068,0.0
6,0.809983491897583,-18.306004882161417,3.0292877908197284,-14.719669127817586,-22.19748963395439,0.0,0.17417885635257532,0.1,0.0023224353790283203,0.07709264755249023,0.05105449,0.72282374,-18.34217184823314,-0.20922043275112268,-0.23800178441988845,0.0,92,0.002575397491455078,0.990943654787778,0.990943654787778,635,-9.937133653665228,0.0
7,0.800468921661377,-15.021286119163417,3.299299388429387,-9.863488046302335,-18.978816558958233,0.0,0.18545413518581783,0.1,0.0022079944610595703,0.048252105712890625,0.049886495,0.6458107,-18.010083275326167,-0.13476848455839274,-0.17483195442643687,0.0,78,0.0031032562255859375,0.9894133288381537,0.9894133288381537,713,-9.422959948981186,0.0
8,0.8146975040435791,-15.149827229854315,2.2418785765952265,-11.808510511193642,-17.667219849580285,0.0,0.19003373434634072,0.1,0.0026092529296875,0.04537558555603027,0.05067792,0.5977362,-17.724057670778983,-0.15368110403728183,-0.17719755311227736,0.0,78,0.0024766921997070312,0.9890230976763107,0.9890230976763107,791,-9.98157399794498,0.0
9,0.8143253326416016,-15.306141443897637,2.3414065192204956,-12.33402236692466,-18.094848746402995,0.0,0.19180626300457254,0.1,0.0022847652435302734,0.04688286781311035,0.050694674,0.7592019,-17.48226604809085,-0.128777254603503,-0.17963894264313973,0.0,82,0.0025959014892578125,0.9892577095547397,0.9892577095547397,873,-8.252088224115456,0.0
10,0.8193378448486328,-16.289304926736513,1.143418499412258,-15.090276646998259,-17.46967041300212,0.0,0.1747875456052835,0.1,0.0022878646850585938,0.04637622833251953,0.049507566,0.9718719,-17.362969935955416,-0.18151847453847053,-0.19832174028717592,0.0,83,0.0024585723876953125,0.9897036384519899,0.9897036384519899,956,-8.092409468214212,0.0
11,0.8425240516662598,-13.631840093675187,1.7286357667313612,-12.355669892122847,-16.61082150744687,0.0,0.1801048744612564,0.1,0.0023093223571777344,0.04604506492614746,0.049137484,0.70841503,-16.989856951727393,-0.09041925267506698,-0.14879959836219442,0.0,76,0.002608776092529297,0.9880445306661507,0.9880445306661507,1032,-8.722828053024532,0.0
12,0.821936845779419,-15.677304979069639,1.0121666760239016,-14.664496599936903,-17.33576008358,0.0,0.1752878856655105,0.1,0.0022919178009033203,0.0463871955871582,0.049043376,0.9399277,-16.858601754461617,-0.17060990757091515,-0.18655014539116266,0.0,80,0.0024979114532470703,0.9892640728086134,0.9892640728086134,1112,-8.59997542637106,0.0
13,0.8200588226318359,-15.124830713755806,2.4888524088946076,-12.37131568947896,-18.984209186834654,0.0,0.16413282732295278,0.1,0.002242565155029297,0.04640793800354004,0.048656885,0.7492611,-16.685224650391035,-0.14258885593861415,-0.17565874713003587,0.0,79,0.002529144287109375,0.9893779124370402,0.9893779124370402,1191,-7.573349392258565,0.0
14,0.830162763595581,-16.08414560853403,3.532915239281436,-12.082830685454478,-21.150623859351104,0.0,0.1863241795845853,0.1,0.0022726058959960938,0.04938507080078125,0.049918383,0.60372233,-16.625116746205336,-0.14748339483001732,-0.1955437472527274,0.0,85,0.0025413036346435547,0.9900294047128995,0.9900294047128995,1276,-7.005638853967308,0.0
15,0.7944138050079346,-11.64266212284944,1.72232032893201,-9.418878835064788,-13.708769232234605,0.0,0.1800792020433925,0.1,0.0026335716247558594,0.045285940170288086,0.05056548,0.68708825,-16.126871283869747,-0.01900573220368141,-0.11147405746757802,0.0,70,0.002984285354614258,0.9862070334263596,0.9862070334263596,1346,-7.381470355447699,0.0
16,0.8046443462371826,-15.676960662443253,1.59992595867197,-13.273380064008993,-17.71621291484019,0.0,0.17947738534434993,0.1,0.0022783279418945312,0.0457456111907959,0.04943605,0.72891605,-16.081880221727097,-0.16050224197475654,-0.1879393502390988,0.0,81,0.002500772476196289,0.9892571785931163,0.9892571785931163,1427,-7.532957299246221,0.0
17,0.8025336265563965,-15.600725680966208,1.8657171472366647,-12.70909218366835,-17.595529286729942,0.0,0.1766473596218072,0.1,0.0023565292358398438,0.04564070701599121,0.051028315,0.8657518,-16.033764767651007,-0.14900541775118675,-0.1873071469664751,0.0,83,0.002378225326538086,0.9893064915082909,0.9893064915082909,1510,-7.157428349579885,0.0
18,0.8117408752441406,-13.451551186080334,0.9149599223361116,-12.324664251094472,-14.587555405584709,0.0,0.1499351906830539,0.1,0.0023508071899414062,0.04528975486755371,0.04870643,1.8150064,-15.77554340949394,-0.10042587126474056,-0.14495512448537273,0.0,73,0.0025327205657958984,0.9875457459359935,0.9875457459359935,1583,-6.548706275664197,0.0
19,0.8113696575164795,-14.281074915089466,1.2272429342396938,-12.289240363203355,-15.52170408244664,0.0,0.16752515042732619,0.1,0.002188444137573242,0.045366525650024414,0.04914937,0.9838694,-15.626096560053492,-0.12685623701138476,-0.15899706284458776,0.0,74,0.0026628971099853516,0.9884035036991963,0.9884035036991963,1657,-6.907265889935253,0.0
20,0.807401180267334,-14.150459757498925,2.2390774339575943,-11.95956869163452,-17.671441868264424,0.0,0.1622607033401386,0.1,0.0022771358489990234,0.04986715316772461,0.049946137,0.6923924,-15.478532879798035,-0.1162967989947867,-0.15761611968910055,0.0,74,0.002626657485961914,0.9885931715878704,0.9885931715878704,1731,-7.857967866748269,0.0
21,0.8156023025512695,-14.515316229522819,2.6528722670498737,-11.617366153129545,-18.724279823710383,0.0,0.17525427783093545,0.1,0.002215862274169922,0.047887325286865234,0.05037631,0.6505666,-15.382211214770514,-0.10262170439061627,-0.16496924164509438,0.0,79,0.0027103424072265625,0.9889465493224392,0.9889465493224392,1810,-7.710483386322385,0.0
22,0.8215351104736328,-12.818654005968535,2.0132005267504365,-10.885765876261939,-15.745679032332223,0.0,0.17151998102024316,0.1,0.0024526119232177734,0.04518318176269531,0.049973927,0.6707847,-15.125855493890317,-0.06483908360289745,-0.13339613476164647,0.0,73,0.002838611602783203,0.9873807117642676,0.9873807117642676,1883,-6.261155590948403,0.0
23,0.8272213935852051,-12.673261417205326,0.7221421722136746,-11.584647103722105,-13.418318109478362,0.0,0.16854618169010113,0.1,0.002212047576904297,0.044946908950805664,0.05169189,0.81136674,-14.880596086221818,-0.054384802649943206,-0.12978422571854628,0.0,74,0.002182483673095703,0.9869122620815175,0.9869122620815175,1957,-6.809657902524154,0.0
24,0.8387556076049805,-13.857755047134873,0.7315017053144478,-12.855341024445071,-14.918879203071604,0.0,0.15761298626666903,0.1,0.0021965503692626953,0.04574465751647949,0.05002452,1.0131431,-14.778311982313124,-0.09501101223616976,-0.15173809599769467,0.0,75,0.0025212764739990234,0.9881074016980899,0.9881074016980899,2032,-7.775806938938957,0.0
25,0.8595016002655029,-10.968130792925752,0.7697161818624764,-9.636860413034498,-11.455791223981691,0.0,0.16477235464341514,0.1,0.0024988651275634766,0.045751333236694336,0.05019597,0.8809889,-14.397293863374387,0.00036528447929526017,-0.09880928784635952,0.0,65,0.002450704574584961,0.9851824940644305,0.9851824940644305,2097,-6.97333531671115,0.0
26,0.8348808288574219,-12.180828066005823,1.2015473283748925,-11.250104855909001,-14.245867166817924,0.0,0.14958685767551433,0.1,0.002198457717895508,0.04494476318359375,0.050286178,1.0415758,-14.175647283637531,-0.04969249229835256,-0.12159443731844537,0.0,69,0.002829313278198242,0.9865246517381472,0.9865246517381472,2166,-8.287889376053647,0.0
27,0.8298401832580566,-13.277783992409418,2.3315648720313247,-10.77490330180495,-16.914936673791964,0.0,0.15006762574921406,0.1,0.0022439956665039062,0.04570627212524414,0.051559728,0.87775713,-14.085860954514722,-0.0835238539690243,-0.1419860511531938,0.0,73,0.002254486083984375,0.9879800857736958,0.9879800857736958,2239,-7.1231401704022375,0.0
28,0.8388063907623291,-13.51562386491549,1.5987435817030295,-11.901573501890876,-16.15976547047336,0.0,0.168352252779205,0.1,0.002170085906982422,0.04653573036193848,0.05074143,0.7637366,-14.028837245554799,-0.09418157738414074,-0.14599405745923755,0.0,72,0.003092527389526367,0.9878264456971385,0.9878264456971385,2311,-6.51849040664474,0.0
29,0.8408384323120117,-12.879058107168937,1.8266585283142718,-11.450730134783552,-15.933806864040355,0.0,0.16175716108457064,0.1,0.0022249221801757812,0.04874920845031738,0.048839886,0.8521368,-13.913859331716214,-0.07194746885121225,-0.13370209362127317,0.0,71,0.0027582645416259766,0.9873615995096411,0.9873615995096411,2382,-5.951137301121961,0.0
30,0.8128840923309326,-11.807628771360275,3.1704331037267184,-8.213402967206434,-16.904177005853818,0.0,0.16372827327185252,0.1,0.002349376678466797,0.045289039611816406,0.049348425,0.57403445,-13.70323627568062,-0.03206979929704039,-0.11520202624359038,0.0,67,0.003343343734741211,0.9872858722897658,0.9872858722897658,2449,-5.479470116025632,0.0
31,0.7952392101287842,-11.933060537759031,1.810539427591566,-10.107490059714232,-14.905812023684133,0.0,0.17061551929814336,0.1,0.0023648738861083984,0.04519987106323242,0.0498016,0.68161035,-13.52621870188846,-0.04203630850924125,-0.11589633709486566,0.0,69,0.002388477325439453,0.9865642271284106,0.9865642271284106,2518,-5.568786925831476,0.0
32,0.7948062419891357,-13.354869345784884,2.6931569234325456,-9.023483962060958,-16.39902094700379,0.0,0.15725152064414394,0.1,0.002622365951538086,0.04526519775390625,0.05038958,0.77279186,-13.509083766278103,-0.0817723761875708,-0.1429944805424922,0.0,73,0.002496004104614258,0.9881320036861025,0.9881320036861025,2591,-5.865330096213833,0.0
33,0.8140835762023926,-13.053606642002388,1.4067194394560265,-11.110351225524578,-14.969419361319641,0.0,0.16488522928259858,0.1,0.002348661422729492,0.04653596878051758,0.049319874,0.8231658,-13.46353605385053,-0.07533344728171475,-0.13750661265828512,0.0,74,0.0026493072509765625,0.987338691080469,0.987338691080469,2665,-5.527721330785674,0.0
34,0.8297860622406006,-14.323609129047991,2.4510189540714817,-10.15511019433556,-16.34954847631971,0.0,0.16835975019017305,0.1,0.0023832321166992188,0.04962611198425293,0.050694074,1.0723715,-13.549543361370278,-0.10620331978789478,-0.16070057898686982,0.0,78,0.0028083324432373047,0.9887342506065558,0.9887342506065558,2743,-4.9463312554529955,0.0
35,0.8439838886260986,-12.666025449347192,1.9976946161933713,-10.906843888333617,-16.06113501725176,0.0,0.15992694947309263,0.1,0.002235889434814453,0.04622197151184082,0.05102708,0.5975365,-13.46119157016797,-0.06402456643838149,-0.1294008153655719,0.0,70,0.002935171127319336,0.9873165850589763,0.9873165850589763,2813,-5.023412069457524,0.0
36,0.8211379051208496,-10.861513844055683,2.083122116863074,-8.771782255957149,-13.278252935702902,0.0,0.15999307173909597,0.1,0.0022695064544677734,0.05088448524475098,0.051864192,0.6803362,-13.201223797556741,0.0017199672198948517,-0.09722456047383894,0.0,65,0.0025818347930908203,0.9855233653881972,0.9855233653881972,2878,-5.530204962220513,0.0
37,0.8191618919372559,-9.086983279641963,1.899984651244679,-6.879551861666078,-12.090915136658527,0.0,0.15893429264657177,0.1,0.002209186553955078,0.05006527900695801,0.050787136,0.58725226,-12.789799745765263,0.07617282850722137,-0.06628321454518607,0.0,61,0.002396106719970703,0.9831752411590419,0.9831752411590419,2939,-5.175808075625505,0.0
38,0.8359541893005371,-9.902737346191085,0.5513384573218557,-9.15237201661882,-10.609047142954012,0.0,0.1697182870361521,0.1,0.0026547908782958984,0.045655012130737305,0.04997312,0.76710194,-12.501093505807846,0.03483194960204891,-0.08011268971122167,0.0,63,0.0025832653045654297,0.9836778990299937,0.9836778990299937,3002,-5.13432228184887,0.0
39,0.8742992877960205,-9.746463628091396,1.1445675355245006,-8.49991490856335,-11.473774671140358,0.0,0.15657094266439484,0.1,0.002199888229370117,0.0452725887298584,0.050997693,0.730529,-12.225630518036201,0.033196671987649445,-0.07762519855394351,0.0,60,0.002577066421508789,0.983664446631735,0.983664446631735,3062,-4.982490960824348,0.0
40,0.8352053165435791,-9.544322312148804,0.5296217563296368,-9.020508349394468,-10.420818655194331,0.0,0.15204800148600361,0.1,0.0023555755615234375,0.04564476013183594,0.051138956,0.90572995,-11.957499697447462,0.054684559868510035,-0.07364548569589877,0.0,62,0.0025599002838134766,0.9832272188215272,0.9832272188215272,3124,-4.776758397238248,0.0
41,0.8370151519775391,-10.665382356920762,2.085001194755966,-7.134231936668643,-12.43681079586932,0.0,0.1539533290257648,0.1,0.002295970916748047,0.04442882537841797,0.05209462,0.7968584,-11.828287963394793,-0.0003297684390039385,-0.09426885455263864,0.0,63,0.002482891082763672,0.9852912277411149,0.9852912277411149,3187,-4.695279526303531,0.0
42,0.8397161960601807,-10.0909902257504,0.8576481049504626,-8.954893658344915,-11.231566881140122,0.0,0.16055041513915083,0.1,0.0021991729736328125,0.04515981674194336,0.049113937,0.92110926,-11.654558189630354,0.03695338532728261,-0.08303544512507668,0.0,65,0.002599954605102539,0.9841766354837919,0.9841766354837919,3252,-4.629645285315325,0.0
43,0.8490440845489502,-12.552503807162406,0.9599908202923809,-11.25809526865553,-13.967084733805809,0.0,0.17532823289014138,0.1,0.0022492408752441406,0.04550790786743164,0.050138894,1.0833578,-11.744352751383559,-0.05790235484131562,-0.12726826147751094,0.0,73,0.004724740982055664,0.9868200515485006,0.9868200515485006,3325,-4.522659890185279,0.0
44,0.8493165969848633,-10.976702236780353,1.3309593091812713,-9.730219267124358,-13.206041619938464,0.0,0.18170155750954767,0.1,0.002274036407470703,0.045421600341796875,0.050495774,0.48767516,-11.667587699923239,-0.002873938867651465,-0.09872630363620882,0.0,67,0.0023581981658935547,0.9853576516217672,0.9853576516217672,3392,-4.439653750584951,0.0
45,0.8007028102874756,-10.766094768646841,2.666905501837915,-7.983511214954694,-14.264684296100494,0.0,0.15639092191668497,0.1,0.0023899078369140625,0.04509472846984863,0.05081522,0.73008674,-11.577438406795599,0.008615278276192677,-0.0953559875541156,0.0,63,0.002412557601928711,0.9859980710592737,0.9859980710592737,3455,-4.286008575635917,0.0
46,0.8063607215881348,-8.266924223398236,0.5343649036280422,-7.657659048951064,-9.011605311959414,0.0,0.15460259629838397,0.1,0.002253293991088867,0.044777631759643555,0.050347436,1.2975838,-11.246386988455862,0.10497209759806471,-0.05109448165085599,0.0,58,0.0030896663665771484,0.9808297494728073,0.9808297494728073,3513,-3.9996805127808144,0.0
47,0.796332836151123,-9.683362194873503,1.3965460022986467,-7.36428170646159,-10.94644730339809,0.0,0.17550045490834576,0.1,0.002233743667602539,0.045192718505859375,0.04960536,0.7196189,-11.090084509097625,0.04721806616453623,-0.0763149582662989,0.0,63,0.0024251937866210938,0.9836687666496252,0.9836687666496252,3576,-3.9956375451082082,0.0
48,0.7955191135406494,-8.084427420125156,0.7161889193618947,-7.2372112063690865,-9.20640921313657,0.0,0.1547933303450001,0.1,0.0022170543670654297,0.044626712799072266,0.050778583,0.8450054,-10.789518800200378,0.10972080746612076,-0.04857099664217421,0.0,55,0.0023603439331054688,0.9806777600779308,0.9806777600779308,3631,-3.93671504397974,0.0
49,0.8354654312133789,-9.672767002924573,2.9165506039272637,-7.886049133820595,-14.72235615902487,0.0,0.16037064921309693,0.1,0.0023071765899658203,0.047835588455200195,0.05086939,0.4926043,-10.677843620472798,0.058145414678472576,-0.07647073304058316,0.0,64,0.003239870071411133,0.9850045584125324,0.9850045584125324,3695,-4.033375087816991,0.0
50,0.8255939483642578,-9.113589023325861,1.1857945881282053,-7.90359193924212,-10.917161482195361,0.0,0.1585843111329418,0.1,0.0022373199462890625,0.04432201385498047,0.05141514,0.5301559,-10.521418160758104,0.07595741680195263,-0.06613090401499389,0.0,60,0.002736330032348633,0.9827802795121755,0.9827802795121755,3755,-3.8163810594850336,0.0
51,0.8674209117889404,-8.1076499798674,1.446091940239285,-6.876932820643921,-10.436038483856574,0.0,0.15881801311641253,0.1,0.0022592544555664062,0.045320749282836914,0.049165864,0.73427963,-10.280041342669033,0.1248062703207553,-0.04854403711878311,0.0,59,0.0035228729248046875,0.9814922513946664,0.9814922513946664,3814,-3.7738961875689156,0.0
52,0.8188307285308838,-7.9393671257067595,0.5671439180312052,-7.080323697922044,-8.579310688650306,0.0,0.15113387747546222,0.1,0.0022509098052978516,0.04522275924682617,0.051114295,1.0051558,-10.045973920972807,0.11848946011274727,-0.04618162580668046,0.0,55,0.002557039260864258,0.9803693795885261,0.9803693795885261,3869,-3.973330356087659,0.0
53,0.8549118041992188,-8.045217754781813,0.4970322420040987,-7.491738903063805,-8.57636062434494,0.0,0.17275554730683967,0.1,0.002226114273071289,0.04542660713195801,0.05047224,0.7479842,-9.845898304353707,0.11380291293099801,-0.0465763314164973,0.0,59,0.002483844757080078,0.9805735161360283,0.9805735161360283,3928,-4.004825702760344,0.0
54,0.8611068725585938,-7.907381564357657,0.627814646436817,-7.063619125327342,-8.809408262503274,0.0,0.14661110320969714,0.1,0.002198457717895508,0.044920921325683594,0.050993282,0.6864582,-9.652046630354102,0.11595618336086473,-0.045239148763795985,0.0,54,0.0026578903198242188,0.9802981302252266,0.9802981302252266,3982,-4.08019474541968,0.0
55,0.834989070892334,-8.86056763412834,0.7331041228227259,-8.179102060065823,-10.095820030751803,0.0,0.1552201874811921,0.1,0.0022742748260498047,0.0452580451965332,0.05086063,0.9555497,-9.572898730731525,0.06855772288390315,-0.06052835541446082,0.0,58,0.0029447078704833984,0.9823074113390774,0.9823074113390774,4040,-4.205281968220454,0.0
56,0.824073314666748,-7.552427984746412,1.1241493084299894,-6.2616458655465355,-9.342176655486817,0.0,0.13611687203917305,0.1,0.002201557159423828,0.04935097694396973,0.05097837,0.7207045,-9.370851656133015,0.13083717803417183,-0.03954016395328211,0.0,51,0.002625703811645508,0.9798200720223098,0.9798200720223098,4091,-4.272561223422103,0.0
57,0.8422741889953613,-8.017267482177527,0.9365758455656098,-7.076584784139297,-9.351024458918562,0.0,0.1549411216112029,0.1,0.002183198928833008,0.044127464294433594,0.04963901,1.0456852,-9.235493238737467,0.10789835910889832,-0.04729200200107937,0.0,57,0.0030722618103027344,0.9808175910098954,0.9808175910098954,4148,-4.301712966064399,0.0
58,0.8418996334075928,-8.71658025688551,1.2587221887876754,-7.335126909874684,-10.316721903010206,0.0,0.15857764120670506,0.1,0.002178192138671875,0.046218156814575195,0.049882136,0.7827736,-9.183601940552272,0.07739354406204772,-0.059250793392049764,0.0,59,0.0025856494903564453,0.982324630839405,0.982324630839405,4207,-4.3008955116633185,0.0
59,0.8425180912017822,-7.033782576522546,0.6221860228026359,-6.152841308867123,-7.879398520710709,0.0,0.14844699912212833,0.1,0.002125978469848633,0.043718814849853516,0.050259095,1.3877265,-8.9686200041493,0.16351278900683827,-0.030198957119282784,0.0,52,0.002299785614013672,0.9783531642527503,0.9783531642527503,4259,-4.240827787087165,0.0
60,0.8574879169464111,-9.504045218930477,2.5864071956942833,-7.34947216539177,-13.925216475263015,0.0,0.1655132456219744,0.1,0.0022072792053222656,0.047300100326538086,0.052204013,0.46830514,-9.022162525627419,0.06597148361774509,-0.07343302627489484,0.0,64,0.0026254653930664062,0.9846196174112275,0.9846196174112275,4323,-4.273259159860773,0.0
61,0.8502967357635498,-7.961583496450476,0.6001479390356791,-7.101350141552468,-8.791916715656301,0.0,0.14703726244298665,0.1,0.0021562576293945312,0.043940067291259766,0.049804848,1.2522669,-8.916104622709724,0.11107746270462292,-0.046125719119357936,0.0,54,0.002592802047729492,0.9802264924219047,0.9802264924219047,4377,-4.401827613687125,0.0
62,0.7915518283843994,-8.209094266730956,1.4848336367613422,-5.879267504241475,-9.930078533107757,0.0,0.13865004515337803,0.1,0.002270221710205078,0.04489755630493164,0.05078653,1.0232632,-8.845403587111848,0.11682106131717296,-0.05083656274352452,0.0,58,0.002355813980102539,0.9813503750687862,0.9813503750687862,4435,-4.183378059723509,0.0
63,0.8064072132110596,-7.882869523340227,1.0874912112383401,-6.7497541863878565,-9.048698051220722,0.0,0.15180265547893967,0.1,0.0022513866424560547,0.04456806182861328,0.049844127,0.869842,-8.749150180734686,0.12608702838360658,-0.04400758887898648,0.0,57,0.0029528141021728516,0.9804181595098922,0.9804181595098922,4492,-4.189072218123776,0.0
64,0.7863960266113281,-7.153544332279529,0.8482570916051011,-6.1601561361867105,-8.430896401197234,0.0,0.14113494227726603,0.1,0.002212047576904297,0.04452085494995117,0.050431903,0.81201947,-8.589589595889171,0.1540358043328815,-0.03241816115077912,0.0,54,0.002809286117553711,0.9784914323809865,0.9784914323809865,4546,-4.028120938606299,0.0
65,0.791724681854248,-8.019607192648934,0.3594284061731593,-7.458320862639297,-8.449986173619473,0.0,0.13930416026886042,0.1,0.0025942325592041016,0.04453611373901367,0.049603634,3.0136933,-8.532591355565147,0.10785372131228217,-0.0465764401144577,0.0,57,0.0025091171264648438,0.9803284834626775,0.9803284834626775,4603,-4.191348749179432,0.0
66,0.7944409847259521,-7.392703633689554,1.4011649167201512,-5.403163386649979,-9.3438186557727,0.0,0.1437474115996792,0.1,0.002170085906982422,0.04423069953918457,0.0497525,1.382442,-8.418602583377588,0.15192973884498479,-0.036640619652353636,0.0,54,0.002489328384399414,0.9798813346052259,0.9798813346052259,4657,-4.102169321837093,0.0
67,0.8031654357910156,-7.155604316138881,0.6198929128029445,-6.306974742803161,-8.04008463081199,0.0,0.14586331483510573,0.1,0.0022301673889160156,0.04428911209106445,0.050931137,1.0670911,-8.292302756653717,0.15636408639891883,-0.03268397409705966,0.0,53,0.0024161338806152344,0.9784416719144354,0.9784416719144354,4710,-3.970225538309529,0.0
68,0.8070271015167236,-7.342567967603593,0.6455900879240988,-6.697036621216807,-8.08908190121187,0.0,0.15173350384322865,0.1,0.0025517940521240234,0.04907965660095215,0.04916851,0.92361903,-8.197329277748704,0.14618446847557037,-0.03545704819793908,0.0,54,0.002804994583129883,0.9790220020632409,0.9790220020632409,4764,-4.109875127409219,0.0
69,0.8425924777984619,-8.630602933846996,1.314342540505073,-6.808753924071982,-9.934795749063515,0.0,0.14475603692078684,0.1,0.0021619796752929688,0.04490089416503906,0.049762756,1.2402354,-8.240656643358534,0.09127511875748068,-0.058307367968313345,0.0,59,0.0023512840270996094,0.9822229575207736,0.9822229575207736,4823,-4.116065500008957,0.0
70,0.812741756439209,-7.661579105056256,0.9532630388909956,-6.384926236523538,-9.060395220768658,0.0,0.1577691786162235,0.1,0.002148866653442383,0.04408144950866699,0.049993116,0.85638607,-8.182748889528307,0.12564390681786,-0.04060955230065455,0.0,56,0.004614353179931641,0.9798073206948966,0.9798073206948966,4879,-3.9893208750808786,0.0
71,0.8115420341491699,-7.890564176963512,1.6318249117878507,-5.930825051813679,-10.149821667330748,0.0,0.1365973791281049,0.1,0.002164125442504883,0.047780513763427734,0.050620016,1.163676,-8.153530418271828,0.1186556921517098,-0.044583005236129666,0.0,54,0.002542257308959961,0.981233240934693,0.981233240934693,4933,-3.9664548469742993,0.0
72,0.8248357772827148,-7.220394877005486,0.8627848607936123,-6.432368636441887,-8.564775446267834,0.0,0.15965169727687367,0.1,0.0023000240325927734,0.04460930824279785,0.05103908,0.71359605,-8.060216864145193,0.149113924123634,-0.032698320587205364,0.0,53,0.0029523372650146484,0.9790329517405383,0.9790329517405383,4986,-3.9604106890601134,0.0
73,0.8285365104675293,-7.232807327214113,1.2192698627128638,-5.961762676965615,-8.809164551310431,0.0,0.13766229648770206,0.1,0.0023069381713867188,0.04419302940368652,0.050626297,1.3626914,-7.977475910452085,0.13643490199057323,-0.03362845930176013,0.0,52,0.002458333969116211,0.978967696033746,0.978967696033746,5038,-4.070736107339795,0.0
74,0.8172531127929688,-7.372084717461583,0.5450585713161838,-6.627376488319177,-8.12256358213708,0.0,0.13123085448885358,0.1,0.0021593570709228516,0.047121286392211914,0.05021735,2.1231055,-7.916936791153035,0.132414230657051,-0.03578237264020802,0.0,53,0.0024919509887695312,0.9791879828452349,0.9791879828452349,5091,-4.068485981007753,0.0
75,0.8310024738311768,-7.389483780742966,1.010037220203651,-6.203831436329369,-8.507750475663633,0.0,0.14823515712276406,0.1,0.0027184486389160156,0.0499424934387207,0.049373627,1.0584621,-7.864191490112029,0.14107567323577466,-0.03531238999941367,0.0,54,0.002459287643432617,0.9796079097381519,0.9796079097381519,5145,-4.03078953193917,0.0
76,0.8420031070709229,-8.083662293682485,1.5881632940680304,-6.046462897474395,-10.1988360338041,0.0,0.1419568488474457,0.1,0.0026235580444335938,0.044327497482299805,0.049222294,1.1547995,-7.8861385704690745,0.1138411413152757,-0.04823864902586129,0.0,57,0.002370595932006836,0.9817090713820423,0.9817090713820423,5202,-4.047686920563913,0.0
77,0.7963361740112305,-7.309530600141231,0.6877085833259954,-6.2699950056513165,-8.127551173052332,0.0,0.1500794314018479,0.1,0.002360820770263672,0.044579267501831055,0.049170595,2.022886,-7.8284777734362905,0.13749942985255503,-0.03463743244885684,0.0,52,0.0030183792114257812,0.9791527294062774,0.9791527294062774,5254,-4.11442300814359,0.0
78,0.7949011325836182,-6.939524785965053,0.9852330787738472,-5.931024826779672,-8.555821465410485,0.0,0.14023775993591905,0.1,0.002664804458618164,0.04426980018615723,0.05179703,0.7935563,-7.739582474689167,0.1553612569111946,-0.027818102523770726,0.0,51,0.002533435821533203,0.9786372853121729,0.9786372853121729,5305,-4.311203851848696,0.0
79,0.7988111972808838,-6.991616046941816,0.3964872067616318,-6.667044575563875,-7.656149762621877,0.0,0.14540139559984788,0.1,0.0022530555725097656,0.044496774673461914,0.049877822,1.1653056,-7.664785831914432,0.1459738660837115,-0.02971899009551191,0.0,53,0.0027551651000976562,0.9780625166138144,0.9780625166138144,5358,-4.3012509481256505,0.0
80,0.7970478534698486,-6.507836066664973,0.7573049732915269,-5.591088015414706,-7.645835807560811,0.0,0.14767730315166536,0.1,0.0021610260009765625,0.04423713684082031,0.049343463,0.97139174,-7.549090855389486,0.1806997165907087,-0.021286353181813156,0.0,50,0.0024886131286621094,0.9767809922323507,0.9767809922323507,5408,-4.256538598493575,0.0
81,0.8027749061584473,-7.279509766316115,0.45270830110377125,-6.592459356847428,-7.864570061190934,0.0,0.15778946239140124,0.1,0.002207517623901367,0.044834136962890625,0.049630716,0.8028788,-7.522132746482148,0.14578415288637994,-0.03424340058196279,0.0,54,0.0022041797637939453,0.9789019716755679,0.9789019716755679,5462,-4.283596576909509,0.0
82,0.8005945682525635,-6.7085450910756865,0.8874907993161628,-5.387103031079083,-7.715681517955416,0.0,0.1492361150646245,0.1,0.0021839141845703125,0.0442659854888916,0.04951317,0.802921,-7.440773980941502,0.16924991885745536,-0.024170617561249372,0.0,52,0.0027115345001220703,0.9778046377764961,0.9778046377764961,5514,-4.258955141097101,0.0
83,0.8155951499938965,-6.9677686223532955,0.8840013931638936,-5.780840791662184,-8.227885844530363,0.0,0.15844788077618455,0.1,0.002727985382080078,0.04525589942932129,0.050156396,0.83494735,-7.393473445082682,0.15480030784616802,-0.02858971533710616,0.0,53,0.0025110244750976562,0.9784821201065421,0.9784821201065421,5567,-4.116403194839719,0.0
84,0.8535604476928711,-6.662529047612327,0.2612664454691677,-6.310334407811973,-7.047193520497264,0.0,0.1407963824594217,0.1,0.0022842884063720703,0.04515528678894043,0.049222965,2.1543255,-7.3203790053356474,0.16703127890755234,-0.022782488346854604,0.0,55,0.0026438236236572266,0.9774223226279894,0.9774223226279894,5622,-4.132244089443057,0.0
85,0.8246207237243652,-6.268146100765779,0.4589117589032658,-5.699238846389951,-6.829855449222171,0.0,0.14148841401975346,0.1,0.00218963623046875,0.04505109786987305,0.050271723,1.1607039,-7.215155714878661,0.1857278031318219,-0.017375060521851664,0.0,52,0.0024139881134033203,0.9757524320028591,0.9757524320028591,5674,-3.9492997094329634,0.0
86,0.821601390838623,-6.481755995913567,0.643345103419374,-5.9613180646973545,-7.557149290657071,0.0,0.16518231545042492,0.1,0.0021615028381347656,0.04417753219604492,0.049977288,0.7443375,-7.141815742982152,0.1873078516159273,-0.020706678263753234,0.0,53,0.002342700958251953,0.9770731872344666,0.9770731872344666,5727,-4.006589149404095,0.0
87,0.8859705924987793,-7.133392347768331,0.9722336973575809,-5.644867727428704,-8.017831955142828,0.0,0.15501451453390233,0.1,0.0021452903747558594,0.047086238861083984,0.050547134,0.8185377,-7.1409734034607695,0.1558092746821342,-0.031291218670093025,0.0,56,0.0022618770599365234,0.9788751735249519,0.9788751735249519,5783,-4.103873030935014,0.0
88,0.8221888542175293,-6.682462057645552,0.27376961864346444,-6.388083551707233,-7.042290620525059,0.0,0.13731222924574324,0.1,0.002143383026123047,0.04382205009460449,0.04967316,2.1060073,-7.095122268879249,0.16960429717167863,-0.02482668189091771,0.0,51,0.002299785614013672,0.9771888919137188,0.9771888919137188,5834,-3.9471026043687023,0.0
89,0.8244967460632324,-6.515840989057873,0.5508950705383273,-5.6901251409595375,-7.065415899317436,0.0,0.14755651375137624,0.1,0.0021402835845947266,0.04428243637084961,0.04933229,1.4808507,-7.037194140897111,0.1804827494168764,-0.021022607978359784,0.0,53,0.0021975040435791016,0.9769413599667517,0.9769413599667517,5887,-3.737175637075872,0.0
90,0.8294980525970459,-6.064249088045261,0.2709250180660212,-5.70735642231301,-6.353095306760086,0.0,0.13920510110653067,0.1,0.002153158187866211,0.048210859298706055,0.048684347,1.0999255,-6.939899635611926,0.21155838421515094,-0.01392454859760946,0.0,50,0.004353761672973633,0.9751908016044736,0.9751908016044736,5937,-3.746895560437315,0.0
91,0.8438668251037598,-6.841514166616733,0.7566270926173513,-5.816518207312939,-7.78134864404622,0.0,0.14694898390734004,0.1,0.0024619102478027344,0.04461956024169922,0.04996186,1.300546,-6.930061088712407,0.17066723426218122,-0.026331803025847634,0.0,54,0.0028123855590820312,0.9778969218570192,0.9778969218570192,5991,-3.780752506529373,0.0
92,0.7843711376190186,-6.296822030449773,0.5686712481232816,-5.548141935935229,-7.101929512725057,0.0,0.1577682610680481,0.1,0.0026717185974121094,0.04447507858276367,0.051286772,0.85375994,-6.866737182886143,0.18936724092150822,-0.01706780671504623,0.0,50,0.002644062042236328,0.9765057401042754,0.9765057401042754,6041,-3.738528780198352,0.0
93,0.793656587600708,-6.075178379554725,0.43683507696161195,-5.447372851245102,-6.59746590188597,0.0,0.13942414314604235,0.1,0.002254009246826172,0.04406929016113281,0.0495794,1.408878,-6.787581302553002,0.2009030645878152,-0.01396044739126584,0.0,49,0.002308368682861328,0.9753395177357387,0.9753395177357387,6090,-3.477645457830569,0.0
94,0.7958264350891113,-6.528039392037993,0.3975864558356459,-5.931755157715487,-6.923730066197971,0.0,0.13714110585533898,0.1,0.002706766128540039,0.04445385932922363,0.049608596,1.5496148,-6.761627111501501,0.18263979101332395,-0.0212623990075428,0.0,52,0.0027055740356445312,0.9767905566659784,0.9767905566659784,6142,-3.6807321342331902,0.0
95,0.797767162322998,-6.212375134672408,0.48611765865530043,-5.7807807337428745,-6.965415737021787,0.0,0.1459041379500512,0.1,0.0021746158599853516,0.04415249824523926,0.049900617,1.7245828,-6.706701913818592,0.19798639476387336,-0.015936693534668724,0.0,51,0.002624988555908203,0.9758844909636191,0.9758844909636191,6193,-3.4854632136347026,0.0
96,0.7974674701690674,-6.296282497507475,0.8998310952842746,-5.128365941216415,-7.272751245647745,0.0,0.13025844136078327,0.1,0.00218963623046875,0.04431295394897461,0.048621934,2.4394548,-6.6656599721874805,0.19251141457078927,-0.01701413023229255,0.0,54,0.002554178237915039,0.9764423480409915,0.9764423480409915,6247,-3.4314152909347833,0.0
97,0.7999649047851562,-6.512766995032747,0.3651025477566849,-5.956531689937243,-6.944173352587232,0.0,0.13848931415824262,0.1,0.002177715301513672,0.04375338554382324,0.05102112,1.8499302,-6.650370674472008,0.17382992142979975,-0.021491477424037307,0.0,51,0.002232074737548828,0.9769286057918383,0.9769286057918383,6298,-3.716429424193812,0.0
98,0.795832633972168,-6.276108310604377,0.20782812453428676,-5.916719556334588,-6.406719982870728,0.0,0.13924904193607424,0.1,0.002788066864013672,0.04390430450439453,0.04950909,1.1178124,-6.612944438085245,0.18669861212388966,-0.017421918079483106,0.0,51,0.0025768280029296875,0.9760329660069543,0.9760329660069543,6349,-4.027566798146721,0.0
99,0.8459334373474121,-6.459853626760569,0.5369416457681523,-5.591106057139208,-7.011667679465834,0.0,0.13093591814230038,0.1,0.00218963623046875,0.04369163513183594,0.04913498,5.5321093,-6.597635356952778,0.18865716816555733,-0.020486802236587148,0.0,50,0.0025587081909179688,0.9766488296951409,0.9766488296951409,6399,-4.0443531303194655,0.0
100,0.8172945976257324,-6.35077467171518,0.7018137435272856,-5.526986218261084,-7.234205765396992,0.0,0.1234374017832114,0.1,0.002214193344116211,0.04368090629577637,0.049378816,3.1016202,-6.572949288429019,0.18725659339606437,-0.019588790383292965,0.0,51,0.0022826194763183594,0.9763285957241614,0.9763285957241614,6450,-3.9747104921642045,0.0
101,0.8157668113708496,-6.010075601614044,0.16563486627430013,-5.833547856246041,-6.180104804820461,0.0,0.15373655468577074,0.1,0.0022058486938476562,0.04377913475036621,0.05015924,0.9169164,-6.516661919747522,0.20557744038236256,-0.012535606176775719,0.0,50,0.0026001930236816406,0.9752860645305408,0.9752860645305408,6500,-3.972777841283586,0.0
102,0.803398847579956,-6.540754143495114,0.8824472601056393,-5.53402729727578,-7.9181381229385455,0.0,0.15070805247674784,0.1,0.0026328563690185547,0.044431209564208984,0.050054617,0.7391777,-6.519071142122281,0.17243425944325352,-0.02166461421565475,0.0,51,0.0026369094848632812,0.9771761061973347,0.9771761061973347,6551,-3.8524623996434193,0.0
103,0.8037755489349365,-6.673527482773817,1.3124968667112618,-5.644025174695211,-8.876594445350818,0.0,0.146201232889757,0.1,0.0022089481353759766,0.04452109336853027,0.051108934,0.582424,-6.534516776187435,0.1825125086635891,-0.023424185441023513,0.0,54,0.002348661422729492,0.9780958272976796,0.9780958272976796,6605,-3.7922770895681723,0.0
104,0.8087904453277588,-6.3560450107058415,0.5370336926414773,-5.903401939152832,-7.263823648992508,0.0,0.13265648275182926,0.1,0.002559661865234375,0.0442500114440918,0.050442126,1.7592577,-6.516669599639275,0.17727293423029694,-0.018245339418227282,0.0,49,0.003103017807006836,0.9763943222465795,0.9763943222465795,6654,-3.944987261952108,0.0
105,0.8074290752410889,-5.677513327646385,0.26279091551350975,-5.407797238231677,-6.099068306461691,0.0,0.13262412961840922,0.1,0.0014276504516601562,0.026166915893554688,0.050537765,1.2593584,-6.432753972439986,0.22170745462511804,-0.007316379304510956,0.0,48,0.002121448516845703,0.974089582390432,0.974089582390432,6702,-3.9587337801097946,0.0
106,0.8125381469726562,-5.696165350996652,0.23641641720980383,-5.442821839489268,-6.082714593422881,0.0,0.14127208286784892,0.1,0.0013630390167236328,0.02629709243774414,0.05100426,1.8222622,-6.3590951102956526,0.22486018143281508,-0.008313040747140874,0.0,48,0.0020804405212402344,0.9739703049252466,0.9739703049252466,6750,-3.7910907063729815,0.0
107,0.7825322151184082,-5.710541965083736,0.20077397002404246,-5.414717895911724,-5.914815962616309,0.0,0.13211825426778917,0.1,0.0014770030975341797,0.02696084976196289,0.04883536,1.7134582,-6.294239795774461,0.22045540022743626,-0.008288372517534254,0.0,47,0.0021674633026123047,0.9740466762151481,0.9740466762151481,6797,-3.886916957816323,0.0
108,0.788874626159668,-5.964429777968384,0.5982079745970234,-5.093766457375037,-6.783451587943201,0.0,0.1472885486892611,0.1,0.002359151840209961,0.044788360595703125,0.048986416,1.0203178,-6.2612587939938535,0.20478942594356528,-0.011203945038786736,0.0,53,0.0027081966400146484,0.9753245265613102,0.9753245265613102,6850,-3.819091331464153,0.0
109,0.7975633144378662,-5.703474599197674,0.364328866675566,-5.224078163244434,-6.2367693234170245,0.0,0.14176760747961373,0.1,0.0014891624450683594,0.02663707733154297,0.04868244,1.2050347,-6.205480374514235,0.21583211319571308,-0.007355947245441984,0.0,48,0.002338409423828125,0.9745258107110532,0.9745258107110532,6898,-3.74676265161377,0.0
110,0.7999505996704102,-5.7906454883262946,0.24722253611382736,-5.5266749269550255,-6.182633892738059,0.0,0.14467749777408134,0.1,0.0021848678588867188,0.044060468673706055,0.050173208,1.0745883,-6.1639968858954415,0.20886636898939806,-0.009213535149125205,0.0,49,0.003074169158935547,0.9745275227244915,0.9745275227244915,6947,-3.463524880382837,0.0
111,0.8070394992828369,-5.938010098199488,0.3380542856957535,-5.500894853018884,-6.421654436419217,0.0,0.13471061270562362,0.1,0.0014362335205078125,0.025529861450195312,0.049231436,1.5320759,-6.141398207125846,0.1969208495123977,-0.011458787630165907,0.0,47,0.0021545886993408203,0.9750591924606362,0.9750591924606362,6994,-3.6798652536788103,0.0
112,0.8075840473175049,-5.928408673990479,0.5045056933003825,-5.459753711520465,-6.779967072112507,0.0,0.13776104442256812,0.1,0.0022830963134765625,0.04378795623779297,0.04777887,1.2121985,-6.120099253812309,0.20484115195421526,-0.011984584660272482,0.0,49,0.003106832504272461,0.9750587053429668,0.9750587053429668,7043,-3.5514860046476513,0.0
113,0.8056261539459229,-5.776451450647021,0.1282978485890363,-5.6379359550326456,-5.986291817206459,0.0,0.13590902995941764,0.1,0.0013928413391113281,0.02592182159423828,0.049330253,1.0932276,-6.08573447349578,0.21259733690508295,-0.009183407603656707,0.0,47,0.002478361129760742,0.9743331592788187,0.9743331592788187,7090,-3.476060452509793,0.0
114,0.8521749973297119,-5.788339806962083,0.23016246401173343,-5.473528450098395,-6.123798382526072,0.0,0.12414375383993194,0.1,0.0014138221740722656,0.02665424346923828,0.049010623,1.7681001,-6.05599500684241,0.20476153882487547,-0.009390976273797124,0.0,48,0.0022275447845458984,0.9744228470884093,0.9744228470884093,7138,-3.508776569574183,0.0
115,0.8342547416687012,-5.6445660213934605,0.3460526964463229,-5.0844673781824445,-6.000265005703223,0.0,0.13324755441096597,0.1,0.002145528793334961,0.047904253005981445,0.049979288,1.4334605,-6.014852108297516,0.22589648934410994,-0.0066440146109669595,0.0,49,0.0023636817932128906,0.9736894842618256,0.9736894842618256,7187,-3.379242239396128,0.0
116,0.8447654247283936,-5.727728018922575,0.7101598956049014,-5.194437294830175,-6.936238238783311,0.0,0.13574832318352822,0.1,0.002361774444580078,0.04421067237854004,0.04984919,1.5105809,-5.986139699360022,0.2183759320374853,-0.008307368918237957,0.0,50,0.002274036407470703,0.9747686238125275,0.9747686238125275,7237,-3.343191757684141,0.0
117,0.8249502182006836,-6.013337627769,0.22952336971518175,-5.691634900145006,-6.324470326653754,0.0,0.14294759698269038,0.1,0.0025610923767089844,0.04381155967712402,0.05004549,1.2233102,-5.98885949220092,0.19973095133878846,-0.01251916212953858,0.0,52,0.0030050277709960938,0.9752065675485713,0.9752065675485713,7289,-3.369747983715236,0.0
118,0.8244946002960205,-5.54829985713921,0.20238836121315212,-5.322778554747142,-5.8440822531270165,0.0,0.12349748843512023,0.1,0.0025475025177001953,0.04344630241394043,0.050030354,1.4203042,-5.944803528694749,0.22813795379448967,-0.005071697848953203,0.0,49,0.002541065216064453,0.9734859233866155,0.9734859233866155,7338,-3.235478245613853,0.0
119,0.8262712955474854,-5.700707924387015,0.2760216781848436,-5.43563344290928,-6.1010628128910875,0.0,0.13647407399232175,0.1,0.0022411346435546875,0.043650150299072266,0.050385702,1.4424105,-5.9203939682639755,0.21872196076429173,-0.007845511225232868,0.0,49,0.0024995803833007812,0.9741723132523268,0.9741723132523268,7387,-3.229624369468709,0.0
120,0.8272936344146729,-5.629605871035132,0.27242560265639165,-5.245062724444771,-5.965388031736534,0.0,0.13065232423987702,0.1,0.002177000045776367,0.04387044906616211,0.04941891,2.5135112,-5.891315158541091,0.21317650466540078,-0.006392495489198743,0.0,51,0.0027458667755126953,0.9736665554778241,0.9736665554778241,7438,-3.2912617798737718,0.0
121,0.823472261428833,-5.825616999855716,0.6680682650385988,-5.317373151546882,-6.9743497908098195,0.0,0.13127222888782672,0.1,0.0022132396697998047,0.04666447639465332,0.049937338,1.0182896,-5.884745342672554,0.20707663089789866,-0.009983558704160428,0.0,49,0.002653837203979492,0.9746420171541975,0.9746420171541975,7487,-3.3101097326395235,0.0
122,0.8382265567779541,-5.793221399264315,0.6189406351928997,-5.02545151574923,-6.704615809156584,0.0,0.14015177113808372,0.1,0.002496480941772461,0.043623924255371094,0.050032347,0.9668872,-5.875592948331731,0.2123630661567816,-0.009070378657502265,0.0,49,0.002455472946166992,0.974428916864866,0.974428916864866,7536,-3.3159749983363276,0.0
123,0.7824265956878662,-5.431618736438479,0.2726388503651789,-5.011800607560522,-5.683163932051108,0.0,0.1342193835261453,0.1,0.0014369487762451172,0.026139259338378906,0.050334398,1.204812,-5.831195527142405,0.22767088488919862,-0.0036598561077242917,0.0,46,0.0023775100708007812,0.9731198572817641,0.9731198572817641,7582,-3.3651767755717246,0.0
124,0.7891898155212402,-5.676194737749167,0.30275189553032866,-5.275448769247176,-6.041066235836212,0.0,0.1380028968177801,0.1,0.002241849899291992,0.044533491134643555,0.049185768,1.4868039,-5.815695448203082,0.22061816063598924,-0.007979488889915379,0.0,53,0.0025179386138916016,0.9736150815236851,0.9736150815236851,7635,-3.256364350073318,0.0
125,0.7813866138458252,-5.6893051095353595,0.35325960997403555,-5.108339601412235,-6.056066519858568,0.0,0.15235501856729594,0.1,0.0022563934326171875,0.044246673583984375,0.05031562,1.1061523,-5.80305641433631,0.22261189321664115,-0.0076571519970606225,0.0,51,0.0023577213287353516,0.974188513582421,0.974188513582421,7686,-3.27660849660136,0.0
126,0.7865822315216064,-5.468575665977167,0.5094394405634161,-4.594226219226098,-5.818874089655492,0.0,0.1314685224359583,0.1,0.0014443397521972656,0.026287078857421875,0.049129248,1.4931144,-5.769608339500396,0.22572792848593218,-0.004153809792762848,0.0,46,0.002206563949584961,0.9733314042474897,0.9733314042474897,7732,-3.288604822866546,0.0
127,0.7896068096160889,-5.8793258439183145,0.21955951959748335,-5.619312938436153,-6.220515654535524,0.0,0.14423620385601105,0.1,0.002212047576904297,0.04617762565612793,0.049342513,1.1458267,-5.7805800899421875,0.20596323236030237,-0.010988948540120658,0.0,50,0.0024580955505371094,0.9747260659175855,0.9747260659175855,7782,-3.3820577316146383,0.0
128,0.798072099685669,-6.186627752135862,0.65165800690251,-5.065540701600495,-6.680268750967396,0.0,0.1399207568374729,0.1,0.002607583999633789,0.0449519157409668,0.049673498,1.5393357,-5.821184856161556,0.2021829120281726,-0.015969224895787792,0.0,53,0.0031766891479492188,0.9756153249754976,0.9756153249754976,7835,-3.3408337070482568,0.0
129,0.8172214031219482,-5.5223972018035035,0.48298705176983575,-4.828760291158065,-6.1120655877756445,0.0,0.1411014009880571,0.1,0.0015187263488769531,0.02676105499267578,0.049885843,1.1152345,-5.79130609072575,0.226692271885567,-0.005323613442848044,0.0,48,0.0022423267364501953,0.9734434422697318,0.9734434422697318,7883,-3.2766003903855476,0.0
130,0.8388485908508301,-5.3165184547926305,0.42688106727591535,-4.846063847850841,-5.811621917970236,0.0,0.13957274997314378,0.1,0.002264738082885742,0.04496335983276367,0.047661964,1.4047834,-5.743827327132438,0.2400942261383735,-0.001154739426136166,0.0,52,0.0030241012573242188,0.9724251247671206,0.9724251247671206,7935,-3.213994562799542,0.0
131,0.8092858791351318,-5.2387601363704075,0.38992225668361824,-4.754188319037969,-5.8364695275134615,0.0,0.14280878027220573,0.1,0.002176523208618164,0.04523777961730957,0.0492276,0.91176677,-5.693320608056235,0.2411337278842436,0.0011326912081458206,0.0,49,0.0025026798248291016,0.9727751617875107,0.9727751617875107,7984,-3.1780895567475658,0.0
132,0.8158540725708008,-6.117745565259478,0.6109864827897699,-5.437172748237912,-6.923316897001527,0.0,0.1405483214610522,0.1,0.005945682525634766,0.044733285903930664,0.048889402,1.410181,-5.735763103776559,0.2013485638719809,-0.014371607253592525,0.0,53,0.0026617050170898438,0.9758084407983894,0.9758084407983894,8037,-3.189450399657732,0.0
133,0.8256030082702637,-5.249018681908376,0.5992242815502472,-4.438192052627276,-6.089722547135009,0.0,0.13139440222369375,0.1,0.0022759437561035156,0.04391789436340332,0.049695052,1.5952241,-5.6870886615897405,0.24426364645116352,-0.00024278843091653148,0.0,51,0.0023314952850341797,0.9722980470979897,0.9722980470979897,8088,-3.0847307748397,0.0
134,0.8297092914581299,-5.75411863998773,0.4273954001108024,-5.048089508167914,-6.195519204134239,0.0,0.14026096438972716,0.1,0.002172708511352539,0.043793678283691406,0.05026448,1.5665807,-5.6937916594295395,0.22080528515069756,-0.009069793103927252,0.0,50,0.0023474693298339844,0.9744408269760712,0.9744408269760712,8138,-2.990896510245785,0.0
135,0.8398551940917969,-5.628812469718332,0.5287844337373752,-4.915054585614259,-6.243505492265074,0.0,0.1562983310631349,0.1,0.0021734237670898438,0.044791221618652344,0.049772263,1.7046666,-5.6872937404584185,0.22405010597914288,-0.006939196977795536,0.0,51,0.0024788379669189453,0.9737171921812361,0.9737171921812361,8189,-2.9995443003078273,0.0
136,0.8056323528289795,-5.4426627730059804,0.5107327486397376,-4.8148384804751645,-6.104747403914138,0.0,0.14592765547668773,0.1,0.0024437904357910156,0.04505658149719238,0.049649287,1.0036612,-5.662830643713175,0.23570938177301243,-0.004153360689495796,0.0,49,0.002529144287109375,0.9730917722671568,0.9730917722671568,8238,-3.0358738280160575,0.0
137,0.7967963218688965,-5.270595666122048,0.40424465392467807,-4.66501324695433,-5.74603177882947,0.0,0.15292470077856463,0.1,0.0024738311767578125,0.0448918342590332,0.048850715,1.0229408,-5.623607145954062,0.2472192551390324,-0.00031342556644302594,0.0,49,0.002500295639038086,0.9725121013417364,0.9725121013417364,8287,-3.00390563208718,0.0
138,0.813530683517456,-5.35634869578608,0.43581256889554665,-4.874400097680396,-6.037185543246613,0.0,0.15314247256081118,0.1,0.0022470951080322266,0.04543709754943848,0.051319927,0.85631996,-5.596881300937264,0.2369950782381629,-0.0018959147284847557,0.0,49,0.002477884292602539,0.9728038790816868,0.9728038790816868,8336,-3.0583647597839074,0.0
139,0.8336505889892578,-4.788243622415588,0.5155539063037227,-4.015281158064017,-5.417210698789772,0.0,0.16056583910134475,0.1,0.002627134323120117,0.04511380195617676,0.050318684,0.8559423,-5.516017533085097,0.2668548287583459,0.006953035801387823,0.0,52,0.0027246475219726562,0.9700375259488639,0.9700375259488639,8388,-3.0490141712573933,0.0
140,0.8013608455657959,-5.567268375832198,0.25088381046349406,-5.313054402475826,-5.983992697321513,0.0,0.1472695604221203,0.1,0.002240419387817383,0.04485201835632324,0.048558526,1.0592959,-5.521142617359807,0.22796964986164991,-0.006323600052352572,0.0,50,0.002536773681640625,0.973267576764574,0.973267576764574,8438,-3.0653306285744555,0.0
141,0.7993595600128174,-5.534894111599131,0.43744034284647126,-5.149218490187626,-6.2379687897216645,0.0,0.1330377616844832,0.1,0.002177715301513672,0.04403328895568848,0.04962846,1.2479919,-5.522517766783739,0.23070915433225656,-0.0054768171135203235,0.0,50,0.0031211376190185547,0.973455135087603,0.973455135087603,8488,-3.1039362878452725,0.0
142,0.7986395359039307,-5.753702624882633,0.5479302716035565,-5.229543041183398,-6.53166768612064,0.0,0.15238266490037272,0.1,0.002209186553955078,0.044332027435302734,0.049018845,0.87156063,-5.545636252593629,0.2220753199494877,-0.009302251353196912,0.0,51,0.002337217330932617,0.9743673566509506,0.9743673566509506,8539,-3.092317208957231,0.0
143,0.8032853603363037,-5.666502636485662,0.1938213789669425,-5.364865858495547,-5.854585898943375,0.0,0.14600349263915163,0.1,0.0021905899047851562,0.04754137992858887,0.047236003,1.1651342,-5.5577228909828325,0.23905672725937727,-0.0073995511309261856,0.0,55,0.0025703907012939453,0.9737790038203845,0.9737790038203845,8594,-2.7070635945139965,0.0
144,0.8169505596160889,-5.39686014185452,0.3376350838521213,-5.056635075775367,-5.9039001606142465,0.0,0.13233054845001116,0.1,0.0021550655364990234,0.04393577575683594,0.0504913,0.88356066,-5.541636616070001,0.2404614327769445,-0.0023475020910850926,0.0,50,0.0025892257690429688,0.9730486544800786,0.9730486544800786,8644,-2.724253131862693,0.0
145,0.8542149066925049,-5.774058209960955,0.541568123788225,-5.0701808485385484,-6.414860345096054,0.0,0.14024027845628126,0.1,0.002187967300415039,0.04420757293701172,0.049903188,0.80789316,-5.564878775459096,0.21992690196133396,-0.009018497591445674,0.0,55,0.0024776458740234375,0.9743485675262707,0.9743485675262707,8699,-2.767510580749581,0.0
146,0.8195266723632812,-5.339210899712445,0.30170967374786833,-4.930217496568341,-5.721387474169328,0.0,0.1412743617367766,0.1,0.00215911865234375,0.044020891189575195,0.04914458,1.6533595,-5.542311987884431,0.2525656515519037,-0.0016918042554487495,0.0,52,0.0028438568115234375,0.9729123796443929,0.9729123796443929,8751,-2.7225526200117316,0.0
147,0.8221120834350586,-4.980758266839565,0.3414841648742372,-4.434462982801127,-5.376394528123513,0.0,0.14643579823582983,0.1,0.002309083938598633,0.04396367073059082,0.049380373,0.9029063,-5.486156615779945,0.267103121495627,0.004619725420711497,0.0,54,0.0028803348541259766,0.971235858359691,0.971235858359691,8805,-2.686305708450916,0.0
148,0.8217735290527344,-5.425991205024765,0.9083018836083625,-3.8790374942042085,-6.189012838278633,0.0,0.14412123703840515,0.1,0.002118825912475586,0.04945659637451172,0.049220085,1.1873624,-5.480140074704427,0.24648961246553008,-0.003142146321829415,0.0,55,0.0025835037231445312,0.9734623975566428,0.9734623975566428,8860,-2.400538676398337,0.0
149,0.8319180011749268,-4.77331522267659,0.4519855556070407,-4.2435805680403345,-5.470706779309636,0.0,0.14112830046276456,0.1,0.00214385986328125,0.04381108283996582,0.046770845,1.038671,-5.409457589501644,0.26721464462594385,0.008058627869121187,0.0,54,0.002597808837890625,0.9700968543698886,0.9700968543698886,8914,-2.323223541861572,0.0
150,0.8425507545471191,-5.105386574272226,0.2764564607755232,-4.888756296145112,-5.579593034714676,0.0,0.14033182631026922,0.1,0.0022559165954589844,0.043786048889160156,0.050609,0.79475486,-5.379050487978702,0.25878975321876485,0.0018701837022583713,0.0,52,0.0023598670959472656,0.9715358544349326,0.9715358544349326,8966,-2.313246367249527,0.0
151,0.8159067630767822,-5.476150164512083,0.27112020703213546,-5.034119286522748,-5.772510144293134,0.0,0.1444714871601061,0.1,0.0023310184478759766,0.04466128349304199,0.049311697,1.8457382,-5.38876045563204,0.24893694282211534,-0.003445375229291724,0.0,55,0.0023522377014160156,0.9734147569536951,0.9734147569536951,9021,-2.305128308342681,0.0
152,0.7984743118286133,-4.8778648267957525,0.710078448577163,-3.797460176291139,-5.787882375409858,0.0,0.1524892076147913,0.1,0.0024018287658691406,0.04418540000915527,0.04880417,1.4646071,-5.337670892748411,0.2768555006633546,0.006828891271434113,0.0,54,0.0022749900817871094,0.9710874490482552,0.9710874490482552,9075,-1.8802963652514884,0.0
153,0.8072690963745117,-4.98458617286346,0.6417509922478238,-4.074292528312986,-5.726493569304577,0.0,0.1478781077613135,0.1,0.0023698806762695312,0.04448056221008301,0.04964152,1.1820669,-5.302362420759916,0.27180819986481086,0.0047641443453389325,0.0,56,0.002449512481689453,0.9713121316786201,0.9713121316786201,9131,-1.86301349941876,0.0
154,0.8014004230499268,-5.326807085184854,0.3208456778770846,-4.857928078367298,-5.649559668020288,0.0,0.14308140656445356,0.1,0.002569913864135742,0.04430055618286133,0.049640056,1.5230983,-5.30480688720241,0.2475985859282781,-0.0012443135255018032,0.0,53,0.0027005672454833984,0.9726690626724809,0.9726690626724809,9184,-1.4185246124701114,0.0
155,0.8071777820587158,-5.149012056991222,0.7828515681383291,-4.438543875078248,-6.471715070443801,0.0,0.1611013810713886,0.1,0.0027005672454833984,0.045465946197509766,0.050338384,0.6419572,-5.2892274041812914,0.2627526969698889,0.002346578404533722,0.0,56,0.0027408599853515625,0.9722954117380278,0.9722954117380278,9240,-1.0645222568223638,0.0
156,0.806631326675415,-4.975416168959557,1.0830405084666572,-3.8726383598236627,-6.172049853109703,0.0,0.1394150264292617,0.1,0.002614736557006836,0.0451664924621582,0.050232653,1.1856229,-5.257846280659118,0.27617800495595946,0.004971837232735676,0.0,56,0.0026519298553466797,0.9715831993972042,0.9715831993972042,9296,-0.016432358018185766,0.0
157,0.8172087669372559,-4.606177510888582,0.28500897173678624,-4.159039128987466,-4.928883803670854,0.0,0.14907940527891622,0.1,0.0024118423461914062,0.045740604400634766,0.050314244,0.628641,-5.192679403682064,0.2934893901581576,0.01279594732440394,0.0,59,0.0030279159545898438,0.969555261799454,0.969555261799454,9355,0.21184470629808683,0.0
158,0.825763463973999,-4.770041173819995,0.8779308111333639,-3.3597011783811146,-5.67672691361367,0.0,0.1442999903405249,0.1,0.0022132396697998047,0.04606366157531738,0.049002398,1.4305931,-5.1504155806958565,0.2813265254178606,0.008756002839626973,0.0,58,0.0024251937866210938,0.9706189623607467,0.9706189623607467,9413,0.9903507697891829,0.0
159,0.8676998615264893,-5.243028911588538,0.8020502671397238,-4.206170124265628,-6.167448945921335,0.0,0.16557325928121328,0.1,0.002562284469604492,0.04526782035827637,0.04966483,0.7119672,-5.159676913785125,0.26282159092772805,0.000985751256214072,0.0,59,0.002562284469604492,0.9732624860254165,0.9732624860254165,9472,0.7145183021263213,0.0
160,0.857330322265625,-6.057072624003536,0.7583636956672154,-5.001765308519499,-6.9924711932613715,0.0,0.16878453504484991,0.1,0.0022382736206054688,0.045542001724243164,0.051057562,0.8279102,-5.249416484806966,0.22531183595043086,-0.012018490341067027,0.0,62,0.002634286880493164,0.9759824847337591,0.9759824847337591,9534,0.09754138663474343,0.0
161,0.8364808559417725,-4.706877784980595,0.7726030118215232,-3.651863995432577,-5.5239320424253675,0.0,0.16815262633747352,0.1,0.0022034645080566406,0.045346736907958984,0.045531467,0.5767438,-5.195162614824329,0.2809293476620655,0.010216296070899217,0.0,62,0.002314329147338867,0.9702957698325382,0.9702957698325382,9596,0.1442614045033075,0.0
162,0.8406522274017334,-4.9863380085974836,0.4538725578107883,-4.520882626105587,-5.474910158156529,0.0,0.15661039884156072,0.1,0.0022666454315185547,0.04513406753540039,0.049419757,0.7609856,-5.174280154201645,0.2635659955838283,0.005019058002940145,0.0,57,0.002478361129760742,0.9712501420965103,0.9712501420965103,9653,0.2080489205322058,0.0
163,0.8477845191955566,-4.962248383397848,1.0521518308251512,-3.1634019045696418,-5.812816282294983,0.0,0.18266426333256694,0.1,0.0022754669189453125,0.04546713829040527,0.050057914,0.83361083,-5.153076977121265,0.2601011260925679,0.00628506877856836,0.0,62,0.002608776092529297,0.9719510441823787,0.9719510441823787,9715,0.5947175293766733,0.0
164,0.8422060012817383,-5.103657306678992,0.8546963964402664,-4.311652114153579,-6.47013343841287,0.0,0.1608331719875763,0.1,0.0022232532501220703,0.04525327682495117,0.05071546,0.78383964,-5.148135010077038,0.2696622875501532,0.004004152493732572,0.0,60,0.002531766891479492,0.9722084307322606,0.9722084307322606,9775,1.3264631404186382,0.0
165,0.801569938659668,-4.897193925110435,0.8610070944262366,-3.787833065579026,-5.817795785597246,0.0,0.1479785627814088,0.1,0.0023756027221679688,0.044840335845947266,0.049400132,0.89584917,-5.123040901580377,0.2730935188179681,0.006926019223936602,0.0,58,0.0023174285888671875,0.9714435819372584,0.9714435819372584,9833,1.3143945154591663,0.0
166,0.8073925971984863,-5.559124728651561,0.537799514348595,-4.773413969602107,-6.137590972993005,0.0,0.13727612147000146,0.1,0.002228975296020508,0.04743814468383789,0.04990704,0.9317583,-5.166649284287495,0.24427612213269745,-0.0050445731726655955,0.0,57,0.002502918243408203,0.973630517179456,0.973630517179456,9890,1.3637183528986103,0.0
167,0.8105106353759766,-5.263450953571611,0.46761383411029184,-4.513877049896317,-5.765636801016448,0.0,0.14128731103247594,0.1,0.0022525787353515625,0.04453730583190918,0.050502192,1.0330404,-5.176329451215907,0.25457727179513145,0.0006825650830666386,0.0,58,0.002593517303466797,0.9726494370360577,0.9726494370360577,9948,1.576025960380936,0.0
168,0.8080394268035889,-4.656805868231251,0.49596082667669084,-3.9059455065459434,-5.181614801747028,0.0,0.14990332926618471,0.1,0.0021839141845703125,0.04415106773376465,0.049058136,1.0665084,-5.124377092917442,0.2832255780796501,0.009852692214992631,0.0,54,0.0026912689208984375,0.9698425762826144,0.9698425762826144,10002,0.7094676134931381,0.0
169,0.8141589164733887,-5.897398190282503,1.8252729541962924,-4.27669685484775,-8.92986628475739,0.0,0.17956009020446978,0.1,0.002205371856689453,0.04468870162963867,0.0495992,0.496177,-5.201679202653948,0.23802625934291693,-0.010282277460839082,0.0,64,0.0025627613067626953,0.9765617594536026,0.9765617594536026,10066,1.7770317461645846,0.0
170,0.8189940452575684,-4.238287408916889,0.6499231764085659,-3.165140461448644,-4.911228874333505,0.0,0.15659332191620717,0.1,0.002177000045776367,0.047849178314208984,0.05079654,0.7716459,-5.105340023280243,0.3139052289448402,0.01911444915661107,0.0,64,0.0026884078979492188,0.968120795649412,0.968120795649412,10130,4.981028650892463,0.0
171,0.8281750679016113,-4.420991193569137,0.8601741187920728,-2.946848944290271,-5.073782643467661,0.0,0.14387910742010682,0.1,0.0022125244140625,0.044264793395996094,0.050403118,0.96750236,-5.036905140309132,0.30323138238885367,0.015406414461064988,0.0,60,0.0024924278259277344,0.9692044732298646,0.9692044732298646,10190,69.98908509987575,0.0
172,0.8545982837677002,-4.9017559374474065,0.6183257650824222,-4.297160687825659,-5.878129681647736,0.0,0.14820230261190384,0.1,0.002151012420654297,0.04477286338806152,0.0489926,0.88460654,-5.02339022002296,0.28550565797117344,0.006584947530627906,0.0,60,0.0024123191833496094,0.9709685950111685,0.9709685950111685,10250,5.95063113776763,0.0
173,0.8774697780609131,-4.4545743059075456,0.5201205519269523,-3.618394968080006,-4.981984765876506,0.0,0.14702328842420734,0.1,0.0021445751190185547,0.044281959533691406,0.050471894,0.7228996,-4.966508628611418,0.3065948097506084,0.014149893769009655,0.0,59,0.0024847984313964844,0.9685880453787874,0.9685880453787874,10309,5.522478590356811,0.0
174,0.8570396900177002,-4.018806117367429,0.536304761110337,-3.161614211237854,-4.508793420193498,0.0,0.17504732579545704,0.1,0.0021538734436035156,0.04436326026916504,0.05001234,0.5254953,-4.87173837748702,0.32573080742970273,0.023238225266509455,0.0,62,0.002989530563354492,0.966915768939801,0.966915768939801,10371,6.074174802933427,0.0
175,0.8412325382232666,-4.542249688797164,0.8016376400805314,-3.505179799936293,-5.666024501643493,0.0,0.15846217061349005,0.1,0.00217437744140625,0.04389667510986328,0.047716323,0.6931034,-4.838789508618035,0.2995194596866931,0.012057740630951849,0.0,56,0.002260923385620117,0.9694459911574136,0.9694459911574136,10427,4.892952228186681,0.0
176,0.8433189392089844,-5.621665885024134,1.0291935692773813,-4.244573135343954,-6.970658822028967,0.0,0.1592343398294704,0.1,0.0022161006927490234,0.044617414474487305,0.0487217,0.84976673,-4.917077146258645,0.25681315201270627,-0.0038390667840798257,0.0,68,0.002325296401977539,0.9750609208795904,0.9750609208795904,10495,5.682245144797446,0.0
177,0.9392297267913818,-5.204642435716101,0.6126368910018288,-4.177784488113509,-5.74843958570766,0.0,0.15256225955497196,0.1,0.0021500587463378906,0.04459786415100098,0.05042859,1.183267,-4.945833675204391,0.2553395385561312,0.0016825879324193806,0.0,60,0.0023550987243652344,0.9723484540149109,0.9723484540149109,10555,4.329894904217092,0.0
178,0.8808789253234863,-4.721179068411344,0.2517616416944406,-4.356209328570801,-5.020360539134773,0.0,0.14747743670730726,0.1,0.002294301986694336,0.04694771766662598,0.04986264,0.63034576,-4.9233682145250866,0.28504628627827766,0.009728254880454677,0.0,59,0.0030984878540039062,0.9698826123965191,0.9698826123965191,10614,5.936089816010624,0.0
179,0.8121781349182129,-4.479420638550995,0.8332122537249942,-3.214220729086187,-5.5556938783746475,0.0,0.18045432702424544,0.1,0.0022301673889160156,0.04503035545349121,0.049913064,0.6798552,-4.878973456927677,0.2971668504697782,0.014124619144778671,0.0,65,0.0024302005767822266,0.9694042120561263,0.9694042120561263,10679,7.750928834883538,0.0
180,0.8200359344482422,-5.0791916893084395,0.29765946444874014,-4.5973572669136855,-5.397097688800103,0.0,0.15054404551203085,0.1,0.0021958351135253906,0.04449200630187988,0.050662793,0.8414346,-4.898995280165753,0.2715576825600443,0.004302297133409303,0.0,62,0.0024471282958984375,0.9713656712229435,0.9713656712229435,10741,80.93480581156497,0.0
181,0.8064324855804443,-4.3124622255150395,0.8184592104504854,-3.1187291470904865,-5.100581855076119,0.0,0.16750372227618793,0.1,0.002315521240234375,0.0445098876953125,0.049147446,0.7605746,-4.840341974700682,0.303835335008055,0.017056875361073365,0.0,59,0.002519369125366211,0.9691266825688529,0.9691266825688529,10800,91.34882824853626,0.0
182,0.818195104598999,-4.5814880792165935,0.3906650921564806,-4.126498579975927,-5.0888534675775245,0.0,0.15286355951588415,0.1,0.0025963783264160156,0.04456925392150879,0.050754074,0.76420015,-4.814456585152273,0.30061796249695644,0.012862137855599608,0.0,61,0.0031006336212158203,0.9694464398796458,0.9694464398796458,10861,51.59697654718084,0.0
183,0.8311197757720947,-4.946322860354396,1.2846238248935427,-3.5463190089514427,-6.990715043255295,0.0,0.16860853376172394,0.1,0.002504587173461914,0.04526877403259277,0.050673183,0.58880794,-4.827643212672486,0.2894399728939841,0.006394023185847697,0.0,65,0.002570629119873047,0.9721175099181981,0.9721175099181981,10926,61.021194857048265,0.0
184,0.8041489124298096,-4.253633419855103,0.9581286639694235,-3.2091835326250973,-5.735545085173317,0.0,0.15844862054674497,0.1,0.0022592544555664062,0.045587778091430664,0.04756462,0.8624546,-4.770242233390747,0.30273265336530353,0.018151554172302554,0.0,62,0.002190113067626953,0.9679708857647633,0.9679708857647633,10988,102.04002306937635,0.0
185,0.810490608215332,-3.907535255541152,0.4280127771634588,-3.3433802787955447,-4.3895517783103735,0.0,0.16712011170205943,0.1,0.0023076534271240234,0.044873714447021484,0.049679775,0.5611974,-4.683971535605788,0.3365650524932436,0.025269290919361392,0.0,64,0.00249481201171875,0.9665459742784986,0.9665459742784986,11052,202.3652700262871,0.0
186,0.8250634670257568,-4.400731776834256,0.26239474578465793,-3.9797684752441906,-4.662973515641158,0.0,0.15563080180438332,0.1,0.0022132396697998047,0.044523000717163086,0.049257692,0.64783996,-4.655647559728634,0.30735816354425965,0.015416319060507838,0.0,58,0.002492666244506836,0.9682838449759751,0.9682838449759751,11110,247.75233725142888,0.0
187,0.852954626083374,-4.630705591351703,0.7104069770712661,-3.629777024071159,-5.576600205416053,0.0,0.1501527371160437,0.1,0.0025751590728759766,0.04471015930175781,0.046775866,0.9681941,-4.653153362890941,0.28728793321481083,0.01121839752274462,0.0,59,0.0032014846801757812,0.9697111830262419,0.9697111830262419,11169,7.109368219878465,0.0
188,0.8174135684967041,-4.7015193090670815,0.698052893546692,-3.780820437394392,-5.532804083392293,0.0,0.15485530351564047,0.1,0.0023043155670166016,0.04489850997924805,0.04967408,0.7541094,-4.657989957508555,0.28499917633843913,0.009792408191176924,0.0,59,0.00299835205078125,0.9702512147019006,0.9702512147019006,11228,91.05757026023188,0.0
189,0.8160138130187988,-3.8414947157132344,0.6945583394216625,-3.138424710064902,-4.960497425959954,0.0,0.13547030515709588,0.1,0.0022363662719726562,0.04484987258911133,0.04981253,1.1911203,-4.5763404333290225,0.34507076408405063,0.024301076685514532,0.0,56,0.002455472946166992,0.9656045048795296,0.9656045048795296,11284,367.3494344376284,0.0
190,0.8238213062286377,-4.5634759032827255,0.19465629966651055,-4.258000225357827,-4.796283170406279,0.0,0.1457209135709793,0.1,0.002176046371459961,0.04418778419494629,0.05128076,0.77630234,-4.575053980324393,0.29663567066107316,0.012583723735181206,0.0,60,0.0024738311767578125,0.9691080418308068,0.9691080418308068,11344,250.85195651086735,0.0
191,0.8506348133087158,-4.336025626212482,0.8418069314877739,-3.3178913897515097,-5.333095709890209,0.0,0.1633067607971865,0.1,0.0021889209747314453,0.045171499252319336,0.04935781,0.7249542,-4.551151144913201,0.3068171197259083,0.016653216256618166,0.0,58,0.0021963119506835938,0.9687424687529863,0.9687424687529863,11402,96.95372029919638,0.0
192,0.8252017498016357,-4.632537118945409,1.0586877813870283,-3.59268544393837,-6.401798686808469,0.0,0.16294696880365073,0.1,0.002187013626098633,0.044150352478027344,0.0489016,0.8939963,-4.559289742316422,0.29289668832151877,0.011242879183353791,0.0,60,0.006006717681884766,0.970621176140618,0.970621176140618,11462,357.06356331675835,0.0
193,0.8451638221740723,-4.547355521389901,0.36986973616134045,-3.982520347009292,-4.980090519408994,0.0,0.1707682565615663,0.1,0.002303600311279297,0.044281005859375,0.050411254,0.5749136,-4.55809632022377,0.2977942500332185,0.012296291687181602,0.0,58,0.0023980140686035156,0.9690521137271608,0.9690521137271608,11520,100.40884771219105,0.0
194,0.853893518447876,-4.752694691307591,1.0289447138024534,-3.707343891886384,-6.419987468646408,0.0,0.17672442215518663,0.1,0.0021834373474121094,0.04430198669433594,0.05030824,0.59631723,-4.577556157332152,0.2862369976706411,0.009410162786029342,0.0,59,0.0025234222412109375,0.9707406160766683,0.9707406160766683,11579,100.48492133509622,0.0
195,0.8625655174255371,-3.6472309813497246,0.34175113689734166,-3.313017740538018,-4.167137526630963,0.0,0.15313975815500866,0.1,0.0022521018981933594,0.04436755180358887,0.04969354,0.5007298,-4.48452363973391,0.3501551083827299,0.028762043617930777,0.0,62,0.0023140907287597656,0.9644238557919883,0.9644238557919883,11641,18.859362842537625,0.0
196,0.8094122409820557,-3.811630488488666,0.31401234820138135,-3.268780430188462,-4.019207697902432,0.0,0.15651682364158037,0.1,0.002793550491333008,0.0461122989654541,0.049196817,0.68322486,-4.417234324609385,0.3463090253752257,0.026204096112376615,0.0,63,0.002538919448852539,0.9650985654671598,0.9650985654671598,11704,236.40082138468384,0.0
197,0.8233232498168945,-3.6844262188243535,0.32167850242980217,-3.3580243992581567,-4.089183343801801,0.0,0.16153775244536422,0.1,0.0023229122161865234,0.04629969596862793,0.04934013,0.4986159,-4.343953514030883,0.3600359212314249,0.029102631983571423,0.0,66,0.002839326858520508,0.9649482807662342,0.9649482807662342,11770,111.17528282445069,0.0
198,0.8107378482818604,-4.036573005961436,0.13757759159950467,-3.923567631144447,-4.271868537846883,0.0,0.1551875641084415,0.1,0.0026259422302246094,0.04476165771484375,0.049799364,0.61579114,-4.313215463223938,0.33048509051395303,0.021620049549372,0.0,57,0.002687692642211914,0.9664893557295375,0.9664893557295375,11827,60.74290408882033,0.0
199,0.8498084545135498,-4.378753381680769,0.3440543485350589,-3.9111781185867227,-4.722884569968176,0.0,0.15080576250859776,0.1,0.002199888229370117,0.048415422439575195,0.04991917,0.6933034,-4.319769255069621,0.30013442713984495,0.015614784745021267,0.0,59,0.0026824474334716797,0.9684382176129808,0.9684382176129808,11886,80.74554871621912,0.0
200,0.8306303024291992,-4.373811985628718,0.3574146082476057,-3.926516120167244,-4.904091618209762,0.0,0.15726157132711446,0.1,0.0021877288818359375,0.044144392013549805,0.049696185,0.8674331,-4.325173528125531,0.3067467276770758,0.014117243963451188,0.0,54,0.002718687057495117,0.9678154707758622,0.9678154707758622,11940,101.65495371494147,0.0
201,0.8138699531555176,-3.771430814539991,0.906318030643074,-2.2783294057505232,-4.546371042263852,0.0,0.1621330217342316,0.1,0.0021789073944091797,0.044847965240478516,0.05001283,0.8410651,-4.269799256766977,0.3473668184542803,0.026861374344028445,0.0,63,0.002467632293701172,0.9659520203235935,0.9659520203235935,12003,50.316567683520695,0.0
202,0.8237936496734619,-4.538811884600327,0.5773541374039766,-3.6857017278119057,-5.296412003383262,0.0,0.15543213328023192,0.1,0.002156972885131836,0.04433155059814453,0.049096048,0.7263307,-4.2967005195503125,0.30156112365117954,0.012712908369987933,0.0,61,0.0025658607482910156,0.9688648367945037,0.9688648367945037,12064,111.12641238016768,0.0
203,0.8224189281463623,-4.572371846093176,0.24586287093191864,-4.376739977915102,-4.983245776961782,0.0,0.16637077658269356,0.1,0.0022025108337402344,0.04710078239440918,0.05030826,0.6633042,-4.324267652204599,0.29463511634316003,0.011440582855170798,0.0,59,0.0035064220428466797,0.9687449268275641,0.9687449268275641,12123,591.8572306740651,100.0
204,0.8322203159332275,-6.308022786077074,2.564399356507272,-4.513711560353834,-10.73339623069221,0.0,0.19893163746440667,0.1,0.002986907958984375,0.046098947525024414,0.049517084,0.526163,-4.522643165591846,0.22043374137531097,-0.016682255409355473,0.0,71,0.002496957778930664,0.9789719048027831,0.9789719048027831,12194,642.4143495477168,100.0
205,0.8270792961120605,-4.276567236945038,1.2620893884775686,-3.0540283349165684,-6.27807706735732,0.0,0.1402743411227914,0.1,0.0021963119506835938,0.047843217849731445,0.05001177,0.88269544,-4.498035572727166,0.31481863276399363,0.01882574632151411,0.0,61,0.002642393112182617,0.9695873710917232,0.9695873710917232,12255,360.4335170734384,0.0
206,0.8334386348724365,-2.9494745116590178,0.9569436484828977,-1.8530747595229133,-4.401422193124351,0.0,0.18439675794195282,0.1,0.002274036407470703,0.045928239822387695,0.049237337,0.52976567,-4.343179466620351,0.3720506805188105,0.04272557641556773,0.0,71,0.0025207996368408203,0.9618831383671953,0.9618831383671953,12326,481.05971711273463,100.0
207,0.838543176651001,-4.729432173025185,1.7615734286400302,-3.3842699396902947,-7.758397278217846,0.0,0.19585680692135876,0.1,0.002209901809692383,0.04634857177734375,0.04893228,0.45495674,-4.381804737260834,0.2961423628545643,0.011327659977388929,0.0,72,0.0031003952026367188,0.972693736437068,0.972693736437068,12398,587.4052163254189,100.0
208,0.8280551433563232,-3.9600029293732444,0.6764313712459341,-3.2505768066674876,-5.0390373380764935,0.0,0.1658417356768186,0.1,0.002251148223876953,0.04436659812927246,0.0498541,0.63539296,-4.339624556472075,0.3322170773551871,0.022716627267315846,0.0,57,0.0028412342071533203,0.9663998641260115,0.9663998641260115,12455,470.51922658087,100.0
209,0.8629834651947021,-4.49375649812673,0.9564419973301096,-3.4695859557880633,-5.7747626214858245,0.0,0.15414089009601253,0.1,0.002223968505859375,0.0448150634765625,0.050488338,0.7935585,-4.355037750637541,0.310692136955756,0.014360842429067319,0.0,62,0.002295255661010742,0.9694879928304152,0.9694879928304152,12517,5.080226396757792,0.0
210,0.8329887390136719,-4.13889974797747,0.49288039886091156,-3.5356881777441647,-4.852657689200848,0.0,0.1624671687361451,0.1,0.002537965774536133,0.048130035400390625,0.049207095,0.72541994,-4.333423950371534,0.326882586396762,0.019324180436883588,0.0,57,0.0029158592224121094,0.9668941395465558,0.9668941395465558,12574,3.9655574971851597,0.0
211,0.8588922023773193,-3.545897971171227,0.18922002548928346,-3.3612834830208875,-3.8607109024221833,0.0,0.16015217483138763,0.1,0.0021920204162597656,0.04897189140319824,0.049604345,0.4570209,-4.254671352451504,0.35665415811883333,0.030290685931434847,0.0,61,0.0031523704528808594,0.96340036324858,0.96340036324858,12635,4.082181937212169,0.0
212,0.9199633598327637,-4.237455109963583,0.6015151742400341,-3.225802583179724,-4.808398938798602,0.0,0.16008380114278628,0.1,0.013043880462646484,0.2194533348083496,0.049703054,0.74235946,-4.2529497282027116,0.3092233349499063,0.016758293974527768,0.0,59,0.004510402679443359,0.9671296119827435,0.9671296119827435,12694,4.763750213181971,0.0
213,0.864769697189331,-4.350459432590925,0.44878420490428433,-3.604035935741532,-4.708353029599021,0.0,0.16240955434981696,0.1,0.0022706985473632812,0.04532170295715332,0.049069438,0.86841124,-4.262700698641533,0.31186793434082605,0.0164443953080559,0.0,60,0.0024461746215820312,0.968139328392219,0.968139328392219,12754,4.5314635976677025,0.0
214,0.8545677661895752,-3.7067338440736717,0.3474955901484212,-3.357600405414903,-4.284407997246046,0.0,0.1540467275921609,0.1,0.002209186553955078,0.04476594924926758,0.0499236,0.4578815,-4.207104013184747,0.35484546511091025,0.029129686758415332,0.0,67,0.003946781158447266,0.9663405474328902,0.9663405474328902,12821,5.570850849589306,0.0
215,0.8546059131622314,-4.0195903428229895,0.5280482046139354,-3.1947878472483735,-4.548122737676519,0.0,0.18439227353156054,0.1,0.0022783279418945312,0.0456233024597168,0.05098228,0.5566365,-4.188352646148571,0.32794104978831956,0.02277399512021687,0.0,65,0.0026788711547851562,0.966488633885951,0.966488633885951,12886,295.90059687822117,0.0
216,0.853661060333252,-4.02731346326722,0.4259244052830097,-3.3592913803053914,-4.472903948532861,0.0,0.15564460805533942,0.1,0.0022535324096679688,0.04628491401672363,0.04978006,0.5698237,-4.172248727860436,0.323094909620717,0.022682878736904166,0.0,71,0.003164529800415039,0.9660857670475592,0.9660857670475592,12957,295.6958885023074,0.0
217,0.8502702713012695,-3.2988049811403046,0.927908447130258,-1.8257740835183176,-4.395448329066264,0.0,0.163025503820681,0.1,0.002242565155029297,0.04548788070678711,0.050066352,0.6201417,-4.084904353188422,0.36504859462210404,0.03611158391722946,0.0,67,0.0025098323822021484,0.963676861260042,0.963676861260042,13024,466.01098436753523,100.0
218,0.8524906635284424,-4.735154572299818,1.4777393285664286,-3.2283215022355285,-7.059999572746667,0.0,0.1713372711857816,0.1,0.002244710922241211,0.04546380043029785,0.050527684,0.5211612,-4.149929375099562,0.30591817794476933,0.0103085013391829,0.0,66,0.0024323463439941406,0.9731388638367265,0.9731388638367265,13090,587.1576196615772,100.0
219,0.8520627021789551,-4.3138092813814755,0.5989541762960875,-3.350091823899632,-4.994151451089585,0.0,0.18043524125788607,0.1,0.002624988555908203,0.05048203468322754,0.0501778,0.62214434,-4.166317365727753,0.31588414066741866,0.018277773618604748,0.0,67,0.002810955047607422,0.9683436040565193,0.9683436040565193,13157,89.93063288897254,0.0
220,0.8666281700134277,-4.919173141615181,1.32635930817408,-3.167178930822647,-6.237114532479541,0.0,0.19560464792886317,0.1,0.002261638641357422,0.0460052490234375,0.04942348,0.7001176,-4.2416029433164955,0.2879592392132025,0.008858330992833436,0.0,74,0.0026564598083496094,0.9721493517584424,0.9721493517584424,13231,16.47846023993724,0.0
221,0.8913455009460449,-4.3526826411401185,0.4798580928175648,-3.9936657812883745,-5.178248160301368,0.0,0.1666528897680308,0.1,0.002290964126586914,0.0458831787109375,0.05000773,0.50992113,-4.252710913098858,0.3184635626055382,0.01668464918816327,0.0,65,0.0024466514587402344,0.9691095001225004,0.9691095001225004,13296,4.5576477675002876,0.0
222,0.8562493324279785,-5.145445156463266,1.458450991861047,-3.9931659020949426,-7.640658996483845,0.0,0.16540260498075152,0.1,0.0024137496948242188,0.04523825645446777,0.049489353,0.59992665,-4.341984337435299,0.2801052618219262,0.00253974883883218,0.0,64,0.0024073123931884766,0.9743560949991109,0.9743560949991109,13360,37.58385581618059,0.0
223,0.869379997253418,-3.7962483528593722,0.7328811229368309,-2.643590968954231,-4.541225937591965,0.0,0.1621498465883921,0.1,0.0022029876708984375,0.04507875442504883,0.050015263,0.6083739,-4.287410738977707,0.3420297694955664,0.026363215676536506,0.0,62,0.0022661685943603516,0.9657746034712993,0.9657746034712993,13422,75.21008399600433,0.0
224,0.8584370613098145,-3.6610905019659707,0.7510812647366448,-2.704085562380726,-4.557241912909924,0.0,0.15280734024783432,0.1,0.0022125244140625,0.04436898231506348,0.050596602,0.66145027,-4.224778715276534,0.34651950955915994,0.028134408134105844,0.0,58,0.0047876834869384766,0.9645864844671741,0.9645864844671741,13480,344.9932223075102,0.0
225,0.9219365119934082,-4.014530117863167,0.4180314118764218,-3.5022602552762274,-4.650497788886341,0.0,0.1929718347565573,0.1,0.0022323131561279297,0.0455632209777832,0.049457762,0.45598492,-4.203753855535197,0.334567689759238,0.026878174672744136,0.0,83,0.00251007080078125,0.9688982176907749,0.9688982176907749,13563,304.59790013652656,0.0
226,0.8643810749053955,-5.492234901779905,2.609432839815268,-3.9129448481033053,-10.01001010765853,0.0,0.1722527490730403,0.1,0.002302408218383789,0.04492926597595215,0.049691632,0.63366556,-4.332601960159668,0.27783389013802884,-0.004147314326222657,0.0,71,0.002444744110107422,0.9779968133616311,0.9779968133616311,13634,405.3360327238075,100.0
227,0.8603706359863281,-4.449763647783394,0.9538663670875692,-3.0185532470807335,-5.679154244504322,0.0,0.18585735024897104,0.1,0.0024886131286621094,0.046347618103027344,0.049381007,0.72948676,-4.3443181289220405,0.302407392476975,0.016414609815848608,0.0,74,0.0025577545166015625,0.9696017686896056,0.9696017686896056,13708,284.09507989348316,0.0
228,0.8598830699920654,-4.772774132322468,1.5517545288256807,-2.9983855810770725,-7.215676963049743,0.0,0.17999207294380284,0.1,0.0023114681243896484,0.04568958282470703,0.04930923,0.6940155,-4.387163729262084,0.29156616171693145,0.010269384140732994,0.0,69,0.002938985824584961,0.9723393054025892,0.9723393054025892,13777,224.28845203361698,0.0
229,0.8623747825622559,-4.519710351265893,1.5674444034923039,-2.7453771120091193,-6.286037014600169,0.0,0.1564778948679886,0.1,0.0022652149200439453,0.045369625091552734,0.05122504,0.7119989,-4.400418391462464,0.3093089460430395,0.01414995907253882,0.0,67,0.0024995803833007812,0.9720932194403656,0.9720932194403656,13844,123.85973240893695,0.0
230,0.8633983135223389,-3.739669171020731,0.5491370142451588,-3.1730142912794403,-4.644071457702986,0.0,0.16359373727761956,0.1,0.002252817153930664,0.04518723487854004,0.048280805,0.58653224,-4.334343469418291,0.33883300471115696,0.027213672631834107,0.0,64,0.0024156570434570312,0.9648614801110871,0.9648614801110871,13908,64.1340442918254,0.0
231,0.8702747821807861,-4.644238916786382,0.2608560929927281,-4.210476979775138,-4.883546500065581,0.0,0.17187241553082988,0.1,0.0024220943450927734,0.046105146408081055,0.045681916,0.5451577,-4.365333014155101,0.30477671698732567,0.013880922747602577,0.0,80,0.002771615982055664,0.9706677752614953,0.9706677752614953,13988,74.17979235560162,0.0
232,0.8615250587463379,-3.7131426964413983,0.7553867107410162,-2.83853560755888,-4.703425884556357,0.0,0.1668709413705174,0.1,0.0022826194763183594,0.04498744010925293,0.049248625,0.78244746,-4.30011398238373,0.3374080702037669,0.02704563746177581,0.0,62,0.0025501251220703125,0.9649880359170133,0.9649880359170133,14050,115.05531090240855,0.0
233,0.9063937664031982,-5.132105831889549,3.156709699837632,-1.4409589173094717,-9.95641925309112,0.0,0.18817549252146304,0.1,0.0022852420806884766,0.04616260528564453,0.049987074,0.53846985,-4.383313167334313,0.2885272776447662,0.004620080682586139,0.0,74,0.0025267601013183594,0.9781751876080886,0.9781751876080886,14124,115.2108307759017,0.0
234,0.8617782592773438,-3.924003342845099,0.4103158044343919,-3.605454526426752,-4.619675384439539,0.0,0.17148046240661813,0.1,0.0024383068084716797,0.04505276679992676,0.047975954,0.60643655,-4.337382184885391,0.31964167109073016,0.023534811220084467,0.0,62,0.0027620792388916016,0.966043746802077,0.966043746802077,14186,296.36501494144125,0.0
235,0.8607823848724365,-3.8220302049708086,1.08494244655842,-1.9777636349326642,-4.776010598702917,0.0,0.17894741127453953,0.1,0.002231121063232422,0.04497790336608887,0.050337955,0.54394484,-4.285846986893933,0.32857973871069335,0.025865323223529746,0.0,62,0.002642393112182617,0.9662173518099361,0.9662173518099361,14248,346.5994425516495,0.0
236,0.8613607883453369,-3.7964032339982006,0.8723840295149873,-2.7353559175447995,-5.157356363406836,0.0,0.16479100161397037,0.1,0.002210855484008789,0.045163631439208984,0.051055193,0.48269042,-4.23690261160436,0.33552108626545596,0.02711548632265512,0.0,70,0.002407550811767578,0.9658110034156474,0.9658110034156474,14318,295.4221296600614,0.0
237,0.8991758823394775,-2.9356877340975975,1.0283417193905087,-1.9296909860053817,-4.646653194644985,0.0,0.16746100819306428,0.1,0.0022318363189697266,0.04497408866882324,0.04977157,0.56360334,-4.1067811238536835,0.3778909438540402,0.042106675663043436,0.0,68,0.0024514198303222656,0.9619211772438065,0.9619211772438065,14386,245.71522992194892,0.0
238,0.8915448188781738,-3.776526708184198,1.218474761400452,-2.736757831439475,-5.818374978177993,0.0,0.15975725277167002,0.1,0.0022182464599609375,0.04537701606750488,0.050382983,0.69587433,-4.073755682286735,0.3413881322255953,0.02725653841921223,0.0,70,0.0024449825286865234,0.9669761889270458,0.9669761889270458,14456,95.1551673500005,0.0
239,0.8754949569702148,-3.4495631469741483,1.482181514295246,-1.024590773746655,-4.787551494841907,0.0,0.16660314899119555,0.1,0.0021948814392089844,0.045580387115478516,0.049591843,0.92325896,-4.0113364287554765,0.3569469157616987,0.03399195747200955,0.0,69,0.0025131702423095703,0.9664986485551926,0.9664986485551926,14525,95.10048531910415,0.0
240,0.8713779449462891,-3.221591428562931,0.5005276202906652,-2.394886124368969,-3.728951566340515,0.0,0.16253205571047008,0.1,0.002204418182373047,0.04457259178161621,0.05023399,0.6479778,-3.932361928736222,0.36898912738425593,0.0365235829270093,0.0,64,0.004854917526245117,0.962113400762816,0.962113400762816,14589,84.72260337757366,0.0
241,0.8691432476043701,-3.8316601529699006,0.5860815520789663,-2.9050251224761228,-4.5037949114608935,0.0,0.16388538024486404,0.1,0.0022110939025878906,0.04501652717590332,0.05031146,0.4472511,-3.9222917511595896,0.33255111160509754,0.02635424343947438,0.0,67,0.003052949905395508,0.9661585988768213,0.9661585988768213,14656,245.1636587792136,0.0
242,0.8699922561645508,-3.268297803535269,0.8259930996734919,-1.8410733541439646,-3.827503907393611,0.0,0.19769504831870088,0.1,0.0022373199462890625,0.04531383514404297,0.04855233,0.58965707,-3.8568923563971573,0.3606332344526038,0.03756105568577953,0.0,75,0.0025815963745117188,0.9634679517911489,0.9634679517911489,14731,183.95206984173157,0.0
243,0.8653650283813477,-2.914250627700654,0.6175117450022457,-2.2960923844399477,-3.834455650292881,0.0,0.1633665258864814,0.1,0.0022275447845458984,0.045444488525390625,0.04953628,0.47118372,-3.7626281835275073,0.3746780496913039,0.04374521338958251,0.0,76,0.0026183128356933594,0.961378594971225,0.961378594971225,14807,233.88318968101842,0.0
244,0.8620028495788574,-3.9733939928543807,0.6696695432741465,-3.3920126955452643,-5.0289521854799295,0.0,0.1526516804613708,0.1,0.002229928970336914,0.046048879623413086,0.049924903,0.64201003,-3.783704764460195,0.33323080410998585,0.024940744100378005,0.0,70,0.002624034881591797,0.9677014483915825,0.9677014483915825,14877,294.1023520031693,0.0
245,0.8832066059112549,-3.5150779889944856,0.9761537367827775,-2.018992267615592,-4.541844805606752,0.0,0.15900272722538286,0.1,0.002221345901489258,0.0458674430847168,0.049758624,0.7718223,-3.756842086913624,0.3501378149585149,0.031598243503475044,0.0,64,0.003120899200439453,0.9646216843867121,0.9646216843867121,14941,184.03964078627783,0.0
246,0.8723108768463135,-3.3415394828770615,0.7287909032566118,-2.659110799450694,-4.520574601224618,0.0,0.17528721794200428,0.1,0.002251148223876953,0.04690146446228027,0.049793154,0.53731334,-3.715311826509968,0.36087856823814124,0.037511984683440754,0.0,76,0.002744913101196289,0.9639487849233803,0.9639487849233803,15017,303.70336098592185,0.0
247,0.8655617237091064,-3.766281508393804,1.568471899426159,-2.7921029654623672,-6.479864316182693,0.0,0.17025015196510737,0.1,0.002426624298095703,0.044940948486328125,0.050222274,0.6211475,-3.7204087946983515,0.33350176826024036,0.028956271348531654,0.0,69,0.0023393630981445312,0.9687963328738425,0.9687963328738425,15086,293.572827259334,0.0
248,0.8713264465332031,-3.41113125954305,2.359930451032043,0.13752630943087407,-6.4220420244470855,0.0,0.1860865539475054,0.1,0.0022301673889160156,0.04537224769592285,0.05017742,0.57216376,-3.6894810411828214,0.35343064545761516,0.0364349194803285,0.0,78,0.0025177001953125,0.9704275500868768,0.9704275500868768,15164,303.11984690427425,0.0
249,0.8627257347106934,-3.9014922677885187,0.2607949349570799,-3.683523154726573,-4.347045338123311,0.0,0.14776871708418193,0.1,0.002239227294921875,0.04555082321166992,0.049525138,0.653199,-3.710682163843391,0.32534323268528054,0.02430119999688253,0.0,62,0.0029976367950439453,0.9660698600100796,0.9660698600100796,15226,103.14106194594551,0.0
250,0.9012815952301025,-3.0253821571327775,1.5855059761080728,-1.0787538897503204,-5.462080200449338,0.0,0.17143670632122351,0.1,0.0023338794708251953,0.045856475830078125,0.04986633,0.5318463,-3.6421521631723297,0.37578329397916166,0.04580119505626623,0.0,85,0.0025708675384521484,0.9678978442012232,0.9678978442012232,15311,92.18416409559528,0.0
251,0.8926372528076172,-4.562960036768378,2.3570853946159245,-2.5877091298508073,-8.589825260707391,0.0,0.20439896407580374,0.1,0.0022165775299072266,0.0451657772064209,0.0506055,0.5132119,-3.734232950531935,0.29328042258509834,0.013962890495371416,0.0,70,0.002614259719848633,0.9744196575737677,0.9744196575737677,15381,102.91644731338414,0.0
252,0.8880999088287354,-3.158335961503049,0.35699011794368485,-2.7308020420198273,-3.6906085671817763,0.0,0.17763974640009228,0.1,0.0022771358489990234,0.04546809196472168,0.05020239,0.44400576,-3.676643251629047,0.3664765769099381,0.04139927433346072,0.0,78,0.002743959426879883,0.9633996741700759,0.9633996741700759,15459,102.7825356544604,0.0
253,0.8628056049346924,-4.007046610255688,0.17522843052482934,-3.7062612485961024,-4.145507436449721,0.0,0.15933030726807554,0.1,0.0022509098052978516,0.04541778564453125,0.050193764,0.48004353,-3.709683587491711,0.3318874194941699,0.023942967812559876,0.0,70,0.002604961395263672,0.9666827068827667,0.9666827068827667,15529,253.74946770819167,0.0
254,0.8612234592437744,-3.8196029630439305,1.820512533503948,-0.6717737300680655,-4.998527710550383,0.0,0.16554375536046143,0.1,0.002220630645751953,0.044927358627319336,0.0496519,0.7971923,-3.720675525046933,0.3284766667509027,0.026916347759772523,0.0,66,0.0024917125701904297,0.9687665959808436,0.9687665959808436,15595,93.20347077886989,0.0
255,0.8562705516815186,-2.4843112811742154,1.0378719217336656,-0.6872964781715423,-3.12809632638878,0.0,0.16856853778470723,0.1,0.002248525619506836,0.0494532585144043,0.049052175,0.6844151,-3.5970391006596616,0.3941974127185948,0.05121853921462016,0.0,70,0.0027990341186523438,0.9601007093495122,0.9601007093495122,15665,242.8211084082144,0.0
256,0.8771204948425293,-3.0069359729297274,2.788444013625539,-0.3098316443563949,-6.876643863203592,0.0,0.20119391585605287,0.1,0.0025153160095214844,0.04590916633605957,0.048704974,0.539721,-3.538028787886668,0.36431754395804594,0.04457415698569725,0.0,86,0.0024073123931884766,0.9716766907355822,0.9716766907355822,15751,291.502623703785,0.0
257,0.8680999279022217,-1.9371790656876824,0.6656008913333791,-0.9194207295339556,-2.5390545232164397,0.0,0.19172129956669084,0.1,0.002264738082885742,0.046086788177490234,0.050170936,0.5207828,-3.37794381566677,0.4193451496772628,0.06323955195934097,0.0,80,0.002683877944946289,0.9584571497508377,0.9584571497508377,15831,311.71907374995146,0.0
258,0.925379753112793,18.866374097264902,37.97874978837244,84.63968521928642,-3.8165369823882047,0.0,0.20859757429622391,0.1,0.0034017562866210938,0.04682135581970215,0.05076635,0.63935107,-1.1535120243736023,0.4388447029151107,0.45484328539682717,0.0,101,0.002827882766723633,1.001842042054567,1.001842042054567,15932,371.71075757732564,0.0
259,0.8608484268188477,-3.09520145553541,0.931805920878702,-1.8063023708188202,-4.424337236147877,0.0,0.1625707844989523,0.1,0.002227783203125,0.04488229751586914,0.047835767,0.58922464,-1.3476809674897832,0.37181053361320676,0.03907270281453929,0.0,65,0.002378702163696289,0.962584264362933,0.962584264362933,15997,241.7199829932516,0.0
260,0.8704783916473389,-4.066065357696031,0.6620914553132061,-3.361515338228075,-5.11981318795309,0.0,0.17629734038590672,0.1,0.002257108688354492,0.04556751251220703,0.049384594,0.49094093,-1.619519406510408,0.3218501391828224,0.024063811712656723,0.0,73,0.002624034881591797,0.9686405181523595,0.9686405181523595,16070,302.38156518075454,0.0
261,0.8740580081939697,-3.2093775485382654,1.8829472912629053,-1.9120411574406786,-6.4627582028490735,0.0,0.17644215710432054,0.1,0.0022554397583007812,0.04529833793640137,0.049452286,0.60728055,-1.7785052207131937,0.3621931675114359,0.039255373315875676,0.0,73,0.002946615219116211,0.9679080373576417,0.9679080373576417,16143,201.80334309653972,0.0
262,0.8687915802001953,-6.048287151785766,4.657949162935651,-3.265218361486901,-14.115471972608919,0.0,0.17224698568415697,0.1,0.002198457717895508,0.04551124572753906,0.050124783,0.5750602,-2.205483413820451,0.252661058947121,-0.011960882874356048,0.0,77,0.0026395320892333984,0.9832744614383383,0.9832744614383383,16220,311.69978127199795,0.0
263,0.9197225570678711,-3.4213308001300966,0.5197765336723679,-2.869830797099543,-4.273844040630786,0.0,0.17766203629942917,0.1,0.002237558364868164,0.04510021209716797,0.05051559,0.47593266,-2.3270681524514156,0.36836330175714566,0.03460972298542037,0.0,71,0.002323150634765625,0.96543926156286,0.96543926156286,16291,250.83586188632447,0.0
264,0.8497552871704102,-2.707025643870262,0.40505389456617386,-2.277232531932662,-3.179237615356352,0.0,0.1671293099467635,0.1,0.0023555755615234375,0.04579782485961914,0.05052943,0.5027989,-2.3650639015933,0.399101561911708,0.04749726092513676,0.0,69,0.002643585205078125,0.959957317280551,0.959957317280551,16360,371.09235126380696,0.0
265,0.8298594951629639,-2.566603254127346,0.5537022815538254,-1.7791013497587773,-3.225956972379365,0.0,0.1743773793957884,0.1,0.002415180206298828,0.04606962203979492,0.050154146,0.50823575,-2.3852178368467047,0.40148927739015255,0.05130279582372321,0.0,77,0.0026683807373046875,0.9603861725778572,0.9603861725778572,16437,419.7147877154016,100.0
266,0.834418773651123,-2.6693789871300573,0.3360490701063797,-2.249458524880066,-3.189338110362896,0.0,0.160574441149022,0.1,0.0023546218872070312,0.046346187591552734,0.049619198,0.5765391,-2.41363395187504,0.3912683853329012,0.0489976731440539,0.0,77,0.002696990966796875,0.9597369808045062,0.9597369808045062,16514,359.1455167795257,0.0
267,0.8270823955535889,-2.6840737463602586,0.6192053803268731,-1.8749191006764176,-3.606365847227815,0.0,0.1728705343327587,0.1,0.0022513866424560547,0.04570913314819336,0.048282873,0.4723225,-2.4406779313235623,0.3888394516809345,0.04837771388631272,0.0,75,0.0026025772094726562,0.9597187256109345,0.9597187256109345,16589,309.70271645496666,0.0
268,0.8397481441497803,-2.4166013070493326,1.4863448811300828,-0.0754849525964012,-4.03333404726608,0.0,0.18073592281589346,0.1,0.0022890567779541016,0.04672980308532715,0.049982958,0.5838087,-2.4382702688961393,0.39140007454887205,0.05421569189144623,0.0,80,0.0027992725372314453,0.9625922386639164,0.9625922386639164,16669,419.2278208101861,100.0
269,0.8316178321838379,-2.5654941528234083,0.6743392419235359,-1.5897877448392412,-3.3880914079209883,0.0,0.16895103847797985,0.1,0.002276182174682617,0.050878286361694336,0.05047761,0.4491429,-2.4509926572888663,0.39782780886358116,0.05135544484666224,0.0,79,0.0021736621856689453,0.9599023276013674,0.9599023276013674,16748,469.1039590746049,100.0
270,0.8606505393981934,-2.413445963987727,0.5896372082923947,-1.4106683137450284,-2.8657776314294274,0.0,0.17954550234401292,0.1,0.0022635459899902344,0.04524111747741699,0.049987964,0.55307347,-2.4472379879587525,0.3984135615372554,0.05222199653859376,0.0,69,0.0026352405548095703,0.9583427721539229,0.9583427721539229,16817,529.3244924579737,100.0
271,0.8288664817810059,-1.9088019652081032,0.4206766311012216,-1.4477713454427548,-2.588813457389846,0.0,0.17455143344017104,0.1,0.0026154518127441406,0.04545331001281738,0.048515428,0.47723722,-2.3933943856836875,0.43307032008947327,0.06270282766780486,0.0,74,0.00269317626953125,0.9561299708025288,0.9561299708025288,16891,479.1508121106752,100.0
272,0.8211157321929932,-3.27715821734614,0.5142525692546096,-2.713690625697184,-3.9262308794772656,0.0,0.15827010088349408,0.1,0.002248525619506836,0.04532217979431152,0.049922142,0.55179954,-2.481770768849933,0.3692969554005004,0.03731697874001808,0.0,72,0.003180265426635742,0.9633216868451719,0.9633216868451719,16963,489.81870887187523,100.0
273,0.8981187343597412,41.37118040988823,76.94154179669174,174.6367970370857,-3.546235182132365,0.0,0.2209319531464848,0.1,0.002409696578979492,0.049581050872802734,0.05004588,0.69302213,1.9035243490238831,0.4363844972803355,0.904755664584629,0.0,108,0.004378557205200195,1.0008957405362031,1.0008957405362031,17071,479.10342520775094,100.0
274,0.8403291702270508,-3.5166987027690526,1.7485835004580206,-1.2746106944796258,-6.143714635825258,0.0,0.19164624042179734,0.1,0.0023360252380371094,0.04604935646057129,0.050190415,0.4355695,1.3615020438445897,0.35148883529353087,0.0360641779236372,0.0,87,0.002779722213745117,0.971040374807584,0.971040374807584,17158,480.0106436521185,100.0
275,0.8361005783081055,-3.3725809189398452,0.6263651440807774,-2.5796786260817903,-4.044495442069822,0.0,0.16233506746292609,0.1,0.002313375473022461,0.04969596862792969,0.049987376,0.58146083,0.8880937475661463,0.35717820882952456,0.036766533770254295,0.0,76,0.002742767333984375,0.964599466808734,0.964599466808734,17234,180.31430929274498,0.0
276,0.8321988582611084,-3.158144738371431,0.9069547118401898,-1.6155936663856836,-3.9353889103204667,0.0,0.16349838627530414,0.1,0.002235889434814453,0.04526042938232422,0.05051862,0.5770255,0.48346989897238857,0.37570735837722014,0.0388316376703397,0.0,70,0.002466917037963867,0.9625861736224879,0.9625861736224879,17304,141.4843689260331,0.0
277,0.8990535736083984,-2.2507037936834853,0.11712105628705112,-2.0576478911282736,-2.354263360101333,0.0,0.17293168961108218,0.1,0.002301454544067383,0.045717716217041016,0.049896758,0.44890198,0.2100525297068012,0.40399174504276764,0.05685973116573075,0.0,78,0.0024564266204833984,0.957765163230683,0.957765163230683,17382,451.61031307890727,100.0
278,0.8376796245574951,-3.8299264150969234,1.9393769325501335,-1.5852226411448171,-6.862209751452356,0.0,0.1715782142997034,0.1,0.0022728443145751953,0.045607566833496094,0.04843282,0.59877896,-0.1939453647735713,0.32281006867647205,0.026444788292762547,0.0,75,0.002526521682739258,0.9695755000101686,0.9695755000101686,17457,501.8442413376659,100.0
279,0.8426268100738525,-1.7325511038412034,0.6419141708890677,-0.7463674194664387,-2.5321271551087237,0.0,0.1689931311718728,0.1,0.0026941299438476562,0.04575777053833008,0.049448926,0.4118313,-0.3478059386803345,0.4335299185375473,0.06723487389994971,0.0,81,0.0025343894958496094,0.9575163232797529,0.9575163232797529,17538,551.3357800147978,100.0
280,0.848149299621582,-3.121021043724511,0.6515282787789447,-2.1732426724296947,-3.9861035293465528,0.0,0.1704015258172107,0.1,0.0026445388793945312,0.04525470733642578,0.048893325,0.6017851,-0.6251274491847522,0.3673107664866062,0.03909045792261952,0.0,68,0.00272369384765625,0.9615946810300073,0.9615946810300073,17606,551.081775583357,100.0
281,0.8542156219482422,-2.850790445527754,0.5873361153323908,-2.251712197280394,-3.6106403888142973,0.0,0.18496472663863123,0.1,0.0022575855255126953,0.04621148109436035,0.050116904,0.4811195,-0.8476937488190524,0.3708526652043056,0.04657596733733322,0.0,81,0.002706289291381836,0.9613721799423108,0.9613721799423108,17687,501.06067953940715,100.0
282,0.8336734771728516,-2.41507867838609,1.2461266026867004,-0.7547573524186451,-4.209524124228984,0.0,0.17284324644412358,0.1,0.002270221710205078,0.045891761779785156,0.04944019,0.7925802,-1.0044322417757563,0.4022130792899027,0.05297128943443564,0.0,72,0.0026917457580566406,0.9608257646743379,0.9608257646743379,17759,551.8906964884831,100.0
283,0.8859632015228271,-2.6315542160395355,0.2491453016902364,-2.2293675370224038,-2.854688916326828,0.0,0.17246648151351684,0.1,0.0022420883178710938,0.04611968994140625,0.0504662,0.44088972,-1.1671444392021342,0.3880167715277587,0.050812653563303486,0.0,79,0.002688884735107422,0.9607130486667144,0.9607130486667144,17838,502.2368240730603,100.0
284,0.8462893962860107,-1.7378563903013697,0.5435263492191209,-1.0965404595511061,-2.5512899577244377,0.0,0.19475508784347395,0.1,0.00225830078125,0.047479867935180664,0.050145656,0.49458247,-1.2242156343120576,0.4246253660612395,0.06695962785794178,0.0,83,0.0029125213623046875,0.9566397908988862,0.9566397908988862,17921,501.7628499315467,100.0
285,0.9014031887054443,2.1560220851818475,7.277445703645416,14.5673256160341,-3.568138585959201,0.0,0.22131358820391692,0.1,0.002318859100341797,0.04725360870361328,0.04938671,0.53162605,-0.886191862362667,0.46739940539227676,0.121190265250919,0.0,108,0.004734516143798828,1.00725100586531,1.00725100586531,18029,150.7390731858831,0.0
286,0.8534142971038818,-1.2620438510981302,0.5301820783448795,-0.3802688202482285,-1.7972158845816244,0.0,0.17290561134978227,0.1,0.0022563934326171875,0.04553389549255371,0.048759714,0.45658198,-0.9237770612362134,0.4567440758957298,0.0763135464422463,0.0,83,0.0024712085723876953,0.9567083809072364,0.9567083809072364,18112,550.3199290578287,100.0
287,0.8691279888153076,-1.292595161874252,1.4589693722233654,0.8494540036092602,-2.7212892679070673,0.0,0.19567394389148599,0.1,0.0023729801177978516,0.04632973670959473,0.048838653,0.49355486,-0.9606588713000173,0.43481763530030704,0.07672149245818198,0.0,94,0.002681255340576172,0.961948769368379,0.961948769368379,18206,250.1806086713924,0.0
288,0.8618686199188232,-2.3874282360219157,1.3180052770738224,-0.7275028662058851,-4.281147783343228,0.0,0.20603395477883882,0.1,0.0022563934326171875,0.046428680419921875,0.049440183,0.5076914,-1.103335807772207,0.3890457126079452,0.05982481634916063,0.0,94,0.002588987350463867,0.9669053706482488,0.9669053706482488,18300,389.5028423757367,0.0
289,0.8712172508239746,-1.4543441048333015,1.021874480383249,-0.055585669285353134,-2.9430794043017823,0.0,0.18927140123383235,0.1,0.0025033950805664062,0.04589056968688965,0.05034175,0.5109967,-1.1384366374783166,0.429575558642157,0.07347249639700155,0.0,86,0.0027332305908203125,0.9594143655806633,0.9594143655806633,18386,589.9563534361661,100.0
290,0.8910317420959473,-1.853616273022334,1.1755245511790362,-0.16089018536795496,-3.3476472052512976,0.0,0.19549597411792186,0.1,0.002246856689453125,0.04558134078979492,0.049085885,0.5998359,-1.2099546010327182,0.42295654628822615,0.06650830483589609,0.0,84,0.002589702606201172,0.9610392732110842,0.9610392732110842,18470,539.8507863749143,100.0
291,0.8910131454467773,-2.7658584982390706,1.146198413671299,-0.9135825433586486,-3.78505900738012,0.0,0.17103951754581043,0.1,0.002249479293823242,0.04577231407165527,0.049354304,0.6514668,-1.3655449907533534,0.3762528255722002,0.049721116286797415,0.0,82,0.0023696422576904297,0.9639027338348294,0.9639027338348294,18552,150.35942425129912,0.0
292,0.8790521621704102,-1.7898707156826905,0.820808568168752,-1.0142583374144385,-3.166714718673675,0.0,0.16864097070573816,0.1,0.002279043197631836,0.04598593711853027,0.0496705,0.5196741,-1.4079775632462872,0.42277325653408887,0.06667555453964372,0.0,79,0.0024421215057373047,0.9592434734407781,0.9592434734407781,18631,150.24905090151677,0.0
293,1.5133585929870605,-2.7066152093567832,0.8800485996716187,-1.2082662539101476,-3.4462135570393695,0.0,0.19701094635157596,0.1,0.0022411346435546875,0.046630144119262695,0.049269423,0.4940477,-1.5378413278573368,0.38064044744888176,0.04994483406338294,0.0,80,0.0026979446411132812,0.9624555611501252,0.9624555611501252,18711,140.85812789192727,0.0
294,0.840609073638916,-2.090942443932277,0.7142558663021549,-1.5050863111136206,-3.300751458555485,0.0,0.2006223039318356,0.1,0.0024521350860595703,0.04813957214355469,0.050128534,0.46990547,-1.593151439464831,0.4059023439776948,0.06425728792310972,0.0,100,0.0026831626892089844,0.9646700321086108,0.9646700321086108,18811,491.18357232101727,100.0
295,0.8482365608215332,-3.3498984707855546,1.7602311404504012,-0.9361918798171658,-5.812933960865767,0.0,0.20061602804712125,0.1,0.002705097198486328,0.046707868576049805,0.04835731,0.5456504,-1.7688261425969034,0.34824437875844183,0.03931538637043057,0.0,80,0.0027527809143066406,0.9688941239145997,0.9688941239145997,18891,480.8118450912571,100.0
296,0.8661408424377441,-2.1197773721358226,1.7814340158698598,0.6989234842504048,-3.9736086529062913,0.0,0.2070361092792624,0.1,0.002392292022705078,0.0474851131439209,0.049339283,0.47026116,-1.8039212655507955,0.40177186551763794,0.0614973071103193,0.0,92,0.0024900436401367188,0.9652173368477879,0.9652173368477879,18983,541.1413910900349,100.0
297,0.9061839580535889,110.69485845865029,196.56023538064542,451.14674914430486,-3.116442378166947,25.0,0.22767794426444737,0.1,0.0025539398193359375,0.050016164779663086,0.04992131,0.5433872,9.445956706869314,0.4415778414360848,2.317239482157588,25.0,118,0.004346132278442383,1.0003572793325002,1.0003572793325002,19101,541.0077651844848,100.0
298,0.8687524795532227,-2.169835490383533,2.4848162003875602,1.6733848467757637,-4.737303363106296,0.0,0.2121198427452499,0.1,0.0023813247680664062,0.04732179641723633,0.049324807,0.5901905,8.28437748714403,0.3772624555409101,0.062720975780916,0.0,92,0.0029108524322509766,0.969515259985856,0.969515259985856,19193,480.0935839300403,100.0
299,0.8747169971466064,-2.344753121201652,1.5420304575061479,0.1879013895682533,-3.9811500373771374,0.0,0.19511287995619112,0.1,0.002348184585571289,0.047870635986328125,0.049731836,0.6115203,7.221464426309462,0.381763013322701,0.059278665154671534,0.0,93,0.002874612808227539,0.9670530190681816,0.9670530190681816,19286,470.06696070992365,100.0
300,0.8602488040924072,-2.231893937622802,0.5553221123485145,-1.3518736537085525,-2.8873990055749594,0.0,0.17607934735245961,0.1,0.002302885055541992,0.046504974365234375,0.04894185,0.49025017,6.276128589916236,0.4095128460177811,0.058541065640613094,0.0,80,0.00276947021484375,0.9603336326621683,0.9603336326621683,19366,480.81809664048336,100.0
301,0.9020674228668213,-1.911250503078915,1.2995980558946199,0.20927327785509942,-3.2800794897677026,0.0,0.19775052068955234,0.1,0.0023241043090820312,0.04687047004699707,0.048718847,0.5479411,5.4573906806167205,0.4032570980983736,0.06775807011504581,0.0,101,0.0029582977294921875,0.9677650944387992,0.9677650944387992,19467,470.17918857499086,100.0
302,0.8852365016937256,-2.6254943394635966,2.377448402481081,0.7898523032560387,-5.077144043834493,0.0,0.19241785859775068,0.1,0.002259492874145508,0.04582524299621582,0.048599027,0.52376837,4.649102178608689,0.37397268195030386,0.05282811390318977,0.0,84,0.002750873565673828,0.9692343455251047,0.9692343455251047,19551,469.6373092451757,100.0
303,0.8969898223876953,-2.610885126979541,2.9448227775907942,0.43531631646986835,-7.447089401447253,0.0,0.20187150509970717,0.1,0.002705097198486328,0.04576373100280762,0.04878992,0.5645976,3.923103448049866,0.3899355850116744,0.053558582556252704,0.0,89,0.0042040348052978516,0.9739667704876724,0.9739667704876724,19640,430.3697724869862,100.0
304,0.9393618106842041,0.44086992233669564,5.012896945963714,8.951935683784132,-3.723209861051368,0.0,0.2211943745071958,0.1,0.002587556838989258,0.047046661376953125,0.048673928,0.47804,3.574880095478549,0.4581901346109972,0.11088727507311211,0.0,105,0.002800464630126953,0.9962622123163054,0.9962622123163054,19745,430.2522632791395,100.0
305,0.8986861705780029,-0.6310304470842976,1.0876844486125294,0.9789499965532009,-1.717497942978289,0.0,0.19430956052159784,0.1,0.002254486083984375,0.04593658447265625,0.049889807,0.46151677,3.154289041222264,0.43959576108184073,0.08946710346942914,0.0,94,0.0027027130126953125,0.9615376106448871,0.9615376106448871,19839,369.5244290583459,0.0
306,0.8946750164031982,-0.44409721984412687,2.4894038376057077,2.2979728719720436,-3.1385123614669372,0.0,0.21106608393084608,0.1,0.002309083938598633,0.047965288162231445,0.05075291,0.53296286,2.7944504151156253,0.45084698701275794,0.09358114389647063,0.0,96,0.0025243759155273438,0.9727905717391708,0.9727905717391708,19935,479.71865017580717,100.0
307,0.8855457305908203,-1.4472159884838423,0.5233803598575544,-0.5834163546488886,-1.9922328893983559,0.0,0.16899007625073934,0.1,0.0022742748260498047,0.04607343673706055,0.049366783,0.4515104,2.3702837747556784,0.42345281002302176,0.07432600903748596,0.0,94,0.002595186233520508,0.9593646584977646,0.9593646584977646,20029,469.63210417277327,100.0
308,0.9308533668518066,-1.1826444072341626,1.2205459359597968,0.08063921446639366,-3.1874607594973754,0.0,0.211292060341929,0.1,0.002321481704711914,0.046914100646972656,0.050341677,0.41645086,2.0149909565566944,0.4319959917025209,0.08240248193855998,0.0,103,0.0029256343841552734,0.965324328002374,0.965324328002374,20132,469.11701549289984,100.0
309,0.8862221240997314,-1.769469965303247,1.3867480916287258,-0.15396091890440022,-3.6105847583405626,0.0,0.1773411641158297,0.1,0.002227306365966797,0.04541444778442383,0.049255047,0.5045594,1.6365448643707001,0.4044690099853124,0.0677209587302365,0.0,85,0.0025992393493652344,0.9624305424303548,0.9624305424303548,20217,419.6428994088429,100.0
310,0.8511779308319092,-1.7581376462426495,1.1697504628396918,-0.49358239350421673,-3.2701193150582997,0.0,0.1890374569809091,0.1,0.0024957656860351562,0.04681706428527832,0.049125545,0.46193066,1.2970766133093652,0.42114979470596714,0.06851679874732643,0.0,83,0.0032558441162109375,0.9617671933017573,0.9617671933017573,20300,369.2333890354286,0.0
311,0.8602867126464844,-0.7593868592523059,0.5027520801272958,-0.10974506922255056,-1.3799324623664875,0.0,0.19233377647709238,0.1,0.0024399757385253906,0.046662092208862305,0.049669884,0.4404724,1.091430266053198,0.4461228720713156,0.0870819335984701,0.0,91,0.0027959346771240234,0.9590670002493918,0.9590670002493918,20391,369.3284664265737,0.0
312,0.859717845916748,-0.49033450598631767,1.5019061098142465,1.8296765834834803,-2.1666572349624085,0.0,0.21484659856506755,0.1,0.0025854110717773438,0.046631574630737305,0.04975789,0.45020908,0.9332537888492465,0.45867491885332007,0.09272069040569977,0.0,94,0.0028405189514160156,0.9653778312562029,0.9653778312562029,20485,359.0818573845259,0.0
313,0.8746383190155029,-0.9693724775491671,1.3632681544398955,0.5422187990969327,-2.5121595553501646,0.0,0.20597617618043662,0.1,0.002446413040161133,0.04748725891113281,0.048683695,0.44584978,0.7429911622094051,0.43691451267378767,0.08584637617536449,0.0,101,0.004821062088012695,0.9675876842470794,0.9675876842470794,20586,408.62394122165307,100.0
314,0.8536438941955566,-2.321350713259731,1.4513980854572712,-0.7285878227323979,-3.784427439464017,0.0,0.18672977901376,0.1,0.0024607181549072266,0.04714655876159668,0.04979097,0.5269443,0.43655697466249144,0.3881321031818745,0.059559800034591125,0.0,90,0.0027060508728027344,0.9659329779706597,0.9659329779706597,20676,419.1971307103957,100.0
315,0.9205737113952637,146.90537365392169,257.3015153007776,592.5646461384232,-1.751180889787057,25.0,0.20336243806984425,0.1,0.0027112960815429688,0.048757076263427734,0.04849158,0.7552794,15.083438642588412,0.48888740173556544,3.0394403268015733,25.0,113,0.002924203872680664,1.0002743950741155,1.0002743950741155,20789,308.3700733305067,0.0
316,0.8770909309387207,-2.4182533064761036,3.8555480077282707,0.4217664252572151,-8.993071309736429,0.0,0.19902608689200288,0.1,0.002330780029296875,0.04667401313781738,0.049430724,0.40219933,13.33326944768196,0.4032283284891694,0.05943142386767137,0.0,101,0.007750749588012695,0.9823250567994053,0.9823250567994053,20890,419.2140801318301,100.0
317,0.9164628982543945,-0.4392162120965618,1.0529483565823936,1.3479236591178054,-1.3474327025061048,0.0,0.21228554792867482,0.1,0.002375364303588867,0.047621726989746094,0.049238633,0.5175162,11.95602088170411,0.45161300042305164,0.09180583594687172,0.0,96,0.0025954246520996094,0.961411680392688,0.961411680392688,20986,369.03997808750154,0.0
318,0.9076361656188965,6.8926217515475825,12.872887976307641,29.12108793130636,-1.8971164057820475,0.0,0.21582527223097825,0.1,0.002339601516723633,0.04732060432434082,0.050556526,0.5435751,11.449680968688456,0.5032591220872151,0.23796598842759845,0.0,109,0.0034041404724121094,1.0055421189517406,1.0055421189517406,21095,298.22972342182595,0.0
319,0.9284238815307617,16.62974430484964,33.308572542998654,74.29550485000709,-3.6070133572722485,0.0,0.2645296482336714,0.1,0.0024247169494628906,0.04820680618286133,0.048952695,0.44537544,11.967687302304576,0.43552037760317086,0.4137679790787717,0.0,129,0.010096549987792969,1.002040899925269,1.0010776391385483,21224,358.11051183220906,0.0
320,0.8881490230560303,-0.7226378039730482,1.148522072289827,1.1093414581581778,-2.0044528359084928,0.0,0.20196999013878536,0.1,0.0023653507232666016,0.04717683792114258,0.0499768,0.5002242,10.698654791676812,0.4449038153794829,0.09017716312590118,0.0,104,0.002698183059692383,0.9818992763992076,0.9818992763992076,21328,357.63700169074633,0.0
321,0.8805913925170898,-0.6613971967385244,1.270445862070951,0.7701494090200134,-2.61224666603003,0.0,0.1914407916624389,0.1,0.002240896224975586,0.045778512954711914,0.05110635,0.4334271,9.562649592835278,0.4649372133012062,0.08875504508392569,0.0,87,0.0027074813842773438,0.9793886852421131,0.9793886852421131,21415,346.90545179996417,0.0
322,0.9310300350189209,102.56817241162108,181.97077111303665,417.6907245219206,-7.956235357634657,25.0,0.23855457642313274,0.1,0.0024635791778564453,0.04947948455810547,0.05093612,0.5428749,18.86320187471386,0.46879623578021035,2.1325623576285353,25.0,127,0.0032923221588134766,1.0002036190287953,1.0002036190287953,21542,297.39819136056343,0.0
323,0.908287525177002,0.7805310815652029,1.7344989502104287,2.541674995373894,-1.356228283831463,0.0,0.22191194926085592,0.1,0.0023543834686279297,0.04861927032470703,0.048157867,0.38605392,17.054934795398996,0.4879445697538921,0.11710116204286379,0.0,106,0.006136417388916016,0.987278926988519,0.987278926988519,21648,247.45779053323398,0.0
324,0.9077081680297852,-0.1733279860014224,1.3301290221178699,2.0596131722998514,-1.3900893110595134,0.0,0.18909883404893943,0.1,0.0022916793823242188,0.046675920486450195,0.04969517,0.49148354,15.332108517258954,0.47982058042707704,0.09771747754123945,0.0,89,0.002691507339477539,0.9819688322207109,0.9819688322207109,21737,297.2660955111482,0.0
325,0.9411759376525879,0.22261244470599717,1.8207190240541955,2.67650540909258,-2.2850446811524474,0.0,0.2068328355744714,0.1,0.0023088455200195312,0.04717087745666504,0.04991789,0.45637813,13.821158910003659,0.47291722872833736,0.10568397166617965,0.0,98,0.0026900768280029297,0.9856042765304356,0.9856042765304356,21835,297.33105086570873,0.0
326,0.9110705852508545,-1.0613525094695047,3.539996492832071,2.3432022236789702,-6.6907762297521,0.0,0.22906706849411687,0.1,0.0030493736267089844,0.0493161678314209,0.048223577,0.4270609,12.332907768056343,0.42290766826698584,0.08613961662265035,0.0,120,0.004910707473754883,0.9880566869191105,0.9880566869191105,21955,357.34775740770647,0.0
327,0.9207882881164551,117.75510991576839,204.26918863106528,471.55884911656153,-0.901002746693552,25.0,0.2227435168087344,0.1,0.0025086402893066406,0.04970431327819824,0.04989246,0.5777152,22.87512798282755,0.532501601362674,2.4546551932328997,25.0,114,0.004830837249755859,1.0001860904888011,1.0001860904888011,22069,296.49830180929933,0.0
328,0.9221525192260742,7.378702375212045,13.484723857543237,30.66211917212776,-1.807490834092298,0.0,0.21168228333212702,0.1,0.002557039260864258,0.04933762550354004,0.049555596,0.5629616,21.325485422066,0.518654841742487,0.24992190140634765,0.0,114,0.003023862838745117,1.002554562741007,1.002554562741007,22183,347.3179150083237,0.0
329,0.8923811912536621,-0.931063528565923,0.5166544857874463,-0.3343809227530219,-1.6691002036072167,0.0,0.1888405569427008,0.1,0.002499818801879883,0.04796290397644043,0.049711794,0.44863418,19.09983052700281,0.4448828714972737,0.08486948026601869,0.0,100,0.002833843231201172,0.9789801645933464,0.9789801645933464,22283,307.2480249842983,0.0
330,0.9616832733154297,23.40451644233737,39.91758179647455,92.52822402135592,-1.0201222683033118,0.0,0.23914676109967178,0.1,0.0027570724487304688,0.04879283905029297,0.048890915,0.47852552,19.530299118536266,0.5405779357248792,0.5696248194669549,0.0,127,0.004955291748046875,1.0009462209916493,1.0009462209916493,22410,407.2782674857578,100.0
331,0.8951029777526855,-1.3824022598914034,1.6568590091174245,1.3601964427079452,-3.0924662568017602,0.0,0.20699987482477694,0.1,0.0024368762969970703,0.052292585372924805,0.049089894,0.4804344,17.4390289806935,0.42176458943110895,0.0767342517313413,0.0,103,0.00405430793762207,0.9818700653149842,0.9818700653149842,22513,357.2012356349624,0.0
332,0.9019520282745361,-2.2759699393641313,0.9947134591829239,-1.0194948648869673,-3.74204444304108,0.0,0.21654331487266232,0.1,0.0024251937866210938,0.04722857475280762,0.049724232,0.41241962,15.467529088687739,0.394488394019238,0.061488019326560936,0.0,101,0.004650592803955078,0.9820110579107127,0.9820110579107127,22614,357.78349751658794,0.0
333,0.9452064037322998,3.616897149932063,4.882921181496214,12.067125194398576,0.47154769029737853,0.0,0.2621153492127987,0.1,0.002453327178955078,0.0485076904296875,0.05010688,0.43950248,14.282465894812171,0.5156014388881555,0.14993383098609978,0.0,126,0.0031881332397460938,1.0052766867521965,1.0052766867521965,22740,407.0795952233563,100.0
334,0.9388620853424072,114.94928033184102,199.61352593912105,460.6875753566095,-1.5153374224725007,25.0,0.2450689466750614,0.1,0.002458810806274414,0.048226118087768555,0.049295194,0.528382,24.349147338515056,0.5134438844598768,2.400147050917032,25.0,119,0.0029768943786621094,1.000187639437794,1.000187639437794,22859,407.6127004661635,100.0
335,0.9184415340423584,-1.1728634262390958,0.849318607880066,0.03553350930128385,-1.9752645640860398,0.0,0.1880428849108031,0.1,0.002332925796508789,0.04641914367675781,0.049390055,0.4890048,21.79694626203964,0.4368655491790082,0.07957713991471908,0.0,92,0.0026559829711914062,0.9784493910061843,0.9784493910061843,22951,357.5568684269255,0.0
336,0.9745955467224121,29.102371918455418,42.30898767063611,101.54846549821724,-1.898718946264613,0.0,0.23946573249728884,0.1,0.002467632293701172,0.04895472526550293,0.05048574,0.57033706,22.527488827681218,0.5557445471780662,0.6568257245773268,0.0,145,0.008415460586547852,1.0009691709912727,1.0001619028009163,23096,306.85812831628135,0.0
337,0.9196817874908447,-1.081129454130446,1.1447194840392412,0.596136192648852,-2.6330833449183273,0.0,0.18597261675114163,0.1,0.0022950172424316406,0.04830193519592285,0.050052438,0.45537534,20.166626999500053,0.44496992611182734,0.08367598416095598,0.0,95,0.0030002593994140625,0.9967282553247127,0.9967282553247127,23191,367.43448028231205,0.0
338,1.000152826309204,249.3865439465045,260.35156485583104,633.1927699592698,8.637071369175839,25.0,0.2915638528383202,0.1,0.002454519271850586,0.0498509407043457,0.049702253,0.41422865,43.088618694200505,0.655409072197561,5.059251847703703,25.0,181,0.007725954055786133,1.0000275097696973,0.9999125774129985,23372,417.5579686679783,100.0
339,0.9929914474487305,118.79935505631059,204.04920953375066,472.22016472919955,-0.2755297850811731,25.0,0.23810017402304903,0.1,0.002385377883911133,0.048247337341308594,0.04954739,0.5944401,50.65969233041152,0.5358494588928373,2.476170640717397,25.0,134,0.009670019149780273,0.999906451218133,0.9997594354831103,23506,417.69898531504623,100.0
340,0.9863247871398926,118.54286428743589,204.8336656399308,472.96262291045923,-11.435416878359359,25.0,0.25882577801604006,0.1,0.002425670623779297,0.04880404472351074,0.050103974,0.4909813,57.44800952611396,0.45757704110580194,2.452568924817174,25.0,153,0.00953984260559082,0.999751533199215,0.9995911032390671,23659,357.586513295855,0.0
341,0.9726600646972656,130.08804203854123,232.01723882099685,531.8903820929419,-10.570937546325384,25.0,0.2386550587009021,0.1,0.0024166107177734375,0.04832029342651367,0.05053226,0.5215309,64.71201277735669,0.44806885094817717,2.7111603658791164,25.0,130,0.009731054306030273,0.9996649047247429,0.9995174046755322,23789,357.5091340622749,0.0
342,1.0162584781646729,278.27413112477814,236.39347282062957,552.6374192611352,13.571017944706323,50.0,0.2646731087400005,0.1,0.0025033950805664062,0.05025148391723633,0.049977727,0.43604884,86.06822461209885,0.6626331265790999,5.636864841157246,50.0,184,0.00913858413696289,0.9994374973694892,0.9992446880755124,23973,307.52303486261377,0.0
343,0.9870305061340332,-1.6487926190295186,0.3359095692870408,-1.313563503336399,-2.14847860046818,0.0,0.18624052398290414,0.1,0.0023050308227539062,0.046292781829833984,0.04821051,0.38317326,77.296522888986,0.41699980119831426,0.07257773743981624,0.0,95,0.0026464462280273438,1.0844531804124231,1.0844531804124231,24068,307.6276549521173,0.0
344,0.969771146774292,148.7668801393283,256.3765849393809,592.8237253329173,0.4432495683721882,25.0,0.24903314897288442,0.1,0.0024118423461914062,0.048429250717163086,0.049695745,0.4901994,84.44355861402025,0.5350330551031918,3.0748874116307365,25.0,127,0.0029840469360351562,0.9993919325604483,0.9993919325604483,24195,318.2230202535907,0.0
