iteration,time_sampling,stoc_pol_mean,stoc_pol_std,stoc_pol_max,stoc_pol_min,rollout_success,alpha,delta,time_vpg,time_npg,kl_dist,surr_improvement,running_score,rwd_sparse,rwd_dense,success_percentage,num_samples,time_VF,VF_error_before,VF_error_after,env_samples,eval_score,eval_success
0,1.780386209487915,-0.9999999760593725,1.0953748855280263e-09,-0.99999997491044,-0.9999999776259785,0.0,63.14189108632143,0.1,0.03144550323486328,0.006139039993286133,0.049479127,0.002397545,-0.9999999760593725,0.0,-0.0399999417705697,0.0,4,0.001203298568725586,1.0910965176961478,1.0910965176961478,4,-0.9999999746264233,0.0
1,1.4688942432403564,-0.9999999727755502,1.0428206536072523e-09,-0.9999999717156451,-0.9999999744844663,0.0,57.70745356578908,0.1,0.0015926361083984375,0.011501312255859375,0.050800472,0.001988546,-0.9999999757309903,0.0,-0.0399999417705697,0.0,4,0.0011906623840332031,1.0910965176961478,1.0910965176961478,8,-0.9999999745408527,0.0
2,2.737098217010498,-0.9999999755122307,8.657262872958774e-10,-0.9999999742716048,-0.9999999765925636,0.0,72.5499604025226,0.1,0.0016181468963623047,0.011309146881103516,0.049837768,0.0029383425,-0.9999999757091145,0.0,-0.0399999417705697,0.0,4,0.0011560916900634766,1.0910965176961478,1.0910965176961478,12,-0.9999999744791932,0.0
3,2.419027328491211,-0.999999974922833,9.801126573885818e-10,-0.9999999739524776,-0.9999999764405076,0.0,78.67570272937591,0.1,0.0013804435729980469,0.011217832565307617,0.050670147,0.0011104319,-0.9999999756304864,0.0,-0.0399999417705697,0.0,4,0.00118255615234375,1.0910965176961478,1.0910965176961478,16,-0.9999999744142479,0.0
4,1.9681928157806396,-0.9999999736394207,9.481260169831345e-10,-0.9999999723335706,-0.9999999749832627,0.0,66.53223957292488,0.1,0.001531839370727539,0.011539697647094727,0.04773861,0.0057293694,-0.9999999754313798,0.0,-0.0399999417705697,0.0,4,0.0013489723205566406,1.0910965176961478,1.0910965176961478,20,-0.9999999743437873,0.0
5,2.109633207321167,-0.9999999759229716,3.48159785203213e-10,-0.9999999754600963,-0.9999999764366478,0.0,226.01099591874652,0.1,0.0014638900756835938,0.01156163215637207,0.049450666,0.00082852936,-0.999999975480539,0.0,-0.0399999417705697,0.0,4,0.0011909008026123047,1.0910965176961478,1.0910965176961478,24,-0.9999999743071234,0.0
6,1.7366316318511963,-0.999999973687219,7.85279113304675e-10,-0.9999999724641326,-0.99999997463343,0.0,90.13280696681161,0.1,0.001535177230834961,0.011329889297485352,0.05011949,0.0017480216,-0.999999975301207,0.0,-0.0399999417705697,0.0,4,0.0012438297271728516,1.0910965176961478,1.0910965176961478,28,-0.9999999742477709,0.0
7,2.882887840270996,-0.999999973924516,9.083783447689785e-10,-0.9999999729135869,-0.9999999753531503,0.0,84.37927021519036,0.1,0.0014925003051757812,0.014363765716552734,0.049422204,0.002042771,-0.9999999751635379,0.0,-0.0399999417705697,0.0,4,0.0011806488037109375,1.0910965176961478,1.0910965176961478,32,-0.9999999741704468,0.0
8,2.052424907684326,-0.9999999742194965,1.515620358535204e-09,-0.9999999720412296,-0.9999999759048066,0.0,53.92495009838422,0.1,0.0014843940734863281,0.014559507369995117,0.050427616,0.0023719103,-0.9999999750691337,0.0,-0.0399999417705697,0.0,4,0.0012469291687011719,1.0910965176961478,1.0910965176961478,36,-0.9999999740399605,0.0
9,1.6208927631378174,-0.999999972893497,5.006127721163922e-10,-0.9999999724327415,-0.9999999737371319,0.0,134.07373847520165,0.1,0.0015761852264404297,0.014716863632202148,0.049833536,0.0011058801,-0.9999999748515701,0.0,-0.0399999417705697,0.0,4,0.0012276172637939453,1.0910965176961478,1.0910965176961478,40,-0.9999999739782371,0.0
10,1.5045278072357178,-0.9999999755321747,3.9809199118794405e-10,-0.9999999748938417,-0.9999999759459706,0.0,202.42707310673464,0.1,0.001500844955444336,0.011817693710327148,0.049382955,0.0007739728,-0.9999999749196307,0.0,-0.0399999417705697,0.0,4,0.0011641979217529297,1.0910965176961478,1.0910965176961478,44,-0.9999999739467973,0.0
11,1.7209320068359375,-0.9999999733275279,2.085914661781424e-09,-0.9999999712526333,-0.9999999763638121,0.0,30.354577360580166,0.1,0.0016891956329345703,0.014133453369140625,0.05057618,0.0041446737,-0.9999999747604204,0.0,-0.0399999417705697,0.0,4,0.004819154739379883,1.0910965176961478,1.0910965176961478,48,-0.9999999737788775,0.0
12,1.7809317111968994,-0.9999999733321023,8.451755300262197e-10,-0.9999999719397199,-0.9999999742222316,0.0,85.83895102927006,0.1,0.0016655921936035156,0.015247106552124023,0.049462855,0.002309138,-0.9999999746175885,0.0,-0.0399999417705697,0.0,4,0.0012371540069580078,1.0910965176961478,1.0910965176961478,52,-0.9999999737211825,0.0
13,1.9710605144500732,-0.9999999731343823,1.1441955721243983e-09,-0.9999999720790658,-0.9999999750624486,0.0,58.4435541126857,0.1,0.0014176368713378906,0.01427149772644043,0.051647007,0.0015527572,-0.9999999744692679,0.0,-0.0399999417705697,0.0,4,0.001300811767578125,1.0910965176961478,1.0910965176961478,56,-0.9999999736172073,0.0
14,1.853360891342163,-0.9999999727292888,1.7950692573964032e-09,-0.9999999710746252,-0.9999999755535383,0.0,33.95579869598765,0.1,0.0013837814331054688,0.01676177978515625,0.050497383,0.0026693135,-0.99999997429527,0.0,-0.0399999417705697,0.0,4,0.0011813640594482422,1.0910965176961478,1.0910965176961478,60,-0.9999999735183631,0.0
15,2.1518819332122803,-0.9999999727988382,1.1661098995952109e-09,-0.9999999714497694,-0.9999999742861287,0.0,62.2912337051415,0.1,0.0016109943389892578,0.014679193496704102,0.050437644,0.0018131754,-0.9999999741456268,0.0,-0.0399999417705697,0.0,4,0.0012805461883544922,1.0910965176961478,1.0910965176961478,64,-0.9999999734478067,0.0
16,1.9344351291656494,-0.9999999727772727,1.271795200881895e-09,-0.9999999717874086,-0.999999974943458,0.0,52.149125840127525,0.1,0.0015573501586914062,0.013954639434814453,0.050885603,0.0019705088,-0.9999999740087914,0.0,-0.0399999417705697,0.0,4,0.001201629638671875,1.0910965176961478,1.0910965176961478,68,-0.9999999733197141,0.0
17,2.0989444255828857,-0.999999973454879,1.5111220033725068e-09,-0.9999999722606907,-0.9999999760240232,0.0,43.83439909095426,0.1,0.0014071464538574219,0.017488479614257812,0.050550565,0.0030968504,-0.9999999739534001,0.0,-0.0399999417705697,0.0,4,0.0012717247009277344,1.0910965176961478,1.0910965176961478,72,-0.9999999732210064,0.0
18,1.956732988357544,-0.9999999739004124,9.472055754733716e-10,-0.9999999726072155,-0.9999999748858437,0.0,65.113748226742,0.1,0.0014982223510742188,0.014122247695922852,0.048840433,0.0041446975,-0.9999999739481014,0.0,-0.0399999417705697,0.0,4,0.001252889633178711,1.0910965176961478,1.0910965176961478,76,-0.9999999731503472,0.0
19,1.6554794311523438,-0.9999999728541429,1.8244099049315676e-09,-0.9999999707300053,-0.9999999757420786,0.0,34.65970962021282,0.1,0.0015442371368408203,0.016997575759887695,0.04937218,0.006289681,-0.9999999738387055,0.0,-0.0399999417705697,0.0,4,0.0012142658233642578,1.0910965176961478,1.0910965176961478,80,-0.9999999730110684,0.0
20,1.7374074459075928,-0.999999972667444,4.960487561462279e-10,-0.9999999720289556,-0.9999999733280822,0.0,149.64854602385122,0.1,0.0014424324035644531,0.014334440231323242,0.051334694,0.0006371101,-0.9999999737215794,0.0,-0.0399999417705697,0.0,4,0.0013997554779052734,1.0910965176961478,1.0910965176961478,84,-0.9999999729561058,0.0
21,1.8094327449798584,-0.9999999736181382,9.436900637426605e-10,-0.999999972275309,-0.9999999747728705,0.0,77.4864665737925,0.1,0.0015482902526855469,0.014511346817016602,0.04993981,0.001809858,-0.9999999737112354,0.0,-0.0399999417705697,0.0,4,0.001260519027709961,1.0910965176961478,1.0910965176961478,88,-0.9999999728980628,0.0
22,1.4501028060913086,-0.999999974178682,1.2899936351540433e-09,-0.9999999720212376,-0.9999999753625064,0.0,50.15192101596263,0.1,0.001470327377319336,0.017229557037353516,0.049890146,0.0045216763,-0.9999999737579801,0.0,-0.0399999417705697,0.0,4,0.0011830329895019531,1.0910965176961478,1.0910965176961478,92,-0.9999999727931397,0.0
23,1.8323376178741455,-0.9999999732449834,6.188286854149078e-10,-0.9999999726227766,-0.9999999741519423,0.0,109.11079796640779,0.1,0.0015807151794433594,0.016894102096557617,0.049394682,0.0015132172,-0.9999999737066805,0.0,-0.0399999417705697,0.0,4,0.0011012554168701172,1.0910965176961478,1.0910965176961478,96,-0.9999999727075012,0.0
24,1.8772802352905273,-0.999999972679076,3.9199928180894855e-10,-0.9999999720648625,-0.9999999731019558,0.0,206.95687222893696,0.1,0.0014336109161376953,0.014146089553833008,0.0500177,0.000801284,-0.9999999736039201,0.0,-0.0399999417705697,0.0,4,0.0011997222900390625,1.0910965176961478,1.0910965176961478,100,-0.9999999726690781,0.0
25,1.5435922145843506,-0.9999999725453901,1.329438347554544e-09,-0.9999999702632927,-0.9999999734652196,0.0,50.09712132537343,0.1,0.0014064311981201172,0.01701664924621582,0.049547806,0.0047960985,-0.9999999734980671,0.0,-0.0399999417705697,0.0,4,0.0011818408966064453,1.0910965176961478,1.0910965176961478,104,-0.999999972497582,0.0
26,1.7268671989440918,-0.9999999725041815,8.828792144583097e-10,-0.9999999711597114,-0.9999999733346101,0.0,78.73460142971912,0.1,0.0013916492462158203,0.01675105094909668,0.050423533,0.0018718594,-0.9999999733986786,0.0,-0.0399999417705697,0.0,4,0.0012505054473876953,1.0910965176961478,1.0910965176961478,108,-0.999999972380436,0.0
27,1.7350776195526123,-0.9999999721937046,4.9803567188658e-10,-0.9999999716430077,-0.999999973003258,0.0,158.77472800492777,0.1,0.001615285873413086,0.01511693000793457,0.05199025,0.00042597184,-0.9999999732781812,0.0,-0.0399999417705697,0.0,4,0.0013782978057861328,1.0910965176961478,1.0910965176961478,112,-0.999999972309848,0.0
28,2.2464687824249268,-0.9999999725518232,9.365882362424225e-10,-0.9999999715132724,-0.9999999740713625,0.0,78.41264214977835,0.1,0.0015254020690917969,0.016902923583984375,0.050645508,0.0014862776,-0.9999999732055456,0.0,-0.0399999417705697,0.0,4,0.0012485980987548828,1.0910965176961478,1.0910965176961478,116,-0.9999999722259717,0.0
29,2.0423967838287354,-0.9999999723879986,7.316602773803124e-10,-0.9999999717677583,-0.9999999736357263,0.0,81.63168672977108,0.1,0.0015490055084228516,0.017710447311401367,0.051667854,0.0009101098,-0.999999973123791,0.0,-0.0399999417705697,0.0,4,0.0011649131774902344,1.0910965176961478,1.0910965176961478,120,-0.999999972171015,0.0
30,1.692101240158081,-0.9999999724708795,1.8373747174382696e-09,-0.9999999703652453,-0.9999999751441206,0.0,32.71360900424829,0.1,0.0014736652374267578,0.020730972290039062,0.050345086,0.0044839764,-0.9999999730584999,0.0,-0.0399999417705697,0.0,4,0.0012974739074707031,1.0910965176961478,1.0910965176961478,124,-0.9999999719878757,0.0
31,1.7437503337860107,-0.9999999723701267,1.313078044338972e-09,-0.9999999712418335,-0.999999974600206,0.0,44.64167552862447,0.1,0.0015485286712646484,0.019949674606323242,0.05197109,0.0012812677,-0.9999999729896626,0.0,-0.0399999417705697,0.0,4,0.0011913776397705078,1.0910965176961478,1.0910965176961478,128,-0.9999999719296073,0.0
32,1.73103928565979,-0.9999999712513243,3.0112724623008897e-10,-0.999999970785842,-0.9999999716225385,0.0,257.4432334464143,0.1,0.0014376640319824219,0.014463186264038086,0.050323658,0.00052741164,-0.9999999728158288,0.0,-0.0399999417705697,0.0,4,0.001196146011352539,1.0910965176961478,1.0910965176961478,132,-0.9999999718767038,0.0
33,2.0666983127593994,-0.9999999721419275,5.589379073661815e-10,-0.9999999712321082,-0.9999999726914985,0.0,150.00522380398436,0.1,0.0013823509216308594,0.020187854766845703,0.05018093,0.001213811,-0.9999999727484387,0.0,-0.0399999417705697,0.0,4,0.0012059211730957031,1.0910965176961478,1.0910965176961478,136,-0.9999999718335301,0.0
34,1.8070745468139648,-0.9999999721756676,9.12831687840649e-10,-0.9999999708247167,-0.9999999732357172,0.0,71.10154348966613,0.1,0.001476287841796875,0.020385026931762695,0.049269613,0.0025274805,-0.9999999726911616,0.0,-0.0399999417705697,0.0,4,0.0012884140014648438,1.0910965176961478,1.0910965176961478,140,-0.9999999717093435,0.0
35,1.9660193920135498,-0.9999999719370711,6.567908010450862e-10,-0.999999970950816,-0.9999999725381221,0.0,77.91470273990606,0.1,0.0013988018035888672,0.017530441284179688,0.04925691,0.0046262345,-0.9999999726157526,0.0,-0.0399999417705697,0.0,4,0.0012481212615966797,1.0910965176961478,1.0910965176961478,144,-0.9999999716743386,0.0
36,1.5873785018920898,-0.9999999725721178,1.278900231746083e-09,-0.9999999707027225,-0.9999999741856,0.0,46.58991765170832,0.1,0.0015292167663574219,0.022470474243164062,0.05014099,0.0045540733,-0.9999999726113891,0.0,-0.0399999417705697,0.0,4,0.0013637542724609375,1.0910965176961478,1.0910965176961478,148,-0.9999999715647542,0.0
37,2.0042924880981445,-0.9999999712972104,3.8351923644447933e-10,-0.9999999706602114,-0.9999999716661645,0.0,196.90976083060096,0.1,0.0014729499816894531,0.017419815063476562,0.048718162,0.0011531756,-0.9999999724799713,0.0,-0.0399999417705697,0.0,4,0.0011951923370361328,1.0910965176961478,1.0910965176961478,152,-0.9999999715488367,0.0
38,2.085052013397217,-0.9999999725901827,7.35098753701573e-10,-0.9999999716603991,-0.9999999733877436,0.0,91.05796686067123,0.1,0.0015413761138916016,0.01669597625732422,0.04950785,0.0020210445,-0.9999999724909925,0.0,-0.0399999417705697,0.0,4,0.001207113265991211,1.0910965176961478,1.0910965176961478,156,-0.9999999714850846,0.0
39,1.9635875225067139,-0.9999999724221651,7.15606533474568e-10,-0.9999999717177566,-0.9999999735937666,0.0,91.87080885098024,0.1,0.0015723705291748047,0.01988983154296875,0.05240935,0.0009157467,-0.9999999724841098,0.0,-0.0399999417705697,0.0,4,0.0011279582977294922,1.0910965176961478,1.0910965176961478,160,-0.9999999713982661,0.0
40,1.9078030586242676,-0.9999999717332142,5.941103240171408e-10,-0.9999999707797174,-0.9999999723554214,0.0,122.6185468189749,0.1,0.0015838146209716797,0.020566940307617188,0.04992786,0.0017216039,-0.9999999724090203,0.0,-0.0399999417705697,0.0,4,0.0011627674102783203,1.0910965176961478,1.0910965176961478,164,-0.9999999713160772,0.0
41,1.5543339252471924,-0.999999971771667,3.531305580605485e-10,-0.9999999712528056,-0.9999999721016766,0.0,231.69446234074547,0.1,0.0015971660614013672,0.017147302627563477,0.049709395,0.0007838873,-0.9999999723452849,0.0,-0.0399999417705697,0.0,4,0.0012066364288330078,1.0910965176961478,1.0910965176961478,168,-0.9999999713059268,0.0
42,1.9608469009399414,-0.9999999722456501,6.94351800598661e-10,-0.9999999711025651,-0.9999999729548927,0.0,93.8289251195528,0.1,0.0014982223510742188,0.019869327545166016,0.04958777,0.002856053,-0.9999999723353215,0.0,-0.0399999417705697,0.0,4,0.0011696815490722656,1.0910965176961478,1.0910965176961478,172,-0.9999999712181452,0.0
43,1.9051735401153564,-0.9999999719927433,1.4422277400679367e-09,-0.9999999701038966,-0.9999999740704257,0.0,45.934057489186266,0.1,0.0016908645629882812,0.02327895164489746,0.05058226,0.0024991743,-0.9999999723010636,0.0,-0.0399999417705697,0.0,4,0.0012676715850830078,1.0910965176961478,1.0910965176961478,176,-0.9999999711166061,0.0
44,2.096123456954956,-0.9999999716121516,1.1304419472554558e-09,-0.9999999699917832,-0.999999973007776,0.0,68.57903488730742,0.1,0.0015671253204345703,0.022713661193847656,0.050146922,0.002690153,-0.9999999722321724,0.0,-0.0399999417705697,0.0,4,0.0012257099151611328,1.0910965176961478,1.0910965176961478,180,-0.9999999710965816,0.0
45,1.612016201019287,-0.9999999716219568,9.208681077403814e-10,-0.9999999703197389,-0.9999999729201476,0.0,85.70054872219795,0.1,0.0015888214111328125,0.022981643676757812,0.0498455,0.002058592,-0.9999999721711509,0.0,-0.0399999417705697,0.0,4,0.0012328624725341797,1.0910965176961478,1.0910965176961478,184,-0.9999999709964454,0.0
46,1.5042572021484375,-0.9999999716913837,4.533762353411486e-10,-0.999999970970123,-0.9999999721163875,0.0,165.17555461794583,0.1,0.0013878345489501953,0.01942729949951172,0.05087343,0.00072948466,-0.9999999721231743,0.0,-0.0399999417705697,0.0,4,0.0012133121490478516,1.0910965176961478,1.0910965176961478,188,-0.9999999709433517,0.0
47,1.778742790222168,-0.9999999716702662,1.652344286230654e-10,-0.9999999714751662,-0.9999999718742871,0.0,452.21610411572755,0.1,0.0015597343444824219,0.017147302627563477,0.049379498,0.00029652868,-0.9999999720778834,0.0,-0.0399999417705697,0.0,4,0.001196146011352539,1.0910965176961478,1.0910965176961478,192,-0.9999999708997769,0.0
48,1.911510944366455,-0.999999972053061,1.1225519972848884e-09,-0.9999999708527669,-0.9999999737758534,0.0,46.634424300393114,0.1,0.0016331672668457031,0.022411108016967773,0.053676993,0.0012657836,-0.9999999720754011,0.0,-0.0399999417705697,0.0,4,0.0011570453643798828,1.0910965176961478,1.0910965176961478,196,-0.9999999708427141,0.0
49,2.425072431564331,-0.9999999718418235,1.6947319730863266e-09,-0.9999999705364859,-0.9999999747542452,0.0,35.11863301163972,0.1,0.0015819072723388672,0.022340774536132812,0.051830538,0.00246368,-0.9999999720520435,0.0,-0.0399999417705697,0.0,4,0.0012106895446777344,1.0910965176961478,1.0910965176961478,200,-0.9999999707822914,0.0
50,2.4619836807250977,-0.9999999711388605,9.963267992631215e-10,-0.999999969883409,-0.9999999726735505,0.0,63.12121502903421,0.1,0.0014939308166503906,0.023012638092041016,0.05139433,0.0013295573,-0.9999999719607252,0.0,-0.0399999417705697,0.0,4,0.0013878345489501953,1.0910965176961478,1.0910965176961478,204,-0.9999999707372534,0.0
51,2.103360414505005,-0.9999999714105205,5.506402196185991e-10,-0.9999999710046792,-0.9999999723593409,0.0,146.53168249069492,0.1,0.0014636516571044922,0.020113468170166016,0.051070184,0.00063352706,-0.9999999719057047,0.0,-0.0399999417705697,0.0,4,0.0012898445129394531,1.0910965176961478,1.0910965176961478,208,-0.9999999707262432,0.0
52,1.9637846946716309,-0.9999999715538286,2.2415506621440587e-10,-0.9999999713707193,-0.9999999719362713,0.0,274.2791038204628,0.1,0.001566171646118164,0.02033233642578125,0.05230552,0.0002066754,-0.9999999718705171,0.0,-0.0399999417705697,0.0,4,0.001199960708618164,1.0910965176961478,1.0910965176961478,212,-0.9999999707082076,0.0
53,2.0062873363494873,-0.9999999706632405,6.44431245805258e-10,-0.9999999700143116,-0.9999999713730543,0.0,135.14364986930337,0.1,0.001634836196899414,0.02316904067993164,0.050587263,0.00086634315,-0.9999999717497896,0.0,-0.0399999417705697,0.0,4,0.001249074935913086,1.0910965827305719,1.0910965827305719,216,-0.9999999706760933,0.0
54,1.7346305847167969,-0.9999999714058272,3.9206612534036174e-10,-0.9999999707737031,-0.9999999718421568,0.0,185.56741251674518,0.1,0.0015289783477783203,0.020151376724243164,0.05049769,0.0010143954,-0.9999999717153933,0.0,-0.0399999417705697,0.0,4,0.0011982917785644531,1.0910965176961478,1.0910965176961478,220,-0.9999999706426413,0.0
55,1.8580436706542969,-0.9999999712590247,4.6425724758471777e-10,-0.9999999708363836,-0.9999999719841279,0.0,225.02410679761647,0.1,0.0014195442199707031,0.019802570343017578,0.050085135,0.0004900667,-0.9999999716697565,0.0,-0.0399999417705697,0.0,4,0.0011463165283203125,1.0910965176961478,1.0910965176961478,224,-0.9999999705348798,0.0
56,1.6224422454833984,-0.9999999715573689,7.666567550887223e-10,-0.9999999706348586,-0.9999999727442488,0.0,81.16304243413241,0.1,0.0015454292297363281,0.02260565757751465,0.04969196,0.0020709299,-0.9999999716585178,0.0,-0.0399999417705697,0.0,4,0.0011646747589111328,1.0910965176961478,1.0910965176961478,228,-0.9999999705024396,0.0
57,1.8707380294799805,-0.9999999712260497,3.0592994176549024e-10,-0.9999999707330018,-0.9999999715678278,0.0,260.7273832794557,0.1,0.001537322998046875,0.020082473754882812,0.049960993,0.00078401016,-0.9999999716152711,0.0,-0.0399999417705697,0.0,4,0.001207590103149414,1.0910965176961478,1.0910965176961478,232,-0.9999999704680076,0.0
58,1.873197078704834,-0.9999999722077502,1.2001567407914467e-09,-0.9999999709489884,-0.9999999741816088,0.0,51.077947586382194,0.1,0.0015456676483154297,0.022489309310913086,0.036351413,0.0018173639,-0.999999971674519,0.0,-0.0399999417705697,0.0,4,0.0012638568878173828,1.0910965176961478,1.0910965176961478,236,-0.9999999704647586,0.0
59,1.799893856048584,-0.9999999710098402,3.3982928655350105e-10,-0.9999999705603371,-0.9999999715160868,0.0,232.8175774446581,0.1,0.00151824951171875,0.020045042037963867,0.051111963,0.00051840313,-0.9999999716080512,0.0,-0.0399999417705697,0.0,4,0.0012722015380859375,1.0910965176961478,1.0910965176961478,240,-0.9999999704198675,0.0
60,1.6291732788085938,-0.9999999712278357,9.377507388608486e-10,-0.999999970097345,-0.9999999725482323,0.0,71.281064215218,0.1,0.0015168190002441406,0.022338390350341797,0.051746726,0.0010270746,-0.9999999715700296,0.0,-0.0399999417705697,0.0,4,0.0012774467468261719,1.0910965176961478,1.0910965176961478,244,-0.9999999703968689,0.0
61,1.9069645404815674,-0.9999999710397968,5.03692830498409e-10,-0.999999970260804,-0.9999999716651624,0.0,142.20716053787854,0.1,0.0016713142395019531,0.023820161819458008,0.04967977,0.0018687497,-0.9999999715170064,0.0,-0.0399999417705697,0.0,4,0.0013051033020019531,1.0910965176961478,1.0910965176961478,248,-0.9999999703564871,0.0
62,1.5353586673736572,-0.9999999711191071,9.54948461558542e-11,-0.9999999710248688,-0.9999999712762409,0.0,639.1743844386074,0.1,0.0015642642974853516,0.01677870750427246,0.051685363,0.00017617049,-0.9999999714772165,0.0,-0.0399999417705697,0.0,4,0.0011601448059082031,1.0910965176961478,1.0910965176961478,252,-0.9999999703547787,0.0
63,1.7408287525177002,-0.999999970831807,9.15408054485257e-10,-0.9999999698165027,-0.9999999722161896,0.0,74.13470826013679,0.1,0.0015139579772949219,0.022951602935791016,0.05355966,0.0009219161,-0.9999999714126756,0.0,-0.0399999417705697,0.0,4,0.001405477523803711,1.0910965176961478,1.0910965176961478,256,-0.9999999702617655,0.0
64,1.6800105571746826,-0.9999999709641961,1.2189916433315244e-10,-0.9999999708260052,-0.9999999711603562,0.0,492.13532855901695,0.1,0.0014772415161132812,0.019936800003051758,0.050789133,0.00021574032,-0.9999999713678277,0.0,-0.0399999417705697,0.0,4,0.00125885009765625,1.0910965176961478,1.0910965176961478,260,-0.9999999702489376,0.0
65,1.967228651046753,-0.9999999708494564,4.054574743519948e-10,-0.9999999701865376,-0.9999999712876331,0.0,139.00232563120267,0.1,0.0014798641204833984,0.019461870193481445,0.049907804,0.0025570332,-0.9999999713159906,0.0,-0.0399999417705697,0.0,4,0.0011470317840576172,1.0910965176961478,1.0910965176961478,264,-0.9999999702315203,0.0
66,1.8117485046386719,-0.9999999711922787,2.914699137581119e-10,-0.9999999707653191,-0.9999999715504573,0.0,215.08465056672873,0.1,0.0014538764953613281,0.022568225860595703,0.049890622,0.0009584442,-0.9999999713036195,0.0,-0.0399999417705697,0.0,4,0.0011713504791259766,1.0910965176961478,1.0910965176961478,268,-0.9999999702418254,0.0
67,2.002352237701416,-0.9999999706562341,3.7909225794983597e-10,-0.999999970135568,-0.9999999711763832,0.0,179.382495386613,0.1,0.0014815330505371094,0.02318572998046875,0.05017297,0.0009109173,-0.9999999712388811,0.0,-0.0399999417705697,0.0,4,0.0012388229370117188,1.0910965176961478,1.0910965176961478,272,-0.9999999701695685,0.0
68,1.8817832469940186,-0.9999999712223262,5.316074917312975e-10,-0.9999999705891298,-0.999999972021121,0.0,135.4743870147967,0.1,0.0015606880187988281,0.022142887115478516,0.050835148,0.0010982901,-0.9999999712372256,0.0,-0.0399999417705697,0.0,4,0.0012099742889404297,1.0910965176961478,1.0910965176961478,276,-0.9999999701649981,0.0
69,1.8220932483673096,-0.9999999709056951,5.131058236272412e-10,-0.9999999702862554,-0.9999999715883516,0.0,128.0385162562956,0.1,0.0015532970428466797,0.023439645767211914,0.05035253,0.0007773766,-0.9999999712040726,0.0,-0.0399999417705697,0.0,4,0.001313924789428711,1.0910965176961478,1.0910965176961478,280,-0.999999970118724,0.0
70,1.8243741989135742,-0.9999999703388031,2.993273359355411e-10,-0.9999999699443687,-0.999999970700989,0.0,229.40995319735373,0.1,0.0013780593872070312,0.019533157348632812,0.048045024,0.000663372,-0.9999999711175457,0.0,-0.0399999417705697,0.0,4,0.0012967586517333984,1.0910965176961478,1.0910965176961478,284,-0.9999999700863443,0.0
71,1.8117008209228516,-0.999999970920731,6.23290933531921e-10,-0.9999999703166318,-0.9999999719515387,0.0,109.86642457639162,0.1,0.0014638900756835938,0.022485733032226562,0.05033742,0.0011141384,-0.9999999710978642,0.0,-0.0399999417705697,0.0,4,0.0012295246124267578,1.0910965176961478,1.0910965176961478,288,-0.9999999700743482,0.0
72,1.8111176490783691,-0.9999999703732307,3.8082850189612234e-10,-0.9999999700588682,-0.9999999710220127,0.0,143.14543841428645,0.1,0.0015802383422851562,0.020519018173217773,0.052234903,0.0004270866,-0.999999971025401,0.0,-0.0399999417705697,0.0,4,0.001165628433227539,1.0910965827305719,1.0910965827305719,292,-0.999999970049231,0.0
73,1.7832529544830322,-0.9999999708878841,6.284020138894974e-10,-0.9999999698843602,-0.9999999715798236,0.0,85.65628834585507,0.1,0.0014171600341796875,0.02267003059387207,0.049717866,0.003493764,-0.9999999710116493,0.0,-0.0399999417705697,0.0,4,0.0012111663818359375,1.0910965176961478,1.0910965176961478,296,-0.9999999700170101,0.0
74,1.5098552703857422,-0.9999999701195187,2.3662386722250553e-10,-0.9999999697417696,-0.9999999703952307,0.0,297.56514821052764,0.1,0.0016014575958251953,0.0195767879486084,0.047867507,0.0012072657,-0.9999999709224362,0.0,-0.0399999417705697,0.0,4,0.001271963119506836,1.0910966477650037,1.0910966477650037,300,-0.9999999699985094,0.0
75,1.8887665271759033,-0.9999999714241018,7.323936355486624e-10,-0.999999970395842,-0.9999999724542568,0.0,90.22932969528038,0.1,0.0014500617980957031,0.022388935089111328,0.051692247,0.001232091,-0.9999999709726027,0.0,-0.0399999417705697,0.0,4,0.0012285709381103516,1.0910965176961478,1.0910965176961478,304,-0.9999999699861705,0.0
76,1.5036683082580566,-0.9999999704807707,3.1936086671133675e-10,-0.9999999700094637,-0.9999999708649072,0.0,202.7410604012424,0.1,0.001394510269165039,0.022919416427612305,0.049544185,0.0010492837,-0.9999999709234195,0.0,-0.0399999417705697,0.0,4,0.0012519359588623047,1.0910965176961478,1.0910965176961478,308,-0.9999999699804633,0.0
77,1.8343877792358398,-0.9999999705221618,2.449060832912838e-10,-0.9999999701817135,-0.9999999708187339,0.0,293.65207210585163,0.1,0.0013506412506103516,0.019978046417236328,0.04942722,0.0005899172,-0.9999999708832937,0.0,-0.0399999417705697,0.0,4,0.0012061595916748047,1.0910965176961478,1.0910965176961478,312,-0.9999999699640862,0.0
78,1.6499173641204834,-0.9999999702894073,4.777122014551414e-10,-0.9999999698433635,-0.9999999710615044,0.0,160.93189099268497,0.1,0.0015950202941894531,0.023117542266845703,0.050812393,0.0004513269,-0.9999999708239051,0.0,-0.0399999417705697,0.0,4,0.0011301040649414062,1.0910965176961478,1.0910965176961478,316,-0.9999999699427472,0.0
79,1.7081248760223389,-0.9999999705173501,5.469895280685313e-10,-0.9999999699027342,-0.9999999710971694,0.0,112.77062558948073,0.1,0.0015139579772949219,0.022759199142456055,0.04868816,0.0018599994,-0.9999999707932496,0.0,-0.0399999417705697,0.0,4,0.0011441707611083984,1.0910965176961478,1.0910965176961478,320,-0.9999999699089535,0.0
80,1.9014081954956055,-0.99999996998665,3.5633757330239706e-10,-0.9999999695857094,-0.9999999704465565,0.0,226.8832265721533,0.1,0.001588582992553711,0.022770404815673828,0.05217751,0.0002878636,-0.9999999707125897,0.0,-0.0399999417705697,0.0,4,0.001190185546875,1.0910965827305719,1.0910965827305719,324,-0.9999999698735239,0.0
81,1.78106689453125,-0.9999999708336755,6.252399445146319e-10,-0.9999999698638142,-0.9999999715751133,0.0,112.17626499772994,0.1,0.0015201568603515625,0.022388696670532227,0.049857043,0.0017348656,-0.9999999707246984,0.0,-0.0399999417705697,0.0,4,0.0012080669403076172,1.0910965176961478,1.0910965176961478,328,-0.9999999698433101,0.0
82,1.5704472064971924,-0.9999999702420136,1.4559154004767783e-10,-0.9999999700141795,-0.9999999704198139,0.0,493.1208980698643,0.1,0.0015778541564941406,0.01970386505126953,0.049537145,0.0005050647,-0.9999999706764299,0.0,-0.0399999417705697,0.0,4,0.001188039779663086,1.0910965176961478,1.0910965176961478,332,-0.9999999698470909,0.0
83,1.5191049575805664,-0.9999999701923294,2.6174760775101193e-10,-0.9999999698902853,-0.9999999706108817,0.0,288.435701775021,0.1,0.0015106201171875,0.022782564163208008,0.051577523,0.00027373675,-0.9999999706280198,0.0,-0.0399999417705697,0.0,4,0.0011985301971435547,1.0910966477650037,1.0910966477650037,336,-0.9999999698356133,0.0
84,2.1455743312835693,-0.9999999697956179,1.985711789061241e-10,-0.9999999694952284,-0.9999999700510687,0.0,285.76207868652136,0.1,0.0015976428985595703,0.02274799346923828,0.050266482,0.0009610188,-0.9999999705447797,0.0,-0.0399999417705697,0.0,4,0.0012311935424804688,1.0910966477650037,1.0910966477650037,340,-0.999999969822515,0.0
85,1.7499339580535889,-0.9999999699813429,1.5926309982866865e-10,-0.9999999697213138,-0.9999999701540729,0.0,455.54862498670826,0.1,0.0015797615051269531,0.02331852912902832,0.048842065,0.00055101264,-0.9999999704884361,0.0,-0.0399999417705697,0.0,4,0.001969575881958008,1.0910966477650037,1.0910966477650037,344,-0.9999999698057885,0.0
86,1.7833783626556396,-0.9999999709195115,7.973456869722299e-10,-0.9999999700443434,-0.9999999720161503,0.0,95.164093052039,0.1,0.0014696121215820312,0.025229454040527344,0.051479526,0.0007937229,-0.9999999705315438,0.0,-0.0399999417705697,0.0,4,0.001238107681274414,1.0910965176961478,1.0910965176961478,348,-0.9999999697804022,0.0
87,1.5673754215240479,-0.9999999699465929,5.225329734245951e-10,-0.9999999694214297,-0.9999999708065073,0.0,129.63790794014017,0.1,0.0016047954559326172,0.02533698081970215,0.05229029,0.00052930287,-0.9999999704730488,0.0,-0.0399999417705697,0.0,4,0.0011229515075683594,1.0910966477650037,1.0910966477650037,352,-0.9999999697792786,0.0
88,1.851362943649292,-0.9999999707086731,2.305615675961698e-10,-0.9999999704870868,-0.99999997102953,0.0,305.349572344474,0.1,0.00150299072265625,0.02233290672302246,0.0506081,0.00031127624,-0.9999999704966112,0.0,-0.0399999417705697,0.0,4,0.0012099742889404297,1.0910965176961478,1.0910965176961478,356,-0.9999999697526182,0.0
89,1.952918529510498,-0.9999999703143074,3.0664998025687824e-10,-0.9999999698734818,-0.999999970726752,0.0,184.25389673935084,0.1,0.0014748573303222656,0.02659130096435547,0.047755875,0.0015087966,-0.9999999704783809,0.0,-0.0399999417705697,0.0,4,0.0012319087982177734,1.0910965176961478,1.0910965176961478,360,-0.9999999697318587,0.0
90,1.4216361045837402,-0.9999999704386863,3.6653506917646955e-10,-0.9999999699643105,-0.9999999709879175,0.0,181.9694359593011,0.1,0.0015456676483154297,0.022943973541259766,0.05095757,0.00087865384,-0.9999999704744115,0.0,-0.0399999417705697,0.0,4,0.001268148422241211,1.0910965176961478,1.0910965176961478,364,-0.9999999697087194,0.0
91,1.5820457935333252,-0.9999999698419254,1.4636064231373197e-10,-0.9999999696802369,-0.9999999700774596,0.0,498.8143352265697,0.1,0.001499176025390625,0.022649288177490234,0.049698092,0.00034051115,-0.9999999704111628,0.0,-0.0399999417705697,0.0,4,0.0013098716735839844,1.0910966477650037,1.0910966477650037,368,-0.9999999696839623,0.0
92,1.5858533382415771,-0.9999999697574513,2.6890974826553867e-10,-0.9999999694135593,-0.9999999701662823,0.0,250.63357403500584,0.1,0.0015478134155273438,0.02345752716064453,0.049765483,0.00086202344,-0.9999999703457917,0.0,-0.0399999417705697,0.0,4,0.0013425350189208984,1.0910966477650037,1.0910966477650037,372,-0.9999999696602161,0.0
93,1.6049013137817383,-0.9999999701052009,1.467881848355176e-10,-0.9999999698825095,-0.9999999702651399,0.0,620.1407529544512,0.1,0.0015912055969238281,0.020190954208374023,0.047824427,0.00034389747,-0.9999999703217326,0.0,-0.0399999417705697,0.0,4,0.001241922378540039,1.0910965827305719,1.0910965827305719,376,-0.9999999696626092,0.0
94,2.252567768096924,-0.9999999707848932,7.397947500841786e-10,-0.9999999700273443,-0.999999971983107,0.0,78.2765178220979,0.1,0.0015511512756347656,0.02578258514404297,0.050583832,0.0011419784,-0.9999999703680487,0.0,-0.0399999417705697,0.0,4,0.0011699199676513672,1.0910965176961478,1.0910965176961478,380,-0.9999999696332899,0.0
95,1.4903497695922852,-0.999999970183559,5.403605728781234e-10,-0.9999999695471127,-0.9999999709276699,0.0,119.70743763688071,0.1,0.0016777515411376953,0.0286252498626709,0.0495466,0.0014588509,-0.9999999703495998,0.0,-0.0399999417705697,0.0,4,0.0012314319610595703,1.0910965176961478,1.0910965176961478,384,-0.9999999696021152,0.0
96,1.6079514026641846,-0.9999999696595765,2.0558961077638328e-10,-0.999999969339826,-0.9999999698839384,0.0,302.84378595989773,0.1,0.0015125274658203125,0.02231144905090332,0.050164834,0.00063817104,-0.9999999702805974,0.0,-0.0399999417705697,0.0,4,0.0011858940124511719,1.0910966477650037,1.0910966477650037,388,-0.9999999695779275,0.0
97,1.657891035079956,-0.9999999703908422,1.6749898570699553e-10,-0.9999999701829347,-0.9999999706003375,0.0,408.91793790431126,0.1,0.0015444755554199219,0.023231983184814453,0.0487104,0.0004869729,-0.9999999702916219,0.0,-0.0399999417705697,0.0,4,0.0011761188507080078,1.0910965176961478,1.0910965176961478,392,-0.9999999695805086,0.0
98,1.7200675010681152,-0.9999999708303369,1.180379861158657e-10,-0.9999999706801221,-0.9999999709575949,0.0,565.1337316636151,0.1,0.0016396045684814453,0.020644187927246094,0.05025535,0.00026640858,-0.9999999703454934,0.0,-0.0399999417705697,0.0,4,0.0012123584747314453,1.0910965176961478,1.0910965176961478,396,-0.9999999696117566,0.0
99,1.9496006965637207,-0.999999970294402,6.75241320803516e-10,-0.9999999695798609,-0.9999999714021874,0.0,103.00204548046668,0.1,0.0015974044799804688,0.028439044952392578,0.050870255,0.001199738,-0.9999999703403842,0.0,-0.0399999417705697,0.0,4,0.0012252330780029297,1.0910966477650037,1.0910966477650037,400,-0.9999999695619372,0.0
100,2.2091331481933594,-0.9999999708324112,1.2794073277115992e-09,-0.9999999694253054,-0.9999999726305699,0.0,38.45769791143347,0.1,0.0014455318450927734,0.02779841423034668,0.030037887,0.0015391496,-0.999999970389587,0.0,-0.0399999417705697,0.0,4,0.0011708736419677734,1.0910965176961478,1.0910965176961478,404,-0.9999999695557408,0.0
101,2.2622058391571045,-0.9999999702194355,2.613161703338511e-10,-0.9999999700070135,-0.9999999706653535,0.0,354.14772561180035,0.1,0.0015625953674316406,0.022313356399536133,0.050047666,0.00026133395,-0.9999999703725719,0.0,-0.0399999417705697,0.0,4,0.0011723041534423828,1.0910966477650037,1.0910966477650037,408,-0.9999999695414226,0.0
102,2.21925687789917,-0.9999999700417648,4.1301245352898205e-10,-0.9999999696230057,-0.9999999706911036,0.0,221.63707762454314,0.1,0.0014810562133789062,0.024942874908447266,0.05070166,0.000421996,-0.9999999703394913,0.0,-0.0399999417705697,0.0,4,0.001201629638671875,1.0910966477650037,1.0910966477650037,412,-0.9999999695229748,0.0
103,2.214036464691162,-0.9999999701396395,4.0772464251951233e-10,-0.9999999694400126,-0.999999970462286,0.0,150.1706096240597,0.1,0.0015671253204345703,0.025809288024902344,0.04786387,0.0028126305,-0.9999999703195062,0.0,-0.0399999417705697,0.0,4,0.0011773109436035156,1.0910965176961478,1.0910965176961478,416,-0.9999999694966956,0.0
104,1.6932082176208496,-0.9999999699405824,2.347844660462026e-10,-0.9999999695884929,-0.9999999702241971,0.0,264.0793454757508,0.1,0.0015943050384521484,0.025481224060058594,0.0487525,0.000942264,-0.9999999702816138,0.0,-0.0399999417705697,0.0,4,0.0012192726135253906,1.0910966477650037,1.0910966477650037,420,-0.999999969483479,0.0
105,1.610325574874878,-0.9999999699216171,2.1229326239029244e-10,-0.9999999696269721,-0.9999999702045359,0.0,318.4838030110039,0.1,0.0015802383422851562,0.025295019149780273,0.049504913,0.0007232378,-0.9999999702456142,0.0,-0.0399999417705697,0.0,4,0.0011448860168457031,1.0910966477650037,1.0910966477650037,424,-0.9999999694719662,0.0
106,1.7762057781219482,-0.9999999700996637,4.0253279851591434e-10,-0.9999999697683377,-0.9999999707770331,0.0,169.6898428146845,0.1,0.0016658306121826172,0.02660393714904785,0.052055985,0.00046344512,-0.9999999702310192,0.0,-0.0399999417705697,0.0,4,0.0011904239654541016,1.0910966477650037,1.0910966477650037,428,-0.9999999694493876,0.0
107,1.6984515190124512,-0.9999999701600776,2.9060464408792286e-10,-0.9999999697154558,-0.9999999705123745,0.0,234.27107282672617,0.1,0.0014691352844238281,0.025620222091674805,0.050666243,0.00059848017,-0.9999999702239251,0.0,-0.0399999417705697,0.0,4,0.0012593269348144531,1.0910965827305719,1.0910965827305719,432,-0.9999999694458873,0.0
108,2.0688347816467285,-0.9999999701830823,6.647238270224553e-10,-0.9999999697653414,-0.9999999713336876,0.0,112.41149844299785,0.1,0.0014047622680664062,0.0272824764251709,0.047000565,0.00058856246,-0.9999999702198408,0.0,-0.0399999417705697,0.0,4,0.0011506080627441406,1.0910966477650037,1.0910966477650037,436,-0.9999999694436235,0.0
109,1.499438762664795,-0.9999999703801394,3.065328015498092e-10,-0.999999970007347,-0.9999999708607694,0.0,228.859785944772,0.1,0.0017254352569580078,0.02634453773498535,0.0482321,0.00053462933,-0.9999999702358707,0.0,-0.0399999417705697,0.0,4,0.0012776851654052734,1.0910965176961478,1.0910965176961478,440,-0.9999999694600539,0.0
110,1.8631079196929932,-0.9999999698118247,3.190990233431125e-10,-0.9999999694381629,-0.9999999702902163,0.0,206.2357291360503,0.1,0.0015041828155517578,0.025270700454711914,0.053075857,0.00033975372,-0.9999999701934661,0.0,-0.0399999417705697,0.0,4,0.0012767314910888672,1.0910966477650037,1.0910966477650037,444,-0.9999999694367928,0.0
111,1.6346538066864014,-0.9999999699691184,4.110464394479245e-10,-0.999999969337652,-0.999999970337992,0.0,156.5031397451885,0.1,0.0015690326690673828,0.02521681785583496,0.048479725,0.002057805,-0.9999999701710314,0.0,-0.0399999417705697,0.0,4,0.0012443065643310547,1.0910965827305719,1.0910965827305719,448,-0.9999999694111743,0.0
112,1.7503974437713623,-0.9999999700001663,3.682765653684387e-10,-0.9999999696637671,-0.9999999705785654,0.0,208.04400613907904,0.1,0.0016026496887207031,0.02597212791442871,0.050719954,0.0003873593,-0.9999999701539448,0.0,-0.0399999417705697,0.0,4,0.0011751651763916016,1.0910966477650037,1.0910966477650037,452,-0.9999999693933926,0.0
113,1.7415924072265625,-0.9999999699042493,5.308720474562957e-10,-0.9999999693084596,-0.9999999707497871,0.0,148.69804830364612,0.1,0.0015971660614013672,0.02822589874267578,0.050102193,0.0006207194,-0.9999999701289753,0.0,-0.0399999417705697,0.0,4,0.0012254714965820312,1.0910966477650037,1.0910966477650037,456,-0.9999999693620597,0.0
114,1.754060983657837,-0.9999999699509057,4.535875103535151e-10,-0.9999999695064694,-0.9999999705455596,0.0,154.00177169786872,0.1,0.0015778541564941406,0.02854466438293457,0.050825786,0.0008425973,-0.9999999701111684,0.0,-0.0399999417705697,0.0,4,0.0012385845184326172,1.0910965176961478,1.0910965176961478,460,-0.9999999693533118,0.0
115,2.041651725769043,-0.9999999696705533,1.8184384401945698e-10,-0.9999999695474877,-0.9999999699834412,0.0,454.7331103440126,0.1,0.0014796257019042969,0.025499582290649414,0.050435092,0.00022828815,-0.9999999700671068,0.0,-0.0399999417705697,0.0,4,0.0011942386627197266,1.0910966477650037,1.0910966477650037,464,-0.9999999693475544,0.0
116,1.8139150142669678,-0.9999999698220277,3.036609370405794e-10,-0.9999999693985131,-0.9999999701805196,0.0,189.22995306622448,0.1,0.0015101432800292969,0.028102397918701172,0.04948329,0.00091115705,-0.9999999700425989,0.0,-0.0399999417705697,0.0,4,0.0011572837829589844,1.0910966477650037,1.0910966477650037,468,-0.9999999693455167,0.0
117,1.7059645652770996,-0.9999999699286355,1.8081701440576065e-10,-0.9999999697503832,-0.9999999702188893,0.0,321.94078102921054,0.1,0.0014696121215820312,0.026165485382080078,0.04954536,0.00044386933,-0.9999999700312026,0.0,-0.0399999417705697,0.0,4,0.001270294189453125,1.0910966477650037,1.0910966477650037,472,-0.9999999693587243,0.0
118,1.8789582252502441,-0.9999999698933006,2.8609308760519054e-10,-0.9999999694592296,-0.9999999702618101,0.0,243.42189981885622,0.1,0.0015745162963867188,0.02826857566833496,0.049965173,0.00074470445,-0.9999999700174124,0.0,-0.0399999417705697,0.0,4,0.001226186752319336,1.0910966477650037,1.0910966477650037,476,-0.9999999693356559,0.0
119,2.030348062515259,-0.9999999697972998,3.1265450669373317e-10,-0.9999999693381476,-0.9999999701869933,0.0,180.42230553721546,0.1,0.0015633106231689453,0.0283052921295166,0.0502181,0.00118623,-0.9999999699954011,0.0,-0.0399999417705697,0.0,4,0.0012819766998291016,1.0910966477650037,1.0910966477650037,480,-0.9999999693222895,0.0
120,1.5533056259155273,-0.9999999699855225,3.0116069595576544e-10,-0.9999999695478432,-0.9999999703234135,0.0,210.79473542050295,0.1,0.0015969276428222656,0.028324365615844727,0.050257266,0.00060039485,-0.9999999699944132,0.0,-0.0399999417705697,0.0,4,0.0012199878692626953,1.0910966477650037,1.0910966477650037,484,-0.9999999693247495,0.0
121,2.010291337966919,-0.9999999700209792,2.628396867825655e-10,-0.9999999695777226,-0.9999999702394919,0.0,202.17148381864502,0.1,0.001486063003540039,0.02846240997314453,0.0458075,0.0034352415,-0.9999999699970699,0.0,-0.0399999417705697,0.0,4,0.001238107681274414,1.0910966477650037,1.0910966477650037,488,-0.9999999693165762,0.0
122,1.8683087825775146,-0.9999999705084748,1.0722303947686487e-09,-0.9999999695273016,-0.9999999722103656,0.0,48.4507186224721,0.1,0.0015575885772705078,0.02731919288635254,0.033638366,0.00092127663,-0.9999999700482104,0.0,-0.0399999417705697,0.0,4,0.0013058185577392578,1.0910965827305719,1.0910965827305719,492,-0.9999999693204624,0.0
123,1.7122852802276611,-0.9999999696794528,2.891246950553389e-10,-0.9999999694171908,-0.9999999701681059,0.0,214.99345489656795,0.1,0.0015609264373779297,0.02936244010925293,0.051946998,0.00027149532,-0.9999999700113347,0.0,-0.0399999417705697,0.0,4,0.0012023448944091797,1.0910966477650037,1.0910966477650037,496,-0.9999999693226864,0.0
124,1.6658692359924316,-0.9999999698678145,3.84076080058263e-10,-0.9999999694889627,-0.9999999704970306,0.0,198.51307387777447,0.1,0.0015680789947509766,0.028025388717651367,0.049953032,0.0005496905,-0.9999999699969826,0.0,-0.0399999417705697,0.0,4,0.0012154579162597656,1.0910966477650037,1.0910966477650037,500,-0.9999999693180168,0.0
125,1.9784259796142578,-0.9999999698603295,2.7932574881144837e-10,-0.9999999694895965,-0.9999999702115068,0.0,231.636318308576,0.1,0.0013973712921142578,0.02721881866455078,0.050095093,0.000706656,-0.9999999699833173,0.0,-0.0399999417705697,0.0,4,0.0012068748474121094,1.0910966477650037,1.0910966477650037,504,-0.9999999693191248,0.0
126,1.6364738941192627,-0.9999999695376465,3.479841038766648e-10,-0.9999999692452821,-0.9999999701288764,0.0,149.8167980616995,0.1,0.0014808177947998047,0.02867436408996582,0.04093074,0.00026816025,-0.9999999699387503,0.0,-0.0399999417705697,0.0,4,0.001271963119506836,1.0910966477650037,1.0910966477650037,508,-0.9999999693115936,0.0
127,1.6825053691864014,-0.9999999698664395,2.6424386974818237e-10,-0.9999999694572395,-0.9999999701898776,0.0,282.8242605997028,0.1,0.0015101432800292969,0.028724193572998047,0.050043285,0.00046311747,-0.9999999699315193,0.0,-0.0399999417705697,0.0,4,0.0011668205261230469,1.0910966477650037,1.0910966477650037,512,-0.9999999693079328,0.0
128,1.5750653743743896,-0.9999999697443642,6.538641532339234e-10,-0.9999999693595625,-0.9999999708768352,0.0,88.54080097124604,0.1,0.0016164779663085938,0.02775859832763672,0.052263822,0.00069952215,-0.9999999699128038,0.0,-0.0399999417705697,0.0,4,0.001222848892211914,1.0910966477650037,1.0910966477650037,516,-0.9999999693000313,0.0
129,1.776928424835205,-0.9999999694225981,1.3673029514061892e-10,-0.9999999692721113,-0.9999999696217379,0.0,467.3460643324322,0.1,0.0015416145324707031,0.02566218376159668,0.051112622,0.00020626836,-0.9999999698637833,0.0,-0.0399999417705697,0.0,4,0.001291513442993164,1.0910966477650037,1.0910966477650037,520,-0.9999999692919114,0.0
130,2.164841651916504,-0.9999999699390143,5.044832766915575e-10,-0.9999999693626267,-0.9999999707469815,0.0,111.96646951727824,0.1,0.0014164447784423828,0.027361392974853516,0.046617355,0.0022538567,-0.9999999698713065,0.0,-0.0399999417705697,0.0,4,0.0012118816375732422,1.0910966477650037,1.0910966477650037,524,-0.9999999692845697,0.0
131,1.796370029449463,-0.9999999694863839,1.3044261740934516e-10,-0.999999969326834,-0.9999999696205433,0.0,568.2894537020371,0.1,0.0015897750854492188,0.02490830421447754,0.049157776,0.00045512913,-0.9999999698328143,0.0,-0.0399999417705697,0.0,4,0.0012030601501464844,1.0910966477650037,1.0910966477650037,528,-0.9999999692806009,0.0
132,2.1687252521514893,-0.999999969659614,2.05601633982937e-10,-0.9999999694188768,-0.9999999699340187,0.0,280.3094041834072,0.1,0.0015172958374023438,0.0286257266998291,0.04497751,0.00023441351,-0.9999999698154942,0.0,-0.0399999417705697,0.0,4,0.0012781620025634766,1.0910966477650037,1.0910966477650037,532,-0.9999999692874454,0.0
133,2.6033780574798584,-0.9999999698212865,3.5244870715473837e-10,-0.9999999694279875,-0.9999999702839297,0.0,136.99182464871507,0.1,0.0015866756439208984,0.028635263442993164,0.051973157,0.0005986101,-0.9999999698160735,0.0,-0.0399999417705697,0.0,4,0.0012562274932861328,1.0910966477650037,1.0910966477650037,536,-0.9999999692893488,0.0
134,2.0691957473754883,-0.9999999695080786,2.592863905205344e-10,-0.9999999692042301,-0.9999999698602482,0.0,244.81822684954813,0.1,0.0014410018920898438,0.028172731399536133,0.050915025,0.000388369,-0.9999999697852741,0.0,-0.0399999417705697,0.0,4,0.0011875629425048828,1.0910966477650037,1.0910966477650037,540,-0.9999999692885347,0.0
135,1.6144189834594727,-0.9999999696489883,2.532403388454893e-10,-0.9999999693172443,-0.9999999699931013,0.0,271.37447189797416,0.1,0.0015456676483154297,0.0274200439453125,0.051883943,0.00034658462,-0.9999999697716455,0.0,-0.0399999417705697,0.0,4,0.0011992454528808594,1.0910966477650037,1.0910966477650037,544,-0.9999999692861183,0.0
136,1.6676793098449707,-0.9999999698169988,3.020174164911017e-10,-0.9999999694004373,-0.9999999701116313,0.0,222.62825315688457,0.1,0.0015807151794433594,0.027735233306884766,0.046515513,0.0006978919,-0.9999999697761809,0.0,-0.0399999417705697,0.0,4,0.001192331314086914,1.0910966477650037,1.0910966477650037,548,-0.9999999692824918,0.0
137,1.7101752758026123,-0.9999999696380499,8.302152023946932e-11,-0.9999999695022159,-0.9999999697138353,0.0,872.6010459985455,0.1,0.0015552043914794922,0.025533676147460938,0.049729247,0.0002533009,-0.9999999697623678,0.0,-0.0399999417705697,0.0,4,0.0012066364288330078,1.0910966477650037,1.0910966477650037,552,-0.9999999692818258,0.0
138,1.8233637809753418,-0.999999969453981,1.5759934782774774e-10,-0.9999999693142314,-0.9999999697178723,0.0,391.9919182287896,0.1,0.0014300346374511719,0.025205373764038086,0.050924532,0.000117807474,-0.9999999697315292,0.0,-0.0399999417705697,0.0,4,0.001178741455078125,1.0910966477650037,1.0910966477650037,556,-0.9999999692761697,0.0
139,1.7483201026916504,-0.9999999694576294,2.344312713544531e-10,-0.9999999692324317,-0.9999999698306581,0.0,300.27540523717727,0.1,0.0014111995697021484,0.028023242950439453,0.04904171,0.00048426914,-0.9999999697041393,0.0,-0.0399999417705697,0.0,4,0.0012433528900146484,1.0910966477650037,1.0910966477650037,560,-0.9999999692663907,0.0
140,1.7389788627624512,-0.99999996946356,2.7054165770934935e-10,-0.9999999691478383,-0.9999999697699915,0.0,224.83481879826994,0.1,0.0015320777893066406,0.027864694595336914,0.049965806,0.00037775812,-0.9999999696800813,0.0,-0.0399999417705697,0.0,4,0.0012278556823730469,1.0910966477650037,1.0910966477650037,564,-0.9999999692611768,0.0
141,1.897308111190796,-0.9999999695078318,2.108383731142974e-10,-0.9999999693206629,-0.9999999698461024,0.0,289.2017460448055,0.1,0.0015654563903808594,0.027596712112426758,0.045447715,0.00019001639,-0.9999999696628564,0.0,-0.0399999417705697,0.0,4,0.0011713504791259766,1.0910966477650037,1.0910966477650037,568,-0.9999999692480723,0.0
142,1.656006097793579,-0.9999999696702874,3.5609432676446666e-10,-0.9999999691746579,-0.9999999701312015,0.0,156.86690467317788,0.1,0.0015363693237304688,0.0272519588470459,0.04398227,0.000877857,-0.9999999696635996,0.0,-0.0399999417705697,0.0,4,0.0012116432189941406,1.0910966477650037,1.0910966477650037,572,-0.9999999692370166,0.0
143,2.445746898651123,-0.9999999694261658,1.026600308666706e-10,-0.9999999693011943,-0.99999996958044,0.0,669.020527568466,0.1,0.0016102790832519531,0.025008201599121094,0.0465444,0.00011484565,-0.9999999696398563,0.0,-0.0399999417705697,0.0,4,0.0011816024780273438,1.0910966477650037,1.0910966477650037,576,-0.9999999692372318,0.0
144,1.5752203464508057,-0.9999999698194213,3.485073550334914e-10,-0.9999999694101112,-0.9999999703722169,0.0,162.39626956606116,0.1,0.0015709400177001953,0.02784109115600586,0.045783818,0.00028746316,-0.9999999696578128,0.0,-0.0399999417705697,0.0,4,0.001268625259399414,1.0910966477650037,1.0910966477650037,580,-0.9999999692322149,0.0
145,1.8442583084106445,-0.9999999696116094,1.2885310302403822e-10,-0.9999999694826189,-0.9999999697730901,0.0,544.2648413027102,0.1,0.0014047622680664062,0.02573680877685547,0.050014395,0.00025702495,-0.9999999696531925,0.0,-0.0399999417705697,0.0,4,0.0012288093566894531,1.0910966477650037,1.0910966477650037,584,-0.9999999692348466,0.0
146,1.7840242385864258,-0.9999999696325523,3.041617490031554e-10,-0.9999999692507713,-0.9999999699948716,0.0,187.21620289667203,0.1,0.0014865398406982422,0.028022050857543945,0.049967952,0.0004170521,-0.9999999696511285,0.0,-0.0399999417705697,0.0,4,0.0011327266693115234,1.0910966477650037,1.0910966477650037,588,-0.9999999692274532,0.0
147,1.858109951019287,-0.9999999697492322,3.787952574824298e-10,-0.9999999694776724,-0.9999999704011973,0.0,176.60357302164923,0.1,0.0015194416046142578,0.02807331085205078,0.0459214,0.00026753027,-0.9999999696609388,0.0,-0.0399999417705697,0.0,4,0.001272439956665039,1.0910966477650037,1.0910966477650037,592,-0.9999999692262912,0.0
148,1.7824673652648926,-0.9999999695608588,5.2408424579378114e-11,-0.999999969478528,-0.9999999696133919,0.0,1369.3802721445436,0.1,0.001577615737915039,0.02201104164123535,0.047931597,0.0001078643,-0.9999999696509309,0.0,-0.0399999417705697,0.0,4,0.0011796951293945312,1.0910966477650037,1.0910966477650037,596,-0.9999999692255642,0.0
149,1.9996509552001953,-0.9999999696435706,6.145550618192708e-10,-0.9999999690819121,-0.9999999706817855,0.0,81.31169084814046,0.1,0.0013895034790039062,0.027232885360717773,0.047473885,0.0005576454,-0.9999999696501949,0.0,-0.0399999417705697,0.0,4,0.001087188720703125,1.0910966477650037,1.0910966477650037,600,-0.9999999692223618,0.0
150,1.6011664867401123,-0.9999999696565198,3.9534700322311604e-10,-0.9999999691820094,-0.9999999702394147,0.0,165.96730574380456,0.1,0.001590728759765625,0.027528762817382812,0.04171294,0.0009882122,-0.9999999696508274,0.0,-0.0399999417705697,0.0,4,0.0011818408966064453,1.0910966477650037,1.0910966477650037,604,-0.9999999692137913,0.0
151,1.5677576065063477,-0.9999999696910786,1.6437220038624263e-10,-0.9999999695384425,-0.9999999699585544,0.0,317.0865790068222,0.1,0.001470804214477539,0.02867269515991211,0.039380625,0.0003097282,-0.9999999696548525,0.0,-0.0399999417705697,0.0,4,0.001222848892211914,1.0910966477650037,1.0910966477650037,608,-0.9999999692066878,0.0
152,1.6696810722351074,-0.9999999693241405,5.2012523612200035e-11,-0.9999999692551076,-0.9999999694005148,0.0,1613.6639449784984,0.1,0.0015506744384765625,0.021795272827148438,0.050332658,6.4701664e-05,-0.9999999696217813,0.0,-0.0399999417705697,0.0,4,0.0012044906616210938,1.0910966477650037,1.0910966477650037,612,-0.999999969201553,0.0
153,1.6257896423339844,-0.9999999692874378,1.0691197691067838e-10,-0.9999999692016817,-0.999999969469942,0.0,549.5048782776595,0.1,0.0014638900756835938,0.0254058837890625,0.054217003,7.114491e-05,-0.999999969588347,0.0,-0.0399999417705697,0.0,4,0.0011930465698242188,1.0910966477650037,1.0910966477650037,616,-0.9999999692008058,0.0
154,1.580326795578003,-0.9999999693295298,1.2397846481099847e-10,-0.9999999691814021,-0.9999999694622668,0.0,556.147560846628,0.1,0.0013530254364013672,0.02477884292602539,0.050006278,0.00032755805,-0.9999999695624654,0.0,-0.0399999417705697,0.0,4,0.001148223876953125,1.0910966477650037,1.0910966477650037,620,-0.9999999691955689,0.0
155,1.5017688274383545,-0.9999999693375069,1.2839674913694895e-10,-0.9999999691527781,-0.9999999694808706,0.0,492.03532052890847,0.1,0.0015282630920410156,0.025786399841308594,0.050207444,0.00024446144,-0.9999999695399696,0.0,-0.0399999417705697,0.0,4,0.0012590885162353516,1.0910966477650037,1.0910966477650037,624,-0.999999969182801,0.0
156,1.6553969383239746,-0.9999999694390017,1.3237720751211218e-10,-0.9999999693270334,-0.9999999696631525,0.0,419.5730371206135,0.1,0.001481771469116211,0.027591466903686523,0.04979121,9.711004e-05,-0.9999999695298728,0.0,-0.0399999417705697,0.0,4,0.0011925697326660156,1.0910966477650037,1.0910966477650037,628,-0.9999999691869093,0.0
157,1.8085381984710693,-0.9999999695022398,1.1364727974854292e-10,-0.9999999693688222,-0.9999999696817474,0.0,539.7764188946776,0.1,0.0015916824340820312,0.02519392967224121,0.0488189,0.00017266146,-0.9999999695271096,0.0,-0.0399999417705697,0.0,4,0.0012598037719726562,1.0910966477650037,1.0910966477650037,632,-0.9999999691832072,0.0
158,1.7203352451324463,-0.9999999693102406,1.1304288163529263e-10,-0.9999999691446992,-0.9999999694638131,0.0,582.6540656718266,0.1,0.0015251636505126953,0.025629281997680664,0.049599178,0.00036953995,-0.9999999695054227,0.0,-0.0399999417705697,0.0,4,0.001191854476928711,1.0910966477650037,1.0910966477650037,636,-0.9999999691804025,0.0
159,1.717409372329712,-0.9999999695922697,2.155852835816941e-10,-0.9999999692265809,-0.9999999697561506,0.0,337.42216822368255,0.1,0.0015459060668945312,0.028072357177734375,0.049370863,0.0006419723,-0.9999999695141074,0.0,-0.0399999417705697,0.0,4,0.0011699199676513672,1.0910966477650037,1.0910966477650037,640,-0.9999999691778676,0.0
160,1.6116325855255127,-0.9999999692595642,1.0783089235200137e-10,-0.9999999690979384,-0.9999999693737107,0.0,753.5786278706045,0.1,0.0015096664428710938,0.025009870529174805,0.051170357,0.00013906571,-0.9999999694886531,0.0,-0.0399999417705697,0.0,4,0.0011892318725585938,1.0910966477650037,1.0910966477650037,644,-0.9999999691689178,0.0
161,1.508993148803711,-0.9999999692766987,6.340674547693446e-11,-0.9999999691997918,-0.999999969340432,0.0,1001.8052796795466,0.1,0.001424551010131836,0.026012659072875977,0.049898997,0.00012636768,-0.9999999694674577,0.0,-0.0399999417705697,0.0,4,0.0012676715850830078,1.0910966477650037,1.0910966477650037,648,-0.999999969164513,0.0
162,1.6537365913391113,-0.99999996941879,1.2838375287224737e-10,-0.9999999693252968,-0.9999999696401671,0.0,547.0354711406264,0.1,0.0016298294067382812,0.0258181095123291,0.05006423,0.00017992451,-0.999999969462591,0.0,-0.0399999417705697,0.0,4,0.0012507438659667969,1.0910966477650037,1.0910966477650037,652,-0.9999999691673036,0.0
163,1.981980323791504,-0.9999999695088602,1.8224538286569807e-10,-0.9999999692777242,-0.9999999697209314,0.0,349.33985642202066,0.1,0.0014767646789550781,0.027822256088256836,0.046697408,0.00073562015,-0.9999999694672179,0.0,-0.0399999417705697,0.0,4,0.0011734962463378906,1.0910966477650037,1.0910966477650037,656,-0.9999999691680057,0.0
164,1.8921537399291992,-0.9999999691867822,9.708939993854641e-11,-0.9999999690359962,-0.9999999692916555,0.0,651.8722017664976,0.1,0.0015327930450439453,0.02515435218811035,0.049004063,0.0004786758,-0.9999999694391744,0.0,-0.0399999417705697,0.0,4,0.0014905929565429688,1.0910966477650037,1.0910966477650037,660,-0.9999999691511031,0.0
165,1.6992156505584717,-0.9999999695677575,9.376133340500179e-11,-0.9999999694833357,-0.9999999697230075,0.0,618.4912822300228,0.1,0.0016078948974609375,0.025310277938842773,0.050257113,0.00017106722,-0.9999999694520327,0.0,-0.0399999417705697,0.0,4,0.0012252330780029297,1.0910966477650037,1.0910966477650037,664,-0.9999999691493601,0.0
166,1.78287672996521,-0.9999999693418571,3.0820290987466175e-11,-0.9999999693094046,-0.9999999693765964,0.0,2310.7965416789802,0.1,0.0015499591827392578,0.01937079429626465,0.050196208,5.67706e-05,-0.9999999694410152,0.0,-0.0399999417705697,0.0,4,0.0011477470397949219,1.0910966477650037,1.0910966477650037,668,-0.9999999691459537,0.0
167,1.5476856231689453,-0.9999999694141781,3.168970630750409e-10,-0.999999969176385,-0.9999999699550706,0.0,197.34366405652446,0.1,0.0016131401062011719,0.028723478317260742,0.05198559,0.00030700298,-0.9999999694383315,0.0,-0.0399999417705697,0.0,4,0.0012235641479492188,1.0910966477650037,1.0910966477650037,672,-0.9999999691492629,0.0
168,1.652646780014038,-0.9999999693070488,2.924009503605675e-10,-0.9999999690943322,-0.9999999698105804,0.0,174.012099948795,0.1,0.0015192031860351562,0.027629852294921875,0.05030594,0.0002941594,-0.9999999694252033,0.0,-0.0399999417705697,0.0,4,0.0014476776123046875,1.0910966477650037,1.0910966477650037,676,-0.9999999691406334,0.0
169,1.6377549171447754,-0.9999999693603168,2.4429954968654765e-10,-0.9999999690589121,-0.9999999697340285,0.0,263.23503609091335,0.1,0.001604318618774414,0.027885913848876953,0.043639146,0.0002848536,-0.9999999694187147,0.0,-0.0399999417705697,0.0,4,0.0012769699096679688,1.0910966477650037,1.0910966477650037,680,-0.9999999691476783,0.0
170,1.919550895690918,-0.9999999692991874,1.008161078697565e-10,-0.9999999691532075,-0.9999999694371282,0.0,816.0775913452416,0.1,0.0013606548309326172,0.025252342224121094,0.049909838,0.00019752831,-0.9999999694067621,0.0,-0.0399999417705697,0.0,4,0.0012047290802001953,1.0910966477650037,1.0910966477650037,684,-0.9999999691372429,0.0
171,1.497770071029663,-0.9999999694440083,2.5654467578448855e-10,-0.9999999692192347,-0.9999999698775612,0.0,257.6790280627808,0.1,0.0013637542724609375,0.02761530876159668,0.048789687,0.0002713637,-0.9999999694104867,0.0,-0.0399999417705697,0.0,4,0.0011639595031738281,1.0910966477650037,1.0910966477650037,688,-0.9999999691360705,0.0
172,1.711472988128662,-0.9999999695802677,1.928562267310027e-10,-0.9999999692905752,-0.9999999697748012,0.0,315.4497746359346,0.1,0.00150299072265625,0.027065038681030273,0.05070718,0.0003930543,-0.9999999694274648,0.0,-0.0399999417705697,0.0,4,0.0012028217315673828,1.0910966477650037,1.0910966477650037,692,-0.9999999691329653,0.0
173,1.5426340103149414,-0.9999999691962935,1.1511763001624995e-10,-0.999999969064219,-0.9999999693811477,0.0,567.3382113134062,0.1,0.0014863014221191406,0.02442193031311035,0.051899135,0.00011448597,-0.9999999694043478,0.0,-0.0399999417705697,0.0,4,0.0012493133544921875,1.0910966477650037,1.0910966477650037,696,-0.9999999691244471,0.0
174,1.7311725616455078,-0.9999999693791997,1.387114197215781e-10,-0.9999999691809942,-0.999999969513002,0.0,493.2306921053982,0.1,0.0014786720275878906,0.02741837501525879,0.048430674,0.00019572953,-0.999999969401833,0.0,-0.0399999417705697,0.0,4,0.0011761188507080078,1.0910966477650037,1.0910966477650037,700,-0.9999999691196709,0.0
175,1.8034064769744873,-0.9999999692835515,1.6480337826044923e-10,-0.9999999690188743,-0.999999969445337,0.0,445.57957566608826,0.1,0.0014295578002929688,0.027971982955932617,0.050156385,0.0004084646,-0.9999999693900049,0.0,-0.0399999417705697,0.0,4,0.0014495849609375,1.0910966477650037,1.0910966477650037,704,-0.9999999691046139,0.0
176,1.8349440097808838,-0.9999999693240699,1.7923597349654315e-10,-0.999999969051304,-0.9999999695181079,0.0,359.84421983784057,0.1,0.0014467239379882812,0.02490687370300293,0.044697907,0.00041632727,-0.9999999693834114,0.0,-0.0399999417705697,0.0,4,0.0012145042419433594,1.0910966477650037,1.0910966477650037,708,-0.9999999690936359,0.0
177,1.8459928035736084,-0.9999999692503053,3.63519510611669e-11,-0.9999999692144375,-0.9999999693107766,0.0,1907.6025667526776,0.1,0.0015170574188232422,0.02200484275817871,0.04934494,5.345632e-05,-0.9999999693701007,0.0,-0.0399999417705697,0.0,4,0.0011854171752929688,1.0910966477650037,1.0910966477650037,712,-0.9999999690918725,0.0
178,1.6232209205627441,-0.9999999694121573,2.0268396104044802e-10,-0.9999999691695938,-0.9999999696809012,0.0,329.01251417710193,0.1,0.0016057491302490234,0.028423786163330078,0.050309554,0.00046236248,-0.9999999693743065,0.0,-0.0399999417705697,0.0,4,0.001253366470336914,1.0910966477650037,1.0910966477650037,716,-0.9999999690939343,0.0
179,2.642594814300537,-0.9999999694373888,2.634542760154453e-10,-0.9999999691832697,-0.9999999698769282,0.0,241.36947651864978,0.1,0.0018074512481689453,0.029026269912719727,0.051792104,0.00018278361,-0.9999999693806146,0.0,-0.0399999417705697,0.0,4,0.001382589340209961,1.0910966477650037,1.0910966477650037,720,-0.9999999690919313,0.0
180,1.660205602645874,-0.9999999693103311,1.4584190399446314e-10,-0.9999999691907979,-0.9999999695550033,0.0,411.70877168244544,0.1,0.0014865398406982422,0.02796769142150879,0.042943336,0.00013763536,-0.9999999693735863,0.0,-0.0399999417705697,0.0,4,0.0012378692626953125,1.0910966477650037,1.0910966477650037,724,-0.9999999690887957,0.0
181,1.962033748626709,-0.9999999692616609,1.8781707981775743e-10,-0.9999999690773334,-0.9999999695680704,0.0,395.68991940312924,0.1,0.00159454345703125,0.02801036834716797,0.047827136,0.00019981278,-0.9999999693623938,0.0,-0.0399999417705697,0.0,4,0.0013949871063232422,1.0910966477650037,1.0910966477650037,728,-0.9999999690858292,0.0
182,2.097504138946533,-0.9999999691976167,6.696404802723234e-11,-0.999999969141369,-0.9999999693117125,0.0,1075.1350282675069,0.1,0.0015177726745605469,0.0255279541015625,0.05092508,8.611202e-05,-0.9999999693459161,0.0,-0.0399999417705697,0.0,4,0.0012199878692626953,1.0910966477650037,1.0910966477650037,732,-0.9999999690841296,0.0
183,1.6362292766571045,-0.999999969144975,1.0541419343272894e-10,-0.9999999690082002,-0.999999969251165,0.0,709.2023698785766,0.1,0.0014197826385498047,0.028023242950439453,0.04848393,0.00024828443,-0.9999999693258219,0.0,-0.0399999417705697,0.0,4,0.0011951923370361328,1.0910966477650037,1.0910966477650037,736,-0.9999999690811693,0.0
184,1.6318936347961426,-0.9999999693128608,1.7663476508867952e-10,-0.9999999691461923,-0.9999999696009412,0.0,339.5011591255106,0.1,0.0014209747314453125,0.02785658836364746,0.044551454,0.00012876344,-0.9999999693245258,0.0,-0.0399999417705697,0.0,4,0.0012161731719970703,1.0910966477650037,1.0910966477650037,740,-0.9999999690799694,0.0
185,1.4555072784423828,-0.9999999691628794,7.636706662438442e-11,-0.9999999690463344,-0.9999999692493469,0.0,991.9467023020638,0.1,0.00154876708984375,0.024932384490966797,0.05102303,0.00013262461,-0.9999999693083612,0.0,-0.0399999417705697,0.0,4,0.0011603832244873047,1.0910966477650037,1.0910966477650037,744,-0.9999999690759042,0.0
186,1.5220017433166504,-0.9999999691971114,1.2276600260471058e-10,-0.9999999690005086,-0.9999999693234238,0.0,580.5344847184291,0.1,0.0015308856964111328,0.02838897705078125,0.050907247,0.00023075646,-0.9999999692972363,0.0,-0.0399999417705697,0.0,4,0.0012521743774414062,1.0910966477650037,1.0910966477650037,748,-0.9999999690733946,0.0
187,1.4780099391937256,-0.9999999691135759,1.307416034633164e-10,-0.9999999689665919,-0.9999999692461763,0.0,503.05858370109354,0.1,0.0015254020690917969,0.027693986892700195,0.050997265,0.00024268783,-0.9999999692788704,0.0,-0.0399999417705697,0.0,4,0.0012607574462890625,1.0910966477650037,1.0910966477650037,752,-0.9999999690643898,0.0
188,1.8317737579345703,-0.9999999692139059,8.941887237368799e-11,-0.9999999690866315,-0.9999999693360535,0.0,919.1441778812642,0.1,0.0015668869018554688,0.02449941635131836,0.047578976,8.997248e-05,-0.999999969272374,0.0,-0.0399999417705697,0.0,4,0.0011582374572753906,1.0910966477650037,1.0910966477650037,756,-0.9999999690643407,0.0
189,2.0319437980651855,-0.9999999693899007,1.2036278418119603e-11,-0.9999999693796331,-0.9999999694102957,0.0,4411.923358159468,0.1,0.0015032291412353516,0.01992344856262207,0.04148364,1.2009108e-05,-0.9999999692841267,0.0,-0.0399999417705697,0.0,4,0.0012469291687011719,1.0910966477650037,1.0910966477650037,760,-0.9999999690615665,0.0
190,1.9772725105285645,-0.9999999693417698,7.52601144552926e-11,-0.9999999692127657,-0.9999999694024095,0.0,980.9174231865362,0.1,0.0014908313751220703,0.02504253387451172,0.045941673,0.00015386782,-0.9999999692898911,0.0,-0.0399999417705697,0.0,4,0.0012247562408447266,1.0910966477650037,1.0910966477650037,764,-0.999999969059686,0.0
191,1.5477676391601562,-0.9999999692801284,1.462701247661836e-10,-0.9999999691285053,-0.99999996945607,0.0,468.76063650869366,0.1,0.0014255046844482422,0.027894973754882812,0.046388283,0.00025249663,-0.9999999692889149,0.0,-0.0399999417705697,0.0,4,0.0012612342834472656,1.0910966477650037,1.0910966477650037,768,-0.9999999690496462,0.0
192,1.8035337924957275,-0.9999999691060397,5.341209807319363e-11,-0.999999969015513,-0.9999999691541703,0.0,1230.7322237258138,0.1,0.0014350414276123047,0.02212691307067871,0.04844916,0.00033971277,-0.9999999692706274,0.0,-0.0399999417705697,0.0,4,0.001168966293334961,1.0910966477650037,1.0910966477650037,772,-0.9999999690466322,0.0
193,1.5131504535675049,-0.9999999691495514,7.422749415675275e-11,-0.9999999690553614,-0.9999999692560606,0.0,792.4529134067177,0.1,0.001581430435180664,0.028787851333618164,0.052837417,7.7973054e-05,-0.9999999692585197,0.0,-0.0399999417705697,0.0,4,0.0012164115905761719,1.0910966477650037,1.0910966477650037,776,-0.9999999690400911,0.0
194,1.876662254333496,-0.9999999693021084,1.5016310954550859e-10,-0.9999999690810519,-0.9999999695032047,0.0,472.1097463363685,0.1,0.0016977787017822266,0.0274658203125,0.049734887,0.00038344908,-0.9999999692628787,0.0,-0.0399999417705697,0.0,4,0.0012271404266357422,1.0910966477650037,1.0910966477650037,780,-0.9999999690373298,0.0
195,1.642030954360962,-0.9999999692386485,7.306275825940937e-11,-0.9999999691147026,-0.9999999692965842,0.0,1064.4045094747553,0.1,0.0015230178833007812,0.024881839752197266,0.048497938,0.00017616418,-0.9999999692604558,0.0,-0.0399999417705697,0.0,4,0.0013957023620605469,1.0910966477650037,1.0910966477650037,784,-0.9999999690344071,0.0
196,2.090695381164551,-0.9999999693004868,1.3594249726503695e-10,-0.9999999691440189,-0.9999999695185313,0.0,523.0426388453834,0.1,0.0015654563903808594,0.027999162673950195,0.04758416,0.0001884664,-0.9999999692644589,0.0,-0.0399999417705697,0.0,4,0.0011584758758544922,1.0910966477650037,1.0910966477650037,788,-0.9999999690404917,0.0
197,1.5553066730499268,-0.9999999691238939,7.89828453788399e-11,-0.9999999690093941,-0.9999999691977308,0.0,779.6334391604375,0.1,0.0014350414276123047,0.02493429183959961,0.046380743,0.0002894234,-0.9999999692504024,0.0,-0.0399999417705697,0.0,4,0.0011548995971679688,1.0910966477650037,1.0910966477650037,792,-0.9999999690322903,0.0
198,1.4414691925048828,-0.9999999690938344,4.1021035098572594e-11,-0.9999999690308399,-0.9999999691389534,0.0,1585.7297171854682,0.1,0.0014636516571044922,0.0226900577545166,0.045728534,0.00012626023,-0.9999999692347455,0.0,-0.0399999417705697,0.0,4,0.0012164115905761719,1.0910966477650037,1.0910966477650037,796,-0.9999999690311353,0.0
199,1.5707266330718994,-0.999999969162106,1.5390204101008306e-10,-0.9999999690295187,-0.999999969424308,0.0,475.9410132380735,0.1,0.0013515949249267578,0.027839183807373047,0.050605558,0.00018782684,-0.9999999692274817,0.0,-0.0399999417705697,0.0,4,0.0012319087982177734,1.0910966477650037,1.0910966477650037,800,-0.9999999690234721,0.0
200,1.6246817111968994,-0.9999999692625459,1.6819448684788038e-10,-0.9999999690661061,-0.999999969514469,0.0,406.4761044219555,0.1,0.00148773193359375,0.028111696243286133,0.048057534,0.00035557148,-0.9999999692309881,0.0,-0.0399999417705697,0.0,4,0.001127004623413086,1.0910966477650037,1.0910966477650037,804,-0.9999999690182836,0.0
201,1.4628751277923584,-0.9999999691924797,3.9004401332444556e-11,-0.9999999691534722,-0.9999999692567936,0.0,1803.163711933039,0.1,0.0015990734100341797,0.023629188537597656,0.048394024,5.19282e-05,-0.9999999692271373,0.0,-0.0399999417705697,0.0,4,0.0013763904571533203,1.0910966477650037,1.0910966477650037,808,-0.9999999690156662,0.0
202,1.5612421035766602,-0.9999999692169722,2.2822153358092133e-10,-0.9999999690097638,-0.9999999695654531,0.0,273.90532936532566,0.1,0.0013659000396728516,0.027971982955932617,0.044474103,0.0004808869,-0.9999999692261209,0.0,-0.0399999417705697,0.0,4,0.0012066364288330078,1.0910966477650037,1.0910966477650037,812,-0.9999999690075931,0.0
203,1.7081260681152344,-0.9999999692285824,1.0109926498493578e-10,-0.9999999691279848,-0.9999999693581321,0.0,635.9384754777547,0.1,0.001415252685546875,0.024895191192626953,0.049665444,0.0001865938,-0.999999969226367,0.0,-0.0399999417705697,0.0,4,0.0014090538024902344,1.0910966477650037,1.0910966477650037,816,-0.9999999690017948,0.0
204,1.73089599609375,-0.9999999692320034,1.4153733179562538e-10,-0.9999999690066725,-0.9999999693880472,0.0,452.9296864934933,0.1,0.0015134811401367188,0.027733325958251953,0.04806646,0.00046573224,-0.9999999692269307,0.0,-0.0399999417705697,0.0,4,0.0012886524200439453,1.0910966477650037,1.0910966477650037,820,-0.9999999689989477,0.0
205,1.6001636981964111,-0.9999999691255005,1.0365391599909687e-10,-0.9999999690449801,-0.9999999692986696,0.0,603.7959659788057,0.1,0.0014739036560058594,0.027845382690429688,0.050654825,0.00021786678,-0.9999999692167877,0.0,-0.0399999417705697,0.0,4,0.001222848892211914,1.0910966477650037,1.0910966477650037,824,-0.9999999689933792,0.0
206,1.5573289394378662,-0.9999999691668133,9.638245157562979e-11,-0.9999999690116192,-0.9999999692745758,0.0,566.0731368166471,0.1,0.0016374588012695312,0.02809453010559082,0.04861832,0.0007553398,-0.9999999692117904,0.0,-0.0399999417705697,0.0,4,0.0012142658233642578,1.0910966477650037,1.0910966477650037,828,-0.9999999689885847,0.0
207,1.5588507652282715,-0.9999999691602062,7.958076584919748e-11,-0.9999999690322847,-0.9999999692451216,0.0,915.5142137069423,0.1,0.0015516281127929688,0.024970531463623047,0.0484958,0.00020490402,-0.9999999692066319,0.0,-0.0399999417705697,0.0,4,0.0015213489532470703,1.0910966477650037,1.0910966477650037,832,-0.9999999689876143,0.0
208,1.5343446731567383,-0.9999999691532198,1.774171842492707e-10,-0.9999999689366417,-0.9999999694018116,0.0,405.02206856422026,0.1,0.0016417503356933594,0.028621912002563477,0.04589343,0.00036174635,-0.9999999692012908,0.0,-0.0399999417705697,0.0,4,0.0012347698211669922,1.0910966477650037,1.0910966477650037,836,-0.9999999689816907,0.0
209,2.1181812286376953,-0.9999999691185248,7.857617910988735e-11,-0.9999999689841941,-0.9999999691805246,0.0,688.0283032754228,0.1,0.0015401840209960938,0.02488255500793457,0.045594454,0.00059381145,-0.9999999691930141,0.0,-0.0399999417705697,0.0,4,0.0012197494506835938,1.0910966477650037,1.0910966477650037,840,-0.9999999689786224,0.0
210,1.3894262313842773,-0.9999999692975452,2.846617129231822e-10,-0.9999999689694397,-0.9999999697302884,0.0,191.90337434873305,0.1,0.0015044212341308594,0.02735590934753418,0.026918897,0.00023323562,-0.9999999692034673,0.0,-0.0399999417705697,0.0,4,0.001125335693359375,1.0910966477650037,1.0910966477650037,844,-0.9999999689774682,0.0
211,1.7629098892211914,-0.9999999691557773,1.2767505241741382e-10,-0.999999968954397,-0.99999996930575,0.0,566.6518475576922,0.1,0.0014917850494384766,0.027904510498046875,0.04373133,0.0002946379,-0.9999999691986984,0.0,-0.0399999417705697,0.0,4,0.0012080669403076172,1.0910966477650037,1.0910966477650037,848,-0.9999999689685045,0.0
212,2.1021738052368164,-0.9999999691975081,1.3604708961848116e-10,-0.9999999690049164,-0.9999999693718016,0.0,477.1998697344624,0.1,0.001447439193725586,0.02743220329284668,0.0482713,0.00057719595,-0.9999999691985794,0.0,-0.0399999417705697,0.0,4,0.0012030601501464844,1.0910966477650037,1.0910966477650037,852,-0.9999999689629315,0.0
213,1.74049973487854,-0.9999999690420869,3.488310873927878e-11,-0.9999999689919681,-0.9999999690856538,0.0,2207.986044530511,0.1,0.0014417171478271484,0.02564835548400879,0.049559675,9.466054e-05,-0.9999999691829301,0.0,-0.0399999417705697,0.0,4,0.0011875629425048828,1.0910966477650037,1.0910966477650037,856,-0.9999999689646804,0.0
214,1.7678413391113281,-0.9999999690944393,5.2472830002239824e-11,-0.9999999690302404,-0.9999999691645922,0.0,1164.961190699661,0.1,0.001523733139038086,0.024626493453979492,0.048989862,0.00020036563,-0.9999999691740811,0.0,-0.0399999417705697,0.0,4,0.0011343955993652344,1.0910966477650037,1.0910966477650037,860,-0.9999999689613884,0.0
215,1.6650426387786865,-0.9999999691714296,1.1096400590537019e-10,-0.9999999690853394,-0.9999999693612056,0.0,707.4322242644162,0.1,0.001462697982788086,0.02743816375732422,0.04756418,0.00010587683,-0.999999969173816,0.0,-0.0399999417705697,0.0,4,0.0011429786682128906,1.0910966477650037,1.0910966477650037,864,-0.9999999689641227,0.0
216,1.7011535167694092,-0.9999999692010837,1.4157926151602458e-10,-0.9999999689822208,-0.9999999693761361,0.0,405.6455141071232,0.1,0.0015106201171875,0.028557538986206055,0.049372412,0.0009280552,-0.9999999691765428,0.0,-0.0399999417705697,0.0,4,0.0012409687042236328,1.0910966477650037,1.0910966477650037,868,-0.9999999689547608,0.0
217,1.79227876663208,-0.9999999692470238,1.7433214416165795e-10,-0.999999968984784,-0.9999999694633721,0.0,401.41659326812106,0.1,0.0014712810516357422,0.027704954147338867,0.04970868,0.00045334626,-0.9999999691835909,0.0,-0.0399999417705697,0.0,4,0.0011892318725585938,1.0910966477650037,1.0910966477650037,872,-0.9999999689536913,0.0
218,1.7241020202636719,-0.999999969140962,1.334383333670392e-10,-0.999999969031921,-0.9999999693602162,0.0,414.17943954473463,0.1,0.0014393329620361328,0.027614831924438477,0.047553077,7.7226694e-05,-0.9999999691793281,0.0,-0.0399999417705697,0.0,4,0.0011758804321289062,1.0910966477650037,1.0910966477650037,876,-0.9999999689516005,0.0
219,1.7218990325927734,-0.9999999690738614,1.4471581524201313e-10,-0.9999999688961771,-0.9999999692893335,0.0,394.7301480969609,0.1,0.0014674663543701172,0.02965235710144043,0.04924143,0.00017547238,-0.9999999691687814,0.0,-0.0399999417705697,0.0,4,0.0013501644134521484,1.0910966477650037,1.0910966477650037,880,-0.9999999689490654,0.0
220,1.5604918003082275,-0.9999999691029461,1.2493302892919095e-10,-0.9999999689874814,-0.9999999692958754,0.0,557.0305844444657,0.1,0.0015339851379394531,0.02814936637878418,0.04890317,0.000158175,-0.9999999691621979,0.0,-0.0399999417705697,0.0,4,0.0012128353118896484,1.0910966477650037,1.0910966477650037,884,-0.9999999689466911,0.0
221,2.0702931880950928,-0.9999999691011461,4.8901403282604585e-11,-0.9999999690186414,-0.9999999691452419,0.0,1352.802994635214,0.1,0.0014946460723876953,0.024640560150146484,0.042613313,0.0001670501,-0.9999999691560928,0.0,-0.0399999417705697,0.0,4,0.0011355876922607422,1.0910966477650037,1.0910966477650037,888,-0.9999999689469891,0.0
222,2.0958540439605713,-0.9999999691916177,7.425226136540381e-11,-0.999999969096675,-0.9999999692694339,0.0,986.195313146585,0.1,0.0016498565673828125,0.028126001358032227,0.047530465,8.5717336e-05,-0.9999999691596453,0.0,-0.0399999417705697,0.0,4,0.0012519359588623047,1.0910966477650037,1.0910966477650037,892,-0.9999999689447684,0.0
223,1.7617549896240234,-0.9999999691788113,9.596029619049026e-11,-0.9999999690207053,-0.9999999692782802,0.0,647.937123676692,0.1,0.0015783309936523438,0.02824854850769043,0.04895114,0.00028014288,-0.999999969161562,0.0,-0.0399999417705697,0.0,4,0.0011799335479736328,1.0910966477650037,1.0910966477650037,896,-0.9999999689453624,0.0
224,1.5304880142211914,-0.9999999691949064,1.665697267871805e-10,-0.9999999689885861,-0.9999999694532016,0.0,412.94640755515275,0.1,0.001756906509399414,0.028231143951416016,0.049736384,0.0003905198,-0.9999999691648965,0.0,-0.0399999417705697,0.0,4,0.0012536048889160156,1.0910966477650037,1.0910966477650037,900,-0.9999999689414024,0.0
225,1.6009502410888672,-0.9999999691808032,2.0220780675222066e-10,-0.9999999689598853,-0.9999999694629973,0.0,247.78194399328916,0.1,0.0015404224395751953,0.028023481369018555,0.026786052,0.000166954,-0.9999999691664873,0.0,-0.0399999417705697,0.0,4,0.0011799335479736328,1.0910966477650037,1.0910966477650037,904,-0.9999999689405819,0.0
226,2.063291072845459,-0.9999999690667274,7.409740689874344e-11,-0.9999999690004169,-0.9999999691801902,0.0,824.5918312980016,0.1,0.0015277862548828125,0.028027057647705078,0.048910305,0.00014994232,-0.9999999691565112,0.0,-0.0399999417705697,0.0,4,0.0011565685272216797,1.0910966477650037,1.0910966477650037,908,-0.9999999689394238,0.0
227,1.7695667743682861,-0.9999999690445465,1.801292232231223e-11,-0.9999999690260903,-0.9999999690696444,0.0,3429.2179084672957,0.1,0.0016164779663085938,0.023053407669067383,0.046340056,4.857052e-05,-0.9999999691453147,0.0,-0.0399999417705697,0.0,4,0.0012516975402832031,1.0910966477650037,1.0910966477650037,912,-0.9999999689450755,0.0
228,2.4357101917266846,-0.9999999690827772,1.520567338758056e-10,-0.9999999689185335,-0.9999999692865222,0.0,415.77639811632434,0.1,0.0015006065368652344,0.027484655380249023,0.04460877,0.00017889339,-0.9999999691390611,0.0,-0.0399999417705697,0.0,4,0.0012917518615722656,1.0910966477650037,1.0910966477650037,916,-0.9999999689363794,0.0
229,1.9990174770355225,-0.9999999690763639,1.10904632195283e-10,-0.9999999689822301,-0.9999999692611765,0.0,549.4856619814971,0.1,0.0015101432800292969,0.027582883834838867,0.050870247,0.00014399973,-0.9999999691327914,0.0,-0.0399999417705697,0.0,4,0.0012271404266357422,1.0910966477650037,1.0910966477650037,920,-0.9999999689325563,0.0
230,1.7835626602172852,-0.9999999691362147,1.0356147243986744e-10,-0.9999999689947787,-0.9999999692779993,0.0,669.0378689234418,0.1,0.0015349388122558594,0.028486967086791992,0.049580786,0.00014949497,-0.9999999691331338,0.0,-0.0399999417705697,0.0,4,0.00128173828125,1.0910966477650037,1.0910966477650037,924,-0.9999999689265522,0.0
231,1.9075868129730225,-0.9999999690793293,9.648552499459868e-11,-0.9999999689949428,-0.999999969242614,0.0,797.340759915381,0.1,0.0014874935150146484,0.02851128578186035,0.04615685,0.000119301905,-0.9999999691277534,0.0,-0.0399999417705697,0.0,4,0.0012621879577636719,1.0910966477650037,1.0910966477650037,928,-0.9999999689282162,0.0
232,1.6884236335754395,-0.9999999690996858,1.5000208320663315e-10,-0.999999968867163,-0.9999999692779187,0.0,367.3803568782866,0.1,0.0015654563903808594,0.027456998825073242,0.042384487,0.00074455707,-0.9999999691249466,0.0,-0.0399999417705697,0.0,4,0.0012090206146240234,1.0910966477650037,1.0910966477650037,932,-0.999999968924358,0.0
233,1.7470686435699463,-0.9999999690870154,5.675912139452339e-11,-0.9999999690233368,-0.9999999691468981,0.0,988.7597911858248,0.1,0.001458883285522461,0.02450418472290039,0.049032696,0.00022056716,-0.9999999691211535,0.0,-0.0399999417705697,0.0,4,0.0011587142944335938,1.0910966477650037,1.0910966477650037,936,-0.9999999689242695,0.0
234,1.7727811336517334,-0.999999969039715,8.689572843752597e-11,-0.9999999689287955,-0.9999999691584278,0.0,903.0261561394933,0.1,0.0014824867248535156,0.025966644287109375,0.05023089,0.00011015347,-0.9999999691130097,0.0,-0.0399999417705697,0.0,4,0.0013308525085449219,1.0910966477650037,1.0910966477650037,940,-0.9999999689166681,0.0
235,1.9375016689300537,-0.999999969079737,5.475395486363095e-11,-0.9999999690219838,-0.9999999691487038,0.0,1447.9876291415321,0.1,0.0014126300811767578,0.024713516235351562,0.049914062,8.316959e-05,-0.9999999691096825,0.0,-0.0399999417705697,0.0,4,0.001299142837524414,1.0910966477650037,1.0910966477650037,944,-0.9999999689148207,0.0
236,1.8413896560668945,-0.999999969083502,1.0871475656781611e-10,-0.9999999689938075,-0.9999999692647217,0.0,481.05263890012594,0.1,0.0015866756439208984,0.02773594856262207,0.04737969,9.4629904e-05,-0.9999999691070645,0.0,-0.0399999417705697,0.0,4,0.001369476318359375,1.0910966477650037,1.0910966477650037,948,-0.9999999689151853,0.0
237,2.256408929824829,-0.999999969028417,3.0646438423780394e-11,-0.9999999690024457,-0.9999999690777,0.0,2226.0539876030157,0.1,0.001641988754272461,0.025402307510375977,0.05033454,4.9353755e-05,-0.9999999690991997,0.0,-0.0399999417705697,0.0,4,0.0011937618255615234,1.0910966477650037,1.0910966477650037,952,-0.9999999689108333,0.0
238,1.6814284324645996,-0.9999999690124146,5.6735058962119917e-11,-0.999999968946454,-0.9999999691021524,0.0,1144.2042447212773,0.1,0.00164794921875,0.025263309478759766,0.04615579,0.000110150315,-0.9999999690905212,0.0,-0.0399999417705697,0.0,4,0.0011706352233886719,1.0910966477650037,1.0910966477650037,956,-0.9999999689069377,0.0
239,1.6634032726287842,-0.9999999690633538,9.961363571675137e-11,-0.9999999689381982,-0.9999999692076895,0.0,681.3757682574751,0.1,0.0016016960144042969,0.027628660202026367,0.04549792,0.0001341432,-0.9999999690878045,0.0,-0.0399999417705697,0.0,4,0.0012102127075195312,1.0910966477650037,1.0910966477650037,960,-0.9999999689064283,0.0
240,1.6555190086364746,-0.9999999690145415,1.1059699973394764e-10,-0.9999999688950827,-0.9999999691918162,0.0,632.6859603898507,0.1,0.0016727447509765625,0.028233766555786133,0.050764583,0.00014491435,-0.9999999690804782,0.0,-0.0399999417705697,0.0,4,0.0012331008911132812,1.0910966477650037,1.0910966477650037,964,-0.999999968901257,0.0
241,2.0663256645202637,-0.9999999693230774,4.737465137738971e-10,-0.9999999689302816,-0.9999999701308446,0.0,144.49339037970404,0.1,0.0015149116516113281,0.027824878692626953,0.052200787,0.0004462576,-0.9999999691047381,0.0,-0.0399999417705697,0.0,4,0.001196146011352539,1.0910966477650037,1.0910966477650037,968,-0.9999999689037367,0.0
242,1.6092939376831055,-0.9999999690317871,8.327469307703978e-11,-0.9999999689411225,-0.9999999691299863,0.0,807.9379386091219,0.1,0.001661539077758789,0.028711557388305664,0.049236182,0.00012385899,-0.999999969097443,0.0,-0.0399999417705697,0.0,4,0.0011949539184570312,1.0910966477650037,1.0910966477650037,972,-0.9999999688994642,0.0
243,1.7395849227905273,-0.999999968992459,7.2676212979806e-11,-0.9999999689114594,-0.9999999691080834,0.0,708.4161440857439,0.1,0.001482248306274414,0.028383970260620117,0.051492535,0.00011236587,-0.9999999690869447,0.0,-0.0399999417705697,0.0,4,0.0013647079467773438,1.0910966477650037,1.0910966477650037,976,-0.9999999688962579,0.0
244,1.6386330127716064,-0.9999999690476798,9.264568678086054e-11,-0.9999999689052925,-0.9999999691587651,0.0,844.5926092824284,0.1,0.0015769004821777344,0.02875518798828125,0.045650087,0.00011407721,-0.9999999690830182,0.0,-0.0399999417705697,0.0,4,0.0014560222625732422,1.0910966477650037,1.0910966477650037,980,-0.9999999688929964,0.0
245,1.6390905380249023,-0.9999999690583363,1.0960554495092794e-10,-0.999999968909477,-0.9999999692190342,0.0,477.0082958440124,0.1,0.0014781951904296875,0.02853703498840332,0.040306304,0.00025432007,-0.99999996908055,0.0,-0.0399999417705697,0.0,4,0.0011992454528808594,1.0910966477650037,1.0910966477650037,984,-0.9999999688913749,0.0
246,1.6826362609863281,-0.9999999690076775,4.3044301697348795e-11,-0.9999999689680619,-0.9999999690787538,0.0,1826.6049693392013,0.1,0.0015931129455566406,0.025261640548706055,0.04884634,6.563096e-05,-0.9999999690732628,0.0,-0.0399999417705697,0.0,4,0.0011866092681884766,1.0910966477650037,1.0910966477650037,988,-0.999999968889513,0.0
247,2.5057694911956787,-0.9999999689867423,7.687376755983789e-11,-0.9999999689172263,-0.9999999691067751,0.0,833.6659068389567,0.1,0.0014147758483886719,0.02804732322692871,0.05055807,0.00011092397,-0.9999999690646107,0.0,-0.0399999417705697,0.0,4,0.0011632442474365234,1.0910966477650037,1.0910966477650037,992,-0.9999999688891922,0.0
248,1.6015641689300537,-0.9999999691273287,1.6724465626128786e-10,-0.9999999689434795,-0.9999999693648103,0.0,340.92320987922756,0.1,0.0014793872833251953,0.027498245239257812,0.050527874,0.00025404667,-0.9999999690708825,0.0,-0.0399999417705697,0.0,4,0.0012242794036865234,1.0910966477650037,1.0910966477650037,996,-0.9999999688871989,0.0
249,1.601945400238037,-0.9999999689649193,4.6742588037533565e-11,-0.9999999688889838,-0.9999999690074166,0.0,1585.503605124579,0.1,0.0015513896942138672,0.02482008934020996,0.049229376,0.00012318404,-0.9999999690602862,0.0,-0.0399999417705697,0.0,4,0.0011599063873291016,1.0910966477650037,1.0910966477650037,1000,-0.9999999688830817,0.0
250,1.784715175628662,-0.9999999690349523,9.800204860049638e-11,-0.9999999688915708,-0.9999999691335679,0.0,636.1497559848189,0.1,0.0016031265258789062,0.029083251953125,0.04993002,0.00023796449,-0.9999999690577529,0.0,-0.0399999417705697,0.0,4,0.0012636184692382812,1.0910966477650037,1.0910966477650037,1004,-0.9999999688780626,0.0
251,1.8720707893371582,-0.9999999689848675,3.0413260979040197e-11,-0.9999999689429901,-0.999999969018486,0.0,2263.801597401559,0.1,0.0016143321990966797,0.022794246673583984,0.04682671,0.00011702899,-0.9999999690504644,0.0,-0.0399999417705697,0.0,4,0.0011625289916992188,1.0910966477650037,1.0910966477650037,1008,-0.9999999688773485,0.0
252,1.8665523529052734,-0.9999999689855945,4.142349416391222e-11,-0.9999999689393417,-0.9999999690392576,0.0,1746.9496084724565,0.1,0.0015149116516113281,0.025328874588012695,0.048574902,7.784953e-05,-0.9999999690439774,0.0,-0.0399999417705697,0.0,4,0.0012145042419433594,1.0910966477650037,1.0910966477650037,1012,-0.9999999688747425,0.0
253,1.9500727653503418,-0.9999999690324713,4.6468610465110276e-11,-0.9999999689649333,-0.999999969089906,0.0,1282.0205730698262,0.1,0.0016562938690185547,0.025562524795532227,0.048660785,0.00026022026,-0.9999999690428267,0.0,-0.0399999417705697,0.0,4,0.0012140274047851562,1.0910966477650037,1.0910966477650037,1016,-0.999999968873231,0.0
254,2.1689157485961914,-0.9999999690744945,2.1252616195520084e-10,-0.9999999689072359,-0.99999996943548,0.0,314.0580332232514,0.1,0.0015654563903808594,0.0278017520904541,0.044784285,0.00023602322,-0.9999999690459935,0.0,-0.0399999417705697,0.0,4,0.0011734962463378906,1.0910966477650037,1.0910966477650037,1020,-0.999999968869798,0.0
255,1.7696638107299805,-0.9999999689967948,9.566019947143606e-11,-0.9999999688533578,-0.9999999690888206,0.0,834.0914219258563,0.1,0.0015895366668701172,0.027617931365966797,0.04788128,0.0001700606,-0.9999999690410737,0.0,-0.0399999417705697,0.0,4,0.0012328624725341797,1.0910966477650037,1.0910966477650037,1024,-0.9999999688654283,0.0
256,1.5984230041503906,-0.999999968955435,2.8048106974537195e-11,-0.999999968912614,-0.9999999689908523,0.0,2284.6884888363065,0.1,0.0017313957214355469,0.02554774284362793,0.048000667,0.000104846025,-0.9999999690325099,0.0,-0.0399999417705697,0.0,4,0.0012154579162597656,1.0910966477650037,1.0910966477650037,1028,-0.9999999688634946,0.0
257,1.6999521255493164,-0.9999999690083698,4.550851318511536e-11,-0.9999999689486698,-0.9999999690764227,0.0,1724.5276555522037,0.1,0.0015516281127929688,0.025177478790283203,0.04964894,6.256183e-05,-0.9999999690300958,0.0,-0.0399999417705697,0.0,4,0.0013442039489746094,1.0910966477650037,1.0910966477650037,1032,-0.9999999688625576,0.0
258,1.850482702255249,-0.9999999690898851,2.2524089583588477e-10,-0.9999999688936554,-0.999999969464334,0.0,252.16769560982246,0.1,0.0015842914581298828,0.02817249298095703,0.050425336,0.0002968762,-0.9999999690360748,0.0,-0.0399999417705697,0.0,4,0.0011844635009765625,1.0910966477650037,1.0910966477650037,1036,-0.9999999688616742,0.0
259,1.5770313739776611,-0.9999999689818344,1.190285524402492e-10,-0.9999999688928825,-0.9999999691856349,0.0,498.73734773746537,0.1,0.0015866756439208984,0.02852487564086914,0.051311426,0.00017375067,-0.9999999690306507,0.0,-0.0399999417705697,0.0,4,0.001252889633178711,1.0910966477650037,1.0910966477650037,1040,-0.9999999688642078,0.0
260,1.3330533504486084,-0.9999999690109944,4.9847237887371485e-11,-0.9999999689622283,-0.9999999690844317,0.0,1612.021845252355,0.1,0.00151824951171875,0.028392791748046875,0.049303927,8.407066e-05,-0.9999999690286852,0.0,-0.0399999417705697,0.0,4,0.0011398792266845703,1.0910966477650037,1.0910966477650037,1044,-0.9999999688602351,0.0
261,1.8741240501403809,-0.9999999689985127,5.233735241204103e-11,-0.9999999689387944,-0.9999999690827166,0.0,1153.725620574892,0.1,0.0013985633850097656,0.0276796817779541,0.052278034,4.1560845e-05,-0.9999999690256679,0.0,-0.0399999417705697,0.0,4,0.0011746883392333984,1.0910966477650037,1.0910966477650037,1048,-0.9999999688603087,0.0
262,1.4157698154449463,-0.9999999689568346,7.805756479335832e-11,-0.9999999688996013,-0.9999999690897321,0.0,753.8201768443229,0.1,0.0014843940734863281,0.02797985076904297,0.04367539,5.5850374e-05,-0.9999999690187846,0.0,-0.0399999417705697,0.0,4,0.0011959075927734375,1.0910966477650037,1.0910966477650037,1052,-0.9999999688592142,0.0
263,1.3261756896972656,-0.9999999689855397,3.156823241304718e-11,-0.9999999689366601,-0.9999999690139478,0.0,2429.885167545885,0.1,0.0016162395477294922,0.022373676300048828,0.047413647,6.365725e-05,-0.9999999690154602,0.0,-0.0399999417705697,0.0,4,0.0013594627380371094,1.0910966477650037,1.0910966477650037,1056,-0.999999968860282,0.0
264,1.397759199142456,-0.9999999689979084,1.1945634369655753e-10,-0.9999999688520409,-0.9999999691216823,0.0,571.4061390473119,0.1,0.0015330314636230469,0.02772974967956543,0.04951097,0.00029243185,-0.999999969013705,0.0,-0.0399999417705697,0.0,4,0.0011839866638183594,1.0910966477650037,1.0910966477650037,1060,-0.9999999688527077,0.0
265,1.8833339214324951,-0.9999999689228334,3.0666764961524743e-11,-0.999999968893102,-0.9999999689706656,0.0,2417.991972531233,0.1,0.001592874526977539,0.022234201431274414,0.049227137,3.848251e-05,-0.9999999690046179,0.0,-0.0399999417705697,0.0,4,0.0011570453643798828,1.0910966477650037,1.0910966477650037,1064,-0.999999968849067,0.0
266,1.733567237854004,-0.999999968985579,4.713860029258717e-11,-0.9999999689256285,-0.9999999690572807,0.0,1933.2331991261672,0.1,0.0015654563903808594,0.025913715362548828,0.050545353,5.150613e-05,-0.9999999690027139,0.0,-0.0399999417705697,0.0,4,0.0014193058013916016,1.0910966477650037,1.0910966477650037,1068,-0.9999999688462906,0.0
267,1.746812105178833,-0.9999999690053656,3.887784583383198e-11,-0.9999999689584989,-0.9999999690607042,0.0,1916.4496687851856,0.1,0.0014717578887939453,0.028647184371948242,0.04643932,6.0346167e-05,-0.999999969002979,0.0,-0.0399999417705697,0.0,4,0.0012183189392089844,1.0910966477650037,1.0910966477650037,1072,-0.9999999688457383,0.0
268,1.9195337295532227,-0.9999999690362291,1.0328775510995878e-10,-0.9999999689274572,-0.9999999692042316,0.0,438.7984685227137,0.1,0.0015892982482910156,0.02852487564086914,0.032028526,8.549987e-05,-0.9999999690063041,0.0,-0.0399999417705697,0.0,4,0.001203775405883789,1.0910966477650037,1.0910966477650037,1076,-0.9999999688454495,0.0
269,1.6065926551818848,-0.999999968982809,2.6756630901839543e-11,-0.9999999689474321,-0.999999969010374,0.0,2519.9322304918514,0.1,0.0014865398406982422,0.02519679069519043,0.048288576,6.200935e-05,-0.9999999690039545,0.0,-0.0399999417705697,0.0,4,0.0012621879577636719,1.0910966477650037,1.0910966477650037,1080,-0.9999999688453602,0.0
270,1.8981692790985107,-0.9999999689835893,8.26293147918461e-11,-0.9999999688860701,-0.9999999691144741,0.0,790.4887508385946,0.1,0.001600503921508789,0.02773451805114746,0.043075494,0.00011421479,-0.999999969001918,0.0,-0.0399999417705697,0.0,4,0.0012137889862060547,1.0910966477650037,1.0910966477650037,1084,-0.9999999688458434,0.0
271,1.9685895442962646,-0.9999999689455505,8.020038359996589e-11,-0.9999999688296846,-0.9999999690328745,0.0,839.479220284038,0.1,0.0014946460723876953,0.02808213233947754,0.048989207,9.907533e-05,-0.9999999689962813,0.0,-0.0399999417705697,0.0,4,0.0011739730834960938,1.0910966477650037,1.0910966477650037,1088,-0.9999999688444885,0.0
272,1.8076510429382324,-0.9999999689964001,9.116587035436673e-11,-0.9999999688801822,-0.9999999691287267,0.0,699.1674956632879,0.1,0.0015494823455810547,0.02808070182800293,0.050759707,0.00020066465,-0.9999999689962932,0.0,-0.0399999417705697,0.0,4,0.0011141300201416016,1.0910966477650037,1.0910966477650037,1092,-0.9999999688416819,0.0
273,1.5894105434417725,-0.9999999690214174,7.289500141683709e-11,-0.9999999688981642,-0.9999999690868444,0.0,867.1320197998292,0.1,0.0013957023620605469,0.027729272842407227,0.049077004,0.0002701797,-0.9999999689988056,0.0,-0.0399999417705697,0.0,4,0.0012059211730957031,1.0910966477650037,1.0910966477650037,1096,-0.9999999688404677,0.0
274,1.9969160556793213,-0.9999999689527795,8.471115989617252e-11,-0.9999999688558345,-0.9999999690859187,0.0,817.2237757487093,0.1,0.001631021499633789,0.028992176055908203,0.047546104,0.00011484236,-0.999999968994203,0.0,-0.0399999417705697,0.0,4,0.0012896060943603516,1.0910966477650037,1.0910966477650037,1100,-0.9999999688374924,0.0
275,1.9090728759765625,-0.9999999689504357,5.441704932854988e-11,-0.9999999689075236,-0.9999999690428452,0.0,1509.5384772947452,0.1,0.0016431808471679688,0.025478839874267578,0.04022248,4.0234034e-05,-0.9999999689898262,0.0,-0.0399999417705697,0.0,4,0.0012586116790771484,1.0910966477650037,1.0910966477650037,1104,-0.9999999688368634,0.0
276,1.5230045318603516,-0.9999999689651287,1.0428429965367734e-10,-0.9999999688862635,-0.9999999691446186,0.0,623.3640530102191,0.1,0.001569986343383789,0.02810835838317871,0.04444565,5.4138844e-05,-0.9999999689873564,0.0,-0.0399999417705697,0.0,4,0.001230001449584961,1.0910966477650037,1.0910966477650037,1108,-0.999999968836459,0.0
277,2.0291006565093994,-0.9999999689186063,3.579527811546922e-11,-0.9999999688887715,-0.9999999689776324,0.0,1683.0077296457835,0.1,0.0016283988952636719,0.028460264205932617,0.049237095,4.2610973e-05,-0.9999999689804815,0.0,-0.0399999417705697,0.0,4,0.0011889934539794922,1.0910966477650037,1.0910966477650037,1112,-0.9999999688366183,0.0
278,1.50191330909729,-0.9999999689496533,5.0635022671701406e-11,-0.999999968880227,-0.9999999690232337,0.0,1351.2795409547098,0.1,0.001603841781616211,0.02872323989868164,0.051761996,6.410045e-05,-0.9999999689773986,0.0,-0.0399999417705697,0.0,4,0.0012812614440917969,1.0910966477650037,1.0910966477650037,1116,-0.9999999688360185,0.0
279,1.7499945163726807,-0.9999999689496784,4.9059222065984966e-11,-0.9999999688905004,-0.9999999690246344,0.0,1275.838785902284,0.1,0.0016436576843261719,0.02850198745727539,0.048758205,4.826588e-05,-0.9999999689746266,0.0,-0.0399999417705697,0.0,4,0.0012776851654052734,1.0910966477650037,1.0910966477650037,1120,-0.9999999688338388,0.0
280,1.4677634239196777,-0.9999999689969244,9.137876155120014e-11,-0.9999999688638566,-0.9999999691113308,0.0,800.8561255502849,0.1,0.0017158985137939453,0.028798818588256836,0.047240414,0.000187771,-0.9999999689768564,0.0,-0.0399999417705697,0.0,4,0.001458883285522461,1.0910966477650037,1.0910966477650037,1124,-0.9999999688314215,0.0
281,1.5880286693572998,-0.9999999689733721,6.302005761644016e-11,-0.9999999689077221,-0.9999999690647705,0.0,1101.7508152161163,0.1,0.0014407634735107422,0.02541804313659668,0.050046366,9.58521e-05,-0.999999968976508,0.0,-0.0399999417705697,0.0,4,0.0013403892517089844,1.0910966477650037,1.0910966477650037,1128,-0.9999999688283835,0.0
282,1.5444910526275635,-0.9999999689818513,5.903619682579824e-11,-0.9999999688890582,-0.9999999690507853,0.0,1211.180678452815,0.1,0.0014684200286865234,0.027765512466430664,0.046642035,0.00014534377,-0.9999999689770424,0.0,-0.0399999417705697,0.0,4,0.0012118816375732422,1.0910966477650037,1.0910966477650037,1132,-0.9999999688305133,0.0
283,1.6813197135925293,-0.9999999689302262,1.0988774815428824e-10,-0.9999999688242642,-0.9999999691139148,0.0,670.9688424980346,0.1,0.0016410350799560547,0.02904510498046875,0.051214688,9.259609e-05,-0.9999999689723608,0.0,-0.0399999417705697,0.0,4,0.0012710094451904297,1.0910966477650037,1.0910966477650037,1136,-0.9999999688315975,0.0
284,1.83815336227417,-0.9999999689336259,7.581739126840807e-11,-0.9999999688551213,-0.9999999690360952,0.0,868.129471225795,0.1,0.0013546943664550781,0.02799057960510254,0.04493045,0.0001048759,-0.9999999689684873,0.0,-0.0399999417705697,0.0,4,0.0011599063873291016,1.0910966477650037,1.0910966477650037,1140,-0.9999999688292616,0.0
285,1.601600170135498,-0.9999999688949525,3.5844401659513464e-11,-0.9999999688552546,-0.9999999689453953,0.0,2119.1819940765013,0.1,0.0015017986297607422,0.022282123565673828,0.050898373,3.9550912e-05,-0.9999999689611339,0.0,-0.0399999417705697,0.0,4,0.0013687610626220703,1.0910966477650037,1.0910966477650037,1144,-0.9999999688254496,0.0
286,1.5529849529266357,-0.9999999689507846,8.26173453871155e-11,-0.9999999688646024,-0.99999996908681,0.0,982.6963203142981,0.1,0.0015816688537597656,0.02790689468383789,0.050082497,7.366306e-05,-0.9999999689600989,0.0,-0.0399999417705697,0.0,4,0.0012202262878417969,1.0910966477650037,1.0910966477650037,1148,-0.9999999688229106,0.0
287,1.5515570640563965,-0.9999999689564176,2.8919240449898507e-11,-0.9999999689155954,-0.9999999689973911,0.0,2233.0900370463446,0.1,0.0014317035675048828,0.027562856674194336,0.04899645,0.00013369227,-0.9999999689597308,0.0,-0.0399999417705697,0.0,4,0.0011379718780517578,1.0910966477650037,1.0910966477650037,1152,-0.9999999688216712,0.0
288,1.7021801471710205,-0.9999999688658192,4.651155984122081e-11,-0.9999999688023093,-0.9999999689255945,0.0,1433.130684965444,0.1,0.0014286041259765625,0.024761676788330078,0.047234725,8.952987e-05,-0.9999999689503396,0.0,-0.0399999417705697,0.0,4,0.0012340545654296875,1.0910966477650037,1.0910966477650037,1156,-0.9999999688198214,0.0
289,1.9889719486236572,-0.9999999689386307,6.773859576783909e-11,-0.9999999688771275,-0.9999999690480184,0.0,901.3510045788457,0.1,0.00141143798828125,0.027973175048828125,0.04651946,0.0003646413,-0.9999999689491688,0.0,-0.0399999417705697,0.0,4,0.0011942386627197266,1.0910966477650037,1.0910966477650037,1160,-0.9999999688190471,0.0
290,1.7786719799041748,-0.9999999689181734,1.3428119304993351e-11,-0.9999999689014849,-0.9999999689344383,0.0,4439.641905885677,0.1,0.0014345645904541016,0.022531747817993164,0.04978948,2.2196984e-05,-0.9999999689460692,0.0,-0.0399999417705697,0.0,4,0.0012149810791015625,1.0910966477650037,1.0910966477650037,1164,-0.9999999688219655,0.0
291,1.7995197772979736,-0.999999968909935,2.1828043131366154e-11,-0.9999999688740231,-0.9999999689328734,0.0,2867.4845006509804,0.1,0.0015783309936523438,0.02599048614501953,0.049419824,6.7679364e-05,-0.9999999689424558,0.0,-0.0399999417705697,0.0,4,0.00118255615234375,1.0910966477650037,1.0910966477650037,1168,-0.9999999688217289,0.0
292,1.6123981475830078,-0.9999999688957314,5.2088647664438784e-11,-0.9999999688431529,-0.9999999689607257,0.0,1284.3707114396948,0.1,0.0014591217041015625,0.027663230895996094,0.0509024,6.493383e-05,-0.9999999689377834,0.0,-0.0399999417705697,0.0,4,0.0013709068298339844,1.0910966477650037,1.0910966477650037,1172,-0.9999999688216709,0.0
293,1.8286347389221191,-0.9999999689247935,8.529316909091915e-11,-0.9999999688385102,-0.9999999690612875,0.0,696.0331370142814,0.1,0.0015368461608886719,0.028532028198242188,0.050437294,0.0001330061,-0.9999999689364845,0.0,-0.0399999417705697,0.0,4,0.001256704330444336,1.0910966477650037,1.0910966477650037,1176,-0.9999999688198321,0.0
294,1.8463094234466553,-0.9999999689414993,4.2532349063417675e-11,-0.9999999688904151,-0.9999999690082668,0.0,1315.223221622569,0.1,0.00146484375,0.027855873107910156,0.051297724,4.5010245e-05,-0.999999968936986,0.0,-0.0399999417705697,0.0,4,0.0012395381927490234,1.0910966477650037,1.0910966477650037,1180,-0.9999999688204274,0.0
295,1.6502068042755127,-0.9999999688853906,3.0543712733703564e-11,-0.9999999688475669,-0.9999999689247607,0.0,2307.057533788896,0.1,0.0014677047729492188,0.02819347381591797,0.047898814,6.209947e-05,-0.9999999689318264,0.0,-0.0399999417705697,0.0,4,0.0012753009796142578,1.0910966477650037,1.0910966477650037,1184,-0.9999999688200804,0.0
296,1.5985970497131348,-0.9999999689873309,1.4373650343527106e-10,-0.9999999688129555,-0.9999999692008892,0.0,347.8988667060609,0.1,0.001413583755493164,0.027304649353027344,0.05009444,0.00054344675,-0.9999999689373769,0.0,-0.0399999417705697,0.0,4,0.001107931137084961,1.0910966477650037,1.0910966477650037,1188,-0.9999999688172775,0.0
297,1.694075345993042,-0.9999999689452357,6.322196577975048e-11,-0.9999999688971841,-0.9999999690540213,0.0,1023.6434282140506,0.1,0.0014963150024414062,0.028598546981811523,0.039602567,4.0626597e-05,-0.9999999689381628,0.0,-0.0399999417705697,0.0,4,0.001191854476928711,1.0910966477650037,1.0910966477650037,1192,-0.9999999688150879,0.0
298,1.8631393909454346,-0.9999999689386325,5.1483554965213465e-11,-0.9999999688783565,-0.9999999690156052,0.0,1096.5697399897886,0.1,0.0014977455139160156,0.028368234634399414,0.042541474,5.3723757e-05,-0.9999999689382099,0.0,-0.0399999417705697,0.0,4,0.0011861324310302734,1.0910966477650037,1.0910966477650037,1196,-0.9999999688164798,0.0
299,1.7845253944396973,-0.999999968870416,4.700212804784827e-11,-0.9999999688297132,-0.999999968947684,0.0,1407.8845337224518,0.1,0.0017027854919433594,0.027537107467651367,0.048119694,5.41361e-05,-0.9999999689314305,0.0,-0.0399999417705697,0.0,4,0.0012242794036865234,1.0910966477650037,1.0910966477650037,1200,-0.9999999688147515,0.0
300,1.7915725708007812,-0.9999999688591751,2.8366874571830978e-11,-0.9999999688211059,-0.9999999688892545,0.0,2515.6974075312833,0.1,0.0014963150024414062,0.027787446975708008,0.04598447,6.7797955e-05,-0.9999999689242051,0.0,-0.0399999417705697,0.0,4,0.0011379718780517578,1.0910966477650037,1.0910966477650037,1204,-0.9999999688133133,0.0
301,1.7307469844818115,-0.9999999688936969,5.1736625237354194e-11,-0.999999968815805,-0.9999999689613801,0.0,1324.0687881833474,0.1,0.0013611316680908203,0.02747511863708496,0.05051031,0.00010571324,-0.9999999689211543,0.0,-0.0399999417705697,0.0,4,0.0011131763458251953,1.0910966477650037,1.0910966477650037,1208,-0.9999999688107867,0.0
302,1.4673757553100586,-0.9999999688870256,2.5781028354646268e-11,-0.9999999688512151,-0.9999999689125834,0.0,2751.878208600699,0.1,0.0014262199401855469,0.022105693817138672,0.048042387,5.074481e-05,-0.9999999689177415,0.0,-0.0399999417705697,0.0,4,0.001435995101928711,1.0910966477650037,1.0910966477650037,1212,-0.9999999688117565,0.0
303,1.3968472480773926,-0.9999999689400707,8.452126549901522e-11,-0.999999968881317,-0.999999969086073,0.0,759.2784032350402,0.1,0.0015895366668701172,0.027698040008544922,0.047258668,0.000105999155,-0.9999999689199744,0.0,-0.0399999417705697,0.0,4,0.0011339187622070312,1.0910966477650037,1.0910966477650037,1216,-0.9999999688122846,0.0
304,1.9771091938018799,-0.999999968873473,4.9936981752464095e-11,-0.9999999688185388,-0.9999999689367294,0.0,1354.0973145124854,0.1,0.0015299320220947266,0.02820134162902832,0.048212186,8.0306956e-05,-0.9999999689153243,0.0,-0.0399999417705697,0.0,4,0.0012204647064208984,1.0910966477650037,1.0910966477650037,1220,-0.9999999688109981,0.0
305,1.4195683002471924,-0.9999999688984489,4.0251872029953934e-11,-0.9999999688328787,-0.9999999689385597,0.0,1778.5771933555734,0.1,0.001506805419921875,0.027868032455444336,0.0496497,8.6629836e-05,-0.9999999689136367,0.0,-0.0399999417705697,0.0,4,0.0012919902801513672,1.0910966477650037,1.0910966477650037,1224,-0.999999968811176,0.0
306,1.5459954738616943,-0.9999999689169305,4.7187386249284414e-11,-0.9999999688708088,-0.9999999689952377,0.0,1230.0071230955134,0.1,0.0014102458953857422,0.027415037155151367,0.044528205,9.561256e-05,-0.9999999689139661,0.0,-0.0399999417705697,0.0,4,0.0013396739959716797,1.0910966477650037,1.0910966477650037,1228,-0.9999999688105227,0.0
307,1.381441593170166,-0.9999999690267387,1.7234825838288075e-10,-0.9999999688505627,-0.9999999692086929,0.0,357.13188953565816,0.1,0.0014927387237548828,0.028354883193969727,0.043546062,0.0003314962,-0.9999999689252435,0.0,-0.0399999417705697,0.0,4,0.0014014244079589844,1.0910966477650037,1.0910966477650037,1232,-0.9999999688102573,0.0
308,1.688047170639038,-0.9999999689194152,5.5572191318210766e-11,-0.9999999688405454,-0.9999999689974224,0.0,989.9973092729234,0.1,0.0014908313751220703,0.025207042694091797,0.047002256,0.00035178813,-0.9999999689246606,0.0,-0.0399999417705697,0.0,4,0.0011858940124511719,1.0910966477650037,1.0910966477650037,1236,-0.9999999688099002,0.0
309,1.793936014175415,-0.9999999688509527,1.776560190955078e-11,-0.9999999688272494,-0.9999999688756567,0.0,4559.594287182794,0.1,0.0015475749969482422,0.022078514099121094,0.05106157,1.4077165e-05,-0.9999999689172898,0.0,-0.0399999417705697,0.0,4,0.0011820793151855469,1.0910966477650037,1.0910966477650037,1240,-0.999999968810783,0.0
310,1.6972599029541016,-0.9999999689209232,9.07043765647539e-11,-0.9999999688563495,-0.9999999690770438,0.0,854.4236419933516,0.1,0.0014581680297851562,0.027523279190063477,0.048110437,5.18898e-05,-0.9999999689176531,0.0,-0.0399999417705697,0.0,4,0.0012145042419433594,1.0910966477650037,1.0910966477650037,1244,-0.9999999688101052,0.0
311,1.7244696617126465,-0.9999999689561998,1.8242615555675234e-10,-0.9999999688174126,-0.9999999692662562,0.0,395.1044630113668,0.1,0.0013802051544189453,0.02779531478881836,0.04720035,0.00012289225,-0.9999999689215078,0.0,-0.0399999417705697,0.0,4,0.001215219497680664,1.0910966477650037,1.0910966477650037,1248,-0.9999999688100618,0.0
312,2.11639404296875,-0.9999999688757382,3.801834042401762e-11,-0.999999968825241,-0.9999999689323866,0.0,2144.390534422699,0.1,0.0014417171478271484,0.0279691219329834,0.050971568,3.3945333e-05,-0.9999999689169308,0.0,-0.0399999417705697,0.0,4,0.0011844635009765625,1.0910966477650037,1.0910966477650037,1252,-0.9999999688089288,0.0
313,2.04213547706604,-0.9999999688854722,3.0693706746994435e-11,-0.99999996883957,-0.9999999689260579,0.0,2403.437241325506,0.1,0.0017404556274414062,0.02581644058227539,0.048167642,5.335292e-05,-0.999999968913785,0.0,-0.0399999417705697,0.0,4,0.0012276172637939453,1.0910966477650037,1.0910966477650037,1256,-0.9999999688098434,0.0
314,1.8667047023773193,-0.9999999689165262,6.23764546692806e-11,-0.9999999688468073,-0.9999999689943442,0.0,956.913627966007,0.1,0.0015151500701904297,0.028728485107421875,0.03887254,9.90043e-05,-0.9999999689140591,0.0,-0.0399999417705697,0.0,4,0.001506805419921875,1.0910966477650037,1.0910966477650037,1260,-0.9999999688091549,0.0
315,1.893378496170044,-0.99999996889486,4.542731150486134e-11,-0.9999999688457422,-0.9999999689691283,0.0,1677.380036331545,0.1,0.0015974044799804688,0.02882242202758789,0.049097493,7.7517e-05,-0.9999999689121392,0.0,-0.0399999417705697,0.0,4,0.0011684894561767578,1.0910966477650037,1.0910966477650037,1264,-0.9999999688066784,0.0
316,1.9696800708770752,-0.999999968875023,4.982872135632944e-11,-0.9999999688193608,-0.9999999689398749,0.0,1320.7777124952097,0.1,0.001537322998046875,0.028682231903076172,0.050037883,6.412793e-05,-0.9999999689084276,0.0,-0.0399999417705697,0.0,4,0.0011878013610839844,1.0910966477650037,1.0910966477650037,1268,-0.99999996880587,0.0
317,1.9454998970031738,-0.999999968873179,5.878606907108992e-11,-0.9999999688055723,-0.9999999689673857,0.0,1081.496195083983,0.1,0.001514434814453125,0.028309106826782227,0.049088486,6.6295106e-05,-0.9999999689049027,0.0,-0.0399999417705697,0.0,4,0.001287698745727539,1.0910966477650037,1.0910966477650037,1272,-0.9999999688031163,0.0
318,2.0663187503814697,-0.9999999688536276,3.945642575923367e-11,-0.9999999688011891,-0.9999999689079069,0.0,1867.9848784914411,0.1,0.001415252685546875,0.028275489807128906,0.050293654,5.2845204e-05,-0.9999999688997753,0.0,-0.0399999417705697,0.0,4,0.0012583732604980469,1.0910966477650037,1.0910966477650037,1276,-0.999999968800728,0.0
319,1.8684847354888916,-0.9999999688565437,3.487517823291744e-11,-0.9999999688012771,-0.9999999688971104,0.0,1775.6907123586718,0.1,0.0015134811401367188,0.02474665641784668,0.04973616,0.00011694096,-0.9999999688954522,0.0,-0.0399999417705697,0.0,4,0.0011844635009765625,1.0910966477650037,1.0910966477650037,1280,-0.9999999688013638,0.0
320,1.8002784252166748,-0.9999999688375605,2.4408231151743317e-11,-0.999999968804923,-0.9999999688683039,0.0,2959.723000439187,0.1,0.0015380382537841797,0.02435612678527832,0.049443405,4.7889276e-05,-0.999999968889663,0.0,-0.0399999417705697,0.0,4,0.0011827945709228516,1.0910966477650037,1.0910966477650037,1284,-0.9999999688008736,0.0
321,1.798647403717041,-0.9999999690159183,2.819972515820744e-10,-0.9999999688263255,-0.9999999695030011,0.0,208.7593602185153,0.1,0.0015552043914794922,0.02754974365234375,0.040237132,0.0002697215,-0.9999999689022885,0.0,-0.0399999417705697,0.0,4,0.0012514591217041016,1.0910966477650037,1.0910966477650037,1288,-0.9999999688017573,0.0
322,1.9138765335083008,-0.9999999688571124,3.403082167062899e-11,-0.9999999688203303,-0.9999999689073769,0.0,1679.1900220526306,0.1,0.001428842544555664,0.02751898765563965,0.051568434,3.410592e-05,-0.9999999688977709,0.0,-0.0399999417705697,0.0,4,0.0012090206146240234,1.0910966477650037,1.0910966477650037,1292,-0.9999999688015387,0.0
323,2.1478302478790283,-0.9999999688846783,6.458775098463169e-11,-0.9999999688208672,-0.9999999689874572,0.0,773.1936437491267,0.1,0.0015304088592529297,0.028827905654907227,0.04652444,0.00021363105,-0.9999999688964616,0.0,-0.0399999417705697,0.0,4,0.0012409687042236328,1.0910966477650037,1.0910966477650037,1296,-0.9999999688022219,0.0
324,2.4096219539642334,-0.9999999689690992,2.0040675429167343e-10,-0.9999999687873034,-0.9999999693084862,0.0,300.53941501541635,0.1,0.0014376640319824219,0.02747631072998047,0.042297628,0.0001998665,-0.9999999689037253,0.0,-0.0399999417705697,0.0,4,0.001207113265991211,1.0910966477650037,1.0910966477650037,1300,-0.9999999688020668,0.0
325,1.94724702835083,-0.999999968861242,2.2558828889785302e-11,-0.9999999688267733,-0.9999999688892669,0.0,3340.042532055785,0.1,0.0015149116516113281,0.024823427200317383,0.050121687,3.486822e-05,-0.999999968899477,0.0,-0.0399999417705697,0.0,4,0.0011947154998779297,1.0910966477650037,1.0910966477650037,1304,-0.9999999688011978,0.0
326,1.8488726615905762,-0.9999999688688819,2.5284663846757637e-11,-0.9999999688265477,-0.9999999688915042,0.0,2623.7428709724595,0.1,0.0014452934265136719,0.024892568588256836,0.04933378,7.525436e-05,-0.9999999688964175,0.0,-0.0399999417705697,0.0,4,0.001178741455078125,1.0910966477650037,1.0910966477650037,1308,-0.999999968799532,0.0
327,2.051093101501465,-0.9999999688625141,2.187943246773437e-11,-0.9999999688300625,-0.9999999688900822,0.0,3063.207167934342,0.1,0.0014836788177490234,0.021598339080810547,0.049228173,7.1196075e-05,-0.9999999688930271,0.0,-0.0399999417705697,0.0,4,0.0011997222900390625,1.0910966477650037,1.0910966477650037,1312,-0.9999999687987127,0.0
328,2.6537086963653564,-0.9999999688279346,2.1419309538292007e-11,-0.9999999688059056,-0.9999999688630037,0.0,3471.4043750036517,0.1,0.0014314651489257812,0.02188253402709961,0.047268193,1.5296813e-05,-0.9999999688865179,0.0,-0.0399999417705697,0.0,4,0.0011916160583496094,1.0910966477650037,1.0910966477650037,1316,-0.9999999687977678,0.0
329,2.227452516555786,-0.9999999688239058,4.067010123526398e-11,-0.9999999687773875,-0.9999999688823269,0.0,1473.202503533837,0.1,0.0015120506286621094,0.02695751190185547,0.04230862,8.71658e-05,-0.9999999688802567,0.0,-0.0399999417705697,0.0,4,0.0011730194091796875,1.0910966477650037,1.0910966477650037,1320,-0.9999999687964887,0.0
330,2.248438596725464,-0.9999999688466947,1.726676128444121e-11,-0.999999968828819,-0.9999999688748411,0.0,3599.5316834328055,0.1,0.0015573501586914062,0.02339768409729004,0.046679914,2.1329288e-05,-0.9999999688769006,0.0,-0.0399999417705697,0.0,4,0.0014412403106689453,1.0910966477650037,1.0910966477650037,1324,-0.9999999687959099,0.0
331,2.543640375137329,-0.9999999688230736,1.4605898404735088e-11,-0.9999999688094188,-0.9999999688473025,0.0,4657.212008366908,0.1,0.0016903877258300781,0.022495746612548828,0.045513794,1.8236726e-05,-0.999999968871518,0.0,-0.0399999417705697,0.0,4,0.0012774467468261719,1.0910966477650037,1.0910966477650037,1328,-0.9999999687967436,0.0
332,2.079869031906128,-0.9999999688674155,4.017763562795495e-11,-0.9999999688211918,-0.9999999689221406,0.0,1709.2245809829274,0.1,0.0015587806701660156,0.025363922119140625,0.04969508,7.011679e-05,-0.9999999688711078,0.0,-0.0399999417705697,0.0,4,0.0011749267578125,1.0910966477650037,1.0910966477650037,1332,-0.9999999687951387,0.0
333,2.1128549575805664,-0.9999999688763752,3.604484497422681e-11,-0.9999999688173236,-0.9999999689094248,0.0,1852.851802220674,0.1,0.0013768672943115234,0.025900602340698242,0.04464177,9.262888e-05,-0.9999999688716344,0.0,-0.0399999417705697,0.0,4,0.001178741455078125,1.0910966477650037,1.0910966477650037,1336,-0.9999999687946576,0.0
334,1.8438169956207275,-0.999999968834062,3.941867461721488e-12,-0.9999999688286085,-0.9999999688392027,0.0,17812.494083241345,0.1,0.0016200542449951172,0.017255306243896484,0.048775386,7.828227e-06,-0.9999999688678772,0.0,-0.0399999417705697,0.0,4,0.0011658668518066406,1.0910966477650037,1.0910966477650037,1340,-0.9999999687941564,0.0
335,1.9793117046356201,-0.9999999688358298,5.1292479598269856e-11,-0.9999999687716796,-0.9999999689115933,0.0,1390.5977677746023,0.1,0.0016317367553710938,0.0275418758392334,0.047734406,7.072354e-05,-0.9999999688646725,0.0,-0.0399999417705697,0.0,4,0.0011370182037353516,1.0910966477650037,1.0910966477650037,1344,-0.9999999687918634,0.0
336,1.7681503295898438,-0.9999999688613708,7.2334763894454936e-12,-0.9999999688520309,-0.9999999688723571,0.0,11569.907831928631,0.1,0.0015425682067871094,0.019293785095214844,0.049146514,1.2144266e-05,-0.9999999688643424,0.0,-0.0399999417705697,0.0,4,0.0011775493621826172,1.0910966477650037,1.0910966477650037,1348,-0.9999999687919678,0.0
337,1.9120872020721436,-0.9999999688740597,5.376280417172076e-11,-0.9999999688407917,-0.999999968967058,0.0,1189.4114049240497,0.1,0.0014607906341552734,0.02820134162902832,0.03878797,5.1410523e-05,-0.9999999688653142,0.0,-0.0399999417705697,0.0,4,0.0011997222900390625,1.0910966477650037,1.0910966477650037,1352,-0.9999999687900973,0.0
338,1.7156598567962646,-0.9999999688571162,4.2672785042519505e-11,-0.9999999688046388,-0.9999999689235111,0.0,1442.5118573563386,0.1,0.001409769058227539,0.02761077880859375,0.04826612,0.000108196306,-0.9999999688644944,0.0,-0.0399999417705697,0.0,4,0.0011703968048095703,1.0910966477650037,1.0910966477650037,1356,-0.9999999687891759,0.0
339,1.9909188747406006,-0.9999999688703489,3.325360806870814e-11,-0.9999999688348948,-0.999999968920511,0.0,1572.9678822905046,0.1,0.0013728141784667969,0.027602434158325195,0.052965693,3.108981e-05,-0.9999999688650798,0.0,-0.0399999417705697,0.0,4,0.0011870861053466797,1.0910966477650037,1.0910966477650037,1360,-0.9999999687899025,0.0
340,1.8757383823394775,-0.9999999688513583,2.68287528469953e-11,-0.9999999688135104,-0.9999999688796988,0.0,2441.820846191561,0.1,0.0014872550964355469,0.024985313415527344,0.04503881,5.985956e-05,-0.9999999688637077,0.0,-0.0399999417705697,0.0,4,0.001123666763305664,1.0910966477650037,1.0910966477650037,1364,-0.9999999687892221,0.0
341,2.0712687969207764,-0.9999999688318387,4.510108968886963e-11,-0.9999999688049019,-0.9999999689099495,0.0,1617.5716704712306,0.1,0.00140380859375,0.025069236755371094,0.046466306,6.0107068e-05,-0.9999999688605208,0.0,-0.0399999417705697,0.0,4,0.001255035400390625,1.0910966477650037,1.0910966477650037,1368,-0.9999999687887137,0.0
342,1.899092197418213,-0.9999999689435937,1.8841787872849642e-10,-0.9999999688021235,-0.9999999692679102,0.0,379.70470458560476,0.1,0.0015568733215332031,0.02796792984008789,0.04376004,0.00011171121,-0.999999968868828,0.0,-0.0399999417705697,0.0,4,0.001512289047241211,1.0910966477650037,1.0910966477650037,1372,-0.9999999687895489,0.0
343,1.897815227508545,-0.9999999688518291,2.6895020746568866e-11,-0.99999996882153,-0.9999999688947427,0.0,1685.8153260884724,0.1,0.0015726089477539062,0.025138139724731445,0.046434887,5.376154e-05,-0.9999999688671282,0.0,-0.0399999417705697,0.0,4,0.001157522201538086,1.0910966477650037,1.0910966477650037,1376,-0.9999999687894027,0.0
344,1.7455615997314453,-0.9999999688916468,7.30110641111427e-11,-0.9999999688147487,-0.9999999690110017,0.0,829.5105805174884,0.1,0.001596689224243164,0.027792692184448242,0.046171412,6.009838e-05,-0.9999999688695801,0.0,-0.0399999417705697,0.0,4,0.0011768341064453125,1.0910966477650037,1.0910966477650037,1380,-0.9999999687907338,0.0
345,1.7729456424713135,-0.9999999688394319,3.146981784760826e-11,-0.9999999687879293,-0.9999999688669399,0.0,2686.920353811443,0.1,0.00154876708984375,0.026514053344726562,0.044520475,5.6213317e-05,-0.9999999688665653,0.0,-0.0399999417705697,0.0,4,0.0012717247009277344,1.0910966477650037,1.0910966477650037,1384,-0.9999999687894513,0.0
346,2.385545253753662,-0.999999968890875,3.991418277427888e-11,-0.9999999688436563,-0.9999999689507459,0.0,1474.5359501975993,0.1,0.0016176700592041016,0.027848243713378906,0.032615177,3.1289295e-05,-0.9999999688689962,0.0,-0.0399999417705697,0.0,4,0.0013699531555175781,1.0910966477650037,1.0910966477650037,1388,-0.9999999687902328,0.0
347,1.6302471160888672,-0.9999999688343394,1.782511383524653e-11,-0.9999999688168395,-0.9999999688586436,0.0,4440.824141160372,0.1,0.0016362667083740234,0.022470474243164062,0.044708893,1.6881851e-05,-0.9999999688655306,0.0,-0.0399999417705697,0.0,4,0.0012030601501464844,1.0910966477650037,1.0910966477650037,1392,-0.9999999687901423,0.0
348,1.4882378578186035,-0.9999999689718908,1.252314509214627e-10,-0.9999999687888115,-0.9999999691253683,0.0,505.95051699112935,0.1,0.0015654563903808594,0.028157711029052734,0.04847058,0.0003024046,-0.9999999688761666,0.0,-0.0399999417705697,0.0,4,0.0013136863708496094,1.0910966477650037,1.0910966477650037,1396,-0.9999999687892989,0.0
349,1.685056447982788,-0.9999999688369519,5.967979085216762e-11,-0.9999999687774954,-0.9999999689364922,0.0,793.5583438592782,0.1,0.0014340877532958984,0.027645349502563477,0.04642012,7.0433656e-05,-0.9999999688722452,0.0,-0.0399999417705697,0.0,4,0.0011911392211914062,1.0910966477650037,1.0910966477650037,1400,-0.9999999687885973,0.0
350,1.9547419548034668,-0.9999999688338642,2.985173115360154e-11,-0.9999999687996193,-0.9999999688817585,0.0,2398.4347990198144,0.1,0.0016913414001464844,0.02511429786682129,0.05074124,4.369383e-05,-0.9999999688684071,0.0,-0.0399999417705697,0.0,4,0.0012331008911132812,1.0910966477650037,1.0910966477650037,1404,-0.9999999687875375,0.0
351,1.9748141765594482,-0.9999999688944439,1.2365401030917058e-10,-0.9999999687806223,-0.9999999690968167,0.0,499.9091966949824,0.1,0.0015437602996826172,0.027774572372436523,0.045384146,0.00014186313,-0.9999999688710108,0.0,-0.0399999417705697,0.0,4,0.00113677978515625,1.0910966477650037,1.0910966477650037,1408,-0.9999999687872624,0.0
352,2.1320502758026123,-0.9999999688469157,2.8456892346811198e-11,-0.9999999688252164,-0.9999999688955417,0.0,2055.9151266692174,0.1,0.0015554428100585938,0.02814507484436035,0.04811786,3.041652e-05,-0.9999999688686014,0.0,-0.0399999417705697,0.0,4,0.0013298988342285156,1.0910966477650037,1.0910966477650037,1412,-0.9999999687861242,0.0
353,1.9971952438354492,-0.9999999688458725,2.494117345646936e-11,-0.999999968812199,-0.9999999688758259,0.0,2979.5766471272586,0.1,0.0014204978942871094,0.024779081344604492,0.041797325,3.0949188e-05,-0.9999999688663286,0.0,-0.0399999417705697,0.0,4,0.0012063980102539062,1.0910966477650037,1.0910966477650037,1416,-0.9999999687850883,0.0
354,1.6382062435150146,-0.9999999688185497,3.835707047328446e-11,-0.9999999687899397,-0.9999999688845227,0.0,1871.618522910766,0.1,0.0015249252319335938,0.027228355407714844,0.04912738,2.8898416e-05,-0.9999999688615507,0.0,-0.0399999417705697,0.0,4,0.0012409687042236328,1.0910966477650037,1.0910966477650037,1420,-0.9999999687837264,0.0
