iteration,time_sampling,stoc_pol_mean,stoc_pol_std,stoc_pol_max,stoc_pol_min,rollout_success,alpha,delta,time_vpg,time_npg,kl_dist,surr_improvement,running_score,rwd_sparse,rwd_dense,success_percentage,num_samples,time_VF,VF_error_before,VF_error_after,env_samples,eval_score,eval_success
0,0.6093697547912598,74.78949729897747,19.442011635419377,97.30470355840392,50.12017762465631,100.0,0.09200916465964167,0.1,0.036753177642822266,0.05389118194580078,0.16800494,2.7405064,74.78949729897747,1.6862091169935518,0.18534922534995518,100.0,145,0.011501073837280273,1.0004668633792075,0.9997729981652929,145,183.99018074421932,100.0
1,0.5083415508270264,84.78982191953922,27.91899336859332,107.44496179192537,37.1845558700888,100.0,0.18523669008182272,0.1,0.003024578094482422,0.05554842948913574,0.049585875,0.6517841,75.78952976103363,1.6569554736052812,0.19587720317056684,100.0,147,0.013088226318359375,0.9998139864192492,0.9993296729348244,292,180.19891152731768,100.0
2,0.5123817920684814,66.60775756659228,16.374632905751223,88.31506747237145,43.46027155867502,100.0,0.180956810656769,0.1,0.003187894821166992,0.053859710693359375,0.050098527,0.6943339,74.8713525415895,1.662298022027212,0.17835970934080514,100.0,145,0.011164665222167969,0.9990568388679346,0.9982907835166042,437,178.52629719193536,100.0
3,0.5080239772796631,79.9167086501991,18.116609514999553,107.17294591605146,56.17329718823673,100.0,0.1735560002706513,0.1,0.003192424774169922,0.053263187408447266,0.049907383,0.70675385,75.37588815245047,1.667014794619878,0.19098077976860794,100.0,146,0.011043310165405273,0.9986218025555097,0.9978732459665114,583,165.32681718677267,100.0
4,0.5564305782318115,97.8246646632833,38.524033395819316,147.74911540868072,50.7542938651701,100.0,0.18710610121497095,0.1,0.003275632858276367,0.05384564399719238,0.05007022,0.6746736,77.62076580353376,1.6185644634025576,0.21012147328372155,100.0,158,0.013643503189086914,0.9984605065544899,0.9978119348876415,741,169.57932289922584,100.0
5,0.5335617065429688,72.0529956995716,14.389962604714361,91.62738083824546,56.82189983857994,100.0,0.1772178326045485,0.1,0.0031082630157470703,0.052193403244018555,0.049864482,0.7004199,77.06398879313754,1.6976031749648546,0.18305213269951773,100.0,143,0.012875080108642578,0.9965857549894928,0.9953772716602054,884,170.30561916422332,100.0
6,0.5466997623443604,84.46487627776506,18.31459858318921,100.35380045564585,54.74432851800165,100.0,0.18174923264529316,0.1,0.002912759780883789,0.05238652229309082,0.05025106,0.7064536,77.8040775416003,1.6376728457238645,0.1952474550307574,100.0,149,0.011295318603515625,0.9963213142418421,0.9951557185410138,1033,163.4157720972248,100.0
7,0.5602962970733643,87.55810759291924,17.909526095725866,111.88276724983446,70.16155430405553,100.0,0.17351219328131742,0.1,0.003108978271484375,0.05382990837097168,0.050469354,0.78287923,78.77948054673219,1.6662972200425743,0.19975385074835028,100.0,151,0.012034893035888672,0.9949100274395194,0.9933968020431447,1184,175.51934239873663,100.0
8,0.5531904697418213,76.36229043709258,40.146010267078495,119.6580141885246,18.384108491053297,100.0,0.16090466603726228,0.1,0.0041730403900146484,0.05318784713745117,0.049975805,0.84496427,78.53776153576824,1.6583482743736586,0.18724544881478447,100.0,142,0.010685920715332031,0.9933729159932962,0.9915337885945951,1326,178.44843674138636,100.0
9,0.5527834892272949,101.4409738945423,22.874542641263687,128.81875252742554,74.37522888071892,100.0,0.16201435494654792,0.1,0.0030918121337890625,0.05176949501037598,0.04968968,0.8071774,80.82808277164565,1.6615964862234847,0.21182465162228886,100.0,139,0.011918783187866211,0.9947682390513242,0.9933851916868762,1465,168.29945632134783,100.0
10,0.571683406829834,88.86341604718109,27.301014775673593,120.0891920046482,45.18972121556757,100.0,0.16954779313943213,0.1,0.0029315948486328125,0.052330970764160156,0.050127152,0.7965831,81.6316160991992,1.6467377591082812,0.20127594099831447,100.0,147,0.010049581527709961,0.9906234178052488,0.9883242024248745,1612,170.46008950644236,100.0
11,0.5717816352844238,84.28549633506626,27.418433876519522,107.04340055501962,37.7633126924643,100.0,0.16705909008460285,0.1,0.0028944015502929688,0.052108049392700195,0.049951375,0.8509453,81.8970041227859,1.6883177499449202,0.19538118921433434,100.0,146,0.009734392166137695,0.9883092968378996,0.9856329483060408,1758,164.4738006032391,100.0
12,0.6110799312591553,89.9802128654087,33.02985045417438,140.19315351346722,49.166871431397155,100.0,0.16985387306893188,0.1,0.0031075477600097656,0.05686211585998535,0.049674857,0.9315985,82.7053249970482,1.6415627574803455,0.20205665235718315,100.0,155,0.012334346771240234,0.9847123335840909,0.9813419823729441,1913,163.29501097063584,100.0
13,0.6002352237701416,85.80229119646171,21.014893446374458,111.58857409529509,53.06272044062236,100.0,0.16463735314813766,0.1,0.0034296512603759766,0.052500009536743164,0.050850995,0.8572814,83.01502161698956,1.6666897601937198,0.19687227295311063,100.0,147,0.012861490249633789,0.9814372357263712,0.9775556509411023,2060,153.11120925374033,100.0
14,0.6039016246795654,74.8088775339709,22.3377143802673,111.04620885202237,52.05475307124274,100.0,0.15807246996563384,0.1,0.0031731128692626953,0.05263495445251465,0.04972991,0.83733606,82.1944072086877,1.671917476882999,0.1841481749127776,100.0,136,0.01128530502319336,0.9737757475979589,0.9686225590674046,2196,155.040315121752,100.0
15,0.6104521751403809,87.77698211988717,5.450334948970267,93.26091405159266,78.7397291284448,100.0,0.17276162621131763,0.1,0.0035338401794433594,0.05636739730834961,0.049402684,0.7981448,82.75266469980765,1.6397602751165614,0.1994940497125971,100.0,152,0.013643503189086914,0.9715065052138702,0.9660216880746783,2348,163.53611711729562,100.0
16,0.591820478439331,81.67825821170125,18.787454520156604,112.48667235277594,64.94251200215962,100.0,0.161663659052473,0.1,0.0032296180725097656,0.05385398864746094,0.050816502,0.8486051,82.64522405099702,1.627234411486153,0.19205313552878764,100.0,136,0.012253522872924805,0.9664663968257784,0.9602979085331863,2484,162.48660261034794,100.0
17,0.5855979919433594,74.18361161834828,21.71504155891208,107.08830782273259,50.24223772204549,100.0,0.15750504419067937,0.1,0.003148317337036133,0.054140567779541016,0.05073967,1.0025959,81.79906280773214,1.686190528665548,0.1837303060613624,100.0,133,0.012372493743896484,0.9522355949405565,0.9439127401803715,2617,166.5990158973971,100.0
18,0.6077821254730225,68.8673837530449,11.399010157101038,86.36570809951995,56.28620351659744,100.0,0.16163122230421503,0.1,0.003459453582763672,0.054766178131103516,0.049895372,0.9807407,80.50589490226342,1.6571272011063578,0.1795420695967907,100.0,142,0.011414527893066406,0.9410901693156072,0.9311938108159667,2759,180.2518940400894,100.0
19,0.6108963489532471,95.0396624624499,30.451130970328233,132.04096172251607,63.683954645636604,100.0,0.1606630540529912,0.1,0.0034050941467285156,0.054105520248413086,0.04964804,0.8856002,81.95927165828206,1.6151752277534905,0.20543367229525025,100.0,143,0.012108087539672852,0.9581668926700683,0.9515386667831004,2902,178.7260323723432,100.0
20,0.589463472366333,61.25331214667246,12.621859949213354,82.59590941996511,50.8937479001962,100.0,0.1526807360327962,0.1,0.003099203109741211,0.052186012268066406,0.050484322,0.9900554,79.8886757071211,1.6851861701272264,0.17084753911161604,100.0,134,0.01105809211730957,0.9107558596467307,0.8971486646495992,3036,183.93480246666195,100.0
21,0.6258687973022461,101.12390384494154,27.546091004025183,134.05572218845177,68.60714360319307,100.0,0.1620044296528836,0.1,0.0032181739807128906,0.052417755126953125,0.050119888,0.91215897,82.01219852090315,1.6773198677541288,0.2114495603199483,100.0,137,0.012227773666381836,0.957741638223891,0.9520976123900864,3173,180.62059269933272,100.0
22,0.6388187408447266,103.08602599977638,48.18149381129227,173.30898177225356,52.220560949064065,100.0,0.1634275534055546,0.1,0.0031282901763916016,0.053624868392944336,0.049922075,0.86050564,84.11958126879048,1.6417075251644184,0.2141518902853539,100.0,147,0.010223627090454102,0.9541015733864148,0.9485207373237529,3320,175.2096744329017,100.0
23,0.641127347946167,80.98429064819165,31.558368578111942,120.61513200568093,46.969764195931646,100.0,0.17029123357309883,0.1,0.0030820369720458984,0.053839683532714844,0.050101567,0.72683734,83.80605220673061,1.6557348151593896,0.19230660271573152,100.0,145,0.009893417358398438,0.9076229655862452,0.8968255176406528,3465,174.76525271237662,100.0
24,0.6462409496307373,89.49206005533179,14.880440126533612,112.31326117475976,74.2720167491987,100.0,0.16741719680225323,0.1,0.002911806106567383,0.05615878105163574,0.04929984,0.86997306,84.37465299159074,1.6707285551333846,0.20090081278645633,100.0,148,0.011313199996948242,0.9022797271875083,0.8913824886784568,3613,170.61300163978396,100.0
25,0.6491658687591553,73.01688640476154,19.800953471428535,107.0768251207633,57.89380059222617,100.0,0.16384393754482118,0.1,0.003205537796020508,0.05215287208557129,0.05088344,1.0590669,83.23887633290782,1.6629983705957851,0.1833411851852259,100.0,138,0.01270294189453125,0.8579981240547179,0.8420904332734742,3751,178.68350250192114,100.0
26,0.6573457717895508,69.99722899695821,21.13437978272967,101.0031118486693,46.500419648294525,100.0,0.16359501079541824,0.1,0.003656625747680664,0.05284404754638672,0.04897034,0.8692836,81.91471159931287,1.6557828770018441,0.181385291163441,100.0,147,0.010248899459838867,0.8392137878743551,0.8210152677219699,3898,186.07514062574867,100.0
27,0.6665856838226318,120.85906835891755,22.80814826602579,139.57862876344646,82.59477391734521,100.0,0.1550785233114595,0.1,0.003041982650756836,0.05315685272216797,0.049876336,0.928622,85.80914727527335,1.6602731727415767,0.23112558893611307,100.0,141,0.011913776397705078,0.9468046895459745,0.9426898527927215,4039,202.4203536983401,100.0
28,0.6684601306915283,110.37475822772345,38.70723322791884,149.00772869054418,46.06793128566149,100.0,0.16492776685985439,0.1,0.0029807090759277344,0.05363035202026367,0.049323656,0.85021883,88.26570837051837,1.6581132698215033,0.22190419486492205,100.0,147,0.011058330535888672,0.924838923644769,0.918988972069111,4186,186.49606342647598,100.0
29,1.0307612419128418,76.67351942045013,12.89611532693076,89.42591452892863,55.145136139795326,100.0,0.1606626190031018,0.1,0.00302886962890625,0.053408145904541016,0.050549105,0.93964326,87.10648947551155,1.635681439450131,0.18761639234118957,100.0,150,0.013403654098510742,0.8072626240571565,0.7925108004360273,4336,183.3949740646827,100.0
30,0.6380801200866699,71.50357252220093,11.351102631500263,85.82651750217983,54.53650905070947,100.0,0.1636321019964112,0.1,0.003088235855102539,0.05632424354553223,0.049963024,0.97054654,85.54619778018049,1.675415407371973,0.18370097551796352,100.0,149,0.011155128479003906,0.7661843491469231,0.7477531123867109,4485,184.0285786392109,100.0
31,0.637916088104248,109.21207211121042,27.40157720941683,143.71155734086557,76.34396145520935,100.0,0.1562984129937034,0.1,0.0034673213958740234,0.06063199043273926,0.05052255,0.7732402,87.91278521328348,1.634451925068442,0.22031863329414642,100.0,144,0.01287531852722168,0.9064690758837902,0.9016971727052469,4629,166.8953739566243,100.0
32,0.6525459289550781,79.96108000619911,19.004975772754385,98.48768012216104,49.439978784542944,100.0,0.1706482044776869,0.1,0.003053426742553711,0.05696535110473633,0.050777487,0.8603458,87.11761469257505,1.6423259615403756,0.19240223833403236,100.0,159,0.0125579833984375,0.7659718097389792,0.7511776035501495,4788,177.38648322196067,100.0
33,0.6459548473358154,125.75672622049859,13.633421913141605,144.83003949059542,106.27790514608958,100.0,0.1599201525845753,0.1,0.0031316280364990234,0.05713176727294922,0.050465822,1.0096323,90.98152584536741,1.6608530655204436,0.23730661092513888,100.0,145,0.013607978820800781,0.9380615451790946,0.9361572751537147,4933,181.25473607002314,100.0
34,0.6630351543426514,111.03794168022043,27.95800745521836,154.93237839664891,79.30875162257257,100.0,0.15742853282826708,0.1,0.002848386764526367,0.053716421127319336,0.050187334,0.978177,92.98716742885273,1.665360901389114,0.22215918864156048,100.0,145,0.010874748229980469,0.9020571681903828,0.8981763088584334,5078,166.27969072007946,100.0
35,0.6618525981903076,104.59700732893432,16.646596319029456,130.07973051044283,84.13549375980708,100.0,0.16161359722927957,0.1,0.003027200698852539,0.054132699966430664,0.049731772,1.0082511,94.14815141886089,1.6529658538302612,0.21641961380807018,100.0,149,0.011520862579345703,0.8522996169021969,0.8471770312279328,5227,157.1397785976806,100.0
36,0.6511509418487549,70.42010213740951,16.978969131401286,91.85835489184313,45.27564527433606,100.0,0.1526525709696539,0.1,0.002986431121826172,0.053717613220214844,0.050446045,0.85609066,91.77534649071576,1.6888927589967881,0.17910321282135835,100.0,129,0.013059854507446289,0.7342488767206249,0.7267091106357247,5356,169.62634272766923,100.0
37,0.6698024272918701,102.4343694270745,34.97936123551483,147.57450953041848,49.37128043102234,100.0,0.16860049458101542,0.1,0.002991914749145508,0.05292701721191406,0.050213348,0.80528784,92.84124878435163,1.6702505900119278,0.2152052694847736,100.0,152,0.010743379592895508,0.8358817470661031,0.8300299834708565,5508,180.5064884059847,100.0
38,0.6640009880065918,87.27252892316488,36.10216672020647,148.34402348459116,54.63698692628003,100.0,0.1614447355009344,0.1,0.002887725830078125,0.05231809616088867,0.050224084,1.0418757,92.28437679823296,1.679057378448595,0.19794437718671315,100.0,142,0.011543750762939453,0.7848930360443058,0.7774297375824527,5650,183.09245832242905,100.0
39,0.7034280300140381,104.98060798978625,16.191012166288527,127.45146977133464,88.74114326401953,100.0,0.15926159349587482,0.1,0.0028493404388427734,0.052892446517944336,0.05062727,1.0135207,93.5539999173883,1.676359440999574,0.21663868540458076,100.0,148,0.014881372451782227,0.8794792221003308,0.8753512458775319,5798,171.80103054068584,100.0
40,0.6722548007965088,116.85084265645077,47.550582631748036,169.06319970355935,50.64351772138822,100.0,0.15836426816064453,0.1,0.0028579235076904297,0.05246162414550781,0.05003302,1.0846634,95.88368419129455,1.660316260015579,0.22846072846810433,100.0,145,0.012392997741699219,0.9059488556109849,0.900874606933728,5943,173.39695237316434,100.0
41,0.6926205158233643,113.52241172686001,20.246404957405158,147.8308441200811,95.3673252472701,100.0,0.16725401714813437,0.1,0.002852201461791992,0.052843570709228516,0.04965131,0.93562764,97.6475569448511,1.622147410762019,0.22533773772215984,100.0,153,0.012532472610473633,0.8244281515135772,0.8180503519109296,6096,172.69692726597125,100.0
42,0.6840212345123291,80.94737263346974,28.306997805529274,128.9243424194563,58.35074718979004,100.0,0.16072724779393158,0.1,0.0028276443481445312,0.052100419998168945,0.050236244,0.78374994,95.97753851371297,1.6914863624297283,0.1914412504042,100.0,140,0.011944770812988281,0.7315493495319255,0.7234180337875111,6236,171.8410771243771,100.0
43,0.6883201599121094,101.31788587482828,23.285591542873572,129.12333874285642,70.75783447852612,100.0,0.14586472808190706,0.1,0.002783536911010742,0.0519101619720459,0.050044864,1.4675765,96.51157324982451,1.6909211906914825,0.21041850565198966,100.0,128,0.011803150177001953,0.8543232243713906,0.8474345504574523,6364,197.14391754242698,100.0
44,0.6488807201385498,106.31353304198983,22.331667178518778,130.9993483278482,78.23321737586424,100.0,0.1642340088454782,0.1,0.0029571056365966797,0.053356170654296875,0.04978634,0.876052,97.49176922904104,1.6445672239558324,0.21795838462736652,100.0,149,0.011421918869018555,0.8002966326789569,0.7926561199171778,6513,186.15842732379045,100.0
45,0.6507539749145508,108.13753242359354,36.19777788108831,156.63824384557228,54.52446290478733,100.0,0.15988258055465032,0.1,0.0028896331787109375,0.05357789993286133,0.049882594,0.99525577,98.5563455484963,1.662230269192402,0.21894112206636945,100.0,147,0.013051033020019531,0.8485129674417612,0.8417655518354505,6660,190.80048524656232,100.0
46,0.6665019989013672,87.93149216595341,42.96718653220301,146.10577197254216,32.69145165085186,100.0,0.1543028103960688,0.1,0.0032486915588378906,0.05482029914855957,0.05047997,0.96955204,97.493860210242,1.6486321177959438,0.1985930200550619,100.0,140,0.01217341423034668,0.7449704294219525,0.7364963128860101,6800,201.35638656660004,100.0
47,0.6670932769775391,115.13160115352714,21.53044657065865,150.0256527927701,92.11238249510765,100.0,0.16859129692910668,0.1,0.002839326858520508,0.0558772087097168,0.04952841,0.9306351,99.25763430457053,1.656694592933633,0.2248845302120649,100.0,140,0.012113809585571289,0.8604783111753914,0.8517290903993444,6940,200.12451498606603,100.0
48,0.6727924346923828,88.43859197798774,58.719967099038364,188.23788668988618,40.69376533341854,100.0,0.1586719445037858,0.1,0.002980470657348633,0.05247235298156738,0.049737867,1.2650698,98.17573007191226,1.674988420330581,0.19848870811046476,100.0,137,0.011438131332397461,0.7959421762730388,0.7881655886370073,7077,206.86334239029986,100.0
49,0.6698343753814697,85.93296999086033,8.18348514522784,100.07740434147269,80.35598332496346,100.0,0.15781914361391278,0.1,0.0030183792114257812,0.05286765098571777,0.050190084,1.1217673,96.95145406380706,1.6871460473998487,0.19702971529240884,100.0,146,0.010303497314453125,0.6283369358272956,0.6176167992947867,7223,203.46838251680217,100.0
50,0.685762882232666,97.51716657643425,27.152129038461535,115.32314756034006,50.611669262151295,100.0,0.16250305285432537,0.1,0.003206968307495117,0.05331230163574219,0.049487967,0.9454534,97.00802531506979,1.6252589780513595,0.21074996960189193,100.0,157,0.012465715408325195,0.6889533377856747,0.6782271778587097,7380,204.65805033788524,100.0
51,0.6762537956237793,104.83009958985855,27.730521079800717,149.25083173584915,78.28855369060378,100.0,0.15413508391208575,0.1,0.002986907958984375,0.05214977264404297,0.050077077,0.91846514,97.79023274254867,1.6654550970850195,0.21520150230180538,100.0,143,0.010637760162353516,0.7694625023389169,0.7591680014027944,7523,211.543054818864,100.0
52,0.6931734085083008,109.10364277598015,26.920566890532218,136.7797969205911,76.36440836497297,100.0,0.16139771839109507,0.1,0.00301361083984375,0.05326533317565918,0.05007305,0.84909785,98.92157374589182,1.672928637275053,0.22113647278878437,100.0,150,0.02532505989074707,0.7401751667495542,0.7286175530522536,7673,206.46224776624467,100.0
53,0.6894752979278564,99.06428053004304,31.485703450185486,135.9140448151866,52.311467161124824,100.0,0.16569784825888093,0.1,0.003105640411376953,0.054262399673461914,0.04993178,0.85056967,98.93584442430695,1.6686396960594867,0.21038490820765265,100.0,151,0.012551307678222656,0.740584406048313,0.7282653835918337,7824,208.7173785497138,100.0
54,0.6786327362060547,112.8190114279891,42.6030993248235,185.04772345099195,74.94707650647376,100.0,0.15865754547503347,0.1,0.0027790069580078125,0.052613258361816406,0.04942795,1.0035981,100.32416112467517,1.6747464355674002,0.22360188830144492,100.0,143,0.012420415878295898,0.7824257674999643,0.7685568422051767,7967,206.41420460173913,100.0
55,0.6848959922790527,114.63626547545826,11.718561335023628,134.2748089213412,105.51801544621728,100.0,0.15859157627243622,0.1,0.002772808074951172,0.052031517028808594,0.050040472,0.7810895,101.75537155975348,1.6956746374805456,0.2245647138393744,100.0,139,0.01094198226928711,0.7739697080245195,0.7568782332598023,8106,207.01105556676103,100.0
56,0.7128264904022217,134.96483917596373,52.4729301701711,220.45553121192606,77.61856006018633,100.0,0.16076559691873624,0.1,0.002843141555786133,0.05241060256958008,0.050268356,1.0009027,105.07631832137452,1.6711905026771963,0.24605293223465188,100.0,147,0.011618852615356445,0.8212730315940244,0.8091364599406009,8253,206.97711511906974,100.0
57,0.6915943622589111,81.22465426749794,26.349594775555605,111.56828083224187,40.45857384419169,100.0,0.16312887776457916,0.1,0.0027909278869628906,0.05365347862243652,0.049905367,0.91232806,102.69115191598686,1.6688820445616201,0.193027461885936,100.0,147,0.009771108627319336,0.5502233886365943,0.5428527790683781,8400,195.05772577363203,100.0
58,0.7219927310943604,149.09104127145127,14.853684099455482,166.6827962656596,125.69498403450095,100.0,0.1646292782873138,0.1,0.0030028820037841797,0.05315542221069336,0.049685746,0.8724787,107.3311408515333,1.626671575321918,0.26189202655817184,100.0,158,0.01219034194946289,0.7790616919270831,0.7683804908685014,8558,207.7122643597812,100.0
59,0.6428530216217041,129.8788682225757,33.89782536413492,162.5393172797338,73.16483670955294,100.0,0.16348261221384505,0.1,0.0034170150756835938,0.05286717414855957,0.04978486,0.6586314,109.58591358863754,1.6548988657146275,0.2386696399063864,100.0,135,0.011532068252563477,0.8435352056000391,0.8258708716069394,8693,213.3312279045791,100.0
60,0.6419401168823242,110.14848858087737,18.694025620941854,140.0788918426353,93.11951984591165,100.0,0.1595408608740133,0.1,0.0030412673950195312,0.055190324783325195,0.04975164,0.9743896,109.64217108786153,1.6703887930989711,0.22101444397881537,100.0,144,0.012519359588623047,0.6707393453613285,0.6618428348766562,8837,203.1947965918486,100.0
61,0.7061789035797119,142.3618921522287,24.251240908598543,163.9577645303764,101.20044523232082,100.0,0.15903900607938268,0.1,0.003147602081298828,0.05494189262390137,0.049923945,1.1192384,112.91414319429825,1.6598683751618535,0.25385028809181864,100.0,148,0.01316690444946289,0.7634214357278797,0.7525296512530004,8985,209.23660707876172,100.0
62,0.6814868450164795,104.98330184938307,15.03579856136769,124.47183396671066,83.22509720865791,100.0,0.16407933659684448,0.1,0.0030853748321533203,0.05449557304382324,0.04982094,1.0308582,112.12105905980674,1.6443192893090748,0.21741680885743908,100.0,152,0.011510848999023438,0.6172873089787859,0.6080653665490263,9137,213.0618786817869,100.0
63,0.6892492771148682,122.24494356264735,41.51518074074104,169.66191893380972,57.92028136084457,100.0,0.16098524697731584,0.1,0.0031299591064453125,0.053194522857666016,0.04936094,1.2913758,113.1334475100908,1.6935534796979252,0.23358029225225,100.0,151,0.011916875839233398,0.7124069018930234,0.703041746987419,9288,219.2176604995678,100.0
64,0.6844162940979004,98.57867658414683,30.19109404133313,129.58526670998668,54.579837584992745,100.0,0.16204370555530193,0.1,0.002909421920776367,0.05303525924682617,0.04957808,1.1000133,111.6779704174964,1.6926035055790147,0.2091999818454856,100.0,142,0.011061906814575195,0.5818506323400343,0.5675484432139591,9430,210.571416374863,100.0
65,0.7006804943084717,82.3919028720403,10.60674967676578,93.45306770584293,67.00235529590995,100.0,0.1561182772185389,0.1,0.003110647201538086,0.05274820327758789,0.04938174,1.0088347,108.74936366295078,1.6719128121375952,0.1928189654740083,100.0,141,0.011921405792236328,0.480640766904973,0.45673453188713237,9571,225.57052073501836,100.0
66,0.7088916301727295,102.98642369025467,32.59283372416441,156.55816767608172,68.34439723316493,100.0,0.17246006682654777,0.1,0.0031592845916748047,0.05519819259643555,0.050268512,0.8814174,108.17306966568118,1.6501165958299584,0.21593658732638246,100.0,158,0.014465808868408203,0.546957189998278,0.5254774338950238,9729,245.37012268931736,100.0
67,0.7278563976287842,99.59292392522218,27.579337849369807,139.35961639815372,61.38719364295339,100.0,0.1724806465033319,0.1,0.0030820369720458984,0.05465364456176758,0.050262425,0.7480715,107.31505509163529,1.6266173791243999,0.21027429169992937,100.0,145,0.010565519332885742,0.5301157454639559,0.5092432956768935,9874,247.43854593609998,100.0
68,0.7395858764648438,105.35231486091106,19.400878857254543,134.69953486189848,80.25613417259936,100.0,0.1586491526118437,0.1,0.002895355224609375,0.05458378791809082,0.049739886,1.1098793,107.11878106856287,1.6703466205433803,0.2156263541035968,100.0,146,0.012751340866088867,0.5741038952190188,0.5680657217131571,10020,224.98564623022267,100.0
69,0.712299108505249,70.61729986242237,20.991511577843998,92.19104662852,49.08836643014355,100.0,0.15956539051713609,0.1,0.002936840057373047,0.05379152297973633,0.050283946,1.0743831,103.46863294794882,1.6802574166101798,0.18088510747183847,100.0,141,0.012948036193847656,0.36233136723609455,0.35123809921365795,10161,208.69284108259936,100.0
70,0.730900764465332,111.77444226267839,46.19748805899663,171.39049109131616,55.89614264831032,100.0,0.16248173532257248,0.1,0.0029363632202148438,0.05456256866455078,0.0499536,0.8825914,104.29921387942177,1.6518708151434431,0.22363305209531417,100.0,154,0.010965585708618164,0.5854601730234545,0.578136599675803,10315,193.12363600307535,100.0
71,0.73587965965271,111.61232510214101,16.547458336960947,136.73608469260304,96.17924102078314,100.0,0.1639881127314722,0.1,0.0029523372650146484,0.05413556098937988,0.050135385,0.7886107,105.0305250016937,1.663186585781883,0.2222619190923057,100.0,147,0.010001897811889648,0.6154913194164046,0.6070475731501682,10462,191.19886006284688,100.0
72,0.7511098384857178,112.64028236536397,29.257887055734727,143.67218099777193,69.56232593665509,100.0,0.15595265121671198,0.1,0.0027701854705810547,0.05268526077270508,0.04960582,1.5022463,105.79150073806073,1.624101071220983,0.22525446679341424,100.0,155,0.010010004043579102,0.5201106499300687,0.5074829658350739,10617,183.15358466560608,100.0
73,0.7391984462738037,110.01199052829506,22.502611123156957,133.72153492429612,77.63129934399134,100.0,0.1685927364622144,0.1,0.002719879150390625,0.052611351013183594,0.049875185,1.0543544,106.21354971708416,1.668574611706649,0.22214402748060075,100.0,150,0.011651992797851562,0.5294262492241176,0.515236110529195,10767,214.65487896815458,100.0
74,0.7459688186645508,111.26960530753047,22.21312436855456,146.3342414420364,89.26089333698808,100.0,0.16267340306713135,0.1,0.002777099609375,0.05227994918823242,0.050256312,0.8272676,106.7191552761288,1.6549229344011867,0.22081622840744305,100.0,139,0.011521577835083008,0.5865834243960465,0.5677468604796553,10906,215.10431678611735,100.0
75,0.8125560283660889,104.33929396531578,31.16336072042518,131.80005684941858,53.477079286873746,100.0,0.15343060734618666,0.1,0.003233671188354492,0.053488969802856445,0.049812652,2.9658692,106.4811691450475,1.6386741439886323,0.21623496014107962,100.0,154,0.010976314544677734,0.44928609206289905,0.4393746326850346,11060,180.0515081021058,100.0
76,0.708503246307373,93.55186752190313,22.38741794599248,128.01424148014024,68.20893413763496,100.0,0.1592759167869918,0.1,0.003221750259399414,0.054259538650512695,0.05040333,0.8398037,105.18823898273305,1.6615481026127643,0.20474363679566854,100.0,148,0.011377334594726562,0.392947863675871,0.38394270176292583,11208,186.26574435023485,100.0
77,0.7263283729553223,79.26770894951282,16.775193050701183,102.86218882395725,56.93605599675335,100.0,0.1478041015417341,0.1,0.005185127258300781,0.055648088455200195,0.050033886,1.6060958,102.59618597941105,1.674850454861048,0.1888746866884276,100.0,137,0.012090682983398438,0.3076766864396114,0.29838404827568643,11345,183.37213708361742,100.0
78,0.7307631969451904,117.3988552435444,35.13237169143862,166.91178563483567,67.7402621395343,100.0,0.16546873049324676,0.1,0.0028960704803466797,0.0537717342376709,0.049782846,1.3014382,104.0764529058244,1.6561909639474286,0.22873629322247,100.0,148,0.011297225952148438,0.4775339920423767,0.46733787484624795,11493,196.37306497712794,100.0
79,0.722585916519165,135.31176842690186,35.80142765818588,168.57839058844482,78.72281553223667,100.0,0.15655800460411845,0.1,0.0030329227447509766,0.05317258834838867,0.050490934,1.5421723,107.19998445793215,1.633864736856971,0.24521441397738777,100.0,141,0.013368606567382812,0.6317100217228071,0.61591111711666,11634,189.71743712470615,100.0
80,0.7454328536987305,101.41245069932009,29.600017799056687,143.13646197074038,59.474797684476044,100.0,0.15524649725598436,0.1,0.002977609634399414,0.05403470993041992,0.04951572,1.990603,106.62123108207095,1.6610529764923865,0.2129543730842457,100.0,152,0.012063026428222656,0.38538373542708976,0.37594273989243293,11786,193.17820258562006,100.0
81,0.7590065002441406,130.87585001121852,26.431478975171625,156.25976996967586,86.68274426404186,100.0,0.16158820652544884,0.1,0.0028488636016845703,0.05278444290161133,0.04994788,1.1330925,109.0466929749857,1.6433294780362322,0.24220080828270557,100.0,146,0.013201236724853516,0.5506455776092108,0.5369811043860369,11932,177.5166087949772,100.0
82,0.7389571666717529,102.80250983127611,52.63955975017101,190.59947983057714,57.89649415328883,100.0,0.1587404602256202,0.1,0.0029516220092773438,0.05348992347717285,0.049776103,2.7183735,108.42227466061475,1.6785912500985072,0.21234211891784976,100.0,141,0.01253199577331543,0.48958332150912404,0.48023750100304946,12073,181.57262492427506,100.0
83,0.747868537902832,100.61200851965677,29.55547857264538,148.16702137267325,70.21200693326486,100.0,0.1510453623282722,0.1,0.003228425979614258,0.052527666091918945,0.0498303,1.5411311,107.64124804651895,1.680615787439195,0.21075987570350374,100.0,139,0.01086115837097168,0.41075621926708694,0.4021604696406425,12212,184.42116792228492,100.0
84,0.7704477310180664,121.38582763314321,30.029342448413654,156.18944155471365,79.7038368834536,100.0,0.16646900120044417,0.1,0.0029535293579101562,0.052918195724487305,0.050611824,0.916621,109.01570600518137,1.6561538696388727,0.23334482768596193,100.0,148,0.011648416519165039,0.4476220164525131,0.43380524609263704,12360,172.40775569276596,100.0
85,0.7748034000396729,123.57625018849552,28.25619121845074,149.5710019405211,75.95113180221742,100.0,0.16282991917958717,0.1,0.0029654502868652344,0.05308341979980469,0.04999548,1.4174954,110.47176042351279,1.6571913199040122,0.2355530193879125,100.0,150,0.013226509094238281,0.4922560803125148,0.47998974180083004,12510,168.6377258409675,100.0
86,0.7884831428527832,115.02304219114254,27.69952857425293,161.09258391545313,87.25124548672963,100.0,0.14712599639075613,0.1,0.0030477046966552734,0.052498817443847656,0.050065294,1.5155048,110.92688860027576,1.6760704328317964,0.2249356315249501,100.0,143,0.011448383331298828,0.40336940308842356,0.3904433464182769,12653,180.9828740392518,100.0
87,0.7899727821350098,107.86693853675288,28.53870973776894,145.83945925265232,66.88034764048624,100.0,0.16570655328273357,0.1,0.002991199493408203,0.052132606506347656,0.04994556,0.8637005,110.62089359392347,1.665948738070764,0.21723003687665549,100.0,138,0.01283407211303711,0.40379150591190316,0.3913709412570628,12791,194.67656222944524,100.0
88,0.814781904220581,103.03636488068406,34.78357559907506,159.3182386584333,64.47652010452649,100.0,0.14716351972448086,0.1,0.005018949508666992,0.05601143836975098,0.050434984,2.548855,109.86244072259953,1.668088014489248,0.21341211339276212,100.0,143,0.015929698944091797,0.34887878934993427,0.33577211471957435,12934,196.03204802715527,100.0
89,0.7724580764770508,112.8140845979795,31.593682986072174,159.82297763625047,72.74546960613884,100.0,0.15449545125454378,0.1,0.002889871597290039,0.05262422561645508,0.05013414,1.1906135,110.15760511013752,1.665238996020063,0.22250705800491785,100.0,134,0.010557413101196289,0.3909283832814769,0.37831427502334103,13068,202.89697755912468,100.0
90,0.81121826171875,117.7680098238302,29.36789987460855,147.53698178660454,72.23916238212058,100.0,0.16140349742051185,0.1,0.0027370452880859375,0.05428028106689453,0.049521446,2.049631,110.9186455815068,1.644334990511061,0.22909809479715537,100.0,149,0.016955137252807617,0.3729393440915112,0.36041132858254044,13217,203.8004126093264,100.0
91,0.7586400508880615,170.65317922093806,14.337997141324378,182.8268568121503,146.1893338671075,100.0,0.15437331723676884,0.1,0.002925872802734375,0.0548853874206543,0.05000342,1.3466752,116.89209894544993,1.6552986182856544,0.2811343510500336,100.0,148,0.012740135192871094,0.592090623263132,0.5676449483367342,13365,183.41292765943214,100.0
92,0.754173994064331,138.76998540487455,17.715680228287987,161.59338227125005,119.02374391006273,100.0,0.14682522446859617,0.1,0.0030393600463867188,0.05826592445373535,0.05053655,1.5368239,119.0798875913924,1.6192410545154423,0.24860082267972994,100.0,141,0.011071205139160156,0.42139173634897714,0.4077562241839562,13506,193.8267285792173,100.0
93,0.7675840854644775,138.79293211502676,30.93878717799238,169.18779160879643,87.35450120292307,100.0,0.1544385282180747,0.1,0.003061056137084961,0.05421710014343262,0.04994598,2.1539183,121.05119204375583,1.6840196671032595,0.2503552006647184,100.0,154,0.011221170425415039,0.42210388289693873,0.4088434025712105,13660,194.43279161595225,100.0
94,0.785290002822876,120.67383504534592,30.604058015782986,169.98415151416418,86.2996160274487,100.0,0.14548418155217366,0.1,0.0028603076934814453,0.05570840835571289,0.04944438,1.4491413,121.01345634391484,1.667081123407478,0.23078115632466892,100.0,143,0.014206409454345703,0.3244916236236561,0.31314214919775546,13803,202.25643065033418,100.0
95,0.7963156700134277,115.90283073191898,23.230006301267725,138.8914061168031,82.08752216085111,100.0,0.14597739452009573,0.1,0.0028738975524902344,0.05314016342163086,0.050473884,2.3084066,120.50239378271526,1.6284881351606044,0.22598683063472624,100.0,143,0.01150965690612793,0.3263450963630355,0.3073649727724725,13946,195.20856778713528,100.0
96,0.7772529125213623,123.684290137251,36.75174754872976,180.29375815121904,87.74322281829737,100.0,0.14522666479095225,0.1,0.0030210018157958984,0.05253481864929199,0.05006351,1.6292384,120.82058341816884,1.6832981255313346,0.23269083551821862,100.0,139,0.013297319412231445,0.40016729293786,0.3883219187116293,14085,211.43610673155254,100.0
97,0.7999703884124756,142.8231630823738,8.983779114635198,152.23385647951034,133.27172216549388,100.0,0.15645150197273944,0.1,0.0029213428497314453,0.05325961112976074,0.050243955,1.9802362,123.02084138458935,1.6479973351628252,0.25405367904817705,100.0,151,0.01326608657836914,0.3345080194455666,0.3189682664010099,14236,217.2748497727921,100.0
98,0.8091676235198975,137.8134105332939,18.102417764722116,167.21827576595587,121.60317088413201,100.0,0.13907452824969208,0.1,0.0028581619262695312,0.05274081230163574,0.049389217,2.5540528,124.50009829945981,1.6320676368017764,0.24971010037338348,100.0,150,0.011268138885498047,0.3216529242402156,0.30374494135762076,14386,203.1709774852346,100.0
99,0.8310849666595459,113.77122202580532,46.288640307054784,160.8460593323283,66.21559768617212,100.0,0.15674767477584803,0.1,0.005347490310668945,0.053424835205078125,0.04972999,1.7502743,123.42721067209436,1.6862360363625297,0.22574522556450288,100.0,152,0.01386713981628418,0.3197907408877081,0.2991555584123719,14538,194.87076709480766,100.0
100,0.8193991184234619,153.6253206708681,38.12807653100684,213.8560642558526,116.28593142966874,100.0,0.15518368810788732,0.1,0.002965211868286133,0.053791046142578125,0.050007463,1.7491069,126.44702167197173,1.6463752599008763,0.2655646535798076,100.0,154,0.010757207870483398,0.3885265418456909,0.3790901561849704,14692,202.08550481156172,100.0
101,0.7934246063232422,127.41058808971238,4.6439462723117,132.07723639922085,119.6895792275031,100.0,0.1606398233789644,0.1,0.0029294490814208984,0.0532534122467041,0.050703336,1.830704,126.54337831374579,1.647162260845888,0.23828653257934052,100.0,152,0.011327505111694336,0.2588059750526665,0.24396682418925075,14844,205.29940522797327,100.0
102,0.8444392681121826,163.84908033242422,37.137440885318654,206.84955082092915,104.68125197338539,100.0,0.14780924433044118,0.1,0.002988100051879883,0.05819821357727051,0.050843738,1.4321958,130.27394851561363,1.6461237483583209,0.2719243577774717,100.0,136,0.01292276382446289,0.4082877170800599,0.3827970324643895,14980,204.300399569807,100.0
103,0.8103270530700684,162.50168204526244,37.64944354874561,208.38253675312438,109.13728333095099,100.0,0.15652889197586625,0.1,0.0029664039611816406,0.05568552017211914,0.05052354,2.6086576,133.4967218685785,1.6608575921434134,0.27392684500256004,100.0,152,0.014208793640136719,0.3687071826166786,0.34819490196726355,15132,201.29004214841044,100.0
104,0.8230493068695068,155.5051592174839,8.675922349721946,165.30387433872374,142.94569382506796,100.0,0.13871272028219359,0.1,0.002930879592895508,0.05333971977233887,0.04990224,10.440785,135.69756560346906,1.6524768729242356,0.2674702801275708,100.0,153,0.011319160461425781,0.2967754871011666,0.28361696550219256,15285,212.48955200322925,100.0
105,0.8389832973480225,167.40326728839602,9.798401351559807,182.22752382493286,154.7799043869283,100.0,0.1519789326339233,0.1,0.0029218196868896484,0.053356170654296875,0.050096154,3.7872744,138.86813577196176,1.6315703776693253,0.2798699723764511,100.0,158,0.012926816940307617,0.29375968797492524,0.27657186957029534,15443,220.13778597106784,100.0
106,0.7652542591094971,154.97929431210918,36.3195576369663,201.59280778607436,111.42449717441681,100.0,0.14824705596766521,0.1,0.0029692649841308594,0.05313682556152344,0.04992454,2.1573064,140.4792516259765,1.6619249992983556,0.26467423277603347,100.0,142,0.012907981872558594,0.3084932001933853,0.29174626257136466,15585,204.70807675056764,100.0
107,0.7952785491943359,154.94695789309378,22.061761616566045,170.9964872681762,116.9687786170787,100.0,0.14274911384643085,0.1,0.0028645992279052734,0.05578875541687012,0.050459716,4.995218,141.92602225268823,1.6134188972199088,0.26512183239346926,100.0,146,0.012491464614868164,0.2464501462512555,0.23384336348247078,15731,204.8586125517974,100.0
108,0.8140838146209717,173.68515654460413,6.851498151089198,182.62262020557273,164.42260473817774,100.0,0.13528815915824735,0.1,0.002883434295654297,0.05358314514160156,0.048407715,4.270361,145.10193568187984,1.6480933079945883,0.28301602588968905,100.0,141,0.011210203170776367,0.2749190682476895,0.2558712002612158,15872,208.67301532669262,100.0
109,0.8028538227081299,166.58618486747105,18.17394682950579,193.01836906793693,144.79972545060792,100.0,0.1459350130568617,0.1,0.002889871597290039,0.0542147159576416,0.049654763,2.155578,147.25036060043897,1.632340101725046,0.2767701157559648,100.0,149,0.012319803237915039,0.2761016961018359,0.2585443636862911,16021,203.94568456228396,100.0
110,0.8350422382354736,155.1105284656825,10.87567960546522,170.8935148715626,140.27224541674417,100.0,0.14308003776590136,0.1,0.00281524658203125,0.053620338439941406,0.05102377,3.0178628,148.03637738696332,1.6536862023948258,0.26560694737637774,100.0,150,0.010597944259643555,0.1828339688978954,0.16885163165105121,16171,198.72788552391594,100.0
111,0.9086794853210449,168.28345727742266,20.019166350504495,190.36331490610735,136.85349187944942,100.0,0.13322284460182743,0.1,0.0030624866485595703,0.055335283279418945,0.049569167,4.342161,150.06108537600926,1.666072281528501,0.27917658336286677,100.0,146,0.012274742126464844,0.21696659916206815,0.20117585271551328,16317,211.19603756034348,100.0
112,0.8352558612823486,181.80215826878435,26.308252990553104,210.8454426136529,141.06562058979307,100.0,0.13185592739802873,0.1,0.002912282943725586,0.05352044105529785,0.049364083,13.938704,153.23519266528677,1.675865565390342,0.29369754583810176,100.0,155,0.011003255844116211,0.24264670311377076,0.2215004377211807,16472,208.22550120300312,100.0
113,0.856454610824585,133.19361244743115,44.05852056209329,185.1719695072312,64.9436442741751,100.0,0.15043288067378804,0.1,0.003009319305419922,0.05362582206726074,0.049921572,2.6110353,151.2310346435012,1.6441664604402182,0.24527161151101817,100.0,156,0.013135194778442383,0.17039314382756238,0.16692287567086503,16628,225.11346155803267,100.0
114,0.8181047439575195,162.81433488689694,18.522975841498415,187.568800226835,138.17675933565616,100.0,0.13257743599049016,0.1,0.002904653549194336,0.05260467529296875,0.049847372,4.5181327,152.38936466784077,1.6664554619711633,0.27289088130973466,100.0,140,0.010282278060913086,0.18601036553804612,0.17126786288761586,16768,207.4946589194861,100.0
115,0.8440005779266357,154.52405195342973,34.24827436146405,193.87457563741478,111.61851662075962,100.0,0.14467902845904262,0.1,0.002949953079223633,0.05401134490966797,0.049975544,4.530544,152.60283339639966,1.6369002267276926,0.26612436079609125,100.0,153,0.012053728103637695,0.14877005284137607,0.13768348871087677,16921,197.33487863379833,100.0
116,0.8500218391418457,171.93985732646107,7.878832502317253,180.94221321484434,161.7618585507937,100.0,0.1315120417960643,0.1,0.0028715133666992188,0.05292534828186035,0.050116174,10.186506,154.5365357894058,1.6409614309020042,0.28260788977887175,100.0,147,0.011779308319091797,0.16765919153420003,0.15816991840736364,17068,190.665721941091,100.0
117,0.8489422798156738,177.38774265974422,20.39215625307206,193.80364758492394,143.4129640900889,100.0,0.1476720512777934,0.1,0.003005504608154297,0.052422285079956055,0.04942341,2.0783882,156.82165647643964,1.6371101660494376,0.2867577617459066,100.0,141,0.011636972427368164,0.20525304945085884,0.19493651887685934,17209,181.55864015290987,100.0
118,0.8540470600128174,170.3662811806073,5.458181018989084,174.99218716864885,161.48761820871482,100.0,0.14544572711210263,0.1,0.0028023719787597656,0.05274248123168945,0.049349867,3.6248558,158.1761189468564,1.654585047085852,0.28173329550350235,100.0,148,0.00994110107421875,0.16638355461837506,0.1553196455638781,17357,157.945872942171,100.0
119,0.874913215637207,162.24153695521733,49.788237535707005,196.9005663628244,76.47189910556705,100.0,0.13324475680957706,0.1,0.002789735794067383,0.05270719528198242,0.049652185,6.8029714,158.5826607476925,1.6807463315464561,0.2723577010697015,100.0,142,0.011783599853515625,0.1661746405489872,0.16033822480349652,17499,156.8847221592304,100.0
120,0.8610429763793945,185.75873923047308,13.218817291444186,206.49865426612257,169.88624494307203,100.0,0.13531657639822417,0.1,0.005068778991699219,0.05427742004394531,0.05023323,9.180714,161.30026859597058,1.6685232364616769,0.29615237968970876,100.0,144,0.022073745727539062,0.1814100534617051,0.17106809715361265,17643,161.86589635365252,100.0
121,0.9156975746154785,166.0098080517903,11.193341714915675,185.2504685326375,158.44848626673263,100.0,0.13130060171594132,0.1,0.0028231143951416016,0.05300474166870117,0.049297847,11.216267,161.77122254155256,1.6495998623645574,0.2776070323586115,100.0,148,0.01162266731262207,0.10938011551897416,0.1034560452772915,17791,167.41105682134727,100.0
122,0.7972126007080078,176.95052547222068,21.94374893089171,209.03380415896402,147.07912840550634,100.0,0.12753364115569996,0.1,0.003255605697631836,0.05479288101196289,0.04926026,6.941496,163.2891528346194,1.6453205792374395,0.2856538062639526,100.0,134,0.013570547103881836,0.1342978103595977,0.12459648052334195,17925,181.4449585310997,100.0
123,0.8181591033935547,146.67932891194474,48.32071520974507,203.83241788670716,70.108755424715,100.0,0.1374477390231324,0.1,0.0029649734497070312,0.05423402786254883,0.05085768,3.0055408,161.62817044235194,1.6510431998564652,0.25624672804471993,100.0,136,0.011134624481201172,0.17827718065878684,0.17125544458281655,18061,181.62308664026912,100.0
124,0.8265426158905029,167.3684070669507,10.952807435596313,182.89332890175808,152.4735815979549,100.0,0.14077172740797078,0.1,0.0030317306518554688,0.05491828918457031,0.049732607,3.901667,162.2021941048118,1.6658078484366534,0.27787772357741813,100.0,141,0.010956525802612305,0.12759625184544413,0.12295999208937539,18202,181.97741838370095,100.0
125,0.8288869857788086,186.88225793825092,18.08893336262477,216.09552738790057,171.0811543826436,100.0,0.13222923972514497,0.1,0.0029821395874023438,0.053429603576660156,0.049292356,6.634626,164.67020048815573,1.6655531366136505,0.2941427062586946,100.0,124,0.0070879459381103516,0.1654427745599346,0.1654427745599346,18326,182.62314299378204,100.0
126,0.8164527416229248,167.2719553322135,13.343431038395382,185.0136567772583,147.929206227443,100.0,0.14645956633881674,0.1,0.0028209686279296875,0.054551124572753906,0.049069874,3.8717484,164.93037597256154,1.6330088747648916,0.27614017083371667,100.0,131,0.011796951293945312,0.17662323693745355,0.1694638909752469,18457,184.16677713174457,100.0
127,0.8705575466156006,184.70250763561265,15.150748625868573,199.8072011285817,163.26119958623488,100.0,0.14360115632976236,0.1,0.0029129981994628906,0.053969383239746094,0.049639884,3.628751,166.90758913886665,1.6440268586998397,0.2940797431961356,100.0,135,0.012542486190795898,0.12348175825695612,0.11849926706112894,18592,177.16043033047478,100.0
128,0.8608963489532471,183.88508506241982,20.254283030967017,210.60411821072495,161.10564639659597,100.0,0.13606217661688189,0.1,0.002919912338256836,0.054074764251708984,0.049391065,3.5194328,168.60533873122196,1.6502215262927613,0.294262506078101,100.0,141,0.013160228729248047,0.15456359508654532,0.1477170481637535,18733,178.79185742971814,100.0
129,0.8738625049591064,191.3408021020959,16.34397877191939,213.7156191455977,168.66392078116178,100.0,0.14528092450122587,0.1,0.0028710365295410156,0.05507063865661621,0.050278,11.565437,170.87888506830936,1.668592306343182,0.30118408976969757,100.0,143,0.012738227844238281,0.17410064254417265,0.14820627521457436,18876,181.3474870466525,100.0
130,0.8765642642974854,190.69288367242484,10.440736631682455,202.72883269063863,174.48937913729722,100.0,0.11881947155243376,0.1,0.0027806758880615234,0.05337405204772949,0.05025202,32.55036,172.86028492872092,1.6656070262009472,0.30119198673380687,100.0,146,0.012032270431518555,0.12220065601638824,0.0865193561475237,19022,177.29374288361313,100.0
131,0.8744070529937744,174.55651207400388,26.321159507903143,200.05282854713852,132.33918243224537,100.0,0.14862183192951925,0.1,0.002934694290161133,0.052864789962768555,0.049377013,2.1863697,173.02990764324923,1.6795160458267944,0.2860491229132046,100.0,144,0.011341571807861328,0.23285977680776224,0.2535160183887418,19166,172.80701261086503,100.0
132,0.8676619529724121,176.4419943489244,7.127999205168908,184.69423056959377,167.79504475400455,100.0,0.14768697912316156,0.1,0.002844572067260742,0.05465340614318848,0.05032768,3.3573303,173.37111631381674,1.6256807840941838,0.28735565342864283,100.0,148,0.012738227844238281,0.16046819787158795,0.1384804050054078,19314,161.27415635788114,100.0
133,0.8675243854522705,164.04196293808164,15.13981528630975,184.46137874059445,142.0132716027967,100.0,0.13425623590348684,0.1,0.0028243064880371094,0.05328226089477539,0.049761113,4.2644744,172.43820097624322,1.6026950462362648,0.2738950694373312,100.0,139,0.011412382125854492,0.22368665430200374,0.15601885938544732,19453,160.19227931039222,100.0
134,0.86997389793396,176.57377490364598,6.902049662234363,184.90755094876735,169.69662457414398,100.0,0.1225909003360175,0.1,0.002722501754760742,0.05327630043029785,0.049799014,6.709712,172.85175836898352,1.6397820149196067,0.28429313063816397,100.0,127,0.004336357116699219,0.09078502082891528,0.09078502082891528,19580,156.99895373254526,100.0
135,0.868034839630127,182.99482067392154,15.132969595382376,206.45045590182042,164.49740911005063,100.0,0.1354300634353015,0.1,0.003155231475830078,0.05515336990356445,0.05085354,6.705235,173.8660645994773,1.6902853654047307,0.2949912197689937,100.0,150,0.011426925659179688,0.09393744019780924,0.11064198528870489,19730,172.41100369140182,100.0
136,0.8473191261291504,176.7436010242979,17.66555288648679,195.7582978334052,155.02407820258105,100.0,0.14533274203446303,0.1,0.0030672550201416016,0.05451154708862305,0.05013247,2.8746479,174.15381824195939,1.6454793768201013,0.28700331959772163,100.0,137,0.012183904647827148,0.14997708021751732,0.1489693273753353,19867,168.2147774059351,100.0
137,0.8354067802429199,191.2434487862477,2.1985776849705965,193.83355114554377,187.75632669976693,100.0,0.1438612227684616,0.1,0.002938508987426758,0.054162025451660156,0.04984028,6.1605997,175.86278129638822,1.7087280423171272,0.3010637611249645,100.0,137,0.012400388717651367,0.1741089223572864,0.1597307532465315,20004,174.1552241105218,100.0
138,0.857205867767334,192.60162636316315,11.139488490177282,210.27247442072718,181.68150324676753,100.0,0.14632845440883344,0.1,0.003039121627807617,0.05444765090942383,0.05070846,2.149712,177.53666580306572,1.6692350940072416,0.3012827298718517,100.0,132,0.010920047760009766,0.1426473675739358,0.11407709184121848,20136,172.49144078420656,100.0
139,0.8685483932495117,162.79085496801758,14.11934794638969,185.07670840773324,145.9725023351125,100.0,0.13684076761098438,0.1,0.0030231475830078125,0.05489373207092285,0.04985648,9.066821,176.06208471956091,1.6715951905697088,0.2751095550180955,100.0,145,0.0158233642578125,0.14210907829246772,0.15672676932827326,20281,164.93635611620815,100.0
140,0.8799569606781006,192.43813576727464,9.085735431406462,205.48661939663123,180.2937249794604,100.0,0.11682575106103699,0.1,0.0028471946716308594,0.05577874183654785,0.049851567,67.94568,177.6996898243323,1.6729484709753262,0.30115430884550576,100.0,137,0.011274576187133789,0.084569756548,0.06430637894440021,20418,159.2307985461364,100.0
141,0.8718440532684326,187.53609048992797,5.212812364406157,194.86110382772642,180.1708552548941,100.0,0.13657577553895903,0.1,0.0028607845306396484,0.05269050598144531,0.050198637,6.3901935,178.68332989089186,1.6892642676545038,0.2983542167645675,100.0,141,0.017542123794555664,0.121208159156251,0.13338717567762487,20559,147.8002917075839,100.0
142,0.893791913986206,173.64570638731306,18.91988396402219,196.6655345079676,148.14682337917708,100.0,0.12220166860010355,0.1,0.0028069019317626953,0.05373573303222656,0.04928472,14.238892,178.17956754053398,1.6570766781264004,0.28403387175520267,100.0,141,0.011233806610107422,0.20268516778288648,0.1867208511756005,20700,151.55085138357435,100.0
143,0.8787744045257568,172.96533475626953,15.387933611120202,188.16664624432474,152.61156974273553,100.0,0.14156592213287442,0.1,0.0028040409088134766,0.05345296859741211,0.05057991,5.303809,177.65814426210753,1.6436547914001252,0.284312506107787,100.0,142,0.011015892028808594,0.1980036626394006,0.14822249825141381,20842,155.06089343637424,100.0
144,0.8771190643310547,175.1616803408107,23.36639450088515,208.04220984143518,144.95873888911376,100.0,0.1319174859816312,0.1,0.002959728240966797,0.054074764251708984,0.050718617,16.88705,177.40849786997785,1.665233314545059,0.2852910109179308,100.0,138,0.01260066032409668,0.09964021877241924,0.08689127294731225,20980,152.39546485642518,100.0
145,0.8927204608917236,169.88962534366607,6.930594192209941,179.1568035427158,160.91888318864108,100.0,0.15057804296444588,0.1,0.0029942989349365234,0.05242347717285156,0.049992952,2.5350292,176.65661061734667,1.6516793253271287,0.27883679520477556,100.0,134,0.012660741806030273,0.13980810780177197,0.1684222347417869,21114,152.79472576551865,100.0
146,0.9114196300506592,178.2922382000645,23.85932327659378,196.51095090572073,138.0304108604846,100.0,0.1506905336191757,0.1,0.002812623977661133,0.05182695388793945,0.050174687,2.6728337,176.82017337561848,1.679404872243528,0.28832578708009804,100.0,134,0.012552022933959961,0.17627827288225179,0.18314093406268597,21248,152.90294334074824,100.0
147,0.9292280673980713,178.5626384113193,13.48097990216085,201.6719027669867,168.14522450653683,100.0,0.14885342121532852,0.1,0.0027761459350585938,0.05496788024902344,0.04987865,2.1592407,176.99441987918857,1.6673034509875602,0.2889266644164924,100.0,142,0.011420488357543945,0.1189381259202311,0.09367562550790737,21390,150.660209427934,100.0
148,0.9003810882568359,176.013942925935,20.697044325495927,199.04471297783155,155.28096729529886,100.0,0.14805790744226327,0.1,0.0028831958770751953,0.05205798149108887,0.050305415,3.3070505,176.89637218386324,1.680582108797259,0.2862804949569756,100.0,137,0.013026237487792969,0.14509440135286195,0.13044882601996455,21527,151.5716759181113,100.0
149,0.9161863327026367,190.14883724328166,20.57953927622137,213.52495012284368,157.59370478433183,100.0,0.12782649342617072,0.1,0.0027015209197998047,0.05259346961975098,0.049425684,32.961685,178.2216186898051,1.6815726171534489,0.30096543943998444,100.0,143,0.014773130416870117,0.07346554365899874,0.07510770220490855,21670,147.36486524822607,100.0
150,0.9300422668457031,178.70641972274456,8.202575613832884,184.72715629749433,164.78317182848107,100.0,0.13301865046453523,0.1,0.002736806869506836,0.05221223831176758,0.04897746,6.1540194,178.27009879309904,1.681425225135269,0.28802261195691026,100.0,132,0.010807275772094727,0.12290155110123444,0.13068441845293763,21802,143.86590092629993,100.0
151,0.8514883518218994,169.02489773628687,17.74584762289607,197.60880917867445,151.33666614124502,100.0,0.12240898966350981,0.1,0.0029006004333496094,0.05417823791503906,0.050503787,40.338573,177.3455786874178,1.640963206645466,0.27865181345054657,100.0,135,0.013181924819946289,0.09617147320393914,0.09283553424041303,21937,146.01456031383813,100.0
152,0.8715033531188965,186.755542496107,18.2109117073589,203.2048595284245,158.05754749971703,100.0,0.14831716350359248,0.1,0.0028429031372070312,0.05586814880371094,0.05009056,3.1814256,178.28657506828674,1.6842633146434327,0.29691547984026756,100.0,136,0.015572071075439453,0.14014741895400168,0.12834552989284345,22073,153.28609092178934,100.0
153,0.9011106491088867,164.47853249054032,28.859276696999682,208.3785887775473,127.47582172537406,100.0,0.14488384111608257,0.1,0.0030562877655029297,0.056009769439697266,0.04966014,9.680082,176.90577081051208,1.6840594224810257,0.27779025297033544,100.0,156,0.013105154037475586,0.10261193477071408,0.1041622358241813,22229,158.06220666555095,100.0
154,0.8935770988464355,178.2753913434086,10.650466672910078,194.20636908422,165.1984765288685,100.0,0.14325733731960458,0.1,0.0028448104858398438,0.05717349052429199,0.049724825,10.151535,177.04273286380175,1.6702173581977338,0.29010506549120874,100.0,144,0.01153254508972168,0.10098336881389962,0.10029650931646558,22373,155.84075154445935,100.0
155,0.8835136890411377,183.71393658992645,14.644429935810894,194.45187310652238,158.77134016502077,100.0,0.1358126497405057,0.1,0.0027523040771484375,0.05275106430053711,0.04925948,7.959431,177.70985323641423,1.7018291392168297,0.29351818365271465,100.0,132,0.011573553085327148,0.14383686129602163,0.14253524183306518,22505,151.58149074181895,100.0
156,0.8774809837341309,177.13649928290323,11.198596855648784,193.39748750896507,162.9107985228796,100.0,0.13871644301880676,0.1,0.002889394760131836,0.054903507232666016,0.04970629,8.290199,177.65251784106314,1.6541992373133165,0.28674468374749584,100.0,137,0.011759757995605469,0.12326783667677774,0.12194685971104588,22642,145.2046122193615,100.0
157,0.9066007137298584,169.1600433609471,17.769425293044613,184.66468803615248,139.25581553662641,100.0,0.14071011983128648,0.1,0.002996683120727539,0.05330801010131836,0.050331637,13.283893,176.80327039305155,1.6661786407237997,0.28046876401662624,100.0,146,0.01131296157836914,0.09273616988940206,0.08225706384801448,22788,151.84381431158087,100.0
158,0.9228191375732422,182.50179161324706,10.597590631552933,192.56933803061622,164.72067848859558,100.0,0.14655651077460724,0.1,0.0051212310791015625,0.052992820739746094,0.04965306,3.6717663,177.3731225150711,1.6767115534278543,0.29295591517401737,100.0,135,0.01101994514465332,0.09741599637157049,0.09713765941104993,22923,147.14195330646018,100.0
159,0.8927812576293945,182.5809194823388,14.075774390048034,198.83539026867066,160.6398685679787,100.0,0.13821052523926639,0.1,0.0031731128692626953,0.05374026298522949,0.049870163,6.202563,177.89390221179787,1.6842737199155313,0.29138046448435667,100.0,131,0.012029886245727539,0.10360835393582679,0.10522942991854797,23054,151.49482330901716,100.0
160,0.9374661445617676,176.79738805194353,32.66546558047199,208.94046001134194,123.67356441966395,100.0,0.15771568796342134,0.1,0.002904176712036133,0.054227590560913086,0.05059415,2.349268,177.78425079581243,1.694562646474398,0.2868545742291264,100.0,133,0.010806798934936523,0.28795119756816134,0.2811113160521675,23187,155.01552190273785,100.0
161,0.8978877067565918,185.6416720087389,18.141343615869847,211.4119979060826,161.33066284044486,100.0,0.14969760376292052,0.1,0.0027360916137695312,0.05205512046813965,0.050570358,2.5232704,178.56999291710508,1.671839443630959,0.294729104708029,100.0,130,0.013495922088623047,0.13393922997862578,0.1285217171977017,23317,157.28017193671005,100.0
162,0.9229848384857178,181.84362827355932,17.97246257924527,205.72260663286556,155.22803998648305,100.0,0.15921511999160537,0.1,0.005012989044189453,0.053781986236572266,0.050010648,2.6394522,178.8973564527505,1.678054609388759,0.2925319121335577,100.0,138,0.016118526458740234,0.16660412966957114,0.16824158599745356,23455,158.1291792346041,100.0
163,0.920203685760498,165.51886455758074,36.19218381518001,214.04627588710173,115.31500226500805,100.0,0.15823998033084122,0.1,0.0028455257415771484,0.05202889442443848,0.050134357,2.6847088,177.55950726323354,1.6594853849761355,0.2758242304266469,100.0,133,0.010335922241210938,0.23173271954322347,0.22173595862748074,23588,159.05125862127514,100.0
164,0.9292068481445312,181.2036686753455,18.151110901482447,200.0243299063161,153.95520634857277,100.0,0.11114695730119237,0.1,0.002786874771118164,0.056662797927856445,0.049343973,58.43073,177.92392340444474,1.6610655303550206,0.29053053484203223,100.0,132,0.010949373245239258,0.07937890701183731,0.08176329401493396,23720,152.70845023583797,100.0
165,1.0533101558685303,181.49846912481263,15.95034932480559,198.689236390875,156.19350558970967,100.0,0.15516033132989834,0.1,0.0026922225952148438,0.05190467834472656,0.04940058,4.1027484,178.2813779764815,1.678767853636737,0.29125803756293966,100.0,136,0.010690450668334961,0.150931886589272,0.14175787205974122,23856,146.71293629686738,100.0
166,0.8982284069061279,170.87443942010526,14.58973313112823,191.62988295024502,156.29638085652698,100.0,0.15391321271119604,0.1,0.003704071044921875,0.056330204010009766,0.049554117,5.8485765,177.5406841208439,1.6957907850428628,0.2826944377492563,100.0,152,0.011318206787109375,0.09602800525260985,0.07479510087462307,24008,145.44058557273462,100.0
167,0.8946511745452881,185.65593528212173,19.534376804044214,214.9989119710889,165.5413826582596,100.0,0.1409408671849519,0.1,0.0029706954956054688,0.05518174171447754,0.050081544,3.888934,178.35220923697167,1.6839251733108775,0.2971214574886094,100.0,143,0.01277780532836914,0.09317478212682777,0.09949402416400809,24151,145.78759315713503,100.0
168,0.8932664394378662,185.27420773588926,11.104875488163655,197.17813556560785,173.61650457191405,100.0,0.12690770260090528,0.1,0.0031080245971679688,0.05509662628173828,0.049879007,22.2317,179.04440908686342,1.675190708936052,0.2954742553109269,100.0,142,0.013132333755493164,0.08721013931058354,0.08895029674675396,24293,151.97372757997485,100.0
169,0.8997344970703125,186.1112624664848,16.254403842243498,213.9484938679683,173.05803659478792,100.0,0.14340085613521739,0.1,0.002916097640991211,0.0548093318939209,0.04921715,5.470926,179.75109442482557,1.6816035710571322,0.2966610978753355,100.0,142,0.01363062858581543,0.08224464366404259,0.0833422479819399,24435,144.6945494464134,100.0
170,0.886803388595581,172.39861747765116,9.114349715220213,180.51399272768714,157.5215605323182,100.0,0.12693201653756253,0.1,0.0030019283294677734,0.054766178131103516,0.050956503,16.538977,179.0158467301081,1.6622954018386316,0.2829675482174006,100.0,133,0.017364978790283203,0.21259937496034512,0.16441535402291552,24568,141.31838533636122,100.0
171,0.9289877414703369,179.6955607477483,12.362469970485046,192.2881163889092,164.6199015208718,100.0,0.14311435338263412,0.1,0.002916097640991211,0.0556333065032959,0.04955502,5.697078,179.08381813187214,1.6877602603835011,0.29156843208492844,100.0,150,0.011681795120239258,0.09475126450727894,0.09678109034021797,24718,143.47654986337764,100.0
172,0.9241533279418945,183.91529537872356,32.680522432978705,224.69607382148246,135.80915607042542,100.0,0.14342701730143548,0.1,0.003084421157836914,0.05413103103637695,0.049395073,4.906998,179.56696585655726,1.6707751744275456,0.29406634274873844,100.0,131,0.011133670806884766,0.14792603815241026,0.14281142279218334,24849,134.70936748396258,100.0
173,0.9146595001220703,166.75719641385447,25.132653204118803,205.34717935856975,138.39987617993978,100.0,0.15331686479519271,0.1,0.0028972625732421875,0.05398249626159668,0.049575206,2.234212,178.285988912287,1.6661563389259417,0.27876289059948933,100.0,140,0.013477802276611328,0.11876087846092696,0.11720314684313299,24989,134.43893260496662,100.0
174,0.9451818466186523,186.2496689624382,10.557153593948945,198.0753874165785,169.6241676557776,100.0,0.1532307050659894,0.1,0.002788066864013672,0.05388307571411133,0.050209224,2.3093042,179.08235691730212,1.6890432401301725,0.29686865283669217,100.0,137,0.012592315673828125,0.10796062428623622,0.11221995385199532,25126,135.17961145631662,100.0
175,0.9333746433258057,169.96817590792224,22.138036344147555,190.06498189117167,132.54096779926937,100.0,0.1596851796641106,0.1,0.002965211868286133,0.05632591247558594,0.050131194,1.1965449,178.17093881636416,1.7036669061871998,0.28174672291017855,100.0,145,0.011654376983642578,0.12416518468805243,0.09667250350641848,25271,137.38261886869077,100.0
176,1.0240843296051025,199.090955854628,28.470801441806817,232.1950961058817,163.72126138687506,100.0,0.15141525510933926,0.1,0.002784252166748047,0.05331778526306152,0.05010125,3.3262413,180.26294052019054,1.7092148652682702,0.310904091641043,100.0,151,0.015086174011230469,0.14747970416373257,0.1082801640307743,25422,141.3333642603632,100.0
177,0.9417784214019775,170.5591936270631,7.328196386549232,182.45409031180478,163.51493503245837,100.0,0.1372056416669075,0.1,0.002893686294555664,0.056333303451538086,0.04996259,6.5671415,179.2925658308778,1.6681336725097577,0.2828047164107143,100.0,139,0.012087821960449219,0.12777844670825333,0.15339863054207437,25561,146.94312518080187,100.0
178,0.9551918506622314,168.17064520882846,17.825918604277206,190.65759089595264,142.45179268366314,100.0,0.16063047464131425,0.1,0.0028619766235351562,0.05421304702758789,0.049637605,2.603145,178.18037376867287,1.6779726992332102,0.28033530924298666,100.0,147,0.01151418685913086,0.1253889725921538,0.1252334824240708,25708,144.82090346225237,100.0
179,1.2540802955627441,167.80328082910881,13.327953442735977,186.71218956097476,149.91654550152447,100.0,0.12783373451757504,0.1,0.0027971267700195312,0.05258488655090332,0.05012749,7.9121614,177.14266447471644,1.6525941039545624,0.2775116878444975,100.0,132,0.012434244155883789,0.08805986747842438,0.08054314841680657,25840,148.19474194322893,100.0
180,0.9167561531066895,190.79080445296563,17.103022565201787,213.9971684041896,167.12127527500581,100.0,0.1730615784596972,0.1,0.0028786659240722656,0.05325889587402344,0.050892074,1.2256409,178.50747847254138,1.7111934969204095,0.3015294293692685,100.0,140,0.011701583862304688,0.12408597616032778,0.1250346355688154,25980,142.2865379273255,100.0
181,0.9028606414794922,173.33295719682698,21.938810615424213,195.43428873238872,150.56955834152234,100.0,0.14173638968916946,0.1,0.003072023391723633,0.0533750057220459,0.049627177,15.192564,177.99002634496995,1.6646057369468106,0.2851434607229118,100.0,140,0.01219630241394043,0.16789893837378855,0.1481257671853024,26120,150.47795108494236,100.0
182,0.9119129180908203,200.43717294588748,15.152366319557018,225.21060198717146,185.27735206278194,100.0,0.14902451121876528,0.1,0.0029354095458984375,0.05333852767944336,0.05034665,4.2586393,180.23474100506172,1.6955532042669195,0.3110374974584912,100.0,140,0.013255119323730469,0.12890413501356218,0.13275495380477031,26260,148.93510923335154,100.0
183,0.9231390953063965,190.26604160184294,15.580965751854086,203.33855556517858,163.71636367357732,100.0,0.13710422960935303,0.1,0.0031418800354003906,0.05506300926208496,0.0498108,12.1837015,181.23787106473983,1.7096930467249898,0.30162088014183613,100.0,139,0.012693405151367188,0.10365425083162588,0.10293438977404626,26399,142.95853086760104,100.0
184,0.9395341873168945,189.87777383105794,16.789579414458323,206.51105485639528,164.11191123728088,100.0,0.14592990042093865,0.1,0.003057718276977539,0.0547480583190918,0.050381172,5.007823,182.10186134137166,1.6970982922621323,0.2998795364503898,100.0,137,0.011311054229736328,0.10908077819409706,0.10078539133615684,26536,135.71472284294146,100.0
185,0.9119904041290283,201.9166497383177,31.22902839317673,232.210222552637,154.43849671425914,100.0,0.1532387602846171,0.1,0.002909421920776367,0.05277848243713379,0.050197367,3.230559,184.08334018106626,1.7149003853653513,0.31264775306068304,100.0,138,0.010323286056518555,0.16636533999371358,0.1445363719160675,26674,139.19644418070604,100.0
186,0.9453141689300537,190.6112188941453,34.94454897440318,222.82356431948136,131.73854981573862,100.0,0.1640215739717923,0.1,0.002840280532836914,0.05317974090576172,0.05015093,1.6621739,184.73612805237417,1.701663821890573,0.30357644746838414,100.0,148,0.01661229133605957,0.1604681182992993,0.1634792079942957,26822,137.27765491043985,100.0
187,0.9444801807403564,207.55326445593724,23.406734111379578,235.5209710713953,171.56904602279135,100.0,0.15026760135479716,0.1,0.002768993377685547,0.05293154716491699,0.050143182,4.962617,187.01784169273049,1.7141843733749573,0.3190918563738695,100.0,146,0.011476278305053711,0.10622912219240788,0.10615667443146594,26968,139.7371766863159,100.0
188,0.974463701248169,197.4623897925895,21.209269020043433,221.59878494589222,163.75463779010522,100.0,0.15877724693754655,0.1,0.0028176307678222656,0.052565813064575195,0.049622376,1.8137326,188.06229650271638,1.6999196538309016,0.30902221268491464,100.0,143,0.010832786560058594,0.12149211788068184,0.12043650986792116,27111,143.34668792087743,100.0
189,0.9550983905792236,153.73411822828035,29.783395247132436,203.18112297460766,124.8784639955596,100.0,0.11596616304587529,0.1,0.002778291702270508,0.052602529525756836,0.0494441,66.37559,184.6294786752728,1.6778733921610112,0.26569628155044617,100.0,137,0.010150432586669922,0.342459295981388,0.26954210345436597,27248,136.03089205567713,100.0
190,0.9864847660064697,171.3942953805284,18.05100719805684,191.80658500544405,145.4490936521106,100.0,0.13294421493301756,0.1,0.0028595924377441406,0.05218815803527832,0.049532376,12.884325,183.30596034579835,1.6838737074473005,0.28286876103843506,100.0,138,0.011620521545410156,0.1463128592512315,0.11169779164046963,27386,126.65369433192127,100.0
191,0.9846014976501465,178.04935473819202,32.41263556911831,220.55976153228312,129.3695816724029,100.0,0.15320609262174792,0.1,0.003110647201538086,0.054017066955566406,0.049830142,6.0516095,182.78029978503773,1.6983170804406447,0.28800723367005265,100.0,135,0.013309717178344727,0.10888755941515302,0.13740431990973764,27521,119.43136962390139,100.0
192,0.9251346588134766,206.2558550613161,9.60487970120103,220.28330550102694,193.9073521601286,100.0,0.15491462107474027,0.1,0.0031104087829589844,0.05352926254272461,0.049798027,1.4527104,185.12785531266556,1.7246571013569327,0.31527947093774683,100.0,135,0.011809349060058594,0.18042113000932733,0.1737156129818653,27656,122.40406050237567,100.0
193,0.9492969512939453,160.45967995826902,15.51620269580523,186.85580243824154,147.01974948333904,100.0,0.1683600232559109,0.1,0.002885580062866211,0.05376315116882324,0.0501732,0.9217934,182.6610377772259,1.6450797839431297,0.2715968028247673,100.0,144,0.012305021286010742,0.14029139851279607,0.13075184340816462,27800,119.76889482792377,100.0
194,0.9567227363586426,191.91083184149153,15.120564906523118,213.90407603073604,174.59716155634857,100.0,0.15601526731085033,0.1,0.0028879642486572266,0.05383777618408203,0.05020983,6.9631968,183.5860171836525,1.698810161424234,0.3028387092608879,100.0,139,0.014539480209350586,0.11350520389379588,0.09464160234178347,27939,120.19498011357219,100.0
195,0.9624686241149902,178.04779209744845,10.321713194026113,188.76485503796135,164.14190430661137,100.0,0.14393372562489257,0.1,0.0029282569885253906,0.05308794975280762,0.050221164,5.0209627,183.03219467503212,1.6560945126369182,0.2885358587212893,100.0,138,0.012007951736450195,0.10819647632481215,0.10944164285983078,28077,115.23571114962664,100.0
196,0.9604427814483643,179.34961575267693,30.956630179462167,207.26426570658606,128.19826258662604,100.0,0.14877334096909328,0.1,0.004965305328369141,0.055347442626953125,0.04932467,3.0857139,182.6639367827966,1.6792087747629025,0.2910320307618896,100.0,146,0.012480497360229492,0.13107317264195706,0.14112742407439005,28223,118.01981721910899,100.0
197,0.9471654891967773,175.21767044814897,13.498498836048132,195.93382556882645,158.13268695280595,100.0,0.1298358857359376,0.1,0.002926349639892578,0.05332326889038086,0.049940053,7.1876016,181.91931014933186,1.6861768549534197,0.28605501146480405,100.0,138,0.011965751647949219,0.08086302676733657,0.08445748907439699,28361,118.5873075423578,100.0
198,0.9429547786712646,191.29642143045493,16.631561779647104,211.5074275575697,171.86502746854185,100.0,0.13450910762501445,0.1,0.002923727035522461,0.05246281623840332,0.04939045,16.326464,182.85702127744418,1.7098529773290332,0.30153894290345273,100.0,134,0.012000322341918945,0.0885225313605928,0.08678384071346171,28495,125.24291954598858,100.0
199,0.9977924823760986,198.44017793765042,18.120963948031434,214.92667729046738,167.85326229558626,100.0,0.1378276770519551,0.1,0.002897977828979492,0.05217576026916504,0.049309585,8.775146,184.4153369434648,1.7083805088379902,0.3085464977735336,100.0,136,0.012196063995361328,0.09028171028374381,0.08434716850816579,28631,126.58017551791232,100.0
200,0.9905908107757568,187.39221276006788,14.819652477527528,208.86506168404986,171.40654854668924,100.0,0.13943143909989067,0.1,0.0028076171875,0.05267906188964844,0.049977217,5.4620376,184.71302452512512,1.6961379518264161,0.29891826947665506,100.0,148,0.01520228385925293,0.1026782223957275,0.10538061075640914,28779,126.83921888194637,100.0
201,0.9999697208404541,189.65449324520446,3.587948279988048,194.71004613274738,184.70586059734183,100.0,0.13512409499634512,0.1,0.0027475357055664062,0.05389833450317383,0.050500438,6.813596,185.20717139713307,1.6994147753659763,0.3004911290317759,100.0,141,0.010979890823364258,0.06287535072034149,0.05963815310944064,28920,131.7267103698307,100.0
202,0.9684855937957764,182.3490035222037,18.41684599695008,211.997655325996,165.7030814884307,100.0,0.14034753673056102,0.1,0.0028836727142333984,0.05347251892089844,0.04909637,8.205844,184.92135460964013,1.6818901565685993,0.29252010165794934,100.0,135,0.010956048965454102,0.09600790578392042,0.09851983388872981,29055,138.56242650479268,100.0
203,0.9929370880126953,198.2493940476434,12.43004754890465,216.71015116208216,181.68078553373053,100.0,0.1570806761070221,0.1,0.0028960704803466797,0.05825185775756836,0.049732957,1.7814527,186.25415855344045,1.7099259396806514,0.3101909463362152,100.0,144,0.012890100479125977,0.08912974347432408,0.08558443422230481,29199,145.35561426842068,100.0
204,0.9714679718017578,182.52840218977929,9.327043636803728,194.2111611972437,169.73527069577653,100.0,0.1437911967719623,0.1,0.002881288528442383,0.058268070220947266,0.049538724,3.640801,185.88158291707433,1.689784197035694,0.29256175175294624,100.0,137,0.015668153762817383,0.07351044682997893,0.07246735065869064,29336,138.24308794781447,100.0
205,0.97084641456604,183.2033307958697,21.02774289252027,212.73987433603207,156.97925085145584,100.0,0.15000224952989666,0.1,0.002892017364501953,0.05375790596008301,0.049562823,2.8700056,185.61375770495385,1.6837079942789788,0.29295836821656573,100.0,137,0.010526657104492188,0.12963858058679742,0.12143664732370518,29473,140.54512387601176,100.0
206,1.0131962299346924,197.11402998211534,22.363231344468264,235.30309205401983,178.32942335052934,100.0,0.14046799143495806,0.1,0.0028524398803710938,0.054093122482299805,0.049802247,5.3086104,186.76378493267,1.6984113391017306,0.308508302188825,100.0,141,0.010768890380859375,0.08122035861034421,0.07937797907399002,29614,153.2323236130541,100.0
207,0.9920213222503662,199.54838162062083,15.10493380240172,219.88364319813724,183.53332949540277,100.0,0.13658233572516756,0.1,0.002998828887939453,0.05275368690490723,0.04977986,7.0632596,188.0422446014651,1.7083672153209393,0.3106968749778411,100.0,147,0.012075185775756836,0.07541849341919654,0.06778626599118245,29761,145.22286059536506,100.0
208,0.9784200191497803,188.07196003594214,17.08563983888026,206.70793399783287,160.9572147183797,100.0,0.11740746293503285,0.1,0.0029659271240234375,0.05264735221862793,0.050806906,17.746325,188.04521614491279,1.699732069715778,0.29937919568966126,100.0,141,0.01321268081665039,0.09650283088018591,0.09666339604004057,29902,139.5090880273635,100.0
209,0.9765059947967529,194.71844860998922,23.229324091228534,216.1094513072655,157.43613519012968,100.0,0.14652667217830992,0.1,0.002848386764526367,0.055381059646606445,0.049940705,3.5559301,188.71253939142042,1.6973217242418923,0.30438138084949146,100.0,137,0.012694358825683594,0.09795023322731429,0.09791639469589568,30039,137.52717315364825,100.0
210,1.0005791187286377,197.84631960819905,8.441549262196924,211.45192265428355,190.53984833309806,100.0,0.15295768358993278,0.1,0.0028448104858398438,0.05343985557556152,0.04999042,3.5209906,189.6259174130983,1.7067516684544448,0.3085415729049085,100.0,142,0.010550498962402344,0.08629296877889804,0.08585339450957283,30181,139.5576335739993,100.0
211,0.9908440113067627,190.99199793065205,2.0625016109415935,193.4371120047872,187.74460008741192,100.0,0.12985384021674323,0.1,0.002880096435546875,0.05278754234313965,0.04931588,10.612823,189.76252546485367,1.7205777322353855,0.30319344377775687,100.0,145,0.012766361236572266,0.08755611522456139,0.07806187425293475,30326,128.31541050388407,100.0
212,0.9991579055786133,176.04316202528855,36.94549674944106,221.89378924838934,139.37103140825178,100.0,0.15043030781155617,0.1,0.002802133560180664,0.052525997161865234,0.049983148,2.8854663,188.39058912089715,1.6875050251127859,0.2872892293437252,100.0,135,0.014234066009521484,0.25620597100864273,0.22316136684770443,30461,126.41062297309118,100.0
213,1.0089190006256104,204.16375060612083,17.841625383603162,230.31692391121732,184.09177064828813,100.0,0.15639667668766435,0.1,0.002948760986328125,0.0545499324798584,0.049693238,2.4408412,189.96790526941953,1.7141191999904315,0.3144269048893356,100.0,144,0.010610818862915039,0.1300027248953261,0.1436460997371444,30605,126.06830051899118,100.0
214,0.9955189228057861,178.97749793533796,31.14300152339399,212.84562055499921,132.48938879068933,100.0,0.14323469480248444,0.1,0.0028421878814697266,0.05327033996582031,0.049799304,5.1652703,188.8688645360114,1.7115833054418133,0.29153870163997775,100.0,140,0.020121097564697266,0.19147792673075906,0.1700425047010715,30745,128.80247404810507,100.0
215,0.9878249168395996,166.00079973595948,13.855083494092144,189.11568497358792,153.56646189330206,100.0,0.1413503467968989,0.1,0.0029251575469970703,0.0527803897857666,0.049135778,5.486405,186.5820580560062,1.6790351632561602,0.27884378039101054,100.0,139,0.013544797897338867,0.09371626214084722,0.0633832804613052,30884,129.15957453149758,100.0
216,1.0357778072357178,194.01983774048236,16.75159345227985,215.75856400157897,168.8204738868657,100.0,0.1631053473745099,0.1,0.002913951873779297,0.05273318290710449,0.049919836,1.4889092,187.32583602445382,1.7148314082040197,0.30467075603420474,100.0,140,0.010967254638671875,0.14403300968989663,0.16335541163958858,31024,135.40403665632104,100.0
217,0.9920320510864258,202.09664537933634,6.318842514509714,210.61163495710315,193.54535116220515,100.0,0.17474032538992404,0.1,0.0029337406158447266,0.05295586585998535,0.049930356,0.8786953,188.80291695994208,1.7120813703390745,0.3144976388648568,100.0,149,0.012167692184448242,0.16182934740747887,0.1446211778514045,31173,138.2132951170005,100.0
218,0.9982631206512451,206.80332227955384,21.415209711188755,242.17089957364783,188.96172594159805,100.0,0.17516977247501206,0.1,0.0028574466705322266,0.05406951904296875,0.050073378,1.0157934,190.60295749190325,1.7382973193386113,0.31704887018124356,100.0,139,0.01161646842956543,0.18776493900853394,0.14579687977635314,31312,140.00690776490163,100.0
219,1.032759666442871,174.05397699163206,36.01647986840929,215.17570016969418,127.22791656459857,100.0,0.1487486327203289,0.1,0.0029883384704589844,0.05445671081542969,0.050033987,5.4899654,188.94805944187615,1.691668726618253,0.28630183169855616,100.0,139,0.011308908462524414,0.1647158780015462,0.18367255426192503,31451,141.23293154839143,100.0
220,1.0554702281951904,190.66896931744185,31.766227710510407,243.41774374886717,161.28336962634114,100.0,0.1450916305950246,0.1,0.002992391586303711,0.053983211517333984,0.049762994,19.013325,189.12015042943273,1.6986697700522393,0.300745336983013,100.0,136,0.01300358772277832,0.08122185315610722,0.07680771767645718,31587,147.6545663497777,100.0
221,1.0425374507904053,187.8899133841694,16.07484405932947,204.87664273766472,164.32984922543795,100.0,0.15775803804272825,0.1,0.003089427947998047,0.05434441566467285,0.049780756,1.7333529,188.9971267249064,1.7113473766685159,0.2996843132162748,100.0,141,0.021625041961669922,0.14582140799289797,0.1493181256949183,31728,155.7968799257262,100.0
222,1.0388100147247314,180.36659503998146,36.24577784432519,215.3841364594798,120.79176336165555,100.0,0.17143811185970714,0.1,0.002780914306640625,0.053005218505859375,0.050025992,1.3423656,188.1340735564139,1.7081396823884258,0.292669554561599,100.0,140,0.012398242950439453,0.2197638828921051,0.21345564506810008,31868,155.4537723591625,100.0
223,1.039107322692871,174.5282994021005,16.183398335123403,189.79080567320898,148.83895497999663,100.0,0.1254539323936249,0.1,0.005036354064941406,0.05301952362060547,0.050154783,19.66077,186.7734961409826,1.691246800014214,0.2865854314047172,100.0,142,0.010721921920776367,0.1051420971773548,0.09287221109534492,32010,154.0903657878503,100.0
224,1.0437514781951904,204.1988027761467,15.453924843814812,220.52466632839645,180.53232639614004,100.0,0.1508931687818353,0.1,0.0028371810913085938,0.05253243446350098,0.049586028,8.363393,188.516026804499,1.7187640348411755,0.313586549482873,100.0,137,0.011153221130371094,0.07898298095128757,0.08364070453185522,32147,158.18892873395552,100.0
225,1.017453908920288,197.34901180366796,33.98598513330997,248.75151919037827,154.41195862082398,100.0,0.14035915159894155,0.1,0.002838134765625,0.05411076545715332,0.049519878,7.8663907,189.3993253044159,1.6870353655504302,0.30791187587405,100.0,138,0.019540786743164062,0.08090645972045925,0.08005980145012909,32285,161.0625217711508,100.0
226,1.0498204231262207,191.3406598005859,27.26040565429909,233.49215415999964,159.1212187106691,100.0,0.15160097426111493,0.1,0.0028421878814697266,0.05299711227416992,0.049964923,6.300771,189.5934587540329,1.6916522481410632,0.30411234542326965,100.0,150,0.01168370246887207,0.09887528765745388,0.09797401506863418,32435,165.14236817306428,100.0
227,1.0258445739746094,199.47052391251435,24.787834912881625,230.54838876151842,170.25512921918283,100.0,0.14214790465694596,0.1,0.0028259754180908203,0.0524287223815918,0.049479526,9.823995,190.58116526988107,1.7014711247666976,0.3107365893047115,100.0,143,0.011451482772827148,0.09291285167579875,0.09007931122090612,32578,165.92523054393834,100.0
228,1.056096076965332,195.39601528189237,19.82974129384533,211.15596793307634,161.37153560718485,100.0,0.15168951338690562,0.1,0.002895832061767578,0.053457021713256836,0.04988746,4.7016115,191.0626502710822,1.6990655948897908,0.3084527232988986,100.0,150,0.01208043098449707,0.10908649372581848,0.1103486660947779,32728,168.90213002728274,100.0
229,1.0141632556915283,189.1626121809715,32.666055319568784,227.28101617151913,138.6465777502662,100.0,0.14693531488634173,0.1,0.0028030872344970703,0.05311417579650879,0.05001048,5.5292096,190.87264646207115,1.740690730753181,0.2997392033032209,100.0,137,0.017268896102905273,0.12541345438115012,0.12378779612943583,32865,171.00927570648744,100.0
230,1.034257411956787,218.33211602450893,16.259991760685146,240.3259022985776,194.67502263313753,100.0,0.13802243273100326,0.1,0.002747058868408203,0.052803993225097656,0.04998541,25.492918,193.61859341831493,1.725912169514542,0.32727566890556004,100.0,134,0.014865636825561523,0.060781982556185804,0.059175618011036706,32999,174.8325335785003,100.0
231,1.0229969024658203,180.45657098301837,32.19086757912352,212.1261239636294,140.2957126589447,100.0,0.14693304591059092,0.1,0.0028455257415771484,0.054651737213134766,0.050273728,4.0523243,192.30239117478527,1.698220893070379,0.29234974001745817,100.0,140,0.011263608932495117,0.16767399251435025,0.15470491434776282,33139,177.45335362538444,100.0
232,1.0269887447357178,203.9704690103179,15.315655772890645,229.68495176399338,190.90177165164536,100.0,0.14754934473701417,0.1,0.002841949462890625,0.05233430862426758,0.050034452,4.141984,193.46919895833852,1.7108464197513453,0.31429558248991446,100.0,138,0.011960983276367188,0.10730240227274078,0.10876205881678035,33277,185.32974231101352,100.0
233,1.0395677089691162,197.5792481136197,21.345168061786154,226.22222881383513,168.476942750896,100.0,0.16662951118395364,0.1,0.0029218196868896484,0.052548885345458984,0.050823297,1.2115384,193.88020387386666,1.7003202118511882,0.309320494428609,100.0,144,0.014189720153808594,0.08106688651454692,0.08095088073080728,33421,196.01729353249308,100.0
234,1.0375196933746338,224.53620227875183,16.64290453178298,242.7758971760498,200.25469603366065,100.0,0.13897228452989052,0.1,0.002918243408203125,0.05298900604248047,0.04944932,7.16154,196.94580371435518,1.7255746725352794,0.3359503685663393,100.0,142,0.012748003005981445,0.09367549815615445,0.09185934207495017,33563,184.17861970963648,100.0
235,1.0661664009094238,225.97555949331814,17.08529067057038,242.7301422031673,199.88088307523637,100.0,0.15435668981292425,0.1,0.0028595924377441406,0.05364084243774414,0.05069702,8.024699,199.8487792922515,1.7098147155062364,0.3370291544683731,100.0,146,0.011232137680053711,0.10160493528126216,0.09767147373664042,33709,184.510230167679,100.0
236,1.0491454601287842,233.7538551741024,15.293950444911552,254.20740975840596,211.13931575329372,100.0,0.1610607690564358,0.1,0.0042324066162109375,0.05300617218017578,0.050416708,3.633141,203.2392868804366,1.739830089924055,0.3436431592646392,100.0,143,0.013073205947875977,0.13760024996010384,0.11616437345782027,33852,189.44484020427225,100.0
237,1.0226755142211914,194.87994664957975,22.828138688952016,222.44135230739926,166.1790925672128,100.0,0.15557356664452934,0.1,0.002786874771118164,0.052565813064575195,0.05004399,4.2799664,202.4033528573509,1.696775566671187,0.30676888749577474,100.0,145,0.013580322265625,0.11792266759503159,0.1270699108896444,33997,196.35297964668595,100.0
238,1.044571876525879,218.82293748218873,18.65326352576579,245.21830645979202,193.14061783250565,100.0,0.14572410810802325,0.1,0.0031898021697998047,0.054248809814453125,0.05021211,3.9520385,204.0453113198347,1.7324678270334004,0.33024475740045534,100.0,140,0.009984970092773438,0.11968348537685096,0.11366596676670712,34137,211.24252841565115,100.0
239,1.0582237243652344,210.91093200167302,9.034971749661542,225.0899674872278,202.9918810036148,100.0,0.14736161495632719,0.1,0.002886533737182617,0.05536603927612305,0.04939405,11.542068,204.73187338801853,1.722247536344641,0.3220663332736702,100.0,145,0.01109170913696289,0.06599034194807286,0.06571886103230742,34282,205.21150996825358,100.0
240,1.0311098098754883,236.7048610095309,18.535854328898164,260.90502132550193,210.52239173193212,100.0,0.15490438446236265,0.1,0.002754688262939453,0.0552823543548584,0.049994495,3.0519214,207.9291721501698,1.728496264214295,0.3476373348549425,100.0,143,0.010646581649780273,0.09570415329126972,0.0925723245486181,34425,201.0164576705532,100.0
241,1.0327105522155762,193.6884654743584,17.37157384509969,210.779490532002,165.1655018465416,100.0,0.14308694501268804,0.1,0.0028595924377441406,0.052414894104003906,0.050040577,6.2809134,206.50510148258866,1.7113630633555568,0.3054461926406996,100.0,138,0.011561870574951172,0.15712575351918648,0.14151805381597576,34563,191.22805092445853,100.0
242,1.0371756553649902,200.34809346131357,20.424938533003786,218.9828301588942,166.6090351834839,100.0,0.1277851123470695,0.1,0.0029311180114746094,0.054338693618774414,0.048985835,158.78708,205.88940068046116,1.7193954167840189,0.3127014791049475,100.0,140,0.010827302932739258,0.08989897548974687,0.07020333128118153,34703,189.64094740410005,100.0
243,1.0472631454467773,186.83320503937892,48.03789832101753,269.40034898128084,154.30801077939293,100.0,0.16185857928533715,0.1,0.002791166305541992,0.055458784103393555,0.049845554,2.3656607,203.98378111635296,1.6934122630158206,0.30053087381107535,100.0,145,0.010524749755859375,0.19162905974244304,0.1621632782199543,34848,190.8491699950836,100.0
244,1.0931885242462158,208.20765643770213,28.67156715282565,238.25163744023726,162.05395222503205,100.0,0.15500218930889306,0.1,0.0029044151306152344,0.05252432823181152,0.04962777,1.7793913,204.4061686484879,1.7234320773345972,0.31910384875791614,100.0,139,0.010589122772216797,0.13118741905220155,0.14714423241380714,34987,190.18671406237476,100.0
245,1.0811808109283447,224.51226329181156,32.909225995850505,255.34667751268182,171.29300001130838,100.0,0.157438403499044,0.1,0.0029413700103759766,0.05341529846191406,0.050296042,5.1618824,206.41677811282028,1.7237273723799929,0.33573224314433636,100.0,142,0.013023853302001953,0.14208873139003106,0.12398725697240595,35129,187.31807280962525,100.0
246,1.0472664833068848,215.87555112459577,9.386068251546344,226.33347157361814,204.16719241007752,100.0,0.1526191833331085,0.1,0.0030825138092041016,0.05420231819152832,0.049626056,2.4251828,207.36265541399783,1.7249657317009617,0.32639586338808824,100.0,136,0.011845827102661133,0.0811724980800239,0.07644692661796672,35265,189.9567765292242,100.0
247,1.0492069721221924,219.415162965048,13.580922408677058,233.49521352486744,196.97488094778862,100.0,0.15405119889205982,0.1,0.0029599666595458984,0.05502891540527344,0.049916748,2.9773672,208.56790616910286,1.7180248308301298,0.3311638067170768,100.0,148,0.011564016342163086,0.10070255675781364,0.07031046578097512,35413,180.38753141674945,100.0
248,1.0557432174682617,225.65498405619232,18.266593572409697,250.48794968237235,204.30543039322998,100.0,0.14809298902286128,0.1,0.0028581619262695312,0.05312204360961914,0.04979726,8.740885,210.2766139578118,1.7300754463445656,0.3372812087568934,100.0,142,0.01064753532409668,0.10704692106066778,0.10852923461140393,35555,191.96430021779898,100.0
249,1.05149507522583,207.73663513162737,22.930858437930322,229.1799246779675,170.2801470837253,100.0,0.13923495883901613,0.1,0.0029296875,0.05255556106567383,0.04988407,4.133556,210.02261607519338,1.7291107265666334,0.31897687833789573,100.0,139,0.010811805725097656,0.11558914534088884,0.12685577430179626,35694,192.9815155420741,100.0
250,1.0615763664245605,206.56224355242745,22.317856722757895,228.68941801441923,180.28152433511025,100.0,0.1422576950227571,0.1,0.0029256343841552734,0.052965402603149414,0.049563464,3.881014,209.6765788229168,1.7222106431257227,0.3183876082317847,100.0,144,0.010193347930908203,0.09450188602861041,0.09216559261935876,35838,179.77716724423826,100.0
251,1.0267775058746338,189.11424328109928,13.924726120445618,208.1654342696943,175.1402469572504,100.0,0.15135293812408182,0.1,0.0028858184814453125,0.053658246994018555,0.049747765,2.8815434,207.62034526873504,1.703448218340858,0.3031309523114851,100.0,151,0.011355876922607422,0.13616937647396377,0.10718794812454667,35989,178.49032081487977,100.0
252,1.0579466819763184,198.89747616673054,25.914960769655686,220.76927168223324,155.93627371929688,100.0,0.14109636449011995,0.1,0.002947092056274414,0.05386996269226074,0.05012036,4.379509,206.7480583585346,1.6942085182347943,0.3116054986703306,100.0,142,0.01231241226196289,0.20802488734149244,0.15657099584538686,36131,192.81984528666226,100.0
253,1.0760588645935059,204.03199805097657,28.57647808507096,247.64770894061496,167.45399638544828,100.0,0.15166401411796626,0.1,0.0027654170989990234,0.052201032638549805,0.04998999,2.6617794,206.47645232777882,1.7136172849100788,0.315750215399045,100.0,138,0.01074671745300293,0.12416069458830144,0.1234858622811863,36269,194.25869167877082,100.0
254,1.068756103515625,207.94367168664309,25.67314114375083,237.5721996332711,175.0228493991611,100.0,0.1627504124235725,0.1,0.0028057098388671875,0.05319833755493164,0.049848083,2.6777163,206.62317426366525,1.7336243668427838,0.32042574202129037,100.0,149,0.01158285140991211,0.13656655973513432,0.15921025447405646,36418,191.96301080641857,100.0
255,1.0156519412994385,225.86305775728016,16.900820788469392,245.35648898697048,203.08363644701853,100.0,0.16191331681483315,0.1,0.002866506576538086,0.05230426788330078,0.049778357,1.6181731,208.54716261302676,1.7357265672681643,0.3358966537856968,100.0,138,0.010531425476074219,0.1812222286818353,0.16301979340114167,36556,186.60044976535826,100.0
256,1.0163781642913818,239.61129374416836,8.831925262073998,254.85325522831232,233.34285122072296,100.0,0.16580260022515092,0.1,0.0028231143951416016,0.05230545997619629,0.05056138,1.6179124,211.6535757261409,1.7351634826113405,0.34982493577619433,100.0,140,0.010521173477172852,0.16345683009089987,0.12465177396936641,36696,195.23234533245036,100.0
257,1.0736057758331299,210.78812671804033,15.631803908242343,236.541529583037,194.34017355871367,100.0,0.14799727791933867,0.1,0.0047206878662109375,0.05320620536804199,0.050195232,7.9469647,211.56703082533085,1.71619475460775,0.3229912677584371,100.0,146,0.012577056884765625,0.06472647530386122,0.0725474296623487,36842,187.01302975705298,100.0
258,1.063711404800415,198.42213411741,18.664440844346235,228.57557602695482,179.00291747826043,100.0,0.14682377557358875,0.1,0.002810239791870117,0.05496096611022949,0.05013415,6.075341,210.25254115453876,1.7132691512094602,0.3108941266813229,100.0,143,0.01226496696472168,0.150736898544856,0.17224179707055928,36985,191.47675961405534,100.0
259,1.063828468322754,216.3507653638082,9.410100976381951,230.28277805859483,203.73299368039716,100.0,0.14522486837776177,0.1,0.0029060840606689453,0.05247902870178223,0.0501209,5.0296474,210.86236357546574,1.743300911123177,0.3281324312099466,100.0,139,0.01170802116394043,0.12535405329805688,0.11703140600470516,37124,188.6055606195589,100.0
260,1.0539147853851318,222.27555487058208,13.229023587127848,241.88037632542296,205.04478651339988,100.0,0.14669591368257417,0.1,0.0029861927032470703,0.0553736686706543,0.049825203,3.33455,212.0036827049774,1.7379083618437223,0.3341517357527028,100.0,145,0.011627435684204102,0.08811657164864486,0.08302716138914126,37269,187.80093330566078,100.0
261,1.0714688301086426,224.62225167058216,11.565187387610173,240.47698544726592,207.95900631771343,100.0,0.13764021484927105,0.1,0.002810239791870117,0.05445384979248047,0.049531955,16.908428,213.26553960153788,1.7491652556798343,0.3370074013032434,100.0,145,0.010423421859741211,0.07118600351137694,0.0691324073521124,37414,187.90551451536837,100.0
262,1.0754296779632568,225.73480335495327,12.374838391474679,244.36224871969685,210.36985754771882,100.0,0.17018643165220618,0.1,0.003444194793701172,0.05498361587524414,0.050519828,4.850343,214.51246597687944,1.7322086004571806,0.3372358395164946,100.0,148,0.020733356475830078,0.09676627714379014,0.10277659158150637,37562,192.92032075686924,100.0
263,1.053544282913208,204.6316590441382,30.47869482674248,241.95683772636443,157.01690527691966,100.0,0.1445170601110422,0.1,0.002836465835571289,0.05474257469177246,0.0499427,5.352278,213.5243852836053,1.734759166122869,0.3168040423654059,100.0,141,0.012305736541748047,0.12200992417052003,0.11700099871998865,37703,198.22371788334013,100.0
264,1.0841562747955322,220.2565169348338,8.155134788509526,227.53709145590096,207.57402711737177,100.0,0.16832363757886468,0.1,0.0028395652770996094,0.05380892753601074,0.04984528,2.6635323,214.19759844872817,1.7472553304255483,0.33131923791634743,100.0,140,0.010620832443237305,0.11043858188167799,0.11370189200079354,37843,202.04050814289988,100.0
265,1.0939326286315918,217.38087178951704,36.67899810354177,260.1881139476229,161.6348433212494,100.0,0.16203366836775515,0.1,0.0029900074005126953,0.05429887771606445,0.050072417,1.739767,214.51592578280707,1.726173089713828,0.32681732190684654,100.0,134,0.01345372200012207,0.10155879654124873,0.10030223368396846,37977,204.79389741509388,100.0
266,1.045520544052124,200.21495158566836,31.408493588523456,249.00681546096902,163.0834377468078,100.0,0.14521347804080517,0.1,0.0029144287109375,0.05272650718688965,0.04951355,3.7757733,213.0858283630932,1.7297894904518119,0.3110660574090985,100.0,133,0.010766744613647461,0.10060122925083209,0.09671206723508219,38110,198.85313505692912,100.0
267,1.0488996505737305,216.198954181015,21.2226544303358,246.57690840700695,189.2058087938543,100.0,0.15464834202448405,0.1,0.00284576416015625,0.05223989486694336,0.049878452,3.4924517,213.3971409448854,1.7526904228355247,0.3265594906318411,100.0,130,0.01186227798461914,0.10612987666205882,0.10370546952296568,38240,196.12545861526817,100.0
268,1.0637707710266113,218.66795632524585,22.808370685489074,241.39802285812988,192.81922320951895,100.0,0.14738824132106051,0.1,0.0028181076049804688,0.05212879180908203,0.04997484,7.084754,213.92422248292144,1.7449482279585042,0.3301969950696044,100.0,137,0.011562585830688477,0.1199617593930525,0.11804906367267434,38377,190.01072753857582,100.0
269,1.0862560272216797,240.6542463214779,23.66069671097296,270.35298847595146,211.1659417133714,100.0,0.15399943236371125,0.1,0.0028748512268066406,0.05438590049743652,0.05015797,5.9264507,216.59722486677708,1.7232461597230755,0.3514014206326912,100.0,143,0.010922908782958984,0.13320709167694728,0.11980913240248592,38520,186.04361950468692,100.0
270,1.0881397724151611,243.10532755603342,22.941243410870577,262.749831293636,204.03865393066695,100.0,0.16920447759658694,0.1,0.0029172897338867188,0.052164554595947266,0.049736954,0.9163334,219.2480351357027,1.7540661908030823,0.3537831427913404,100.0,141,0.01142573356628418,0.1735968762817206,0.14584527161785374,38661,190.17633720558624,100.0
271,1.1025757789611816,219.03210868204746,18.59429144710248,237.92891503791498,191.60589269313425,100.0,0.15920976046678328,0.1,0.0028200149536132812,0.05249452590942383,0.049547028,2.6952913,219.2264424903372,1.7488561560195315,0.3290954250305801,100.0,135,0.011417865753173828,0.11698714899042205,0.1212135900835009,38796,185.17750231684292,100.0
272,1.0749709606170654,211.2374077394632,32.11500214962775,242.5686415945665,157.48570924383216,100.0,0.14763873336356997,0.1,0.0028641223907470703,0.05266737937927246,0.050085083,2.86515,218.4275390152498,1.7338562568667395,0.3216544775115516,100.0,130,0.013439416885375977,0.17586922087542692,0.18543587671137304,38926,190.65171474611768,100.0
273,1.1097512245178223,226.0785133830491,31.199389420846497,271.2478346363656,183.46917250824745,100.0,0.15877493747572058,0.1,0.002828359603881836,0.052434444427490234,0.049478926,3.4292006,219.19263645202972,1.7493839150810824,0.3371174143540292,100.0,140,0.010671138763427734,0.16592776869560813,0.16430847427838038,39066,196.40353464226243,100.0
274,1.0870099067687988,223.93898769262583,30.177861204763968,256.79046272067694,175.8632604556425,100.0,0.1485418277319438,0.1,0.002857685089111328,0.05265688896179199,0.049866498,5.383771,219.66727157608935,1.7377581564248992,0.33484745656228254,100.0,139,0.012463569641113281,0.10243469441496017,0.09946969925152956,39205,197.8974114212766,100.0
275,1.073822021484375,200.92713953104595,23.13888179819434,239.38462639779954,178.66206776052826,100.0,0.141733070150013,0.1,0.0028803348541259766,0.05302834510803223,0.0500349,6.810125,217.793258371585,1.7295265182275956,0.31349141436839223,100.0,140,0.014208316802978516,0.14790120002507354,0.12435779287958963,39345,207.9267389618477,100.0
276,1.0860986709594727,218.58205316812234,27.509613320227555,262.0323240014552,190.5852973729982,100.0,0.1492151675788585,0.1,0.003045797348022461,0.05326533317565918,0.050351247,4.854658,217.87213785123876,1.7266738223393232,0.3299799401357254,100.0,140,0.011317253112792969,0.08524110876218748,0.09065619593497241,39485,204.81613686161504,100.0
277,1.0897302627563477,192.34431044413077,28.18115381325657,210.72883943850366,143.6897694587534,100.0,0.14745962136964585,0.1,0.0029129981994628906,0.0528867244720459,0.05019632,5.730132,215.31935511052797,1.714207802449537,0.3057287070019108,100.0,144,0.011020898818969727,0.10695234540503451,0.09076941043802574,39629,198.09918583319407,100.0
278,1.0946316719055176,211.29558442525394,26.023526994179814,244.9630488106082,172.29263680430176,100.0,0.1555035279011059,0.1,0.0029168128967285156,0.057721853256225586,0.05014216,2.6389942,214.91697804200058,1.701511786334414,0.322179401155171,100.0,141,0.012125492095947266,0.08001112828044313,0.08597191199525396,39770,198.42098123056084,100.0
279,1.1131865978240967,223.74339032703887,43.89953152816133,261.93670340876713,150.48852986881712,100.0,0.1714693309312244,0.1,0.002802133560180664,0.052903175354003906,0.04992693,1.0688603,215.79961927050442,1.7319521374387885,0.3354060475432257,100.0,138,0.01121973991394043,0.12323882630534366,0.12324356330638012,39908,202.08715706212078,100.0
280,1.0775153636932373,214.5762741204845,35.89685756979286,269.60797224111025,182.21076374015124,100.0,0.15586634301759345,0.1,0.0029442310333251953,0.05238604545593262,0.050338298,3.251745,215.67728475550243,1.747221389176874,0.3267402507873899,100.0,135,0.010689496994018555,0.21930805672855228,0.2091232878203705,40043,204.48161832986497,100.0
281,1.0869510173797607,237.93956300611526,13.565004814874477,253.41007119565234,216.8654135765023,100.0,0.16689867230959515,0.1,0.002900838851928711,0.05256962776184082,0.04995326,1.804198,217.9035125805637,1.719785089803043,0.3495366172528761,100.0,147,0.010070085525512695,0.13981589654408527,0.13199683090624517,40190,209.88979739715163,100.0
282,1.0394563674926758,241.98277964415325,17.44697173878693,258.9170098375733,214.99859327878013,100.0,0.17275004672794742,0.1,0.0030868053436279297,0.054464101791381836,0.050042268,1.2372494,220.31143928692265,1.7245425031723869,0.35446303934402834,100.0,149,0.01003408432006836,0.13848525448322338,0.12041766342699785,40339,213.68840609706137,100.0
283,1.0422122478485107,203.15403150889927,22.49490702644543,241.61956071678034,185.94811818946772,100.0,0.16349149888771353,0.1,0.0030231475830078125,0.058467864990234375,0.049897965,2.9478462,218.5956985091203,1.7031131724746704,0.3147938286191914,100.0,139,0.010189533233642578,0.09144180498823133,0.09278354424167916,40478,209.4843095920992,100.0
284,1.0766804218292236,234.10416422190013,18.507565120862452,248.4766151914631,202.3111796707646,100.0,0.1575818631361221,0.1,0.0029745101928710938,0.05434775352478027,0.04945529,2.7395642,220.14654508039828,1.7347281782063892,0.3459696634454279,100.0,145,0.01411128044128418,0.06337481589070139,0.05986186399131313,40623,205.07709486345894,100.0
285,1.0805997848510742,212.75028218796373,36.200843993677125,255.3218433096005,155.16391032215319,100.0,0.15367973051670378,0.1,0.0029420852661132812,0.05412006378173828,0.049870163,2.3500957,219.40691879115482,1.7042326821784042,0.32495599552190124,100.0,152,0.012880325317382812,0.0875615662625813,0.09373459051880349,40775,207.72143562623785,100.0
286,1.0710699558258057,223.39132307262898,4.185570271461766,229.5788681581682,218.2476115725014,100.0,0.1426064485634993,0.1,0.00286102294921875,0.05388760566711426,0.049887117,6.033343,219.80535921930223,1.7058837312514243,0.3357874617676815,100.0,145,0.013520956039428711,0.07723675420987551,0.07702244020675816,40920,221.61627418227104,100.0
287,1.0834500789642334,222.1341685618455,59.660481445394986,284.30751278343126,123.60139108619815,100.0,0.1477024031742989,0.1,0.002910614013671875,0.059027671813964844,0.050335485,2.7188025,220.03824015355656,1.7075713144638325,0.33269409267021893,100.0,137,0.014945268630981445,0.1403537396034543,0.1320962243529269,41057,222.93649309309782,100.0
288,1.0627567768096924,238.44485279417762,34.61605217580314,268.5610683953529,179.61365665864926,100.0,0.15333001271897745,0.1,0.003294229507446289,0.054121971130371094,0.04997151,4.101677,221.87890141761866,1.7240197369388524,0.35028815406203784,100.0,149,0.014099836349487305,0.10432585277485314,0.0993690507417239,41206,226.36256848457967,100.0
289,1.0941376686096191,245.2015213009304,20.010409291598915,262.8997022252476,211.2422283296866,100.0,0.1452714798474521,0.1,0.002964496612548828,0.05515146255493164,0.050007213,15.409816,224.21116340594983,1.7269059584188995,0.35476661992743236,100.0,135,0.011194705963134766,0.08300359651009612,0.08241054796348009,41341,219.3136360430125,100.0
290,1.0814628601074219,223.71794262066496,19.02005426043864,255.47635603884268,205.0292523277872,100.0,0.1627064714445895,0.1,0.0030214786529541016,0.05484604835510254,0.050407212,2.5883274,224.16184132742134,1.7230620882498568,0.33559785120825486,100.0,149,0.012095451354980469,0.10220769923981399,0.10554807879078525,41490,219.45293696086415,100.0
291,1.1007053852081299,234.77817898154547,25.40285691183235,262.703978194696,198.58404633148302,100.0,0.16381236652925898,0.1,0.002836465835571289,0.05319023132324219,0.0500717,2.8960617,225.22347509283375,1.7262635879254267,0.3461935949885901,100.0,140,0.01072072982788086,0.1094409709253937,0.10765762854792277,41630,222.42762296825535,100.0
292,1.0944108963012695,222.1298212540265,19.43672333738318,255.3128868947452,208.24429826479388,100.0,0.15790657936390495,0.1,0.003027200698852539,0.05408048629760742,0.049729258,4.9328423,224.91410970895302,1.6935339586714502,0.3349123276703468,100.0,155,0.012554645538330078,0.07918153432581744,0.07593738746662203,41785,229.2632580296805,100.0
293,1.0652716159820557,224.9193745934464,40.015093395967156,269.20433817323277,164.15530801875047,100.0,0.1478857874730384,0.1,0.0028884410858154297,0.05286383628845215,0.05030325,3.2197251,224.9146361974024,1.7149498468155748,0.33598937493737974,100.0,143,0.012543916702270508,0.08108064313818475,0.07783871765979616,41928,225.11544974441134,100.0
294,1.087376356124878,230.11868264977483,1.8445073208754517,232.90665326080483,227.80279642691147,100.0,0.15131749629368305,0.1,0.002869129180908203,0.05315351486206055,0.050104648,3.8690274,225.43504084263964,1.7416191881604055,0.3426296187439184,100.0,147,0.01119232177734375,0.05225062680128462,0.04994703309259106,42075,240.64376370792056,100.0
295,1.1282548904418945,244.57808505870543,30.176048615510982,281.34686431720934,197.5366107897524,100.0,0.14866972418442004,0.1,0.0029273033142089844,0.053905487060546875,0.049497418,7.847439,227.3493452642462,1.7234212937688493,0.3549428365618349,100.0,145,0.012277841567993164,0.08856429948993087,0.08711526772833364,42220,242.77352371669346,100.0
296,1.1159555912017822,226.2966048168223,47.04251165305041,266.93036612448515,149.05186214845122,100.0,0.13394000150258167,0.1,0.0028138160705566406,0.052812814712524414,0.049846742,23.388584,227.24407121950384,1.70073373871691,0.3355829212718282,100.0,131,0.010580062866210938,0.11999217333233558,0.12222849910536591,42351,240.24241711564278,100.0
297,1.135754108428955,224.9788896035493,37.88515327345692,258.29747672514924,162.3994677916756,100.0,0.15887454098991216,0.1,0.0031228065490722656,0.0523533821105957,0.050280668,1.7731787,227.0175530579084,1.7146959676274307,0.3360919656028306,100.0,140,0.012793779373168945,0.15086188370771864,0.14454843020301936,42491,236.55762152202757,100.0
298,1.1303491592407227,212.97490377756642,44.30745415199593,268.0217399425619,162.32370880845457,100.0,0.1577306647268317,0.1,0.003009796142578125,0.05296039581298828,0.04998996,3.5368063,225.6132881298742,1.7048660410733527,0.3232129253382331,100.0,140,0.013136625289916992,0.09676687329246814,0.09695708804434484,42631,237.32235351290737,100.0
299,1.125377893447876,235.36419479069636,24.96201007325443,269.0052187829756,202.27211087655397,100.0,0.1615196405278669,0.1,0.0027866363525390625,0.05256175994873047,0.050328154,2.0311003,226.58837879595643,1.751420860831169,0.34695595922883077,100.0,143,0.012814521789550781,0.09728200857727043,0.09582862450971859,42774,250.16531348054113,100.0
300,1.1238996982574463,247.04891351595614,7.697549421154199,253.34058280050442,233.9026699120925,100.0,0.13922006938906142,0.1,0.0028944015502929688,0.05655527114868164,0.04963029,6.467657,228.6344322679564,1.7355126527441482,0.3579429142051012,100.0,143,0.016712188720703125,0.0718569295822187,0.07139162251891894,42917,246.0452179385061,100.0
301,1.1018946170806885,218.02983716409943,39.960562231151954,260.2232041042172,152.35760006252644,100.0,0.16035521752670634,0.1,0.0030944347381591797,0.05417299270629883,0.049992897,2.5305676,227.57397275757074,1.7140995981118397,0.32900250583633117,100.0,140,0.010213613510131836,0.13934437663420704,0.13578445076033166,43057,237.65319357925242,100.0
302,1.1116461753845215,240.44093067221817,18.464997515920228,268.89457046665046,222.5406238020529,100.0,0.15264631229873357,0.1,0.0028629302978515625,0.05453085899353027,0.049836952,1.7962381,228.8606685490355,1.737739807341804,0.3504966277378486,100.0,142,0.01096653938293457,0.08241927026795735,0.07218307275244572,43199,229.16462705682207,100.0
303,1.1372499465942383,246.3668344580865,17.93591970692001,268.07752664629663,220.68004512616793,100.0,0.14911204833936686,0.1,0.0028815269470214844,0.0528719425201416,0.04985643,3.2953236,230.6112851399406,1.7344401810439682,0.35756581365454443,100.0,143,0.015217304229736328,0.10380944025729336,0.10606306472741493,43342,220.5929576393396,100.0
304,1.109926700592041,244.235049963941,21.15348367746709,264.46738816638623,208.8390510383971,100.0,0.1567218977159439,0.1,0.0028951168060302734,0.05295515060424805,0.05030857,3.467454,231.97366162234067,1.7175670990977054,0.3549543776618668,100.0,145,0.011344194412231445,0.08074203283730924,0.08304649551146835,43487,224.2152576905718,100.0
305,1.0655419826507568,221.24075841876834,56.49514174714948,269.2512468511364,125.73178341476523,100.0,0.14111026975009286,0.1,0.0029458999633789062,0.05361223220825195,0.05004328,3.689714,230.90037130198345,1.6906628579881333,0.33093001410750716,100.0,135,0.01128697395324707,0.1655658260589913,0.16280620784923489,43622,224.915884733174,100.0
306,1.0737013816833496,237.59519254075877,23.44816441143249,263.4008764194468,202.2679278191521,100.0,0.14669817169031593,0.1,0.002992391586303711,0.055342912673950195,0.049998675,7.0025897,231.569853425861,1.719004668558107,0.3490492974333277,100.0,142,0.015699148178100586,0.12159056792678115,0.10443450470757214,43764,226.8409446709924,100.0
307,1.0653488636016846,215.5578996068006,38.3699139204686,248.1077769141881,150.0887258244278,100.0,0.1549866360169777,0.1,0.002960681915283203,0.05652260780334473,0.04982522,2.4611795,229.96865804395497,1.6980800185820595,0.32764391060740883,100.0,148,0.012555360794067383,0.10624042315775424,0.09998816357204263,43912,222.6733115122971,100.0
308,1.1026463508605957,244.04088720233898,13.326337971042785,257.69414003548286,227.41948695340602,100.0,0.16526217015900418,0.1,0.005059957504272461,0.05528593063354492,0.049488284,1.7655822,231.3758809597934,1.7436608953328112,0.35405730505735933,100.0,137,0.011852025985717773,0.09672623255646304,0.10054306782705942,44049,230.5008168197156,100.0
309,1.0929265022277832,227.66751312402982,38.74003207360836,265.9544040478024,163.13590735910347,100.0,0.1537384865854787,0.1,0.0029091835021972656,0.05347776412963867,0.04983943,3.0228214,231.00504417621704,1.7237237150914986,0.3386524250476368,100.0,137,0.01262044906616211,0.07018561011697542,0.06931869520959993,44186,223.95814122241515,100.0
310,1.1335163116455078,240.80256768714463,11.23995054261417,254.84461344409547,229.18952245983678,100.0,0.15943914447413338,0.1,0.0028803348541259766,0.05385637283325195,0.050027713,2.675502,231.9847965273098,1.7338738299107062,0.3519421921546353,100.0,143,0.014780998229980469,0.0704358464068189,0.07042039439490312,44329,227.11079249494875,100.0
311,1.0921275615692139,208.87665165072127,29.17589369965561,241.9181535865818,171.22145323094583,100.0,0.15080215658169588,0.1,0.0030236244201660156,0.05306386947631836,0.050180495,3.1243782,229.67398203965095,1.7138043395357048,0.31781596955993274,100.0,132,0.010577917098999023,0.08379477566402596,0.08238260490672314,44461,228.60673091631278,100.0
312,1.108245849609375,236.74580082790766,37.45006386014114,274.12626760110436,174.4572697698843,100.0,0.15883471053307938,0.1,0.08602333068847656,0.37183666229248047,0.050158966,0.9827233,230.3811639184766,1.7155470886448039,0.34662346870136657,100.0,139,0.014078378677368164,0.11952806466988838,0.1127466773698693,44600,222.71425347200815,100.0
313,1.1663355827331543,222.47151660974433,7.714440325190429,234.92486602111052,214.44089364688523,100.0,0.1624427226528251,0.1,0.0029315948486328125,0.05354142189025879,0.04955848,1.4884115,229.59019918760336,1.6943126923929985,0.33373398812138255,100.0,143,0.010675430297851562,0.08726620737310122,0.08576131148539975,44743,228.96009381024427,100.0
314,1.125279188156128,259.9409660478225,6.677258286309898,269.88802358346356,251.09137532774196,100.0,0.1498127806424103,0.1,0.0028901100158691406,0.05277299880981445,0.049799245,2.0531597,232.62527587362527,1.7607497635091935,0.36955604318229746,100.0,137,0.014968395233154297,0.08846696448326326,0.07756983368979982,44880,226.9225707574743,100.0
315,1.1408782005310059,213.38739923654666,28.530042450606615,242.11715253322876,179.8408047276817,100.0,0.14136820700671363,0.1,0.002866506576538086,0.054277896881103516,0.049614612,9.645502,230.70148820991741,1.6967455764082247,0.32362692947737415,100.0,138,0.011661052703857422,0.08402401297870146,0.09474614508844664,45018,210.30596879198004,100.0
316,1.1003592014312744,240.89695685096922,27.818592132999317,270.3945336167119,203.2548794121987,100.0,0.1445108646636521,0.1,0.0029599666595458984,0.05351901054382324,0.050056353,6.006759,231.7210350740226,1.7553838492786893,0.3502149752318147,100.0,130,0.010864496231079102,0.11747752389611442,0.11688107541341729,45148,175.42315943159892,100.0
317,1.1303246021270752,228.07840663521694,23.679141539977017,249.7825885685429,189.4144121816351,100.0,0.14729801890901556,0.1,0.0029337406158447266,0.05361628532409668,0.049667843,1.943211,231.35677223014204,1.734906532958711,0.33759431086465513,100.0,133,0.012559175491333008,0.07621994020149842,0.07206494430089735,45281,166.01501702277457,100.0
318,1.111447811126709,218.75963292704392,24.65825262099626,250.41389438868188,187.89295033068476,100.0,0.1554817649223122,0.1,0.0028541088104248047,0.053395748138427734,0.049862593,3.0797493,230.09705829983224,1.6919448935155255,0.32847487937209774,100.0,140,0.012818336486816406,0.08357073752795306,0.07738124963982446,45421,158.50590876861563,100.0
319,1.1483633518218994,242.0913365845505,21.9999701514967,268.5703480180684,218.71798342200566,100.0,0.15395565191466568,0.1,0.0027811527252197266,0.053436279296875,0.05004634,2.6486497,231.29648612830405,1.7384934434141124,0.35178130135514635,100.0,135,0.010910511016845703,0.06839854664177608,0.06991239512592692,45556,159.07488992432602,100.0
320,1.172814130783081,250.96908785880163,11.926774222969348,267.55520525966426,234.69466066644588,100.0,0.15362162952785793,0.1,0.0028078556060791016,0.05410933494567871,0.05032505,2.2749224,233.26374630135382,1.7654636564424226,0.3606673614416092,100.0,133,0.011987924575805664,0.08596091772298607,0.08624818132698085,45689,176.09451393425772,100.0
321,1.2012629508972168,262.67577160699886,22.405024002509265,278.34997578956376,223.98101417711766,100.0,0.16549618958123652,0.1,0.0027132034301757812,0.053316354751586914,0.04968392,1.4432575,236.20494883191833,1.7508796220350493,0.37206972392139404,100.0,138,0.012952804565429688,0.13235193935018352,0.11803382980812303,45827,168.52208355321437,100.0
322,1.1096360683441162,255.09487651863913,13.615282886337067,268.32683901887435,232.92169756567046,100.0,0.16487302525339906,0.1,0.002943277359008789,0.05444145202636719,0.049993876,3.483791,238.0939416005904,1.7466511771828583,0.3647214710123473,100.0,139,0.012824296951293945,0.08661234787374507,0.07523473249067872,45966,160.95974178776797,100.0
323,1.0990824699401855,255.55212474589092,18.30569588317667,282.96652265581963,233.71014497043024,100.0,0.1392298299973488,0.1,0.002974987030029297,0.061756134033203125,0.04972352,5.0718203,239.83975991512045,1.7310329900033952,0.364369535229782,100.0,135,0.010957479476928711,0.045859858109819705,0.04963430011771795,46101,172.69231865509502,100.0
324,1.0802459716796875,256.4162638190006,12.557347048223788,269.99636868106484,235.90315722354563,100.0,0.12928554045157384,0.1,0.0029120445251464844,0.05316019058227539,0.04973637,6.159046,241.49741030550848,1.7444360622965513,0.36444233583049945,100.0,131,0.011114358901977539,0.06051112674291258,0.06608790436584258,46232,145.9819917982588,100.0
325,1.1018803119659424,238.2918554991816,15.85278958331825,261.87455112087224,217.17205834173498,100.0,0.1382205912955581,0.1,0.0029065608978271484,0.05281233787536621,0.049700607,9.987203,241.1768548248758,1.728331840574409,0.34700938083363564,100.0,134,0.013536691665649414,0.08550135736100287,0.08381025770617007,46366,154.83877088693475,100.0
326,1.1258025169372559,208.24292206971137,58.96105755440623,272.521702198108,131.40567338279197,100.0,0.14286674173628935,0.1,0.002979278564453125,0.062024831771850586,0.049379267,14.458271,237.88346154935934,1.6754489106352162,0.3183666339851372,100.0,143,0.012706756591796875,0.18827927827144414,0.16365376930838388,46509,147.87511465178454,100.0
327,1.138824462890625,230.577566104043,36.26923399429014,271.6776076453135,174.90126370042842,100.0,0.1551467603822004,0.1,0.003049612045288086,0.053678274154663086,0.050392866,4.226758,237.1528720048277,1.7196254328823635,0.34028730632572524,100.0,141,0.016370773315429688,0.07903948130859346,0.069138150679969,46650,147.08570838285547,100.0
328,1.134572982788086,252.6757342481321,14.439161598643482,277.5496692434299,242.42248944918163,100.0,0.14929475786891255,0.1,0.0029861927032470703,0.05395054817199707,0.04981369,3.7880046,238.70515822915814,1.7468983352671554,0.3638953071566258,100.0,145,0.011511564254760742,0.057054441334185205,0.06625584298642778,46795,140.21780532630484,100.0
329,1.1550321578979492,246.21000942457513,27.465979512901022,280.0295052463652,203.82448329083854,100.0,0.14077793984556922,0.1,0.0027959346771240234,0.059056997299194336,0.050146855,5.6599784,239.45564334869982,1.7436084672823922,0.3568013917777374,100.0,138,0.012199163436889648,0.060582358251419346,0.061015876435077526,46933,133.36988162994496,100.0
330,1.1203253269195557,226.97139299648657,32.22359678267685,252.084387664198,172.6117093824161,100.0,0.15725237357930436,0.1,0.002930164337158203,0.055277109146118164,0.050436515,2.5135987,238.2072183134785,1.7080983405894166,0.33799410919542955,100.0,146,0.011114358901977539,0.057962021445569105,0.05816796081765004,47079,130.27479251123737,100.0
331,1.1460928916931152,232.63420440811507,28.869128979198127,268.466073425093,190.81909049682793,100.0,0.15366780743444666,0.1,0.0030078887939453125,0.055100202560424805,0.049765617,1.9416114,237.64991692294217,1.7361814444759869,0.3421929878477395,100.0,131,0.011365175247192383,0.09358441751825547,0.0928356488282518,47210,126.15566334760452,100.0
332,1.156074047088623,237.85918297447577,33.29380001897238,280.65553959773723,187.23675280757396,100.0,0.14999018050303617,0.1,0.0028159618377685547,0.05302572250366211,0.049969073,2.17684,237.67084352809553,1.7649390940870608,0.3482739773892692,100.0,131,0.011031389236450195,0.0940144246627439,0.09232768088271247,47341,126.56392360607494,100.0
333,1.1143362522125244,248.19880420767598,39.59203590441704,300.11062884512836,195.63314562076596,100.0,0.15292422329436323,0.1,0.002867460250854492,0.058218955993652344,0.049768947,6.872197,238.72363959605357,1.723690429459927,0.3583516123821055,100.0,136,0.013216018676757812,0.08092407693176866,0.08056895575641396,47477,133.31795806079546,100.0
334,1.141258716583252,260.07605589447917,15.19852114507865,274.36645146574097,236.35135988304762,100.0,0.1408496219199402,0.1,0.0029845237731933594,0.054096221923828125,0.04990604,2.9813426,240.85888122589614,1.7651814996809603,0.3688448251640479,100.0,131,0.01356053352355957,0.06348263784621584,0.059655642825912715,47608,133.6928724940492,100.0
335,1.1716322898864746,226.83065028208563,37.71720797481567,254.692326580468,161.93484799846948,100.0,0.15580059675811347,0.1,0.0028870105743408203,0.05443620681762695,0.04989316,2.5630798,239.4560581315151,1.7641551724030675,0.3389347384928665,100.0,134,0.011954307556152344,0.15106004847410245,0.14614277813269655,47742,146.42291277555643,100.0
336,1.226318120956421,238.7102894603173,27.532796431021307,275.8519855342633,207.59605475340146,100.0,0.15906853452650796,0.1,0.0029540061950683594,0.05420041084289551,0.049460813,1.3732879,239.38148126439535,1.7437556595310109,0.34876022671964785,100.0,136,0.01101374626159668,0.14701813363746277,0.14433761311940865,47878,136.2833706364008,100.0
337,1.171238660812378,267.0901699990773,5.632603483542035,273.9713857281411,260.76822143346766,100.0,0.15348282797154186,0.1,0.002811908721923828,0.054700613021850586,0.049810633,1.9744235,242.15235013786355,1.7161141170991134,0.37817943678823607,100.0,146,0.012085437774658203,0.10171471338643662,0.08765862840849084,48024,147.6832284250776,100.0
338,1.1693663597106934,268.0783505857748,4.699133405543593,275.1894344761343,261.97498707500307,100.0,0.15612956396633884,0.1,0.002841949462890625,0.052675485610961914,0.049472995,2.5540152,244.7449501826547,1.7381177835617787,0.37712883792504576,100.0,137,0.011955976486206055,0.07657034312125403,0.05623542432634645,48161,156.22354413866154,100.0
339,1.1450214385986328,240.29569898775992,15.884504380989659,266.8054260936121,225.19491162898925,100.0,0.14701144697109417,0.1,0.0028352737426757812,0.052611589431762695,0.05028584,2.1401293,244.30002506316524,1.7329755388726416,0.35103738432614817,100.0,138,0.010772705078125,0.05748196534674455,0.06756575923541795,48299,169.18586396721068,100.0
340,1.1371984481811523,225.89751850973832,24.662558116979874,259.21999226207777,195.84331402229478,100.0,0.1398345606823064,0.1,0.002830028533935547,0.05266737937927246,0.049829092,2.9025617,242.45977440782255,1.7415871117718393,0.3366755229285252,100.0,135,0.010700702667236328,0.12791381492541673,0.12906661749563286,48434,175.86709833389054,100.0
341,1.1669092178344727,265.2102782029724,17.133970250161376,282.1173933545673,236.59579023121597,100.0,0.14488932320901626,0.1,0.0030889511108398438,0.05216217041015625,0.049949434,3.9863377,244.73482478733754,1.7705905269323443,0.3745886569120987,100.0,134,0.01714181900024414,0.05410098693029294,0.05264037234425392,48568,172.60694231569815,100.0
342,1.156156063079834,219.59449706521093,37.48637676831909,273.0709050312091,174.31943895548596,100.0,0.15456123095080856,0.1,0.0030961036682128906,0.05647015571594238,0.049973227,2.991054,242.22079201512489,1.726145779608026,0.3315316261811687,100.0,141,0.010981321334838867,0.17949736443617617,0.16277069427654642,48709,154.2036097108439,100.0
343,1.1234261989593506,257.1511747936163,4.8464449631858715,264.8473738339179,252.47312747271383,100.0,0.16630489105405813,0.1,0.0029015541076660156,0.054819345474243164,0.049789168,1.49669,243.71383029297402,1.765462133236196,0.367350274506578,100.0,137,0.012874841690063477,0.06609114195534192,0.07042407687803573,48846,174.28369707193545,100.0
