Iter | Sampling Pol | Evaluation Pol | Best (Sampled) 
   0  0.01  0.01 -100000000.00 
   1  0.02  0.01  0.01 
   2  0.01  0.01  0.02 
   3  0.03  0.02  0.02 
   4  0.03  0.02  0.03 
   5  0.02  0.03  0.03 
   6  0.02  0.03  0.03 
   7  0.02  0.03  0.03 
   8  0.04  0.04  0.03 
   9  0.02  0.04  0.04 
  10  0.03  0.04  0.04 
  11  0.03  0.04  0.04 
  12  0.05  0.05  0.04 
  13  0.02  0.06  0.05 
  14  0.12  0.07  0.05 
  15  0.04  0.08  0.12 
  16  0.06  0.09  0.12 
  17  0.09  0.09  0.12 
  18  0.21  0.09  0.12 
  19  0.09  0.12  0.21 
  20  0.07  0.15  0.21 
  21  0.11  0.24  0.21 
  22  0.20  0.43  0.21 
  23  0.22  0.34  0.21 
  24  0.07  0.41  0.22 
  25  0.05  0.73  0.22 
  26  0.09  0.82  0.22 
  27  0.05  0.47  0.22 
  28  0.10  0.28  0.22 
  29  0.28  0.76  0.22 
  30  0.19  0.58  0.28 
  31  0.08  1.36  0.28 
  32  0.20  1.45  0.28 
  33  0.19  1.41  0.28 
  34  0.14  0.91  0.28 
  35  0.29  1.45  0.28 
  36  0.12  1.90  0.29 
  37  0.12  1.47  0.29 
  38  0.19  1.18  0.29 
  39  0.33  0.84  0.29 
  40  0.13  1.43  0.33 
  41  0.19  0.99  0.33 
  42  0.29  1.55  0.33 
  43  0.89  1.76  0.33 
  44  0.27  1.73  0.89 
  45  0.21  1.44  0.89 
  46  0.57  1.82  0.89 
  47  0.25  1.31  0.89 
  48  0.25  0.98  0.89 
  49  0.49  1.01  0.89 
  50  0.43  1.01  0.89 
  51  0.29  1.23  0.89 
  52  0.24  1.01  0.89 
  53  0.56  1.04  0.89 
  54  0.46  1.36  0.89 
  55  0.36  1.76  0.89 
  56  0.58  2.29  0.89 
  57  1.04  2.19  0.89 
  58  0.23  1.32  1.04 
  59  0.18  1.29  1.04 
  60  0.19  0.71  1.04 
  61  1.27  0.68  1.04 
  62  0.40  1.48  1.27 
  63  0.39  1.74  1.27 
  64  0.31  1.07  1.27 
  65  0.43  0.25  1.27 
  66  0.33  0.41  1.27 
  67  0.29  0.20  1.27 
  68  0.49  0.50  1.27 
  69  0.77  1.01  1.27 
  70  0.21  1.49  1.27 
  71  0.94  1.81  1.27 
  72  0.71  1.85  1.27 
  73  0.27  1.73  1.27 
  74  0.67  1.33  1.27 
  75  0.31  2.75  1.27 
  76  0.30  1.39  1.27 
  77  0.26  2.56  1.27 
  78  0.58  2.70  1.27 
  79  0.47  2.55  1.27 
  80  0.78  2.08  1.27 
  81  0.33  2.07  1.27 
  82  0.47  1.69  1.27 
  83  0.36  1.60  1.27 
  84  0.68  1.11  1.27 
  85  0.97  1.19  1.27 
  86  0.58  1.34  1.27 
  87  0.38  1.34  1.27 
  88  0.30  1.84  1.27 
  89  0.44  1.08  1.27 
  90  0.52  0.77  1.27 
  91  0.34  0.58  1.27 
  92  0.86  0.52  1.27 
  93  0.46  0.49  1.27 
  94  0.49  0.50  1.27 
  95  0.36  0.55  1.27 
  96  0.82  0.91  1.27 
  97  0.47  0.93  1.27 
  98  1.07  0.62  1.27 
  99  0.57  1.26  1.27 
 100  0.31  1.04  1.27 
 101  0.43  0.99  1.27 
 102  0.76  1.10  1.27 
 103  0.68  1.55  1.27 
 104  0.48  2.01  1.27 
 105  0.54  1.74  1.27 
 106  0.43  1.66  1.27 
 107  0.99  1.83  1.27 
 108  0.94  1.31  1.27 
 109  0.35  0.64  1.27 
 110  0.39  2.32  1.27 
 111  1.02  1.44  1.27 
 112  0.19  2.21  1.27 
 113  0.59  1.14  1.27 
 114  0.59  1.54  1.27 
 115  0.60  1.29  1.27 
 116  0.40  2.06  1.27 
 117  0.33  0.55  1.27 
 118  0.69  0.42  1.27 
 119  0.73  0.27  1.27 
 120  0.48  0.47  1.27 
 121  1.22  0.37  1.27 
 122  0.52  1.24  1.27 
 123  0.47  1.64  1.27 
 124  0.38  1.58  1.27 
 125  0.56  0.79  1.27 
 126  0.43  0.72  1.27 
 127  0.57  0.93  1.27 
 128  1.22  0.89  1.27 
 129  0.93  1.03  1.27 
 130  0.82  0.69  1.27 
 131  0.90  0.41  1.27 
 132  0.51  0.38  1.27 
 133  0.67  0.78  1.27 
 134  0.40  1.36  1.27 
 135  0.22  0.67  1.27 
 136  1.07  0.59  1.27 
 137  0.68  1.05  1.27 
 138  0.83  0.73  1.27 
 139  0.60  2.40  1.27 
 140  0.70  2.71  1.27 
 141  0.62  0.65  1.27 
 142  0.76  0.39  1.27 
 143  0.47  1.12  1.27 
 144  0.55  0.44  1.27 
 145  1.17  0.82  1.27 
 146  0.33  1.16  1.27 
 147  0.60  2.42  1.27 
 148  1.01  2.28  1.27 
 149  0.34  1.66  1.27 
 150  1.09  1.71  1.27 
 151  0.93  1.63  1.27 
 152  0.85  1.62  1.27 
 153  0.97  1.57  1.27 
 154  0.96  1.63  1.27 
 155  0.85  1.32  1.27 
 156  1.14  1.24  1.27 
 157  1.02  1.21  1.27 
 158  0.40  0.79  1.27 
 159  1.18  0.37  1.27 
 160  1.39  2.15  1.27 
 161  0.72  1.59  1.39 
 162  0.84  1.15  1.39 
 163  0.96  1.41  1.39 
 164  1.12  1.33  1.39 
 165  0.90  2.06  1.39 
 166  1.09  1.45  1.39 
 167  1.25  0.71  1.39 
 168  0.96  0.36  1.39 
 169  1.46  0.72  1.39 
 170  0.90  0.54  1.46 
 171  1.26  0.46  1.46 
 172  0.66  0.45  1.46 
 173  1.23  0.20  1.46 
 174  0.47  0.64  1.46 
 175  1.82  1.69  1.46 
 176  1.20  0.45  1.82 
 177  0.67  1.08  1.82 
 178  1.38  0.80  1.82 
 179  1.42  0.76  1.82 
 180  0.97  0.67  1.82 
 181  1.24  0.51  1.82 
 182  1.36  0.31  1.82 
 183  1.81  0.53  1.82 
 184  0.76  0.20  1.82 
 185  0.96  0.29  1.82 
 186  1.42  0.24  1.82 
 187  1.63  0.39  1.82 
 188  1.22  0.87  1.82 
 189  1.08  0.57  1.82 
 190  1.15  0.44  1.82 
 191  1.13  1.39  1.82 
 192  0.99  1.80  1.82 
 193  0.50  1.80  1.82 
 194  1.78  1.89  1.82 
 195  1.22  1.19  1.82 
 196  1.36  1.62  1.82 
 197  1.04  0.63  1.82 
 198  0.79  0.79  1.82 
 199  0.86  1.15  1.82 
 200  0.61  1.73  1.82 
 201  1.10  2.29  1.82 
 202  1.43  2.11  1.82 
 203  1.35  2.41  1.82 
 204  1.48  2.27  1.82 
 205  1.35  0.93  1.82 
 206  1.13  1.60  1.82 
 207  0.87  1.46  1.82 
 208  0.83  2.07  1.82 
 209  1.26  1.66  1.82 
 210  0.95  1.91  1.82 
 211  1.21  1.91  1.82 
 212  1.47  1.66  1.82 
 213  0.89  2.02  1.82 
 214  1.12  1.50  1.82 
 215  0.48  1.46  1.82 
 216  0.76  1.77  1.82 
 217  1.68  1.76  1.82 
 218  0.72  1.53  1.82 
 219  1.25  1.37  1.82 
 220  1.58  2.23  1.82 
 221  0.75  0.46  1.82 
 222  1.13  0.93  1.82 
 223  1.17  1.80  1.82 
 224  1.84  0.88  1.82 
 225  1.75  1.58  1.84 
 226  1.79  0.48  1.84 
 227  1.40  0.28  1.84 
 228  0.76  0.57  1.84 
 229  1.05  0.26  1.84 
 230  0.51  0.26  1.84 
 231  0.88  0.20  1.84 
 232  1.42  1.52  1.84 
 233  0.66  1.40  1.84 
 234  2.60  1.88  1.84 
 235  2.17  0.99  2.60 
 236  1.25  1.96  2.60 
 237  1.42  2.21  2.60 
 238  0.94  1.98  2.60 
 239  1.42  2.07  2.60 
 240  0.52  1.98  2.60 
 241  1.50  1.00  2.60 
 242  0.85  1.01  2.60 
 243  1.90  1.62  2.60 
 244  1.21  1.32  2.60 
 245  1.23  1.26  2.60 
 246  0.73  1.13  2.60 
 247  1.36  1.83  2.60 
 248  1.40  1.47  2.60 
 249  1.06  1.07  2.60 
 250  1.73  0.84  2.60 
 251  0.88  0.79  2.60 
 252  1.16  0.62  2.60 
 253  1.62  0.88  2.60 
 254  0.58  1.43  2.60 
 255  1.64  0.93  2.60 
 256  1.99  1.70  2.60 
 257  2.05  2.08  2.60 
 258  2.00  2.06  2.60 
 259  1.81  1.94  2.60 
 260  1.56  2.38  2.60 
 261  1.33  1.83  2.60 
 262  0.84  1.47  2.60 
 263  1.03  0.65  2.60 
 264  1.77  0.80  2.60 
 265  1.89  1.52  2.60 
 266  0.93  0.74  2.60 
 267  1.71  1.63  2.60 
 268  1.41  2.11  2.60 
 269  0.92  2.96  2.60 
 270  0.80  3.12  2.60 
 271  1.30  1.85  2.60 
 272  2.25  2.12  2.60 
 273  1.17  1.97  2.60 
 274  1.98  2.65  2.60 
 275  1.19  3.62  2.60 
 276  1.98  3.39  2.60 
 277  1.32  3.46  2.60 
 278  2.31  2.84  2.60 
 279  1.70  3.30  2.60 
 280  2.13  2.91  2.60 
 281  1.91  2.78  2.60 
 282  1.50  3.18  2.60 
 283  1.24  3.10  2.60 
 284  1.50  3.28  2.60 
 285  1.55  3.08  2.60 
 286  0.95  3.12  2.60 
 287  2.10  3.43  2.60 
 288  1.44  2.28  2.60 
 289  2.03  2.54  2.60 
 290  1.91  3.51  2.60 
 291  2.43  3.43  2.60 
 292  1.07  4.06  2.60 
 293  2.05  3.17  2.60 
 294  2.48  3.59  2.60 
 295  1.72  3.26  2.60 
 296  1.40  3.76  2.60 
 297  1.21  3.50  2.60 
 298  1.30  2.82  2.60 
 299  1.28  1.54  2.60 
 300  2.47  2.17  2.60 
 301  1.24  2.27  2.60 
 302  1.84  0.99  2.60 
 303  1.78  1.12  2.60 
 304  2.08  2.28  2.60 
 305  1.47  1.80  2.60 
 306  0.81  1.70  2.60 
 307  2.19  2.65  2.60 
 308  1.63  3.27  2.60 
 309  2.02  2.03  2.60 
 310  2.93  2.18  2.60 
 311  2.41  2.09  2.93 
 312  2.06  3.51  2.93 
 313  1.99  3.02  2.93 
 314  2.43  3.02  2.93 
 315  2.24  2.53  2.93 
 316  2.31  3.36  2.93 
 317  1.84  1.25  2.93 
 318  1.41  1.14  2.93 
 319  2.78  0.69  2.93 
 320  1.18  0.98  2.93 
 321  2.16  1.92  2.93 
 322  1.27  1.86  2.93 
 323  3.06  1.92  2.93 
 324  2.12  1.49  3.06 
 325  2.42  2.05  3.06 
 326  2.29  1.44  3.06 
 327  2.30  2.56  3.06 
 328  2.13  2.57  3.06 
 329  1.87  3.51  3.06 
 330  2.52  2.65  3.06 
 331  0.92  3.13  3.06 
 332  1.68  3.45  3.06 
 333  2.40  2.04  3.06 
 334  1.95  2.79  3.06 
 335  1.51  2.19  3.06 
 336  1.44  2.90  3.06 
 337  2.20  3.21  3.06 
 338  2.25  2.28  3.06 
 339  2.59  1.10  3.06 
 340  1.84  2.85  3.06 
 341  1.93  2.29  3.06 
 342  1.13  1.43  3.06 
 343  1.29  2.53  3.06 
 344  1.75  2.09  3.06 
 345  2.65  2.10  3.06 
 346  2.21  2.54  3.06 
 347  2.50  2.49  3.06 
 348  3.04  2.09  3.06 
 349  1.51  2.55  3.06 
 350  1.82  2.34  3.06 
 351  2.76  0.91  3.06 
 352  2.76  3.00  3.06 
 353  1.90  2.32  3.06 
 354  1.96  1.57  3.06 
 355  1.91  2.39  3.06 
 356  2.48  2.46  3.06 
 357  2.87  3.14  3.06 
 358  1.71  2.45  3.06 
 359  2.48  2.55  3.06 
 360  1.87  2.84  3.06 
 361  1.42  3.00  3.06 
 362  2.48  2.95  3.06 
 363  1.71  3.25  3.06 
 364  2.58  3.23  3.06 
 365  2.45  3.51  3.06 
 366  1.51  3.38  3.06 
 367  2.53  3.29  3.06 
 368  3.11  3.43  3.06 
 369  1.81  3.01  3.11 
 370  2.60  3.15  3.11 
 371  1.73  3.43  3.11 
 372  2.38  3.18  3.11 
 373  1.57  2.82  3.11 
 374  1.80  2.69  3.11 
 375  2.90  2.99  3.11 
 376  2.18  2.60  3.11 
 377  2.01  2.67  3.11 
 378  2.54  2.72  3.11 
 379  1.73  3.54  3.11 
 380  2.48  2.53  3.11 
 381  2.62  2.21  3.11 
 382  1.49  3.08  3.11 
 383  2.36  2.56  3.11 
 384  2.23  3.69  3.11 
 385  1.51  3.60  3.11 
 386  1.94  3.28  3.11 
 387  1.75  2.89  3.11 
 388  1.81  3.16  3.11 
 389  2.64  2.61  3.11 
 390  1.67  1.84  3.11 
 391  2.43  2.54  3.11 
 392  2.09  1.84  3.11 
 393  2.96  2.04  3.11 
 394  1.01  0.75  3.11 
 395  2.27  0.98  3.11 
 396  2.65  1.57  3.11 
 397  2.19  1.50  3.11 
 398  2.59  2.55  3.11 
 399  2.27  2.37  3.11 
 400  2.05  1.78  3.11 
 401  1.94  1.78  3.11 
 402  1.56  1.87  3.11 
 403  1.66  2.11  3.11 
 404  3.11  2.12  3.11 
 405  2.89  1.49  3.11 
 406  2.19  2.37  3.11 
 407  2.65  1.59  3.11 
 408  2.60  1.49  3.11 
 409  2.74  1.01  3.11 
 410  2.15  1.16  3.11 
 411  1.69  2.65  3.11 
 412  2.09  1.59  3.11 
 413  1.94  3.68  3.11 
 414  2.67  3.30  3.11 
 415  2.47  2.34  3.11 
 416  1.42  2.17  3.11 
 417  2.24  3.45  3.11 
 418  3.51  3.29  3.11 
 419  1.71  2.81  3.51 
 420  3.05  3.71  3.51 
 421  1.81  3.30  3.51 
 422  2.11  1.40  3.51 
 423  2.41  1.61  3.51 
 424  2.43  1.65  3.51 
 425  1.86  3.07  3.51 
 426  3.05  1.40  3.51 
 427  3.15  2.12  3.51 
 428  1.07  2.48  3.51 
 429  2.02  0.75  3.51 
 430  2.67  0.95  3.51 
 431  2.55  0.67  3.51 
 432  2.16  0.70  3.51 
 433  2.67  1.26  3.51 
 434  3.53  1.70  3.51 
 435  2.46  0.62  3.53 
 436  3.00  1.19  3.53 
 437  3.49  0.75  3.53 
 438  1.76  1.44  3.53 
 439  3.27  2.70  3.53 
 440  1.89  2.30  3.53 
 441  1.46  0.68  3.53 
 442  2.67  0.73  3.53 
 443  2.85  0.85  3.53 
 444  2.21  0.84  3.53 
 445  1.10  2.58  3.53 
 446  1.87  1.46  3.53 
 447  2.94  0.79  3.53 
 448  2.72  1.14  3.53 
 449  1.94  3.13  3.53 
 450  1.35  3.00  3.53 
 451  2.05  2.50  3.53 
 452  2.03  2.79  3.53 
 453  3.35  3.13  3.53 
 454  2.94  3.16  3.53 
 455  2.43  3.49  3.53 
 456  2.73  1.39  3.53 
 457  1.42  1.95  3.53 
 458  2.21  3.31  3.53 
 459  2.87  2.68  3.53 
 460  2.35  3.16  3.53 
 461  2.74  3.78  3.53 
 462  2.22  2.96  3.53 
 463  2.76  2.75  3.53 
 464  2.06  2.01  3.53 
 465  2.23  1.78  3.53 
 466  2.44  2.33  3.53 
 467  2.43  2.25  3.53 
 468  1.70  2.19  3.53 
 469  2.06  2.64  3.53 
 470  1.44  1.85  3.53 
 471  2.01  2.17  3.53 
 472  1.81  2.79  3.53 
 473  2.19  3.30  3.53 
 474  2.83  2.33  3.53 
 475  1.51  1.78  3.53 
 476  2.92  1.41  3.53 
 477  1.77  0.81  3.53 
 478  2.99  1.71  3.53 
 479  1.80  1.78  3.53 
 480  1.61  1.85  3.53 
 481  2.73  1.84  3.53 
 482  1.35  2.08  3.53 
 483  2.54  2.02  3.53 
 484  2.26  2.09  3.53 
 485  1.71  1.77  3.53 
 486  1.32  2.12  3.53 
 487  3.26  1.93  3.53 
 488  2.86  2.13  3.53 
 489  1.98  1.93  3.53 
 490  2.91  2.11  3.53 
 491  2.67  3.70  3.53 
 492  2.21  2.07  3.53 
 493  3.30  3.12  3.53 
 494  2.79  2.82  3.53 
 495  2.17  3.88  3.53 
 496  2.20  2.55  3.53 
 497  3.24  4.61  3.53 
 498  2.35  4.33  3.53 
 499  2.09  2.56  3.53 
 500  1.78  4.24  3.53 
 501  2.21  2.60  3.53 
 502  3.07  3.31  3.53 
 503  2.98  2.27  3.53 
 504  1.83  2.74  3.53 
 505  2.35  2.65  3.53 
 506  2.99  2.47  3.53 
 507  2.72  1.79  3.53 
 508  3.47  2.29  3.53 
 509  1.42  1.17  3.53 
 510  1.25  3.28  3.53 
 511  2.45  1.93  3.53 
 512  2.14  2.71  3.53 
 513  2.91  3.77  3.53 
 514  3.59  3.92  3.53 
 515  1.98  3.28  3.59 
 516  2.36  3.54  3.59 
 517  2.02  2.80  3.59 
 518  2.96  2.02  3.59 
 519  2.83  1.47  3.59 
 520  1.62  1.37  3.59 
 521  2.88  1.29  3.59 
 522  2.57  4.18  3.59 
 523  2.32  2.07  3.59 
 524  1.90  1.35  3.59 
 525  3.27  1.24  3.59 
 526  2.32  4.19  3.59 
 527  1.99  3.06  3.59 
 528  1.67  3.73  3.59 
 529  2.65  4.70  3.59 
 530  1.67  3.92  3.59 
 531  1.98  4.05  3.59 
 532  1.71  3.92  3.59 
 533  1.51  4.20  3.59 
 534  1.43  3.81  3.59 
 535  1.39  4.61  3.59 
 536  2.55  4.64  3.59 
 537  3.47  3.72  3.59 
 538  1.70  4.19  3.59 
 539  1.69  4.33  3.59 
 540  1.48  3.33  3.59 
 541  0.82  2.72  3.59 
 542  2.75  3.18  3.59 
 543  2.23  3.53  3.59 
 544  2.56  4.93  3.59 
 545  2.04  4.97  3.59 
 546  1.49  4.67  3.59 
 547  2.78  4.89  3.59 
 548  3.96  3.08  3.59 
 549  2.32  3.52  3.96 
 550  2.27  3.10  3.96 
 551  2.90  3.71  3.96 
 552  2.07  4.21  3.96 
 553  2.82  4.45  3.96 
 554  2.65  3.27  3.96 
 555  2.78  4.73  3.96 
 556  3.35  3.95  3.96 
 557  2.77  4.12  3.96 
 558  1.74  4.61  3.96 
 559  2.00  4.57  3.96 
 560  2.40  5.18  3.96 
 561  1.75  4.35  3.96 
 562  2.12  3.73  3.96 
 563  1.39  3.90  3.96 
 564  2.78  3.92  3.96 
 565  2.42  3.70  3.96 
 566  1.85  4.38  3.96 
 567  3.11  3.99  3.96 
 568  2.73  4.38  3.96 
 569  3.25  4.25  3.96 
 570  1.79  3.77  3.96 
 571  2.85  4.55  3.96 
 572  2.27  4.37  3.96 
 573  3.08  3.70  3.96 
 574  2.64  3.45  3.96 
 575  3.17  3.92  3.96 
 576  2.73  3.67  3.96 
 577  2.95  3.82  3.96 
 578  1.75  3.87  3.96 
 579  2.34  4.14  3.96 
 580  3.33  3.81  3.96 
 581  2.96  3.55  3.96 
 582  2.74  4.09  3.96 
 583  2.41  4.27  3.96 
 584  2.73  4.08  3.96 
 585  2.60  4.41  3.96 
 586  3.44  3.72  3.96 
 587  2.67  3.77  3.96 
 588  2.17  4.80  3.96 
 589  3.08  4.22  3.96 
 590  2.49  4.17  3.96 
 591  3.34  3.79  3.96 
 592  2.63  3.59  3.96 
 593  2.40  3.35  3.96 
 594  3.19  4.12  3.96 
 595  3.40  4.62  3.96 
 596  2.39  4.66  3.96 
 597  3.44  4.01  3.96 
 598  2.60  3.71  3.96 
 599  2.42  3.60  3.96 
 600  3.38  3.64  3.96 
 601  1.97  3.90  3.96 
 602  2.51  3.79  3.96 
 603  2.08  3.67  3.96 
 604  3.23  4.31  3.96 
 605  2.27  3.78  3.96 
 606  2.31  4.30  3.96 
 607  3.29  3.33  3.96 
 608  2.99  3.76  3.96 
 609  2.79  3.87  3.96 
 610  1.97  4.19  3.96 
 611  2.74  4.38  3.96 
 612  2.39  4.00  3.96 
 613  2.70  4.23  3.96 
 614  2.48  4.25  3.96 
 615  2.34  4.69  3.96 
 616  2.26  4.16  3.96 
 617  3.71  4.38  3.96 
 618  3.45  4.48  3.96 
 619  2.91  3.69  3.96 
 620  2.62  3.97  3.96 
 621  2.93  4.56  3.96 
 622  2.50  4.78  3.96 
 623  3.26  4.89  3.96 
 624  2.96  4.28  3.96 
 625  2.48  3.96  3.96 
 626  2.93  2.94  3.96 
 627  2.62  3.15  3.96 
 628  2.17  2.67  3.96 
 629  3.56  2.18  3.96 
 630  1.72  2.37  3.96 
 631  2.92  3.30  3.96 
 632  2.79  3.00  3.96 
 633  2.97  3.45  3.96 
 634  3.51  3.72  3.96 
 635  3.26  3.36  3.96 
 636  2.10  2.55  3.96 
 637  2.92  3.24  3.96 
 638  3.75  3.99  3.96 
 639  3.56  3.65  3.96 
 640  2.42  3.42  3.96 
 641  2.05  3.84  3.96 
 642  2.43  4.30  3.96 
 643  2.50  4.50  3.96 
 644  2.26  4.03  3.96 
 645  1.91  3.85  3.96 
 646  4.12  3.77  3.96 
 647  3.33  3.61  4.12 
 648  2.87  3.55  4.12 
 649  1.90  3.96  4.12 
 650  2.91  4.50  4.12 
 651  2.12  4.63  4.12 
 652  2.92  4.42  4.12 
 653  2.48  4.73  4.12 
 654  2.50  4.65  4.12 
 655  2.12  4.45  4.12 
 656  1.96  4.27  4.12 
 657  3.30  4.34  4.12 
 658  2.97  4.46  4.12 
 659  2.55  4.51  4.12 
 660  1.56  4.35  4.12 
 661  2.64  4.55  4.12 
 662  4.13  4.13  4.12 
 663  2.44  4.70  4.13 
 664  3.60  4.96  4.13 
 665  2.73  4.87  4.13 
 666  1.92  4.50  4.13 
 667  2.04  4.71  4.13 
 668  3.95  4.60  4.13 
 669  1.83  3.63  4.13 
 670  2.49  4.03  4.13 
 671  2.33  4.36  4.13 
 672  3.43  4.20  4.13 
 673  3.45  4.51  4.13 
 674  3.80  4.30  4.13 
 675  2.24  4.51  4.13 
 676  3.36  4.73  4.13 
 677  2.91  4.37  4.13 
 678  1.45  3.64  4.13 
 679  3.04  4.33  4.13 
 680  2.60  4.24  4.13 
 681  3.29  4.49  4.13 
 682  3.02  4.10  4.13 
 683  2.76  4.47  4.13 
 684  3.12  4.81  4.13 
 685  3.89  4.78  4.13 
 686  3.11  4.75  4.13 
 687  2.30  4.64  4.13 
 688  2.95  4.88  4.13 
 689  2.11  4.82  4.13 
 690  3.23  4.63  4.13 
 691  2.92  4.59  4.13 
 692  1.98  4.62  4.13 
 693  2.57  4.82  4.13 
 694  3.02  4.78  4.13 
 695  2.88  4.55  4.13 
 696  1.97  4.56  4.13 
 697  3.35  4.99  4.13 
 698  3.06  4.66  4.13 
 699  2.29  4.82  4.13 
 700  2.43  4.60  4.13 
 701  2.83  4.31  4.13 
 702  2.51  4.93  4.13 
 703  2.88  4.62  4.13 
 704  3.30  4.91  4.13 
 705  3.13  4.85  4.13 
 706  2.69  4.59  4.13 
 707  3.74  4.41  4.13 
 708  3.17  4.98  4.13 
 709  2.58  4.27  4.13 
 710  3.57  4.17  4.13 
 711  2.91  3.91  4.13 
 712  3.50  5.07  4.13 
 713  3.01  4.89  4.13 
 714  2.88  4.24  4.13 
 715  2.43  4.12  4.13 
 716  3.36  4.53  4.13 
 717  2.38  4.85  4.13 
 718  3.89  5.23  4.13 
 719  3.49  4.58  4.13 
 720  2.96  4.45  4.13 
 721  2.39  4.30  4.13 
 722  3.73  3.24  4.13 
 723  3.09  3.34  4.13 
 724  3.99  4.52  4.13 
 725  3.12  5.21  4.13 
 726  2.37  4.84  4.13 
 727  3.11  5.09  4.13 
 728  2.61  4.85  4.13 
 729  3.34  4.80  4.13 
 730  3.18  4.86  4.13 
 731  3.11  4.76  4.13 
 732  2.93  4.87  4.13 
 733  2.92  4.91  4.13 
 734  2.90  4.56  4.13 
 735  3.44  4.79  4.13 
 736  3.57  4.53  4.13 
 737  1.54  4.75  4.13 
 738  3.14  3.98  4.13 
 739  3.37  4.52  4.13 
 740  2.91  4.61  4.13 
 741  1.96  4.47  4.13 
 742  2.18  4.15  4.13 
 743  3.54  4.24  4.13 
 744  2.56  4.05  4.13 
 745  2.83  3.18  4.13 
 746  3.46  3.93  4.13 
 747  2.68  3.97  4.13 
 748  2.44  4.50  4.13 
 749  3.62  4.37  4.13 
 750  2.31  4.28  4.13 
 751  3.54  4.69  4.13 
 752  2.92  4.24  4.13 
 753  4.31  4.06  4.13 
 754  2.24  4.32  4.31 
 755  3.66  4.70  4.31 
 756  2.66  4.26  4.31 
 757  2.51  4.15  4.31 
 758  2.78  4.19  4.31 
 759  2.43  4.72  4.31 
 760  3.15  4.18  4.31 
 761  3.94  3.99  4.31 
 762  0.54  3.95  4.31 
 763  2.92  4.49  4.31 
 764  3.69  4.49  4.31 
 765  4.05  4.48  4.31 
 766  3.14  3.62  4.31 
 767  3.31  3.73  4.31 
 768  3.33  3.82  4.31 
 769  3.73  3.27  4.31 
 770  3.57  2.84  4.31 
 771  3.28  1.77  4.31 
 772  3.32  1.47  4.31 
 773  4.01  2.09  4.31 
 774  3.44  1.66  4.31 
 775  2.71  2.24  4.31 
 776  3.45  3.67  4.31 
 777  4.12  3.98  4.31 
 778  4.27  4.07  4.31 
 779  2.77  2.61  4.31 
 780  2.16  4.62  4.31 
 781  2.76  2.72  4.31 
 782  3.78  3.03  4.31 
 783  3.16  3.08  4.31 
 784  2.24  4.17  4.31 
 785  3.12  2.95  4.31 
 786  2.41  1.23  4.31 
 787  2.79  1.85  4.31 
 788  3.68  1.99  4.31 
 789  2.65  1.39  4.31 
 790  2.53  2.68  4.31 
 791  3.69  2.86  4.31 
 792  2.07  4.14  4.31 
 793  3.63  3.53  4.31 
 794  2.18  3.72  4.31 
 795  3.44  4.35  4.31 
 796  3.77  3.53  4.31 
 797  4.32  3.61  4.31 
 798  2.94  3.53  4.32 
 799  2.59  2.95  4.32 
 800  3.63  1.64  4.32 
 801  3.44  1.70  4.32 
 802  2.79  3.52  4.32 
 803  1.58  3.35  4.32 
 804  2.33  1.55  4.32 
 805  2.68  2.80  4.32 
 806  3.27  3.32  4.32 
 807  3.42  3.35  4.32 
 808  2.87  2.11  4.32 
 809  3.81  1.90  4.32 
 810  2.96  2.07  4.32 
 811  2.26  1.76  4.32 
 812  4.22  1.01  4.32 
 813  2.88  1.75  4.32 
 814  1.36  1.94  4.32 
 815  1.76  1.01  4.32 
 816  1.96  1.03  4.32 
 817  3.21  1.29  4.32 
 818  2.92  1.91  4.32 
 819  2.46  3.49  4.32 
 820  3.16  3.61  4.32 
 821  3.93  3.35  4.32 
 822  3.38  3.28  4.32 
 823  3.22  3.76  4.32 
 824  4.01  3.99  4.32 
 825  2.71  4.25  4.32 
 826  2.78  4.19  4.32 
 827  2.35  3.74  4.32 
 828  3.32  4.88  4.32 
 829  3.48  4.96  4.32 
 830  2.38  4.23  4.32 
 831  2.26  4.16  4.32 
 832  3.87  2.91  4.32 
 833  1.98  1.91  4.32 
 834  3.14  3.44  4.32 
 835  3.30  2.97  4.32 
 836  4.04  3.58  4.32 
 837  3.41  3.52  4.32 
 838  3.77  3.65  4.32 
 839  2.80  4.24  4.32 
 840  2.94  4.51  4.32 
 841  3.08  4.56  4.32 
 842  3.43  3.77  4.32 
 843  3.39  3.58  4.32 
 844  3.40  3.63  4.32 
 845  2.98  3.86  4.32 
 846  2.83  3.51  4.32 
 847  2.02  4.04  4.32 
 848  3.01  3.85  4.32 
 849  3.33  3.73  4.32 
 850  3.19  3.75  4.32 
 851  3.90  3.39  4.32 
 852  3.42  3.98  4.32 
 853  3.27  3.96  4.32 
 854  2.03  4.30  4.32 
 855  2.35  4.61  4.32 
 856  3.73  4.38  4.32 
 857  3.15  4.56  4.32 
 858  3.68  4.66  4.32 
 859  2.48  4.79  4.32 
 860  2.50  4.43  4.32 
 861  3.87  4.59  4.32 
 862  3.36  4.80  4.32 
 863  3.29  4.81  4.32 
 864  3.48  4.78  4.32 
 865  4.14  3.77  4.32 
 866  3.85  3.97  4.32 
 867  3.00  4.82  4.32 
 868  2.29  4.38  4.32 
 869  3.26  4.81  4.32 
 870  3.60  4.34  4.32 
 871  3.16  4.01  4.32 
 872  3.94  3.79  4.32 
 873  1.49  3.57  4.32 
 874  3.88  3.64  4.32 
 875  3.69  4.30  4.32 
 876  3.43  4.83  4.32 
 877  2.47  4.51  4.32 
 878  3.82  4.22  4.32 
 879  3.46  4.56  4.32 
 880  2.59  4.00  4.32 
 881  3.24  3.52  4.32 
 882  2.40  3.68  4.32 
 883  3.77  3.30  4.32 
 884  2.78  4.18  4.32 
 885  3.52  4.18  4.32 
 886  3.09  3.48  4.32 
 887  4.27  3.59  4.32 
 888  3.79  3.91  4.32 
 889  2.59  4.07  4.32 
 890  3.29  3.47  4.32 
 891  3.99  3.82  4.32 
 892  4.53  3.78  4.32 
 893  3.63  3.98  4.53 
 894  2.80  4.39  4.53 
 895  3.03  4.67  4.53 
 896  3.10  4.31  4.53 
 897  3.60  4.68  4.53 
 898  4.15  4.74  4.53 
 899  3.86  4.83  4.53 
 900  2.81  4.26  4.53 
 901  3.90  4.22  4.53 
 902  4.09  3.52  4.53 
 903  4.06  3.56  4.53 
 904  3.70  3.44  4.53 
 905  4.07  3.37  4.53 
 906  3.72  3.30  4.53 
 907  3.62  3.30  4.53 
 908  3.45  3.78  4.53 
 909  2.52  3.73  4.53 
 910  2.75  3.61  4.53 
 911  1.69  3.77  4.53 
 912  2.48  3.71  4.53 
 913  3.18  3.15  4.53 
 914  3.62  3.52  4.53 
 915  3.66  3.17  4.53 
 916  3.78  3.13  4.53 
 917  3.03  3.24  4.53 
 918  2.35  3.83  4.53 
 919  3.93  3.82  4.53 
 920  2.47  3.68  4.53 
 921  3.76  3.54  4.53 
 922  2.09  3.42  4.53 
 923  4.53  3.42  4.53 
 924  3.81  4.14  4.53 
 925  2.55  3.74  4.53 
 926  3.36  3.46  4.53 
 927  2.52  3.77  4.53 
 928  1.77  3.72  4.53 
 929  4.30  3.93  4.53 
 930  4.20  4.22  4.53 
 931  3.44  4.27  4.53 
 932  3.02  4.34  4.53 
 933  3.19  4.68  4.53 
 934  3.68  4.79  4.53 
 935  3.26  4.87  4.53 
 936  3.83  4.82  4.53 
 937  4.15  4.66  4.53 
 938  2.63  4.63  4.53 
 939  2.99  4.74  4.53 
 940  4.14  4.62  4.53 
 941  2.93  4.62  4.53 
 942  3.68  4.06  4.53 
 943  3.60  4.73  4.53 
 944  3.71  4.68  4.53 
 945  3.58  4.54  4.53 
 946  2.47  4.24  4.53 
 947  3.58  4.15  4.53 
 948  4.52  4.38  4.53 
 949  3.15  4.02  4.53 
 950  2.48  4.07  4.53 
 951  2.81  4.23  4.53 
 952  4.44  4.16  4.53 
 953  4.19  4.23  4.53 
 954  3.63  4.24  4.53 
 955  4.00  4.40  4.53 
 956  4.21  4.19  4.53 
 957  3.52  4.32  4.53 
 958  4.10  3.92  4.53 
 959  4.19  4.20  4.53 
 960  3.48  3.85  4.53 
 961  3.84  3.97  4.53 
 962  3.52  3.73  4.53 
 963  2.89  3.86  4.53 
 964  4.14  3.79  4.53 
 965  2.80  3.77  4.53 
 966  3.91  3.74  4.53 
 967  2.92  4.08  4.53 
 968  4.07  3.65  4.53 
 969  3.49  4.06  4.53 
 970  3.39  4.33  4.53 
 971  3.39  4.37  4.53 
 972  2.99  4.32  4.53 
 973  3.22  4.57  4.53 
 974  3.24  4.51  4.53 
 975  2.87  4.90  4.53 
 976  2.99  4.79  4.53 
 977  3.70  4.78  4.53 
 978  3.90  4.70  4.53 
 979  2.28  4.82  4.53 
 980  3.41  4.92  4.53 
 981  2.25  4.97  4.53 
 982  4.16  4.58  4.53 
 983  3.15  4.64  4.53 
 984  2.76  4.14  4.53 
 985  3.28  3.99  4.53 
 986  3.40  4.64  4.53 
 987  3.10  4.49  4.53 
 988  3.46  4.50  4.53 
 989  3.52  4.42  4.53 
 990  3.23  4.62  4.53 
 991  3.92  3.93  4.53 
 992  3.89  3.94  4.53 
 993  3.81  5.00  4.53 
 994  3.88  3.92  4.53 
 995  2.73  5.21  4.53 
 996  3.97  4.64  4.53 
 997  2.89  4.93  4.53 
 998  3.48  5.01  4.53 
 999  2.82  4.75  4.53 
1000  2.81  4.77  4.53 
1001  3.27  4.90  4.53 
1002  2.94  4.53  4.53 
1003  3.71  4.96  4.53 
1004  2.99  3.85  4.53 
1005  3.68  4.26  4.53 
1006  3.24  4.35  4.53 
1007  3.82  4.30  4.53 
1008  4.14  4.21  4.53 
1009  2.83  4.19  4.53 
1010  3.67  4.45  4.53 
1011  3.82  4.83  4.53 
1012  3.87  4.85  4.53 
1013  4.21  4.98  4.53 
1014  4.34  4.90  4.53 
1015  2.72  4.90  4.53 
1016  4.23  4.94  4.53 
1017  4.48  5.08  4.53 
1018  3.48  5.04  4.53 
1019  2.88  5.18  4.53 
1020  2.89  4.73  4.53 
1021  3.94  4.84  4.53 
1022  3.25  4.02  4.53 
1023  3.12  4.17  4.53 
1024  4.10  3.90  4.53 
1025  3.66  4.20  4.53 
1026  4.19  4.32  4.53 
1027  4.43  3.44  4.53 
1028  3.35  4.01  4.53 
1029  4.59  3.97  4.53 
1030  4.57  3.96  4.59 
1031  3.76  3.52  4.59 
1032  3.49  3.53  4.59 
1033  2.85  3.75  4.59 
1034  3.35  4.23  4.59 
1035  3.61  3.86  4.59 
1036  5.09  3.98  4.59 
1037  3.90  4.29  5.09 
1038  3.43  4.98  5.09 
1039  3.22  4.70  5.09 
1040  4.10  4.14  5.09 
1041  4.31  3.58  5.09 
1042  3.18  3.38  5.09 
1043  3.41  3.56  5.09 
1044  3.26  3.69  5.09 
1045  4.28  3.34  5.09 
1046  4.05  3.30  5.09 
1047  3.31  3.55  5.09 
1048  2.78  3.80  5.09 
1049  3.10  4.44  5.09 
1050  4.17  3.67  5.09 
1051  3.37  4.04  5.09 
1052  2.70  3.97  5.09 
1053  3.07  4.69  5.09 
1054  3.07  5.53  5.09 
1055  4.58  4.55  5.09 
1056  4.40  4.78  5.09 
1057  2.41  4.93  5.09 
1058  3.65  4.70  5.09 
1059  3.81  4.74  5.09 
1060  4.24  4.36  5.09 
1061  3.83  5.20  5.09 
1062  2.11  4.76  5.09 
1063  3.57  5.35  5.09 
1064  3.37  4.39  5.09 
1065  2.90  4.48  5.09 
1066  4.18  3.73  5.09 
1067  3.40  3.60  5.09 
1068  3.58  4.18  5.09 
1069  4.19  3.93  5.09 
1070  3.46  4.55  5.09 
1071  4.80  4.30  5.09 
1072  4.35  3.84  5.09 
1073  3.03  3.22  5.09 
1074  3.39  3.14  5.09 
1075  2.95  4.02  5.09 
1076  2.63  3.37  5.09 
1077  4.19  3.72  5.09 
1078  3.78  4.04  5.09 
1079  3.94  4.50  5.09 
1080  4.16  4.66  5.09 
1081  4.22  4.97  5.09 
1082  3.80  4.91  5.09 
1083  3.75  4.69  5.09 
1084  4.44  4.15  5.09 
1085  4.52  4.76  5.09 
1086  3.23  4.99  5.09 
1087  4.32  5.03  5.09 
1088  4.07  5.03  5.09 
1089  2.80  4.46  5.09 
1090  3.74  4.97  5.09 
1091  4.16  5.07  5.09 
1092  4.13  4.39  5.09 
1093  3.54  5.05  5.09 
1094  3.05  5.27  5.09 
1095  3.51  5.10  5.09 
1096  4.21  5.14  5.09 
1097  3.29  4.78  5.09 
1098  4.11  4.20  5.09 
1099  2.73  4.33  5.09 
1100  4.20  4.97  5.09 
1101  3.61  3.98  5.09 
1102  4.89  4.37  5.09 
1103  4.32  4.93  5.09 
1104  5.02  4.57  5.09 
1105  4.60  4.65  5.09 
1106  3.79  4.40  5.09 
1107  4.29  4.81  5.09 
1108  2.43  4.76  5.09 
1109  3.80  4.34  5.09 
1110  3.30  4.39  5.09 
1111  3.77  4.54  5.09 
1112  3.42  4.80  5.09 
1113  3.61  4.52  5.09 
1114  4.45  4.43  5.09 
1115  4.24  4.46  5.09 
1116  3.96  3.68  5.09 
1117  4.12  3.93  5.09 
1118  3.76  3.54  5.09 
1119  3.65  3.39  5.09 
1120  4.47  3.96  5.09 
1121  3.79  3.85  5.09 
1122  3.77  4.03  5.09 
1123  3.71  3.79  5.09 
1124  3.20  3.35  5.09 
1125  3.72  3.62  5.09 
1126  4.43  3.60  5.09 
1127  2.66  3.52  5.09 
1128  3.87  1.98  5.09 
1129  3.93  3.32  5.09 
1130  3.48  2.00  5.09 
1131  4.04  2.99  5.09 
1132  4.00  3.10  5.09 
1133  4.40  2.78  5.09 
1134  3.85  2.85  5.09 
1135  4.40  2.94  5.09 
1136  4.03  2.94  5.09 
1137  4.05  3.23  5.09 
1138  4.60  2.77  5.09 
1139  4.71  3.39  5.09 
1140  4.78  3.59  5.09 
1141  3.78  4.62  5.09 
1142  4.68  4.54  5.09 
1143  3.62  4.66  5.09 
1144  4.53  5.29  5.09 
1145  3.23  4.96  5.09 
1146  4.27  4.82  5.09 
1147  2.74  4.73  5.09 
1148  4.71  4.98  5.09 
1149  4.89  5.38  5.09 
1150  4.13  5.40  5.09 
1151  4.03  5.18  5.09 
1152  4.66  5.10  5.09 
1153  3.58  4.88  5.09 
1154  4.85  5.11  5.09 
1155  2.83  4.99  5.09 
1156  3.77  5.31  5.09 
1157  4.83  5.03  5.09 
1158  4.34  4.89  5.09 
1159  4.16  5.05  5.09 
1160  3.30  4.68  5.09 
1161  3.17  4.94  5.09 
1162  4.17  5.00  5.09 
1163  4.30  4.80  5.09 
1164  2.89  4.91  5.09 
1165  3.77  3.97  5.09 
1166  3.92  3.64  5.09 
1167  4.99  3.72  5.09 
1168  3.58  3.95  5.09 
1169  4.29  4.62  5.09 
1170  4.75  4.39  5.09 
1171  4.54  5.09  5.09 
1172  3.56  4.91  5.09 
1173  4.71  5.28  5.09 
1174  4.83  5.23  5.09 
1175  4.15  5.26  5.09 
1176  4.58  5.16  5.09 
1177  3.84  5.40  5.09 
1178  4.29  5.47  5.09 
1179  3.83  5.58  5.09 
1180  3.90  5.63  5.09 
1181  3.76  5.56  5.09 
1182  4.00  5.80  5.09 
1183  3.77  5.58  5.09 
1184  5.09  5.68  5.09 
1185  2.87  5.80  5.09 
1186  4.88  5.65  5.09 
1187  4.60  5.71  5.09 
1188  3.87  5.66  5.09 
1189  4.72  5.59  5.09 
1190  4.15  5.46  5.09 
1191  4.24  5.46  5.09 
1192  3.90  5.42  5.09 
1193  4.69  5.47  5.09 
1194  4.98  5.40  5.09 
1195  4.32  5.36  5.09 
1196  4.29  5.40  5.09 
1197  4.10  5.47  5.09 
1198  4.80  5.45  5.09 
1199  3.66  5.32  5.09 
1200  3.69  5.30  5.09 
1201  3.90  5.05  5.09 
1202  4.33  5.05  5.09 
1203  3.94  4.85  5.09 
1204  4.22  5.51  5.09 
1205  3.24  5.35  5.09 
1206  2.72  5.57  5.09 
1207  3.74  5.57  5.09 
1208  3.94  5.38  5.09 
1209  3.95  5.50  5.09 
1210  4.49  5.69  5.09 
1211  4.73  5.50  5.09 
1212  5.00  5.54  5.09 
1213  3.70  5.56  5.09 
1214  4.71  5.48  5.09 
1215  5.17  5.26  5.09 
1216  4.23  5.53  5.17 
1217  4.53  5.04  5.17 
1218  4.91  5.06  5.17 
1219  4.23  5.11  5.17 
1220  4.55  5.19  5.17 
1221  5.09  4.91  5.17 
1222  4.23  5.12  5.17 
1223  4.83  5.02  5.17 
1224  4.90  5.10  5.17 
1225  4.59  5.29  5.17 
1226  4.34  5.20  5.17 
1227  4.14  5.18  5.17 
1228  4.63  5.51  5.17 
1229  3.71  4.98  5.17 
1230  2.34  5.41  5.17 
1231  4.23  5.35  5.17 
1232  5.23  5.63  5.17 
1233  4.31  5.42  5.23 
1234  4.75  5.35  5.23 
1235  2.92  5.41  5.23 
1236  4.21  5.18  5.23 
1237  3.37  5.24  5.23 
1238  3.80  4.97  5.23 
1239  4.98  5.46  5.23 
1240  4.90  5.18  5.23 
1241  4.32  5.61  5.23 
1242  3.95  5.49  5.23 
1243  3.88  5.32  5.23 
1244  4.33  4.90  5.23 
1245  4.49  5.60  5.23 
1246  3.97  5.60  5.23 
1247  4.31  5.30  5.23 
1248  4.97  4.96  5.23 
1249  4.65  4.65  5.23 
1250  3.69  4.73  5.23 
1251  4.58  4.72  5.23 
1252  4.33  4.72  5.23 
1253  4.22  4.88  5.23 
1254  4.67  5.01  5.23 
1255  3.86  5.35  5.23 
1256  4.67  5.84  5.23 
1257  4.45  5.77  5.23 
1258  4.46  5.80  5.23 
1259  4.81  5.49  5.23 
1260  4.22  5.56  5.23 
1261  4.80  5.47  5.23 
1262  4.35  5.62  5.23 
1263  4.09  5.55  5.23 
1264  4.14  5.58  5.23 
1265  4.85  5.17  5.23 
1266  4.02  5.05  5.23 
1267  4.85  5.18  5.23 
1268  4.23  5.35  5.23 
1269  4.47  5.13  5.23 
1270  4.38  5.47  5.23 
1271  4.58  5.07  5.23 
1272  5.13  5.14  5.23 
1273  4.28  5.40  5.23 
1274  4.35  5.80  5.23 
1275  4.07  5.77  5.23 
1276  4.69  5.50  5.23 
1277  4.51  5.72  5.23 
1278  3.72  5.77  5.23 
1279  3.79  5.82  5.23 
1280  3.29  5.44  5.23 
1281  4.75  5.46  5.23 
1282  5.03  5.55  5.23 
1283  5.20  5.54  5.23 
1284  3.87  5.58  5.23 
1285  4.14  5.58  5.23 
1286  4.36  5.82  5.23 
1287  4.21  5.45  5.23 
1288  4.49  5.83  5.23 
1289  4.80  5.79  5.23 
1290  4.45  5.67  5.23 
1291  4.61  5.80  5.23 
1292  4.45  5.79  5.23 
1293  5.00  5.82  5.23 
1294  4.34  5.46  5.23 
1295  4.67  5.60  5.23 
1296  4.39  5.86  5.23 
1297  4.09  5.62  5.23 
1298  3.69  5.54  5.23 
1299  4.02  5.80  5.23 
1300  3.56  5.47  5.23 
1301  4.79  5.47  5.23 
1302  4.39  5.40  5.23 
1303  4.52  5.84  5.23 
1304  4.94  5.77  5.23 
1305  5.23  5.85  5.23 
1306  4.10  5.85  5.23 
1307  3.77  5.83  5.23 
1308  4.25  5.77  5.23 
1309  4.51  5.80  5.23 
1310  4.94  5.83  5.23 
1311  3.89  5.82  5.23 
1312  4.86  5.74  5.23 
1313  4.68  5.80  5.23 
1314  5.04  5.82  5.23 
1315  3.43  5.83  5.23 
1316  4.14  5.87  5.23 
1317  4.44  5.85  5.23 
1318  4.17  5.71  5.23 
1319  4.51  5.86  5.23 
1320  5.04  5.20  5.23 
1321  4.77  5.71  5.23 
1322  5.20  5.73  5.23 
1323  4.12  5.87  5.23 
1324  3.07  5.85  5.23 
1325  3.23  5.44  5.23 
1326  5.20  5.70  5.23 
1327  4.92  5.59  5.23 
1328  4.93  5.70  5.23 
1329  4.36  5.68  5.23 
1330  5.06  5.94  5.23 
1331  4.92  5.83  5.23 
1332  4.63  5.83  5.23 
1333  5.06  5.35  5.23 
1334  4.17  5.48  5.23 
1335  4.00  5.48  5.23 
1336  3.99  5.31  5.23 
1337  4.37  5.49  5.23 
1338  4.40  4.96  5.23 
1339  4.81  5.69  5.23 
1340  4.92  5.93  5.23 
1341  3.47  5.69  5.23 
1342  5.57  5.59  5.23 
1343  5.28  5.76  5.57 
1344  3.78  5.92  5.57 
1345  4.26  5.62  5.57 
1346  5.00  5.71  5.57 
1347  3.16  5.65  5.57 
1348  4.68  5.17  5.57 
1349  3.83  5.42  5.57 
1350  3.84  5.55  5.57 
1351  4.54  4.87  5.57 
1352  4.25  4.24  5.57 
1353  4.34  4.62  5.57 
1354  3.78  4.74  5.57 
1355  3.83  5.28  5.57 
1356  4.56  5.33  5.57 
1357  5.27  5.34  5.57 
1358  3.76  4.89  5.57 
1359  4.58  5.53  5.57 
1360  4.34  5.49  5.57 
1361  4.66  5.47  5.57 
1362  4.91  5.84  5.57 
1363  3.68  5.42  5.57 
1364  3.04  5.49  5.57 
1365  3.52  5.72  5.57 
1366  4.69  5.46  5.57 
1367  3.86  5.58  5.57 
1368  4.79  5.72  5.57 
1369  3.30  5.67  5.57 
1370  4.69  5.19  5.57 
1371  5.36  5.24  5.57 
1372  2.77  4.71  5.57 
1373  4.75  4.69  5.57 
1374  3.97  4.64  5.57 
1375  3.84  5.00  5.57 
1376  3.93  4.23  5.57 
1377  5.24  4.28  5.57 
1378  4.15  4.43  5.57 
1379  4.93  4.21  5.57 
1380  4.77  4.17  5.57 
1381  3.73  4.18  5.57 
1382  4.58  4.11  5.57 
1383  2.88  3.86  5.57 
1384  4.23  3.96  5.57 
1385  4.17  4.07  5.57 
1386  3.73  4.29  5.57 
1387  4.84  4.39  5.57 
1388  5.24  4.31  5.57 
1389  4.37  4.16  5.57 
1390  5.28  4.31  5.57 
1391  4.79  4.82  5.57 
1392  4.55  4.74  5.57 
1393  4.27  4.73  5.57 
1394  4.44  4.03  5.57 
1395  4.28  4.13  5.57 
1396  4.81  4.17  5.57 
1397  4.72  4.98  5.57 
1398  2.99  4.66  5.57 
1399  4.78  4.56  5.57 
1400  3.91  4.48  5.57 
1401  2.75  4.60  5.57 
1402  4.90  4.40  5.57 
1403  4.18  4.24  5.57 
1404  4.18  4.95  5.57 
1405  4.24  4.19  5.57 
1406  4.45  4.32  5.57 
1407  4.55  3.93  5.57 
1408  4.63  4.04  5.57 
1409  4.76  4.34  5.57 
1410  4.23  4.40  5.57 
1411  5.30  4.49  5.57 
1412  4.38  5.07  5.57 
1413  5.49  5.04  5.57 
1414  4.77  4.54  5.57 
1415  4.86  4.65  5.57 
1416  3.12  4.58  5.57 
1417  4.52  4.88  5.57 
1418  4.89  4.36  5.57 
1419  4.33  4.55  5.57 
1420  3.68  4.50  5.57 
1421  4.19  4.54  5.57 
1422  4.61  4.73  5.57 
1423  5.16  4.52  5.57 
1424  4.38  4.42  5.57 
1425  4.59  4.52  5.57 
1426  4.53  4.31  5.57 
1427  2.66  4.50  5.57 
1428  4.47  4.69  5.57 
1429  4.67  4.73  5.57 
1430  5.04  4.65  5.57 
1431  3.84  4.70  5.57 
1432  5.44  4.46  5.57 
1433  4.62  4.73  5.57 
1434  4.66  4.67  5.57 
1435  5.01  4.89  5.57 
1436  4.77  4.97  5.57 
1437  4.03  4.32  5.57 
1438  4.66  4.24  5.57 
1439  4.69  4.49  5.57 
1440  4.81  4.34  5.57 
1441  4.32  4.65  5.57 
1442  4.29  4.70  5.57 
1443  5.11  4.77  5.57 
1444  4.38  4.54  5.57 
1445  4.19  4.50  5.57 
1446  4.61  4.51  5.57 
1447  4.81  4.24  5.57 
1448  3.56  4.12  5.57 
1449  4.29  4.29  5.57 
1450  4.60  4.45  5.57 
1451  4.90  4.78  5.57 
1452  5.23  4.66  5.57 
1453  3.64  4.47  5.57 
1454  5.13  4.60  5.57 
1455  4.53  4.55  5.57 
1456  4.81  4.70  5.57 
1457  4.77  4.42  5.57 
1458  5.11  4.64  5.57 
1459  4.01  4.79  5.57 
1460  4.90  4.53  5.57 
1461  4.60  4.45  5.57 
1462  4.94  4.38  5.57 
1463  5.36  4.48  5.57 
1464  4.84  4.50  5.57 
1465  4.59  4.33  5.57 
1466  5.39  4.18  5.57 
1467  4.25  4.41  5.57 
1468  3.83  4.58  5.57 
1469  2.83  4.73  5.57 
1470  5.00  4.36  5.57 
1471  5.63  4.43  5.57 
1472  4.67  4.22  5.63 
1473  4.17  4.75  5.63 
1474  4.78  4.74  5.63 
1475  4.55  4.15  5.63 
1476  4.97  4.10  5.63 
1477  3.97  4.91  5.63 
1478  4.87  4.09  5.63 
1479  4.45  5.06  5.63 
1480  3.82  4.57  5.63 
1481  4.76  4.01  5.63 
1482  4.97  4.59  5.63 
1483  3.56  5.31  5.63 
1484  2.78  4.11  5.63 
1485  5.11  5.15  5.63 
1486  5.25  3.68  5.63 
1487  4.84  3.47  5.63 
1488  4.97  3.31  5.63 
1489  5.11  3.21  5.63 
1490  4.46  3.22  5.63 
1491  4.96  3.61  5.63 
1492  3.11  3.59  5.63 
1493  4.91  3.30  5.63 
1494  5.06  3.19  5.63 
1495  3.12  3.58  5.63 
1496  4.29  3.02  5.63 
1497  4.41  3.69  5.63 
1498  4.51  3.40  5.63 
1499  4.84  3.93  5.63 
1500  4.72  4.01  5.63 
1501  3.96  3.74  5.63 
1502  3.37  3.46  5.63 
1503  4.35  4.17  5.63 
1504  5.17  3.66  5.63 
1505  5.18  3.44  5.63 
1506  4.42  3.36  5.63 
1507  4.62  4.01  5.63 
1508  4.58  3.91  5.63 
1509  5.06  3.80  5.63 
1510  4.88  3.79  5.63 
1511  5.02  3.92  5.63 
1512  4.17  4.01  5.63 
1513  4.53  4.41  5.63 
1514  4.08  4.36  5.63 
1515  4.87  4.61  5.63 
1516  5.20  4.46  5.63 
1517  4.86  4.31  5.63 
1518  4.18  5.37  5.63 
1519  4.10  4.75  5.63 
1520  5.21  4.65  5.63 
1521  4.85  3.92  5.63 
1522  4.67  4.29  5.63 
1523  4.75  4.56  5.63 
1524  4.71  3.58  5.63 
1525  4.75  3.54  5.63 
1526  4.49  3.83  5.63 
1527  4.46  3.90  5.63 
1528  4.85  3.67  5.63 
1529  5.24  3.36  5.63 
1530  4.62  3.54  5.63 
1531  5.14  4.04  5.63 
1532  4.85  3.99  5.63 
1533  4.78  3.93  5.63 
1534  5.22  3.55  5.63 
1535  5.39  3.60  5.63 
1536  3.07  3.78  5.63 
1537  5.02  3.31  5.63 
1538  5.37  3.78  5.63 
1539  4.52  3.43  5.63 
1540  4.94  3.19  5.63 
1541  4.15  3.62  5.63 
1542  3.78  3.46  5.63 
1543  5.43  3.64  5.63 
1544  4.49  3.86  5.63 
1545  4.94  3.82  5.63 
1546  5.14  3.91  5.63 
1547  5.14  3.67  5.63 
1548  4.92  3.80  5.63 
1549  4.85  3.54  5.63 
1550  4.25  3.71  5.63 
1551  4.40  3.74  5.63 
1552  4.60  4.00  5.63 
1553  4.97  3.83  5.63 
1554  5.18  4.45  5.63 
1555  4.80  4.03  5.63 
1556  5.09  3.80  5.63 
1557  4.07  4.76  5.63 
1558  5.18  4.43  5.63 
1559  4.41  4.54  5.63 
1560  4.40  4.41  5.63 
1561  4.84  4.37  5.63 
1562  4.92  4.48  5.63 
1563  4.83  4.69  5.63 
1564  4.37  4.32  5.63 
1565  5.36  4.47  5.63 
1566  5.12  4.78  5.63 
1567  4.22  4.61  5.63 
1568  4.45  4.55  5.63 
1569  4.70  4.64  5.63 
1570  4.34  4.84  5.63 
1571  5.15  4.48  5.63 
1572  4.70  4.62  5.63 
1573  4.50  4.55  5.63 
1574  4.78  4.35  5.63 
1575  3.67  4.57  5.63 
1576  5.03  4.48  5.63 
1577  5.24  4.61  5.63 
1578  4.93  4.65  5.63 
1579  4.33  5.16  5.63 
1580  4.73  4.95  5.63 
1581  5.06  4.30  5.63 
1582  4.37  4.65  5.63 
1583  5.35  4.45  5.63 
1584  4.79  4.97  5.63 
1585  4.14  4.79  5.63 
1586  5.42  4.83  5.63 
1587  4.51  4.53  5.63 
1588  5.25  4.73  5.63 
1589  5.65  4.64  5.63 
1590  4.53  4.90  5.65 
1591  5.22  4.91  5.65 
1592  4.69  5.23  5.65 
1593  4.55  5.05  5.65 
1594  4.71  4.65  5.65 
1595  4.36  4.86  5.65 
1596  4.19  4.71  5.65 
1597  4.60  4.77  5.65 
1598  4.93  4.36  5.65 
1599  5.36  4.63  5.65 
1600  4.71  4.56  5.65 
1601  5.52  4.58  5.65 
1602  4.94  4.42  5.65 
1603  5.27  4.50  5.65 
1604  5.32  4.74  5.65 
1605  5.21  4.86  5.65 
1606  4.06  4.85  5.65 
1607  3.95  4.91  5.65 
1608  4.71  4.94  5.65 
1609  4.95  4.64  5.65 
1610  5.13  5.18  5.65 
1611  5.05  5.04  5.65 
1612  5.29  5.39  5.65 
1613  4.75  5.01  5.65 
1614  5.26  5.00  5.65 
1615  5.00  5.32  5.65 
1616  4.70  4.89  5.65 
1617  5.05  4.99  5.65 
1618  4.97  5.20  5.65 
1619  4.84  5.12  5.65 
1620  5.06  5.51  5.65 
1621  4.82  5.51  5.65 
1622  5.40  5.18  5.65 
1623  5.39  5.41  5.65 
1624  5.33  5.16  5.65 
1625  5.22  5.30  5.65 
1626  5.24  5.41  5.65 
1627  5.40  5.32  5.65 
1628  5.22  5.04  5.65 
1629  4.46  5.00  5.65 
1630  5.49  5.21  5.65 
1631  5.03  5.31  5.65 
1632  4.86  5.33  5.65 
1633  4.99  5.39  5.65 
1634  5.17  5.54  5.65 
1635  4.58  5.09  5.65 
1636  5.24  5.13  5.65 
1637  4.76  5.22  5.65 
1638  5.10  5.16  5.65 
1639  5.28  5.18  5.65 
1640  4.89  5.37  5.65 
1641  4.91  5.59  5.65 
1642  5.21  5.59  5.65 
1643  4.78  5.44  5.65 
1644  4.38  5.34  5.65 
1645  4.57  5.49  5.65 
1646  5.10  5.45  5.65 
1647  5.27  5.44  5.65 
1648  5.37  5.58  5.65 
1649  4.73  5.52  5.65 
1650  5.27  5.45  5.65 
1651  5.20  5.47  5.65 
1652  5.32  5.50  5.65 
1653  4.41  5.58  5.65 
1654  3.64  5.39  5.65 
1655  5.15  5.19  5.65 
1656  4.56  5.42  5.65 
1657  4.57  5.37  5.65 
1658  4.69  5.39  5.65 
1659  4.59  5.70  5.65 
1660  4.62  5.67  5.65 
1661  4.15  5.46  5.65 
1662  5.33  5.37  5.65 
1663  4.89  5.27  5.65 
1664  4.92  5.25  5.65 
1665  4.91  5.40  5.65 
1666  4.61  5.34  5.65 
1667  5.44  5.28  5.65 
1668  4.66  5.39  5.65 
1669  5.62  5.21  5.65 
1670  5.38  5.36  5.65 
1671  5.48  5.21  5.65 
1672  4.85  5.38  5.65 
1673  4.75  5.18  5.65 
1674  4.78  5.23  5.65 
1675  5.48  5.26  5.65 
1676  4.03  5.38  5.65 
1677  5.01  5.13  5.65 
1678  5.40  5.24  5.65 
1679  4.52  5.35  5.65 
1680  5.39  5.54  5.65 
1681  5.06  5.35  5.65 
1682  5.36  5.44  5.65 
1683  5.25  5.35  5.65 
1684  5.23  5.38  5.65 
1685  5.48  5.13  5.65 
1686  4.37  5.27  5.65 
1687  3.97  5.22  5.65 
1688  5.03  4.92  5.65 
1689  3.88  4.90  5.65 
1690  4.73  4.78  5.65 
1691  5.61  4.86  5.65 
1692  4.49  4.78  5.65 
1693  4.74  4.95  5.65 
1694  5.53  4.92  5.65 
1695  4.81  5.03  5.65 
1696  4.95  5.01  5.65 
1697  4.85  5.18  5.65 
1698  3.96  5.10  5.65 
1699  4.76  5.22  5.65 
1700  4.79  5.28  5.65 
1701  5.73  5.19  5.65 
1702  5.39  4.97  5.73 
1703  5.59  5.03  5.73 
1704  4.91  5.14  5.73 
1705  4.74  4.93  5.73 
1706  5.50  4.98  5.73 
1707  4.63  5.23  5.73 
1708  4.83  5.43  5.73 
1709  5.31  5.14  5.73 
1710  4.23  5.06  5.73 
1711  4.93  5.25  5.73 
1712  4.88  5.13  5.73 
1713  4.61  5.52  5.73 
1714  4.72  5.44  5.73 
1715  5.39  5.36  5.73 
1716  4.45  5.40  5.73 
1717  4.61  5.31  5.73 
1718  4.03  5.06  5.73 
1719  4.86  5.16  5.73 
1720  5.28  5.40  5.73 
1721  5.26  5.14  5.73 
1722  5.45  5.22  5.73 
1723  5.19  5.17  5.73 
1724  5.46  5.19  5.73 
1725  4.56  5.33  5.73 
1726  4.01  5.39  5.73 
1727  4.14  5.32  5.73 
1728  4.49  5.45  5.73 
1729  5.07  5.35  5.73 
1730  4.77  5.21  5.73 
1731  4.68  5.47  5.73 
1732  5.07  5.55  5.73 
1733  5.21  5.39  5.73 
1734  5.55  5.30  5.73 
1735  5.39  5.33  5.73 
1736  4.21  5.48  5.73 
1737  5.01  5.49  5.73 
1738  4.75  5.32  5.73 
1739  4.91  5.50  5.73 
1740  5.32  5.60  5.73 
1741  5.23  5.68  5.73 
1742  4.42  5.71  5.73 
1743  4.26  5.59  5.73 
1744  4.70  5.77  5.73 
1745  4.89  5.76  5.73 
1746  5.20  5.73  5.73 
1747  5.21  5.74  5.73 
1748  5.38  5.83  5.73 
1749  4.96  5.76  5.73 
1750  4.89  5.53  5.73 
1751  5.13  5.76  5.73 
1752  5.00  5.69  5.73 
1753  5.27  5.62  5.73 
1754  5.60  5.81  5.73 
1755  5.67  5.66  5.73 
1756  4.03  5.71  5.73 
1757  5.12  5.77  5.73 
1758  4.80  5.64  5.73 
1759  4.67  5.61  5.73 
1760  5.31  5.66  5.73 
1761  4.74  5.76  5.73 
1762  2.62  5.46  5.73 
1763  4.34  5.43  5.73 
1764  5.25  5.77  5.73 
1765  3.31  5.58  5.73 
1766  4.96  5.43  5.73 
1767  4.88  5.23  5.73 
1768  5.63  5.62  5.73 
1769  5.38  5.56  5.73 
1770  4.17  5.80  5.73 
1771  5.08  5.58  5.73 
1772  4.96  5.79  5.73 
1773  5.25  5.84  5.73 
1774  3.67  5.71  5.73 
1775  5.26  5.79  5.73 
1776  5.71  5.62  5.73 
1777  5.00  6.02  5.73 
1778  4.30  5.76  5.73 
1779  4.18  5.78  5.73 
1780  4.22  5.68  5.73 
1781  5.52  5.82  5.73 
1782  4.46  5.58  5.73 
1783  5.11  5.77  5.73 
1784  5.31  5.69  5.73 
1785  4.93  5.61  5.73 
1786  5.62  5.78  5.73 
1787  5.13  5.29  5.73 
1788  4.81  5.29  5.73 
1789  5.15  5.77  5.73 
1790  4.23  5.45  5.73 
1791  4.12  5.63  5.73 
1792  5.70  5.45  5.73 
1793  5.63  5.55  5.73 
1794  5.18  5.70  5.73 
1795  4.83  5.62  5.73 
1796  4.61  5.44  5.73 
1797  5.56  5.92  5.73 
1798  4.52  5.47  5.73 
1799  5.21  5.41  5.73 
1800  4.84  5.49  5.73 
1801  5.30  5.20  5.73 
1802  4.84  5.45  5.73 
1803  5.48  5.44  5.73 
1804  5.39  5.71  5.73 
1805  4.96  5.35  5.73 
1806  5.14  5.49  5.73 
1807  5.06  5.17  5.73 
1808  5.30  5.02  5.73 
1809  3.47  5.05  5.73 
1810  3.50  5.34  5.73 
1811  4.88  5.38  5.73 
1812  4.20  5.34  5.73 
1813  4.80  5.26  5.73 
1814  4.74  5.07  5.73 
1815  4.19  5.21  5.73 
1816  5.12  5.08  5.73 
1817  4.21  5.21  5.73 
1818  5.51  5.45  5.73 
1819  4.98  5.54  5.73 
1820  5.23  5.27  5.73 
1821  4.66  5.30  5.73 
1822  5.08  5.27  5.73 
1823  4.62  5.34  5.73 
1824  4.74  5.63  5.73 
1825  4.86  5.38  5.73 
1826  5.30  5.20  5.73 
1827  5.57  5.46  5.73 
1828  5.10  5.41  5.73 
1829  4.72  5.40  5.73 
1830  4.15  5.25  5.73 
1831  5.09  5.12  5.73 
1832  5.16  5.38  5.73 
1833  5.10  5.14  5.73 
1834  5.28  5.00  5.73 
1835  4.42  4.77  5.73 
1836  5.33  4.68  5.73 
1837  4.89  4.54  5.73 
1838  4.74  5.22  5.73 
1839  4.88  5.01  5.73 
1840  5.25  4.82  5.73 
1841  5.01  5.25  5.73 
1842  4.48  5.28  5.73 
1843  4.90  5.34  5.73 
1844  5.29  5.16  5.73 
1845  4.60  5.46  5.73 
1846  3.96  5.07  5.73 
1847  5.13  5.50  5.73 
1848  4.85  5.30  5.73 
1849  5.12  5.25  5.73 
1850  4.76  5.10  5.73 
1851  5.24  5.14  5.73 
1852  5.29  4.89  5.73 
1853  4.42  5.27  5.73 
1854  5.00  5.11  5.73 
1855  4.46  5.03  5.73 
1856  4.07  5.22  5.73 
1857  4.77  5.09  5.73 
1858  5.15  5.42  5.73 
1859  4.80  5.42  5.73 
1860  5.09  5.26  5.73 
1861  5.56  5.31  5.73 
1862  4.39  5.46  5.73 
1863  5.18  5.48  5.73 
1864  5.61  5.39  5.73 
1865  5.11  5.50  5.73 
1866  5.15  5.61  5.73 
1867  5.24  5.62  5.73 
1868  4.50  5.52  5.73 
1869  5.37  5.38  5.73 
1870  4.59  5.62  5.73 
1871  5.45  5.52  5.73 
1872  4.64  5.28  5.73 
1873  4.71  5.17  5.73 
1874  5.65  5.44  5.73 
1875  5.26  5.16  5.73 
1876  5.19  5.23  5.73 
1877  4.57  5.31  5.73 
1878  3.66  4.80  5.73 
1879  4.86  5.14  5.73 
1880  4.76  4.84  5.73 
1881  4.86  4.67  5.73 
1882  4.91  4.93  5.73 
1883  4.44  4.78  5.73 
1884  5.21  4.37  5.73 
1885  4.43  4.84  5.73 
1886  5.47  4.86  5.73 
1887  5.09  5.05  5.73 
1888  4.67  5.25  5.73 
1889  5.23  5.26  5.73 
1890  4.32  5.24  5.73 
1891  4.35  5.27  5.73 
1892  4.59  5.22  5.73 
1893  3.15  5.06  5.73 
1894  4.90  5.02  5.73 
1895  4.29  5.14  5.73 
1896  5.26  4.85  5.73 
1897  5.19  5.06  5.73 
1898  5.54  4.88  5.73 
1899  4.38  5.19  5.73 
1900  4.88  5.14  5.73 
1901  5.25  5.19  5.73 
1902  4.69  5.20  5.73 
1903  4.99  5.19  5.73 
1904  4.69  4.96  5.73 
1905  3.69  5.55  5.73 
1906  5.75  5.44  5.73 
1907  5.13  5.24  5.75 
1908  4.35  5.47  5.75 
1909  4.86  5.44  5.75 
1910  4.33  5.40  5.75 
1911  5.07  5.48  5.75 
1912  4.64  5.74  5.75 
1913  4.50  5.53  5.75 
1914  5.21  5.17  5.75 
1915  5.23  5.05  5.75 
1916  4.96  5.45  5.75 
1917  3.42  5.32  5.75 
1918  5.07  5.39  5.75 
1919  4.54  5.39  5.75 
1920  5.35  5.62  5.75 
1921  3.22  5.63  5.75 
1922  5.17  5.44  5.75 
1923  4.94  5.72  5.75 
1924  4.59  5.32  5.75 
1925  4.45  5.00  5.75 
1926  5.33  5.09  5.75 
1927  4.44  5.07  5.75 
1928  5.16  5.17  5.75 
1929  4.26  5.29  5.75 
1930  5.62  5.43  5.75 
1931  5.22  5.36  5.75 
1932  3.61  5.14  5.75 
1933  4.24  5.12  5.75 
1934  4.50  5.07  5.75 
1935  5.10  5.25  5.75 
