iteration,time_sampling,stoc_pol_mean,stoc_pol_std,stoc_pol_max,stoc_pol_min,rollout_success,alpha,delta,time_vpg,time_npg,kl_dist,surr_improvement,running_score,rwd_sparse,rwd_dense,success_percentage,num_samples,time_VF,VF_error_before,VF_error_after,env_samples,eval_score,eval_success
0,1.2457363605499268,0.010762005485589168,0.004070707860272136,0.01763972317369579,0.00755339835096318,0.0,0.13658225067966895,0.1,0.01353311538696289,0.05582404136657715,0.053939525,1.7323269,0.010762005485589168,0.0,0.00021433121833399523,0.0,200,0.01709461212158203,28.225668095774335,9.90221553510562,200,0.009721327716706352,0.0
1,1.170978307723999,0.011820742444126462,0.002949549319432927,0.016031148292674623,0.008314024396849,0.0,0.14261821149679133,0.1,0.0027420520782470703,0.6962449550628662,0.05553251,1.2297958,0.010867879181442898,0.0,0.00023355304267333156,0.0,200,0.03522968292236328,9.674525865410283,1.0597556948487834,400,0.007559267532817057,0.0
2,1.1996221542358398,0.008968945554387285,0.003941486975943105,0.01458915063027523,0.0034783036724446736,0.0,0.1566410689204563,0.1,0.003803730010986328,0.07293963432312012,0.050196208,0.8753598,0.010677985818737336,0.0,0.00017935243987384904,0.0,200,0.01837015151977539,1.789327443189349,5.463924774174635,600,0.00629367643228275,0.0
3,1.2031402587890625,0.014414452264002075,0.00979452789058459,0.031201378089194175,0.006538561299977767,0.0,0.14510489343931396,0.1,0.0035407543182373047,0.07702493667602539,0.055655785,1.274603,0.01105163246326381,0.0,0.00028728490282567485,0.0,200,0.03235793113708496,2.3619153658668672,0.5696087359902668,800,0.009127373271766059,0.0
4,1.2444372177124023,0.013499665821494741,0.0056671507185032,0.023313853266091415,0.010124128781681724,0.0,0.15098410798850354,0.1,0.002894163131713867,0.056554317474365234,0.049251948,1.059106,0.011296435799086903,0.0,0.0002676498212286183,0.0,200,0.11423826217651367,0.440376493690656,1.3732207731899098,1000,0.009858619802172642,0.0
5,1.2073488235473633,0.011483477661078599,0.0030101019695728906,0.0165957984974227,0.00894782133314908,0.0,0.14653046007715484,0.1,0.004246234893798828,0.05684256553649902,0.049221527,1.3948787,0.011315139985286073,0.0,0.00022805240150865872,0.0,200,0.05484938621520996,2.4481627607071488,0.31957076998051404,1200,0.010634857276410026,0.0
6,1.268040657043457,0.01386713980653585,0.005652752818470943,0.020794448518606123,0.008095456004904168,0.0,0.15163642450564227,0.1,0.0037136077880859375,0.07292366027832031,0.05261614,0.93400514,0.011570339967411051,0.0,0.00028053488629434107,0.0,200,0.05516242980957031,0.3719529910206042,0.7678483641248492,1400,0.015905101129968752,0.0
7,1.1982421875,0.01144925506334804,0.005814155456083513,0.021379451036015396,0.006903131786064781,0.0,0.14428587986914138,0.1,0.0030002593994140625,0.05493450164794922,0.05085305,1.2004243,0.01155823147700475,0.0,0.00022419036864581898,0.0,200,0.14441442489624023,0.7767733310890667,0.4111766498205005,1600,0.027176841342742925,0.0
8,1.2434868812561035,0.02294071629316527,0.024159673677763973,0.06449292522631878,0.00578649144913538,0.0,0.14296930931181806,0.1,0.004245281219482422,0.0574491024017334,0.048473343,1.6815782,0.012696479958620803,0.0,0.0004530647575816816,0.0,200,0.16389989852905273,0.8167363583202929,0.6256766049859304,1800,0.028854677896194447,0.0
9,1.1989109516143799,0.01389539900596717,0.0092394612580531,0.029759942278074356,0.007497584152653971,0.0,0.14795441050576047,0.1,0.0032732486724853516,0.0585322380065918,0.05132931,1.4313309,0.01281637186335544,0.0,0.0002757953916902317,0.0,200,0.10036754608154297,0.9271906386295993,0.8371992573665069,2000,0.036166119633483866,0.0
10,1.2304306030273438,0.03650141941452764,0.041204621155733714,0.1071089313620216,0.005903512554065232,0.0,0.15191985457976812,0.1,0.0045108795166015625,0.05691814422607422,0.048580147,1.6472467,0.01518487661847266,0.0,0.0007319104520557816,0.0,200,0.06394696235656738,0.7047194482263075,0.6774610601259214,2200,0.017708995825949793,0.0
11,1.243788242340088,0.029764573440905093,0.020314926668522984,0.055031253606339946,0.004964391409611897,0.0,0.1411090907246248,0.1,0.09904909133911133,0.17944908142089844,0.050744496,2.8602915,0.016642846300715906,0.0,0.000588922265454532,0.0,200,0.09885382652282715,0.4381521404115709,0.42636508914022125,2400,0.017947151995479867,0.0
12,1.2793879508972168,0.019634760950051892,0.011855117231937395,0.03966710449975826,0.009306273651637888,0.0,0.14964295097299285,0.1,0.0031533241271972656,0.055353403091430664,0.048685886,1.2954361,0.016942037765649506,0.0,0.00039296836367682856,0.0,200,0.06000852584838867,0.8903218580284141,0.37804791946974686,2600,0.0209878709773703,0.0
13,1.2602365016937256,0.020855691844702987,0.02121574000351641,0.05649411144141449,0.0036198858163503335,0.0,0.1407628491738381,0.1,0.003876209259033203,0.07280254364013672,0.048905678,1.5745872,0.017333403173554855,0.0,0.0004179553178760353,0.0,200,0.04716610908508301,0.6425241393290682,0.7114967197264987,2800,0.025408210806445605,0.0
14,1.2579619884490967,0.09088514912923643,0.12427310036573677,0.3059908994367842,0.014735885934948862,0.0,0.1396681208229017,0.1,0.003010272979736328,0.0583796501159668,0.051126238,1.6575174,0.02468857776912301,0.0,0.0018198663408944573,0.0,200,0.08773326873779297,0.9343629862091468,0.750502517322855,3000,0.023697774553331285,0.0
15,1.3009858131408691,0.01625663855565372,0.002096356647112274,0.017978725974894954,0.012739215525073922,0.0,0.13969645108400455,0.1,0.004492282867431641,0.054060935974121094,0.051269773,1.1967278,0.023845383847776083,0.0,0.0003242241821271277,0.0,200,0.08227968215942383,8.603122282489073,12.423460336831601,3200,0.02398623674042456,0.0
16,1.293200969696045,0.02980458926413005,0.03432107403085802,0.08882118093256491,0.0035231093029378423,0.0,0.1405491025539931,0.1,0.0028839111328125,0.05582237243652344,0.04923478,1.8694626,0.02444130438941148,0.0,0.0005890093841240003,0.0,200,0.026126384735107422,1.3094967633833305,0.6735001816718348,3400,0.05959866250522037,0.0
17,1.2807645797729492,0.028098673689841532,0.012733542615751514,0.041954300797624855,0.014453646729214313,0.0,0.1435670608936586,0.1,0.09497308731079102,0.4740781784057617,0.05056243,1.1178288,0.024807041319454486,0.0,0.0005714571358974355,0.0,200,0.07676434516906738,0.533459380161737,0.4924564584213956,3600,0.04151468274796535,0.0
18,1.277493953704834,0.05934545404719859,0.03976553706196853,0.12137905324988194,0.010471721247093144,0.0,0.14011083936439378,0.1,0.09926915168762207,0.24034547805786133,0.051367097,1.6656272,0.0282608825922289,0.0,0.0011855123399748377,0.0,200,0.017581939697265625,0.7611059957093526,0.7300237456183729,3800,0.029165678036135016,0.0
19,1.336333990097046,0.02371018699222883,0.011453845034870078,0.04239143457451361,0.012673314104794938,0.0,0.13969775105084,0.1,0.003070831298828125,0.055916786193847656,0.048978463,1.6061429,0.027805813032228892,0.0,0.00047382538690459754,0.0,200,0.16702032089233398,0.434091120046392,0.37886637759574,4000,0.025993083801233875,0.0
20,1.3150112628936768,0.0359345047065273,0.0239491578827406,0.07448965544558521,0.011905026528809773,0.0,0.14656582546939975,0.1,0.003086566925048828,0.05577421188354492,0.049864843,1.148794,0.028618682199658733,0.0,0.0007093669158514669,0.0,200,0.0439760684967041,0.4754904358067554,0.43823210536887164,4200,0.026729664654351892,0.0
21,1.2766482830047607,0.031173170872208878,0.024096869022666362,0.06786793691439852,0.005512266109128578,0.0,0.1384393382268607,0.1,0.09739923477172852,0.35719847679138184,0.05015034,1.7619412,0.02887413106691375,0.0,0.0006197399400600812,0.0,200,0.11872553825378418,0.5559162995762873,0.6105655386309757,4400,0.041247700320137755,0.0
22,1.292375087738037,0.16523992432360013,0.1563358254100023,0.39930096840020546,0.007035242392679762,0.0,0.14071002683969094,0.1,0.0028312206268310547,0.05430173873901367,0.050765563,1.7459778,0.04251071039258239,0.0,0.0033047895929504845,0.0,200,0.1615586280822754,0.8240766504981806,0.7021056246732594,4600,0.05793392959780497,0.0
23,1.3076274394989014,0.03312859630130086,0.0221879616718221,0.05648123310571838,0.006767840469337862,0.0,0.14297763604018723,0.1,0.004630327224731445,0.05876731872558594,0.048989937,1.1167582,0.04157249898345424,0.0,0.0006503611382654464,0.0,200,0.11849737167358398,1.9517431165356347,3.3402315857873024,4800,0.05366664445260964,0.0
24,1.24391770362854,0.0630973904889096,0.049116718786779125,0.14291639676807594,0.015215963270913322,0.0,0.13394086657436893,0.1,0.005278825759887695,0.060506582260131836,0.049558695,2.0617847,0.04372498813399978,0.0,0.0012528966590636275,0.0,200,0.06356644630432129,0.6497449111470692,0.5290039702024365,5000,0.060747977513531635,0.0
25,1.3030986785888672,0.024109927816825503,0.014221167132064737,0.04816828456876222,0.012804765676405589,0.0,0.145335589069822,0.1,0.09581995010375977,0.0880579948425293,0.050323755,2.4395037,0.04176348210228236,0.0,0.00047991268195257295,0.0,200,0.02258610725402832,5.142649575780912,1.1063262056647933,5200,0.08080746209976587,0.0
26,1.2517187595367432,0.02463802971319109,0.013503702176188874,0.04149852776049343,0.008951549791530344,0.0,0.14255440435091998,0.1,0.10143733024597168,0.3087327480316162,0.049366258,0.97239554,0.040050936863373236,0.0,0.0004825001318554909,0.0,200,0.16121315956115723,0.9039031162775519,0.5319882529108624,5400,0.10000289040503696,0.0
27,1.2764153480529785,0.01643581101685235,0.006091746274892992,0.025704208485584478,0.009572442160143671,0.0,0.13789912654140818,0.1,0.0039861202239990234,0.07099771499633789,0.04946642,2.1128993,0.03768942427872115,0.0,0.00032936160197180456,0.0,200,0.06640863418579102,0.24301565469377265,1.3468829174732573,5600,0.14369388079815532,0.0
28,1.246100664138794,0.04800684741129847,0.03922667297953822,0.09661042058245081,0.009305972631637977,0.0,0.13050267629810863,0.1,0.007633686065673828,0.057917118072509766,0.048002567,1.7698001,0.038721166591978884,0.0,0.0009637665182717099,0.0,200,0.06473731994628906,1.0903671788272786,0.8313201760901665,5800,0.11489758161239823,0.0
29,1.2790238857269287,0.026880099849351753,0.015224126434165196,0.041823732465205474,0.007360835337013627,0.0,0.14434153639917385,0.1,0.0030808448791503906,0.05571413040161133,0.050508857,1.0787725,0.03753705991771617,0.0,0.000536028824246527,0.0,200,0.1617598533630371,0.6173907729091775,0.4031517417751724,6000,0.13277282001868487,0.0
30,1.263936996459961,0.11551158896529307,0.08681895749370178,0.22383853567111475,0.008079658455922416,0.0,0.14008858764014268,0.1,0.005043745040893555,0.05689835548400879,0.04894817,1.1261952,0.04533451282247386,0.0,0.0023116643158569,0.0,200,0.01906752586364746,0.8205775422413206,0.6840627360522067,6200,0.159758295321598,0.0
31,1.2757360935211182,0.03757253805865385,0.015534843691296202,0.05847899563300343,0.016929487642206833,0.0,0.13940689977996665,0.1,0.003092527389526367,0.05556631088256836,0.049744073,0.849166,0.04455831534609186,0.0,0.0007493668330135817,0.0,200,0.04151344299316406,0.510526201206034,0.9760399895903972,6400,0.1648776619860866,0.0
32,1.423194169998169,0.03292465892550937,0.018147699860223264,0.0643496948495942,0.02186637505383057,0.0,0.14229245253478517,0.1,0.09625411033630371,0.3390228748321533,0.04963481,1.0840733,0.04339494970403361,0.0,0.0006479798554000146,0.0,200,0.014651775360107422,1.4025054510846007,1.2996381258056298,6600,0.12640928145679978,0.0
33,1.3583734035491943,0.06898935890198635,0.04032303682089892,0.12904839596745538,0.015362786372425958,0.0,0.14679742373560373,0.1,0.0048787593841552734,0.06232285499572754,0.049564417,0.8912158,0.04595439062382889,0.0,0.0013771768538467196,0.0,200,0.16412687301635742,0.4541208286344573,0.45852305827784035,6800,0.15740955463896728,0.0
34,1.3188002109527588,0.04591196069193412,0.033657416996328265,0.10264430837797957,0.014718855087672901,0.0,0.13645794446585188,0.1,0.0031404495239257812,0.06039786338806152,0.050242793,2.054693,0.04595014763063941,0.0,0.0009161268231764004,0.0,200,0.07484793663024902,0.5991793313939032,0.536439519268503,7000,0.10317778257387618,0.0
35,1.2924821376800537,0.07656602160499676,0.06401565719201545,0.1555116006760954,0.011875613744948482,0.0,0.144962201308299,0.1,0.003560781478881836,0.05487370491027832,0.049347796,1.0766515,0.04901173502807515,0.0,0.0015287695688508969,0.0,200,0.1622164249420166,0.5949236662120743,0.5947734096044623,7200,0.13309754946085597,0.0
36,1.3076903820037842,0.06760353140016902,0.058796291226443184,0.16493454957767537,0.016450878218088175,0.0,0.14111762592862367,0.1,0.01104736328125,0.06139683723449707,0.049664106,1.7770349,0.05087091466528454,0.0,0.001349972550782432,0.0,200,0.16533565521240234,0.5851339214162405,0.5638434763993863,7400,0.11943984451279416,0.0
37,1.3324637413024902,0.03219947243066222,0.014061997234802202,0.05565379085723872,0.018917731325572187,0.0,0.14788634267929593,0.1,0.004820585250854492,0.054151058197021484,0.04925658,0.88635147,0.04900377044182231,0.0,0.0006272359508192092,0.0,200,0.030858993530273438,0.8635943775712329,0.7914659559468714,7600,0.17326885430122682,0.0
38,1.5100488662719727,0.10443410211836747,0.06534104124226758,0.19703593401654543,0.013613736536571825,0.0,0.14418574294219572,0.1,0.0028939247131347656,0.059203147888183594,0.04835544,1.5209273,0.05454680360947683,0.0,0.0020873126590530413,0.0,200,0.0977773666381836,0.5489557934383461,0.5035495850127507,7800,0.16734105891789045,0.0
39,1.3442869186401367,0.05686514372664933,0.04162815721847728,0.11100905478568143,0.014565918555902954,0.0,0.14109831339011175,0.1,0.0030794143676757812,0.06367993354797363,0.05018363,1.1263334,0.05477863762119407,0.0,0.001136677632661743,0.0,200,0.03218650817871094,0.5411565059700609,0.5822529500258374,8000,0.17819026153971787,0.0
40,1.2761259078979492,0.0718149015731808,0.0517249297832449,0.15104149328129604,0.009774575068374487,0.0,0.14576948140369642,0.1,0.09950828552246094,0.22868967056274414,0.050670255,1.2933329,0.056482264016392746,0.0,0.0014289772051310642,0.0,200,0.023404598236083984,0.4669347567251606,0.4556866872256549,8200,0.21878436650589128,0.0
41,1.3059298992156982,0.1498542517488783,0.07090827998553245,0.2473223751756145,0.07028124114412104,0.0,0.13289845286511123,0.1,0.00400233268737793,0.07096362113952637,0.050472632,2.1681666,0.06581946278964129,0.0,0.0029921788964079802,0.0,200,0.10711288452148438,0.5071319077958991,0.3882329682291521,8400,0.23056815222078764,0.0
42,1.3030457496643066,0.042951903129960604,0.006046234241050731,0.05187180005275482,0.03558306827897778,0.0,0.15261463217073315,0.1,0.0031843185424804688,0.057074785232543945,0.04990556,0.80019045,0.06353270682367322,0.0,0.0008585128851544372,0.0,200,0.16604018211364746,1.5964624377808665,1.8536926356501555,8600,0.19480058418055438,0.0
43,1.2755811214447021,0.3253006694166423,0.39631365732045887,1.0046499666304547,0.032422918524954956,0.0,0.13923085314635197,0.1,0.09614872932434082,0.12550711631774902,0.050226264,3.6250162,0.08970950308297013,0.0,0.006490229313170056,0.0,200,0.059995412826538086,0.8223526101574107,0.7551913104779225,8800,0.21974977464415135,0.0
44,1.2884044647216797,0.18349680531937085,0.15648019640747501,0.44158675224974797,0.01945611423880806,0.0,0.15256622182622898,0.1,0.003008127212524414,0.05503439903259277,0.05047317,1.3394494,0.09908823330661021,0.0,0.003663513126568741,0.0,200,0.1660776138305664,0.5617551144896905,0.5732726956618873,9000,0.13127385653295026,0.0
45,1.317556381225586,0.06711075504764813,0.04778010760978826,0.14863171808119524,0.02915449874553202,0.0,0.13852392900243296,0.1,0.006130695343017578,0.12845063209533691,0.050670434,1.2590717,0.095890485480714,0.0,0.0013329122379070997,0.0,200,0.1683187484741211,3.875084373267833,2.3213499978490146,9200,0.17709529963646872,0.0
46,1.366377592086792,0.07970605847260745,0.05058273301973016,0.15857769960064239,0.02456232939699213,0.0,0.14415801450431928,0.1,0.004917621612548828,0.05711817741394043,0.04956821,1.0984856,0.09427204277990334,0.0,0.0015878644947038031,0.0,200,0.01877903938293457,1.2297893095937948,0.40863180945178856,9400,0.20477979325325357,0.0
47,1.355879545211792,0.1023761572298093,0.05999505298774463,0.17446916524399195,0.02386760868511536,0.0,0.13324841177569954,0.1,0.003236055374145508,0.05597043037414551,0.048873372,1.3535128,0.09508245422489393,0.0,0.0019620765718499997,0.0,200,0.032045841217041016,0.3460378073830177,0.4574820191414111,9600,0.2262493486510461,0.0
48,1.3701586723327637,0.1485154650229636,0.13119417829961888,0.3629224853561975,0.030092622247247076,0.0,0.1367364009404614,0.1,0.0032634735107421875,0.05465102195739746,0.04976204,1.8107132,0.10042575530470091,0.0,0.00297083291200401,0.0,200,0.03695487976074219,0.6218298320727915,0.5819207187961574,9800,0.1914575371073126,0.0
49,1.3405091762542725,0.16245820868277036,0.1472215164850526,0.41512147617201833,0.053227006964743216,0.0,0.14415518611703432,0.1,0.09881591796875,0.22150397300720215,0.049330775,1.3923173,0.10662900064250787,0.0,0.003243427903773709,0.0,200,0.01489567756652832,0.6455026985096023,0.5763229150369898,10000,0.17994482750544857,0.0
50,1.3375709056854248,0.04724387436701237,0.02238179808894332,0.08526191906404715,0.02747613410131614,0.0,0.1381732703837004,0.1,0.002918243408203125,0.0936574935913086,0.049800176,1.0854225,0.10069048801495832,0.0,0.0009408129449408059,0.0,200,0.1655118465423584,1.5192908633507243,1.9550510957368774,10200,0.15574367790415725,0.0
51,1.4135692119598389,0.07791664673449206,0.005169482743823413,0.08376869424330115,0.0722184108565252,0.0,0.14171053874919454,0.1,0.0044629573822021484,0.05552053451538086,0.049755335,1.528331,0.0984131038869117,0.0,0.001549828677497117,0.0,200,0.025022506713867188,0.36866386813729013,0.28204327675120533,10400,0.1489497697382776,0.0
52,1.3165583610534668,0.13526919383493363,0.09491402275660556,0.27560189117219475,0.01578828197770501,0.0,0.13324412511752126,0.1,0.004688739776611328,0.054672956466674805,0.050108377,1.5090666,0.10209871288171389,0.0,0.002704675312212088,0.0,200,0.08354783058166504,0.4394309627339728,0.4405505789693365,10600,0.30643381964312544,0.0
53,1.3371057510375977,0.19503264544685633,0.1687464741168655,0.4535892045795433,0.01441642972449009,0.0,0.13963803555219098,0.1,0.1014716625213623,0.29094886779785156,0.049609333,2.0538752,0.11139210613822814,0.0,0.0038941663076452063,0.0,200,0.02223658561706543,0.620651032039169,0.5942377227798096,10800,0.48321036108015347,0.0
54,1.3439440727233887,0.228587448201583,0.09394801629521671,0.2922378462104587,0.06686506990632907,0.0,0.14188754990936228,0.1,0.10387706756591797,0.6008017063140869,0.049579207,0.93711305,0.12311164034456364,0.0,0.004542447233631765,0.0,200,0.021603107452392578,0.43521116623182043,0.3334990484418037,11000,0.5325414623817277,0.0
55,1.3952994346618652,0.11458764120907483,0.06883468198115773,0.22962635032507664,0.05108439717689633,0.0,0.13362292514985155,0.1,0.005090475082397461,0.6799418926239014,0.04975539,1.878413,0.12225924043101476,0.0,0.002274722213260217,0.0,200,0.0633537769317627,0.3861006754709743,0.5106461002096717,11200,0.5003162054723018,0.0
56,1.346618413925171,0.13516912707849915,0.13023023424756613,0.33644252096325356,0.018038136161173866,0.0,0.13405519190584675,0.1,0.005608320236206055,0.09942984580993652,0.050059035,1.3107127,0.12355022909576319,0.0,0.0026535362462713763,0.0,200,0.1652991771697998,0.5208167196509556,0.5164555461318501,11400,0.5553081933560723,0.0
57,1.3608663082122803,0.2400581839811013,0.3483491688814755,0.842594777456058,0.017035507535067065,0.0,0.13926432705987088,0.1,0.051522016525268555,0.0552978515625,0.050215803,1.8414502,0.135201024584297,0.0,0.004771560349927366,0.0,200,0.05138969421386719,0.7291983369406975,0.7160818768034866,11600,0.5653402760410272,0.0
58,1.778928518295288,0.20042129948030946,0.13033628360665764,0.34294907205007824,0.054911377510606124,0.0,0.13654360786781514,0.1,0.09908342361450195,0.38193464279174805,0.049522627,1.5722754,0.14172305207389824,0.0,0.004008887952090282,0.0,200,0.019920825958251953,0.3852402029325772,0.3664212494139421,11800,0.5333051850626043,0.0
59,1.2614881992340088,0.19044893835350823,0.13789204210726982,0.4150951790245511,0.03910828259489164,0.0,0.1423827198335058,0.1,0.09934091567993164,0.32357215881347656,0.051028717,1.7351362,0.14659564070185924,0.0,0.0037979718817328827,0.0,200,0.028313875198364258,0.4503820565060718,0.426142530543953,12000,0.6242607675182449,0.0
60,1.2779865264892578,0.085620144547658,0.04817560196209799,0.15740000920112412,0.02207196489492702,0.0,0.13300888755778362,0.1,0.0030367374420166016,0.05504655838012695,0.05004741,0.82329094,0.1404980910864391,0.0,0.0017111161214223556,0.0,200,0.04344367980957031,1.6868079241327467,0.7878009961563207,12200,0.549324066182841,0.0
61,1.3490025997161865,0.1830847833780968,0.08807817023358568,0.33101583944708596,0.11482181971407737,0.0,0.13368126278893147,0.1,0.10275554656982422,0.08623981475830078,0.049264085,1.2996209,0.1447567603156049,0.0,0.0036595670347225762,0.0,200,0.0458674430847168,0.2846942421669246,0.32772390315982564,12400,0.550454988846474,0.0
62,1.3126180171966553,0.2314219500143972,0.04985018262919084,0.2922257887488083,0.15544970021270757,0.0,0.12987230351828352,0.1,0.01894402503967285,0.07103419303894043,0.0497367,1.2381967,0.1534232792854841,0.0,0.004631085328300269,0.0,200,0.018711566925048828,0.2729743492938565,0.16668905175279852,12600,0.6197721078572331,0.0
63,1.3229970932006836,0.3936275874373116,0.4032614998575789,1.0870464282574186,0.1046253294733455,0.0,0.13755685319721,0.1,0.09764599800109863,0.1776103973388672,0.04897135,1.8167461,0.17744371010066687,0.0,0.00785188258291024,0.0,200,0.0239713191986084,0.7130356606758249,0.6311188726260742,12800,0.6198625569377816,0.0
64,1.331571340560913,0.1254920304130085,0.053855962535069545,0.17729617555811705,0.03562482080985151,0.0,0.13253004795739276,0.1,0.09835600852966309,0.3007183074951172,0.049621996,1.3882083,0.17224854213190105,0.0,0.0024323329598501175,0.0,200,0.04857015609741211,0.7997170025737425,1.2738165100214869,13000,0.5292056523176608,0.0
65,1.3404872417449951,0.444178868564343,0.2102261486183907,0.581309734819663,0.08133923184941697,0.0,0.13861679622754997,0.1,0.0029001235961914062,0.547374963760376,0.050173268,0.9341904,0.19944157477514526,0.0,0.008879976385912612,0.0,200,0.037290096282958984,0.36439700256314006,0.3184261455934651,13200,0.8215748516456269,0.0
66,1.3637499809265137,0.38465339787233194,0.14295233248076936,0.6224432817853237,0.24473490617077964,0.0,0.13658130304057495,0.1,0.09361624717712402,0.5045387744903564,0.049739756,1.4275143,0.21796275708486396,0.0,0.007686224865629797,0.0,200,0.04392719268798828,0.2615347754487705,0.23703532570061894,13400,0.5311547079183944,0.0
67,1.358611822128296,0.5582905597112918,0.518188732890933,1.2227710006455852,0.047447734672772315,0.0,0.1379743004759108,0.1,0.0030465126037597656,0.05593681335449219,0.04940939,1.1789942,0.25199553734750674,0.0,0.011153428724369004,0.0,200,0.09277772903442383,0.5647007408494219,0.5093177496836807,13600,0.4291659276001984,0.0
68,1.3773751258850098,0.3272809580586716,0.2957969955131114,0.8344763981916489,0.12321941091665779,0.0,0.14275011252885728,0.1,0.0030777454376220703,0.05437731742858887,0.049937066,1.1318187,0.2595240794186232,0.0,0.006544366543909563,0.0,200,0.04706072807312012,0.6763664245322506,0.6172621400094619,13800,0.4197552082759526,0.0
69,1.3671529293060303,0.32631973940399395,0.25131909406691405,0.6981231337562274,0.019132937761514347,0.0,0.1335766463849992,0.1,0.031206130981445312,0.05769801139831543,0.050488964,1.2480648,0.2662036454171603,0.0,0.006468045478173299,0.0,200,0.02627253532409668,0.488648502938554,0.410590672380557,14000,0.33535912450768574,0.0
70,1.4266142845153809,0.46591633011861394,0.6138338528186132,1.5197370362437521,0.035346122411965435,0.0,0.12684749464350153,0.1,0.10441040992736816,0.06857514381408691,0.049127564,1.8921804,0.28617491388730565,0.0,0.009291978242276023,0.0,200,0.0822751522064209,0.6932347557605125,0.6705452750186351,14200,0.3499144546198422,0.0
71,1.366142749786377,0.2490406166326924,0.09172748374151651,0.38919701148211316,0.14682610430978332,0.0,0.13867375454224526,0.1,0.10215544700622559,0.27408623695373535,0.050706495,0.8194204,0.28246148416184436,0.0,0.004779083817361202,0.0,200,0.015422344207763672,0.42351426189697267,0.38251184876686606,14400,0.3488776852062649,0.0
72,1.3914127349853516,1.161647731871963,0.6520239657863436,2.1877241661083553,0.4610374521159767,0.0,0.12384244934671457,0.1,0.09657478332519531,0.14000844955444336,0.047508337,2.9124136,0.3703801089328562,0.0,0.023149323591760813,0.0,200,0.020180702209472656,0.6040298901375029,0.4891521254052958,14600,0.41002108242549323,0.0
73,1.2903144359588623,0.31643151989684776,0.1872335244663748,0.5854278686723965,0.0680354343492284,0.0,0.1366486953079647,0.1,0.10009646415710449,0.09322595596313477,0.049725637,1.2762293,0.36498525002925536,0.0,0.0062875998037943215,0.0,200,0.10443377494812012,0.5931304238202519,1.04713659035468,14800,0.31802590327151264,0.0
74,1.2892324924468994,0.5225872622329458,0.5498208766065468,1.4370848304606647,0.06854151515988723,0.0,0.12263840679998513,0.1,0.0029587745666503906,0.056241750717163086,0.0494965,2.1207933,0.3807454512496244,0.0,0.010446622406030986,0.0,200,0.15916156768798828,0.580923413563232,0.5676893850963867,15000,0.24741477339144255,0.0
75,1.3123505115509033,0.39007170920232515,0.07280006331837732,0.4839786154628376,0.28383472825589245,0.0,0.1339443957826158,0.1,0.002891063690185547,0.05440235137939453,0.049335755,1.2702028,0.3816780770448945,0.0,0.007798714572895708,0.0,200,0.016531705856323242,0.5126369450619038,0.22679514432391615,15200,0.2601652549571139,0.0
76,1.3429768085479736,0.38140462298098615,0.15507390300647977,0.5324413103425725,0.14094922121380754,0.0,0.13016986955987817,0.1,0.0029022693634033203,0.06206703186035156,0.04920888,0.9318245,0.3816507316385036,0.0,0.007559267414855327,0.0,200,0.03167152404785156,0.3679236796387398,0.21594162550319537,15400,0.21674217675684906,0.0
77,1.3560981750488281,0.7333645429664869,0.5276347625499204,1.2477139843708067,0.019256359042686095,0.0,0.13155755322515633,0.1,0.003011941909790039,0.0558781623840332,0.049902316,1.1545702,0.41682211277130193,0.0,0.014620981584190973,0.0,200,0.10701918601989746,0.47287337306384725,0.47162040864891874,15600,0.27406312692621654,0.0
78,1.3608367443084717,0.5778966188514267,0.2279324388560779,0.8115668293100656,0.33347633426622997,0.0,0.13188207721352418,0.1,0.09922075271606445,0.3489975929260254,0.049678393,1.3882709,0.43292956337931443,0.0,0.011502985717323388,0.0,200,0.020024776458740234,0.25170972779314715,0.22997649531489192,15800,0.19093131352063122,0.0
79,1.385509729385376,0.5025990000959512,0.3031858349531422,0.9612146610187939,0.16611948600943913,0.0,0.13703735173974388,0.1,0.09611797332763672,0.3388671875,0.048735213,1.2304108,0.4398965070509781,0.0,0.009996591054909059,0.0,200,0.0298311710357666,0.25812918666567247,0.24725984296445228,16000,0.15877258294993354,0.0
80,1.4308931827545166,0.47869188709865235,0.2833344586395232,0.7918060172827265,0.11464551102467564,0.0,0.13723631994534774,0.1,0.10070300102233887,0.30017733573913574,0.050265264,0.9087688,0.4437760450557455,0.0,0.009548268473158305,0.0,200,0.033657073974609375,0.28777149754572084,0.2861348828108596,16200,0.22910918550983536,0.0
81,1.4048984050750732,0.5891371535516672,0.256450999022999,0.9829205318038051,0.26418802118536194,0.0,0.1289889850582897,0.1,0.1001734733581543,0.34393954277038574,0.049458686,1.6352851,0.4583121559053377,0.0,0.011669935885846066,0.0,200,0.01606273651123047,0.21806901727096872,0.21500988578687696,16400,0.41268206893876513,0.0
82,1.4293105602264404,0.3132729002010419,0.23878374304439087,0.6948222701940153,0.037361672980500166,0.0,0.13367343750126756,0.1,0.0969705581665039,0.3178572654724121,0.04910999,1.5833188,0.4438082303349081,0.0,0.00626562479518405,0.0,200,0.022771596908569336,0.713260525180802,0.6340054752813593,16600,0.4798320434137692,0.0
83,1.4338407516479492,0.281127038916814,0.11057552088427036,0.4134119477864889,0.11173557244309189,0.0,0.12884008361213042,0.1,0.07227206230163574,0.054230451583862305,0.05002843,0.78480065,0.42754011119309876,0.0,0.005599006712168128,0.0,200,0.16529369354248047,0.7406310841857312,0.4186862610664122,16800,0.38939519815163964,0.0
84,1.4239156246185303,0.8468523810735828,0.44659216663264,1.4689182391229105,0.2084706765535728,0.0,0.13050039776454006,0.1,0.0029478073120117188,0.0943293571472168,0.049220685,1.4592434,0.46947133818114717,0.0,0.016758853487159754,0.0,200,0.09471416473388672,0.485571088944572,0.4616521326414148,17000,0.5866989698967949,0.0
85,1.4079961776733398,0.8731259675991059,0.5219551762539294,1.5349247192624191,0.19201948431276458,0.0,0.13270376700385952,0.1,0.0028471946716308594,0.05649113655090332,0.049956214,1.0936451,0.509836801122943,0.0,0.017386633190650484,0.0,200,0.018987655639648438,0.5048888735101243,0.42904044458414065,17200,0.9954944625820813,0.0
86,1.539635419845581,0.6213363026570158,0.14876519071555888,0.8349601846516537,0.41536820246996,0.0,0.13618530706619975,0.1,0.0028929710388183594,0.0550687313079834,0.050065786,1.0175748,0.5209867512763503,0.0,0.012401632774428212,0.0,200,0.04265427589416504,0.16979321633861258,0.18705859494636032,17400,0.8306834886226299,0.0
87,1.6555356979370117,0.5544136951883321,0.325409962502233,1.0516259400329002,0.18116525680224443,0.0,0.13780726280081795,0.1,0.002858400344848633,0.05656552314758301,0.050270915,1.3855914,0.5243294456675485,0.0,0.010986774763850054,0.0,200,0.02704763412475586,0.3169279059829026,0.33573473460126685,17600,0.6270997043303054,0.0
88,1.3605241775512695,0.5796232849306121,0.4061428799654576,1.0936332375504798,0.17082205880113374,0.0,0.12834139095349714,0.1,0.003144979476928711,0.0599522590637207,0.049565278,1.0631185,0.5298588295938549,0.0,0.011589528843131884,0.0,200,0.10257887840270996,0.40402879470628483,0.3879787122653346,17800,0.651690703896266,0.0
89,1.3274388313293457,0.5041884642089862,0.30061538573056007,0.9749117675488614,0.24150799214276944,0.0,0.13200816755807368,0.1,0.0030670166015625,0.05643939971923828,0.04902903,1.3233494,0.527291793055368,0.0,0.01007700898272771,0.0,200,0.06253290176391602,0.44416833967652136,0.3770610048201357,18000,0.8923148993189206,0.0
90,1.3421707153320312,0.585948792018715,0.4851157141590874,1.3611691203477727,0.10413286131985836,0.0,0.1362573917602106,0.1,0.0035347938537597656,0.07037711143493652,0.05030343,1.3277452,0.5331574929517027,0.0,0.011708341029183847,0.0,200,0.1006317138671875,0.4074232127467321,0.40604822289657094,18200,0.9172641952675616,0.0
91,1.4625873565673828,0.43675656397418405,0.4356466608819349,1.1855705535936827,0.10914581770886779,0.0,0.13046328507518629,0.1,0.0031180381774902344,0.06305217742919922,0.04971745,1.5880812,0.5235174000539509,0.0,0.008648015833949018,0.0,200,0.05293989181518555,0.5741640652566551,0.5608865914963151,18400,0.7656379225068238,0.0
92,1.3893470764160156,0.9230991308092426,0.6973305664642891,1.9257781626896686,0.27056318792565903,0.0,0.12781418539863754,0.1,0.002841472625732422,0.05477786064147949,0.05002899,1.9518629,0.56347557312948,0.0,0.018403141180271563,0.0,200,0.05796670913696289,0.5245849613969904,0.494770621405848,18600,0.8258445713290138,0.0
93,1.4075756072998047,0.9968868343398893,0.7090137241041657,2.015075495638907,0.04151273242440744,0.0,0.13408874765190362,0.1,0.0029239654541015625,0.0557246208190918,0.050030403,1.4609991,0.6068166992505211,0.0,0.019905784802352524,0.0,200,0.017891883850097656,0.5038412017628883,0.4325767274771996,18800,1.218501453300848,0.0
94,1.417133092880249,1.1998704736539618,1.0253756002164112,2.96763868891523,0.45499021816745117,0.0,0.12622948926837163,0.1,0.002920389175415039,0.05438423156738281,0.05013185,2.8182774,0.6661220766908652,0.0,0.023420136505247293,0.0,200,0.034215688705444336,0.545707235248405,0.4511641194071095,19000,1.5217384835387195,0.0
95,1.4852080345153809,0.6425291175173573,0.4594214298196162,1.4073724390746059,0.2571657056004613,0.0,0.13437607437030868,0.1,0.0031740665435791016,0.05547976493835449,0.04961891,0.9333489,0.6637627807735145,0.0,0.012826497584644384,0.0,200,0.16388821601867676,0.5412973748322961,0.6996961070338038,19200,1.8429654356057723,0.0
96,1.4154200553894043,1.3440411494394342,0.2542127948024663,1.6455317164124292,0.9412467374861838,0.0,0.1327563563516014,0.1,0.003217458724975586,0.06009674072265625,0.05029297,1.3716683,0.7317906176401064,0.0,0.026767231982508327,0.0,200,0.06555056571960449,0.11527717479903811,0.09690098394890403,19400,2.0851548826375326,0.0
97,1.5449259281158447,1.015890936005069,0.45249212841767933,1.7420452958213164,0.6304788967977731,0.0,0.12916709537641582,0.1,0.0029218196868896484,0.05581784248352051,0.049836192,1.3108972,0.7602006494766027,0.0,0.02016921343232117,0.0,200,0.04897117614746094,0.22959908228136636,0.22215813056642353,19600,2.7682164841762162,0.0
98,1.6816284656524658,1.4482572689319426,0.6449141612487269,2.527879257325549,0.9378549322268227,0.0,0.13071553434009342,0.1,0.0030219554901123047,0.05790400505065918,0.050414976,1.5561998,0.8290063114221368,0.0,0.0288902042211601,0.0,200,0.14809298515319824,0.21579102767551855,0.20421874596854264,19800,2.9048600552622843,0.0
99,1.4999902248382568,0.8429185024915755,0.23455112842090076,1.1875277021022912,0.5255498778041483,0.0,0.1360945159851164,0.1,0.09365105628967285,0.3639035224914551,0.04998829,0.9838287,0.8303975305290806,0.0,0.016814144228705433,0.0,200,0.018195152282714844,0.32418363945856343,0.249463650948766,20000,3.0257235438287338,0.0
100,1.418482780456543,0.5892858616049115,0.2592729240191681,1.0084354671027191,0.29768570207679823,0.0,0.13472473118550696,0.1,0.0032584667205810547,1.1833932399749756,0.05026453,0.8256508,0.8062863636366637,0.0,0.011729197879911408,0.0,200,0.040378570556640625,0.9601811290990431,0.46783417685123396,20200,3.670335346685654,0.0
101,1.4289281368255615,0.4187630356558376,0.2698340482664554,0.7771802443258435,0.06051699857362523,0.0,0.1291948650503073,0.1,0.05223512649536133,0.05509519577026367,0.050510265,0.9779323,0.7675340308385812,0.0,0.008360917731877127,0.0,200,0.027226686477661133,1.3489451912014474,0.5988082346349557,20400,2.7354307501016364,0.0
102,1.4394092559814453,0.5340000822128357,0.2518350552305461,0.8116874168494886,0.25553520765227977,0.0,0.1376957656644275,0.1,0.09319138526916504,0.23177480697631836,0.04946242,1.014614,0.7441806359760066,0.0,0.01063042868083424,0.0,200,0.02332472801208496,0.3077774116271762,0.2707291356657514,20600,3.7547058189136915,0.0
103,1.3570420742034912,1.0791394297412107,0.7985742676738943,2.268487659253678,0.33106168543590614,0.0,0.1296440663612015,0.1,0.09367036819458008,0.3681786060333252,0.048101783,1.7908812,0.777676515352527,0.0,0.021400846395228344,0.0,200,0.07752728462219238,0.6098895471438862,0.5862587121362199,20800,3.517046939363486,0.0
104,1.414290428161621,0.3919374514554528,0.1955568473788646,0.6362476680424203,0.19406662967268015,0.0,0.1295823349605718,0.1,0.09596109390258789,0.1622025966644287,0.049884453,1.270322,0.7391026089628197,0.0,0.007808194598827067,0.0,200,0.040717363357543945,0.3151170813871456,0.3358381590774213,21000,4.192845627893985,0.0
105,1.4193556308746338,0.4915761466367805,0.1646795502290743,0.629850254605531,0.22525282009913725,0.0,0.1347321419575705,0.1,0.10071158409118652,0.3896017074584961,0.049602956,1.0825522,0.7143499627302158,0.0,0.009721716552863113,0.0,200,0.01788187026977539,0.13298334476474186,0.13655339637197653,21200,4.488526480378802,0.0
106,1.4187793731689453,1.0427267217341867,0.3834125000323114,1.7050531562310163,0.7822226372177422,0.0,0.13074873787183622,0.1,0.0029158592224121094,0.054747581481933594,0.05003827,1.8989938,0.7471876386306129,0.0,0.020761526193879026,0.0,200,0.035799264907836914,0.3940190136224364,0.3652173305404189,21400,4.834543825627141,0.0
107,1.4479727745056152,1.3583931956442281,1.1279407369170145,2.890066986593597,0.08717373821846167,0.0,0.1400572735526888,0.1,0.002869129180908203,0.054975032806396484,0.049206924,1.193954,0.8083081943319744,0.0,0.026937152259469563,0.0,200,0.015359163284301758,0.6402549858446127,0.5921042256726965,21600,4.720642101342025,0.0
108,1.413055658340454,1.2443043624800463,0.6872913152428705,2.161725396808667,0.29965119414739866,0.0,0.13728197501668168,0.1,0.00289154052734375,0.054418087005615234,0.04986628,0.969143,0.8519078111467816,0.0,0.024815265763400297,0.0,200,0.026695728302001953,0.4230144168078669,0.342615233127071,21800,2.7604646248153806,0.0
109,1.4024763107299805,0.3841738320711007,0.16841497103248634,0.5790292654083086,0.1259876163778761,0.0,0.1365796933142489,0.1,0.10197615623474121,0.3138551712036133,0.049500998,0.7935057,0.8051344132392135,0.0,0.0075762752164155785,0.0,200,0.03250718116760254,1.552579122932907,1.8183054040333737,22000,2.465931810529208,0.0
110,1.3971965312957764,1.054462662509597,0.6763283915331784,1.9120183400629476,0.3563685314056337,0.0,0.13144619143899827,0.1,0.0028481483459472656,0.0560755729675293,0.049884114,1.1946292,0.8300672381662519,0.0,0.020824587138112714,0.0,200,0.017775535583496094,0.3311325749374021,0.3223033135591494,22200,2.490073004289981,0.0
111,1.4483280181884766,0.9007319141153808,0.597085436817108,1.8966800557464911,0.39395899587755184,0.0,0.1269214274361625,0.1,0.0030989646911621094,0.07422828674316406,0.049582545,2.6619494,0.8371337057611647,0.0,0.017556614454176257,0.0,200,0.12186455726623535,0.3440803391398544,0.34144598465978654,22400,2.2644454040147086,0.0
112,1.435744047164917,0.6752541894903719,0.7421956648840645,1.945019320648515,0.10247496711083164,0.0,0.13326482334721595,0.1,0.0030906200408935547,0.055248260498046875,0.049582902,1.7014848,0.8209457541340854,0.0,0.012985520441540431,0.0,200,0.015452384948730469,0.6160823330478208,0.6021028690471267,22600,4.031914162375135,0.0
113,1.465123176574707,0.8102928681930075,0.21258297438148194,1.0633947287601921,0.480718848274576,0.0,0.13848323516688182,0.1,0.0032110214233398438,0.05543994903564453,0.05003983,1.1698631,0.8198804655399777,0.0,0.01610389055466785,0.0,200,0.06317830085754395,0.0949077576380266,0.09265360861377747,22800,4.650742666439787,0.0
114,1.4898617267608643,0.5539034260487861,0.26344400990417316,0.9440797912257514,0.20665877586341605,0.0,0.13396689531278827,0.1,0.0029556751251220703,0.05570864677429199,0.04990855,1.355603,0.7932827615908586,0.0,0.01099589858283648,0.0,200,0.04703855514526367,0.4287065035512252,0.3410568342335925,23000,4.8655573760165955,0.0
115,1.4521129131317139,0.5828203484379822,0.3829494819712224,1.1940399941739475,0.1383724274881126,0.0,0.1303572487527622,0.1,0.07358980178833008,0.055518388748168945,0.050159935,1.0960732,0.772236520275571,0.0,0.011544775763216554,0.0,200,0.07980632781982422,0.33633506298174326,0.30378968614746593,23200,4.5082280465992595,0.0
116,1.4781017303466797,0.4767345948638558,0.4086353132935312,1.167263171850421,0.10241861115480569,0.0,0.13150074179734206,0.1,0.09357738494873047,0.14275145530700684,0.05007066,1.0763252,0.7426863277343995,0.0,0.00946941512973594,0.0,200,0.013514280319213867,0.535142263916915,0.46739980395494923,23400,5.150133096829172,0.0
117,1.4941909313201904,0.5206207896322917,0.49752851056275127,1.3505602948290898,0.1178068122179509,0.0,0.13082639848013272,0.1,0.10038018226623535,0.21477627754211426,0.050020233,1.1868767,0.7204797739241886,0.0,0.010256985154803904,0.0,200,0.01568889617919922,0.49389613947039374,0.49858058088572066,23600,2.0643288129062314,0.0
118,1.668259620666504,1.0390165355265844,1.1937091360341698,3.0946196814103835,0.15679428215137584,0.0,0.1223292602745779,0.1,0.10304880142211914,0.21619081497192383,0.048757456,2.3515568,0.7523334500844282,0.0,0.02065336506289454,0.0,200,0.016544342041015625,0.7390574955088308,0.7000033867664242,23800,1.6326488686518423,0.0
119,1.5463404655456543,1.338465755428451,1.2560364690071084,3.4968736997484986,0.3999628428690895,0.0,0.13062972092899897,0.1,0.09576821327209473,0.30997776985168457,0.050143838,2.2760522,0.8109466806188305,0.0,0.026578058635368378,0.0,200,0.13938164710998535,0.6717015795633677,0.6040919799052611,24000,2.1402578221128667,0.0
120,1.4089775085449219,0.41508819673181196,0.2630779667482907,0.7993286427072184,0.07207189851486154,0.0,0.1337008833065607,0.1,0.03643298149108887,0.37851500511169434,0.048953965,0.67982674,0.7713608322301286,0.0,0.008279928326310313,0.0,200,0.025445222854614258,0.522769819402177,0.7878793073419609,24200,1.5025372999332596,0.0
121,1.4086458683013916,1.1581957630072293,0.5282278378001521,1.645088955704213,0.26559699332399567,0.0,0.12401892331830329,0.1,0.0040247440338134766,0.0947115421295166,0.052282594,4.009122,0.8100443253078388,0.0,0.022936841132257677,0.0,200,0.1757335662841797,0.27108006465114254,0.23059730269335654,24400,1.8648170657452436,0.0
122,1.4725301265716553,1.0312828504534097,0.5746223729030286,1.6039527472752528,0.17103575636380888,0.0,0.13506961189925745,0.1,0.002949953079223633,0.05454564094543457,0.049733106,0.8849089,0.8321681778223959,0.0,0.020530029725977728,0.0,200,0.0346221923828125,0.2728047895746679,0.26531055544399657,24600,1.773150371701491,0.0
123,1.4062440395355225,0.9635095878630062,0.8097002576945466,2.215783258452691,0.16122096643589745,0.0,0.12548187619969034,0.1,0.002961874008178711,0.054522037506103516,0.0495992,1.7521635,0.845302318826457,0.0,0.019258897789964785,0.0,200,0.05237102508544922,0.41190731879970466,0.40701903812770934,24800,1.6857361180209602,0.0
124,1.455902099609375,0.342123438508697,0.05155410987793815,0.4261090684982281,0.2855716360734095,0.0,0.13377319597737544,0.1,0.09334063529968262,1.2723641395568848,0.049571067,0.88184077,0.7949844307946811,0.0,0.0067945977933311676,0.0,200,0.020419836044311523,4.186649821839096,3.158109508783479,25000,2.2133956692886723,0.0
125,1.4096934795379639,1.609285460523123,1.0429923896368207,2.9996279371607377,0.3271505941244421,0.0,0.1312405813665384,0.1,0.002856016159057617,0.05600738525390625,0.049331427,1.4563617,0.8764145337675253,0.0,0.031681900520181557,0.0,200,0.04061317443847656,0.430874345675591,0.43454205984329497,25200,2.663213956034533,0.0
126,1.4537076950073242,0.7393450962494424,0.3738573684938423,1.3755852935725836,0.4162383552283764,0.0,0.12459399198689242,0.1,0.0861673355102539,0.05912661552429199,0.04868707,1.7610937,0.8627075900157171,0.0,0.014764763215971904,0.0,200,0.16895246505737305,0.33766820908685796,0.3409347641719723,25400,1.7233111304098874,0.0
127,1.457514762878418,1.2757549918903976,0.9500336128226682,2.8853587609789146,0.42798907429845673,0.0,0.1385955596769572,0.1,0.002854585647583008,0.056044816970825195,0.049958304,1.6910869,0.9040123302031852,0.0,0.025263722697740323,0.0,200,0.16454005241394043,0.40750078321218064,0.40017154255070536,25600,1.2042421233209522,0.0
128,1.4486382007598877,0.9831551882543565,0.3852502111566055,1.4617785032012822,0.491041417759575,0.0,0.12959251448935977,0.1,0.0953667163848877,0.06903791427612305,0.050094575,1.2435838,0.9119266160083023,0.0,0.019317459264616234,0.0,200,0.0431363582611084,0.16717160408486142,0.16868508888115039,25800,3.8425467845225527,0.0
129,1.4438269138336182,0.9271564690520713,0.4495152161482347,1.5760324383824782,0.3214918010096586,0.0,0.13259208358527497,0.1,0.0028107166290283203,0.05416536331176758,0.05017518,0.9258777,0.9134496013126793,0.0,0.0183341170254557,0.0,200,0.03760576248168945,0.22334643638263943,0.2242427672073668,26000,4.547797521649149,0.0
130,1.5277595520019531,0.737221341372471,0.31595837151882367,1.0445437551693366,0.20805545453000504,0.0,0.1294290401788538,0.1,0.0028944015502929688,0.055487632751464844,0.049428202,0.72363794,0.8958267753186584,0.0,0.014674422379076322,0.0,200,0.1089010238647461,0.3502268351500467,0.28557083517184545,26200,3.3590754427928644,0.0
131,1.542348861694336,0.6954537571229031,0.3686479050782321,1.044109972146985,0.16883500132925225,0.0,0.13207221906544697,0.1,0.005485057830810547,0.055667877197265625,0.050198417,0.81629455,0.875789473499083,0.0,0.01377179910086303,0.0,200,0.050544023513793945,0.40696436810093,0.319567948949602,26400,3.310306695951569,0.0
132,1.4727849960327148,0.9989808305200132,0.35176825093493297,1.367222845727354,0.572493206015761,0.0,0.13675953833914625,0.1,0.003481149673461914,0.4750936031341553,0.04991445,0.92357993,0.8881086092011761,0.0,0.01962514817563589,0.0,200,0.04757809638977051,0.19771109686998667,0.20873615204279988,26600,4.800297420858531,0.0
133,1.5908713340759277,0.7567733758575085,0.4470002228480767,1.226816755036485,0.15811918840371728,0.0,0.12843069913658334,0.1,0.005021095275878906,0.15539002418518066,0.050474063,0.89253753,0.8749750858668093,0.0,0.015116334546506956,0.0,200,0.1590118408203125,0.2787826300256958,0.2728171101779552,26800,3.0228634717381966,0.0
134,1.5006425380706787,1.317445259351469,1.105349774907957,2.666197136921108,0.15983336614000127,0.0,0.12789701941081258,0.1,0.09720993041992188,0.24921512603759766,0.049678337,1.4432963,0.9192221032152752,0.0,0.026124064206558224,0.0,200,0.039749860763549805,0.536277331165806,0.5182992297309581,27000,3.9760356100292107,0.0
135,1.5262885093688965,0.5108635119576288,0.278376410609765,0.9052056380990994,0.12165567834784846,0.0,0.13730424260528812,0.1,0.09331655502319336,0.49185657501220703,0.049605217,1.0404582,0.8783862440895106,0.0,0.010032951151954654,0.0,200,0.01823139190673828,0.571934659941529,0.6035868338066432,27200,4.079856549993605,0.0
136,1.4806606769561768,1.0271510512049957,0.6067363915298818,2.0205524934089114,0.4571530889294038,0.0,0.12177002825528158,0.1,0.04987454414367676,0.0559999942779541,0.04949846,2.5460956,0.8932627248010592,0.0,0.0200543060543359,0.0,200,0.03629755973815918,0.3221884539557197,0.3210028786258674,27400,3.9191807310025433,0.0
137,1.4618191719055176,0.9899831811495904,1.006682094504425,2.7282868352121836,0.29492091829574496,0.0,0.1314119452536257,0.1,0.0036568641662597656,0.07118368148803711,0.049076367,1.9702253,0.9029347704359123,0.0,0.019649550575119218,0.0,200,0.1563243865966797,0.5198517286002957,0.5182852123715118,27600,3.6848841231009906,0.0
138,1.4848418235778809,0.6657194002286088,0.34026503246104645,1.1441361451104517,0.27635749034355733,0.0,0.13540789604632494,0.1,0.002887248992919922,0.061417579650878906,0.050095625,1.2141755,0.8792132334151819,0.0,0.013230746984453414,0.0,200,0.5437228679656982,0.336249442069171,0.3196829114152827,27800,4.776516014984996,0.0
139,1.5697047710418701,1.8338632390779392,0.6058738370235262,2.457726859995583,0.9508513385757322,0.0,0.13202499194698075,0.1,0.004029273986816406,0.05580592155456543,0.049644977,0.977089,0.9746782339814577,0.0,0.0356652456344856,0.0,200,0.07275915145874023,0.3796185922299838,0.331201783918854,28000,3.7652707614203975,0.0
140,1.4684438705444336,1.6845528014502005,1.4874557871545262,3.9695709481547072,0.06830367214237398,0.0,0.13250536346399902,0.1,0.0028977394104003906,0.0551304817199707,0.04954879,1.9462576,1.045665690728332,0.0,0.03346110317985426,0.0,200,0.15945959091186523,0.5495759633938447,0.5001783990011995,28200,2.1714835282103517,0.0
141,1.5519559383392334,0.8158954793879178,0.8120148319584714,2.0909839752248627,0.10447799046157784,0.0,0.12967797281185364,0.1,0.0029516220092773438,0.05574154853820801,0.049614172,1.3023549,1.0226886695942905,0.0,0.01618946277580803,0.0,200,0.018189668655395508,0.5987963747533078,0.6551186690010331,28400,0.9585766241017564,0.0
142,1.4816908836364746,1.4247664384668592,1.163548364844437,3.4211197674423004,0.5138392728267883,0.0,0.12941957098311502,0.1,0.002878904342651367,0.054680824279785156,0.049678665,1.7008213,1.0628964464815474,0.0,0.028290171546358645,0.0,200,0.022050857543945312,0.42891186055660196,0.41802932788769553,28600,0.7869164962211977,0.0
143,1.475574016571045,0.6494167193959769,0.34047160325296116,1.1962067264732434,0.33226542692677136,0.0,0.1346373693414975,0.1,0.0029449462890625,0.05550980567932129,0.049871817,1.1137137,1.0215484737729903,0.0,0.012854357670479995,0.0,200,0.03336381912231445,1.0099405233809504,0.8058608052030021,28800,0.6957235974931476,0.0
144,1.5467863082885742,1.3923387690278748,0.9100766599313557,2.946153240532065,0.7085773040933105,0.0,0.12599143145356018,0.1,0.002874612808227539,0.05593395233154297,0.049258307,2.3354945,1.0586275032984789,0.0,0.027621021086608,0.0,200,0.013827085494995117,0.3265483715221085,0.33327645884982465,29000,0.7164196497364497,0.0
145,1.4705469608306885,1.0403364571698672,0.6162674036923209,1.8949358264142906,0.25684496655105976,0.0,0.13055808668321942,0.1,0.0029714107513427734,0.057218313217163086,0.049677696,1.0274621,1.0567983986856178,0.0,0.02079652943809175,0.0,200,0.15666437149047852,0.3241096383027069,0.3197568186910117,29200,0.8376715971838123,0.0
146,1.6217784881591797,1.014581090151998,0.8701740548955376,2.5093103112512716,0.382099938699176,0.0,0.1281740142127029,0.1,0.002870321273803711,0.05576205253601074,0.049774047,1.5905931,1.052576667832256,0.0,0.01979890851676145,0.0,200,0.025170326232910156,0.4527073781859235,0.4481683173534955,29400,0.8898508061603546,0.0
147,1.5686500072479248,0.668997184481046,0.6648015579925575,1.8155839008874892,0.20115096546587086,0.0,0.13308529198894659,0.1,0.002822399139404297,0.05498194694519043,0.04956557,1.0947896,1.0142187194971348,0.0,0.013331423830539086,0.0,200,0.020122289657592773,0.766129360533221,0.6841239759839399,29600,1.090245629172932,0.0
148,1.5297999382019043,1.040418537099069,0.391144286886513,1.6290555499874078,0.5810889061558312,0.0,0.13821100992078206,0.1,0.0029735565185546875,0.05782628059387207,0.049571242,0.94846606,1.0168387012573283,0.0,0.020571076501142357,0.0,200,0.14702844619750977,0.1667871045997594,0.17047854630879758,29800,1.2015992467121852,0.0
149,1.512392282485962,1.1081095139358417,0.5953099960540881,1.7071961206442225,0.4860391482659332,0.0,0.12798230367052127,0.1,0.00286102294921875,0.05557107925415039,0.05021468,1.0718873,1.0259657825251798,0.0,0.021807529226211465,0.0,200,0.06724882125854492,0.2687453038254732,0.2690374488053734,30000,0.6716429533241342,0.0
150,1.5099458694458008,0.9367366757928652,0.7676009189737303,2.141216419485805,0.15884921982075928,0.0,0.13355326945247709,0.1,0.010999441146850586,0.0939474105834961,0.049645156,1.2361614,1.0170428718519484,0.0,0.018645132659023046,0.0,200,0.031323909759521484,0.3775373437673383,0.37529181689129615,30200,0.387817431231059,0.0
151,1.618453025817871,1.6986491882807147,1.118034508797877,3.3674886940984132,0.6340801789825956,0.0,0.12485343888687614,0.1,0.0029091835021972656,0.05298042297363281,0.049681272,2.1802852,1.085203503494825,0.0,0.033594832273745684,0.0,200,0.09719014167785645,0.44799823225487495,0.41774756810711644,30400,0.46936411781309967,0.0
152,1.5748889446258545,1.286576707512817,0.600454635957013,2.0684780782110566,0.5127551403574188,0.0,0.1296275645232411,0.1,0.003231048583984375,0.05755782127380371,0.049949966,1.1605402,1.1053408238966242,0.0,0.025554544133811776,0.0,200,0.04808497428894043,0.24627827549709008,0.22100035474433957,30600,0.7357367623413174,0.0
153,1.6396381855010986,1.005826769389526,0.45922962823903646,1.7568799287400787,0.5141362038924953,0.0,0.1285282724687226,0.1,0.0037212371826171875,0.0720984935760498,0.0498505,2.0699816,1.0953894184459143,0.0,0.019878461542389824,0.0,200,0.02067708969116211,0.24768167812294117,0.268249278221538,30800,0.636873373285248,0.0
154,1.4621565341949463,1.4126963123130358,0.7677644701400693,2.3265511641514127,0.6162458747578378,0.0,0.12760268757453128,0.1,0.0029077529907226562,0.055541038513183594,0.049988423,1.3225617,1.1271201078326265,0.0,0.02799859234827868,0.0,200,0.024857044219970703,0.27367199207033827,0.2691943455131509,31000,0.5131765780446839,0.0
155,2.3858883380889893,0.962158408888887,0.645759988973675,1.8024850364310037,0.17578784917872312,0.0,0.1336645203990695,0.1,0.003335237503051758,0.056444644927978516,0.04987707,1.2058655,1.1106239379382525,0.0,0.019193308940733192,0.0,200,0.028020858764648438,0.4524575082985868,0.3941722224274716,31200,0.5096699406778651,0.0
156,1.495988130569458,1.0031490113231494,0.5809800130498056,1.9097832979051284,0.49032078242712107,0.0,0.1329282519129142,0.1,0.0028755664825439453,0.058118581771850586,0.049715057,1.1603118,1.0998764452767422,0.0,0.019441401608977473,0.0,200,0.014471292495727539,0.3046754543149631,0.26291549008969745,31400,0.712119611753601,0.0
157,1.5172839164733887,0.7471358049382903,0.7837308632019905,2.0727408335341644,0.08663342982017433,0.0,0.1335124474973137,0.1,0.002970457077026367,0.05616044998168945,0.049543053,0.98765475,1.064602381242897,0.0,0.0144709555803891,0.0,200,0.015340566635131836,0.666233293203387,0.6107182437221667,31600,0.9811977285661722,0.0
158,1.5725572109222412,0.7874846027183894,0.438420343331132,1.2923200889979076,0.08503524812620644,0.0,0.1311831190741755,0.1,0.002972841262817383,0.05575370788574219,0.04930236,0.9367122,1.0368906033904464,0.0,0.015437078324294577,0.0,200,0.014618635177612305,0.36095209966245784,0.3058838163690336,31800,0.661934090204361,0.0
159,1.7186927795410156,0.47270086290094926,0.41786146946488123,1.0963667834059356,0.08285929389784191,0.0,0.1285768410635877,0.1,0.08377909660339355,0.0640110969543457,0.049874354,0.83627325,0.9804716293414967,0.0,0.009443573548120364,0.0,200,0.027367353439331055,0.9162955255237,0.6811194138088157,32000,0.4321326227799138,0.0
160,1.5920710563659668,1.3198440530151454,1.1312882654281937,3.1817257719432077,0.2816033797774825,0.0,0.1347862934308027,0.1,0.09960436820983887,0.29320859909057617,0.050084814,1.5453175,1.0144088717088615,0.0,0.025961870262118977,0.0,200,0.02198934555053711,0.5695766104072101,0.5594704100750664,32200,0.40764903965567667,0.0
161,1.6683979034423828,2.1516803916901375,0.6629583298525384,3.0614134748057076,1.247003134898574,0.0,0.13758776150828972,0.1,0.0027217864990234375,0.061048030853271484,0.05031848,1.069389,1.128136023706989,0.0,0.04199409288034023,0.0,200,0.01592850685119629,0.5004210253311853,0.4033604247377935,32400,0.23738530673412306,0.0
162,1.5123679637908936,0.3873744146538869,0.13599865519399612,0.548781260319135,0.17790213535062183,0.0,0.12243243133263056,0.1,0.0028557777404785156,0.056578874588012695,0.049004335,4.1769605,1.0540598628016788,0.0,0.007728804423855677,0.0,200,0.02620530128479004,1.4327120881936546,2.257175391687726,32600,0.23103603542137874,0.0
163,1.6099603176116943,1.312277185389076,0.7448681684168563,2.303949350567396,0.2036666424201514,0.0,0.1339366502237749,0.1,0.002870798110961914,0.054138898849487305,0.050791483,1.2723645,1.0798815950604186,0.0,0.025969059731098573,0.0,200,0.03432774543762207,0.30264546187309843,0.2876886467542674,32800,0.2330716550767429,0.0
164,1.590005874633789,0.862992679712995,0.19187406387956552,1.0207253360521031,0.5348176875844401,0.0,0.13641330605190258,0.1,0.0035429000854492188,0.09378314018249512,0.04985753,0.84098595,1.0581927035256764,0.0,0.016858630917047753,0.0,200,0.17785167694091797,0.14815743979811172,0.1724709968260143,33000,0.20024971081590204,0.0
165,1.5869295597076416,1.1863434233829515,0.7429091830307333,2.460692129406754,0.6335319993273786,0.0,0.12526911449314865,0.1,0.002999544143676758,0.05779218673706055,0.049381226,2.172496,1.0710077755114038,0.0,0.023704159549987138,0.0,200,0.05117058753967285,0.35401633351437656,0.3518312260493365,33200,0.11893729064767523,0.0
166,1.5647411346435547,1.5622204171850873,0.6876117960713296,2.1744307350938232,0.3995034567478772,0.0,0.12616175161608456,0.1,0.004846096038818359,0.07726931571960449,0.049706038,0.81497765,1.1201290396787722,0.0,0.030757842241512158,0.0,200,0.12320184707641602,0.24562713085135746,0.23386781249623614,33400,0.11347857747168037,0.0
167,1.5739734172821045,0.6359732332116277,0.3032661155712543,1.142679311319551,0.38832061599203344,0.0,0.13987253651811318,0.1,0.0030517578125,0.054787397384643555,0.04980963,1.0622187,1.0717134590320578,0.0,0.012344389300474722,0.0,200,0.07891440391540527,0.725837630995625,0.6789776971557631,33600,0.16650957289866655,0.0
168,1.5550251007080078,1.8984271014426368,0.9645415099024357,2.9636892082969983,0.37522360017450623,0.0,0.13774550738635818,0.1,0.003089427947998047,0.05411028861999512,0.049892925,1.0363417,1.1543848232731158,0.0,0.037329939703772734,0.0,200,0.026802778244018555,0.31885319856189975,0.30384347250929805,33800,0.1195984855163083,0.0
169,1.538104772567749,1.5393337706312478,0.831910293282658,2.8296790923157147,0.6658374556669462,0.0,0.12059285793754113,0.1,0.0033254623413085938,0.05688881874084473,0.04932004,2.290756,1.192879718008929,0.0,0.030248128109933173,0.0,200,0.053711891174316406,0.30106562639561607,0.2797922222394519,34000,0.146260870576737,0.0
170,1.5249488353729248,0.9116179608048077,1.1509866130482274,2.8734208380296224,0.05674509648752112,0.0,0.13359178118461462,0.1,0.004806041717529297,0.0560154914855957,0.050159868,1.2629464,1.164753542288517,0.0,0.017978418633137493,0.0,200,0.0360720157623291,0.6357491999992468,0.6461877429069334,34200,0.23126573510582163,0.0
171,1.4826853275299072,0.789110422082083,0.33559639925018436,1.1714397846190772,0.24959126769886295,0.0,0.12850831194950535,0.1,0.00391840934753418,0.05573701858520508,0.049828615,0.9701029,1.1271892302678734,0.0,0.015413926948454067,0.0,200,0.07533621788024902,0.6288495293600276,0.4958345433391424,34400,0.19852123325581117,0.0
172,1.5110893249511719,1.2482073794895125,0.9579575734356728,2.7555919552246197,0.1816194680290358,0.0,0.12719476766644128,0.1,0.1004481315612793,0.2570030689239502,0.049910784,1.4144319,1.1392910451900373,0.0,0.02467226420363563,0.0,200,0.0177462100982666,0.37181718959055543,0.37671624736301773,34600,0.33195042351555065,0.0
173,1.5658161640167236,1.427409426315733,0.8722334093976903,2.7671801059051235,0.3447635557498791,0.0,0.13158397672805994,0.1,0.09867477416992188,0.28260207176208496,0.04987213,1.505475,1.168102883302607,0.0,0.028210942875596,0.0,200,0.022830724716186523,0.30779361114699905,0.30624433396937617,34800,0.6411604163837059,0.0
174,1.5190625190734863,1.1025299219882776,0.8067963899027845,2.291820040111936,0.1036431432339516,0.0,0.1349846680826801,0.1,0.09911680221557617,0.1911919116973877,0.050519835,0.8843252,1.1615455871711742,0.0,0.021714302339511896,0.0,200,0.0488741397857666,0.359479461442219,0.3564836643058688,35000,1.2394554640231148,0.0
175,1.504056692123413,1.701589956808004,1.1096514331467966,2.9665815788974585,0.2180818628945695,0.0,0.12718125806380076,0.1,0.0919196605682373,0.2806525230407715,0.049663454,0.9638006,1.2155500241348571,0.0,0.033392113698246066,0.0,200,0.023203372955322266,0.37022384769587796,0.34771162148767143,35200,0.5892766344099493,0.0
176,1.5160937309265137,1.3336558507792353,0.5768414280159541,2.286203465469011,0.7674727213387522,0.0,0.12689456193024934,0.1,0.09984874725341797,0.26309776306152344,0.049737897,1.2075738,1.227360606799295,0.0,0.026076653178687494,0.0,200,0.028981447219848633,0.20981498889988623,0.2031505148895687,35400,0.776994765185847,0.0
177,1.606959342956543,0.812732495265526,0.5085950468711934,1.2966635574661456,0.07147561591957381,0.0,0.12158718206200612,0.1,0.09715819358825684,0.39589571952819824,0.049898926,0.79411584,1.1858977956459182,0.0,0.015883119779248153,0.0,200,0.040372610092163086,0.5461548475568984,0.5250086497787334,35600,0.7527818942135022,0.0
178,1.6355311870574951,0.9703689346889385,0.47983636932325197,1.6289541207370446,0.3022559152154345,0.0,0.1284315880589058,0.1,0.07189655303955078,0.061788082122802734,0.04996753,0.8898657,1.1643449095502203,0.0,0.019220441275798205,0.0,200,0.024972915649414062,0.35701550130060417,0.2995720277370852,35800,0.7847028178523728,0.0
179,1.5460107326507568,0.529848040783652,0.2363812122825525,0.8346746297390466,0.17531800562592895,0.0,0.13035406949122288,0.1,0.0031523704528808594,0.6548528671264648,0.049648512,0.71288866,1.1008952226735635,0.0,0.010326993034455511,0.0,200,0.047638893127441406,1.839985069361241,1.114088511897305,36000,0.7678726177747196,0.0
180,1.6011512279510498,1.0376849991820931,0.5190340892979775,1.7335364322541158,0.2692160535100554,0.0,0.1261795942185547,0.1,0.10012149810791016,0.3133578300476074,0.049517445,1.3776103,1.0945742003244165,0.0,0.020454250387160245,0.0,200,0.042147159576416016,0.2265542003345335,0.25775577408744405,36200,2.389487587155262,0.0
181,1.5607638359069824,1.372282124240414,0.8707374881577421,2.54018359970584,0.10991294669422079,0.0,0.12450759540563733,0.1,0.09755110740661621,0.4196953773498535,0.049842864,1.5769072,1.1223449927160163,0.0,0.027349859915460566,0.0,200,0.026748180389404297,0.3853456141207561,0.3837302544727944,36400,1.8128292755168143,0.0
182,1.5857822895050049,1.3691276137238952,0.8853894106674125,2.614326047196733,0.18361726566171607,0.0,0.1286934955295338,0.1,0.09302663803100586,0.31801676750183105,0.04972361,1.3485891,1.1470232548168042,0.0,0.027053582529493962,0.0,200,0.04437732696533203,0.3909024499050528,0.3712935817615017,36600,1.8354774157810345,0.0
183,1.6265828609466553,0.771364109639608,0.554725512072144,1.6205529557048746,0.0846429080701063,0.0,0.12093519814535779,0.1,0.09838628768920898,0.09972620010375977,0.049786642,3.7804205,1.1094573402990846,0.0,0.015173660881699882,0.0,200,0.04126882553100586,0.36670404602390333,0.3691985667145148,36800,1.2173758068489273,0.0
184,1.5433266162872314,1.704122182239104,0.9760466711745266,3.2576597454566514,0.8245869167548203,0.0,0.1293319452343881,0.1,0.09708285331726074,0.1828310489654541,0.050028272,1.5696892,1.1689238244930866,0.0,0.03347677778628172,0.0,200,0.017081260681152344,0.41080556795113393,0.3821667868200479,37000,1.0117964709060099,0.0
185,1.496107816696167,0.815643084933877,0.7029063903999799,1.7121987856055791,0.10410468868646955,0.0,0.12257858992718319,0.1,0.09314298629760742,0.3029446601867676,0.049814686,1.2155012,1.1335957505371657,0.0,0.01590795798469297,0.0,200,0.09263396263122559,0.4932962134262245,0.5209529904432416,37200,1.216423810526392,0.0
186,1.5723421573638916,1.0924242336038523,0.7032682221503196,1.8043758678032877,0.12159655078061245,0.0,0.12629712480888117,0.1,0.09731340408325195,0.3535330295562744,0.05031167,0.97621727,1.1294785988438343,0.0,0.021528412417182723,0.0,200,0.03893613815307617,0.3505435928648855,0.3492773685594175,37400,1.1750120399781006,0.0
187,1.5191559791564941,2.2957154582139205,1.0645667156830834,3.4089677182998868,0.7407317414118647,0.0,0.12603667832674403,0.1,0.005185127258300781,0.44204139709472656,0.04911551,1.3242192,1.246102284780843,0.0,0.04544266222231141,0.0,200,0.050717830657958984,0.38758374177731997,0.3509607830851415,37600,1.004283596057373,0.0
188,1.5256023406982422,1.8921317537828881,1.0332030359786455,2.857887953496429,0.2066540542483065,0.0,0.12465167895165452,0.1,0.10137462615966797,0.41115903854370117,0.04995866,1.0948964,1.3107052316810475,0.0,0.03750166172353146,0.0,200,0.1013345718383789,0.32432376276328895,0.27955948167465705,37800,1.0647831307416422,0.0
189,1.642869234085083,1.3590109564933328,0.8385549335696755,2.7883800580442104,0.6522019099144587,0.0,0.12826954402959287,0.1,0.10145211219787598,0.19781088829040527,0.049726743,2.0487478,1.315535804162276,0.0,0.02693962391597155,0.0,200,0.03969120979309082,0.28642467819068834,0.3065678684591109,38000,1.4507002121165515,0.0
190,1.5428218841552734,0.7948492949926699,0.8364434222928646,2.23922696483959,0.2090216997720245,0.0,0.13257121945407535,0.1,0.10032248497009277,0.3333425521850586,0.049001485,1.1623932,1.2634671532453154,0.0,0.01577713468622584,0.0,200,0.026909351348876953,1.065747149408722,0.9521260061862918,38200,1.1881444995136425,0.0
191,1.5622971057891846,0.9392473595827028,0.3736860974066056,1.5218322984390567,0.5119006999444332,0.0,0.13178893178893178,0.1,0.09995412826538086,0.204817533493042,0.049807824,1.2397722,1.2310451738790542,0.0,0.01869756216969325,0.0,200,0.013923883438110352,0.6048477401322194,0.38708140237987076,38400,0.623428502031855,0.0
192,1.5922040939331055,1.1009340108904635,1.0195163067804822,2.6587145460961406,0.027230812512516935,0.0,0.1282304961075857,0.1,0.005273103713989258,0.09102058410644531,0.050377656,1.2940505,1.2180340575801953,0.0,0.02190827051077318,0.0,200,0.02745676040649414,0.49788063288191675,0.47555146905647583,38600,1.384659953003269,0.0
193,1.5518858432769775,0.7884703199176719,0.3404422550399413,1.044324868754322,0.21150752681566068,0.0,0.12460853884290647,0.1,0.003557443618774414,0.059198856353759766,0.050734505,0.9093928,1.175077683813943,0.0,0.015652804196772598,0.0,200,0.037657737731933594,0.45888147903324855,0.33262046598867623,38800,2.083822516755282,0.0
194,1.612652063369751,1.1423642177951234,0.7161660593618062,2.0247930115054404,0.26480984531872553,0.0,0.13002399396303,0.1,0.03532147407531738,0.054979562759399414,0.050028052,1.0597929,1.171806337212061,0.0,0.022423595756070225,0.0,200,0.1365675926208496,0.3387606093523753,0.351560532100832,39000,1.1919108925755126,0.0
195,1.5680456161499023,1.1425986840196298,0.9388510458895842,2.4520647160563454,0.1294022007695854,0.0,0.12512033184152335,0.1,0.10222244262695312,0.32514309883117676,0.049375616,1.605535,1.168885571892818,0.0,0.02244425809531435,0.0,200,0.03967857360839844,0.4551629302889795,0.4540384238268507,39200,0.5273326180923987,0.0
196,1.5348262786865234,1.0783192795034893,0.7586697974028823,2.3502178258096875,0.4459850032145532,0.0,0.12303648923164638,0.1,0.0996694564819336,0.2792840003967285,0.04964546,1.4963429,1.1598289426538853,0.0,0.02114774509191936,0.0,200,0.15130829811096191,0.3636970698559706,0.35268546618551705,39400,0.33789103028933914,0.0
197,1.7023584842681885,0.6973000649436045,0.4084716079244179,1.129238094388625,0.04846146862537684,0.0,0.12256732803217998,0.1,0.0939784049987793,0.0921773910522461,0.049931318,0.7989584,1.1135760548828573,0.0,0.013554431032771945,0.0,200,0.02727961540222168,0.40402510740805997,0.39156015804124233,39600,1.2766964071836011,0.0
198,1.5548655986785889,1.4908086423446312,0.785144711208248,2.695730749906652,0.5019785268309217,0.0,0.1268950198604984,0.1,0.09430527687072754,0.2246706485748291,0.050649982,1.3148929,1.1512993136290348,0.0,0.02895553583947979,0.0,200,0.020078182220458984,0.3489836930666562,0.33175981214095435,39800,0.22814275968336198,0.0
199,2.015129566192627,0.9331457931453594,0.48762895931119526,1.4782947063157463,0.14327030043667544,0.0,0.12612381217482146,0.1,0.03112339973449707,0.05540156364440918,0.04995772,1.0665141,1.1294839615806673,0.0,0.018230297037918494,0.0,200,0.03127026557922363,0.2559982457801229,0.25852762361557835,40000,0.15527467879635642,0.0
200,1.6325476169586182,0.8141283833631839,0.4586917154154699,1.5830486605490859,0.3739846081622435,0.0,0.12802303621726557,0.1,0.003197193145751953,0.056862592697143555,0.050145812,1.0436456,1.0979484037589191,0.0,0.015880303969156986,0.0,200,0.16541552543640137,0.28471479953125256,0.28169018487545894,40200,0.09961291218625241,0.0
201,1.553051233291626,2.2091497506149653,1.6286152066001587,4.02668931864182,0.38499904504766325,0.0,0.12235541181131152,0.1,0.0031757354736328125,0.055611371994018555,0.04964807,1.4033245,1.2090685384445237,0.0,0.04337300588062512,0.0,200,0.0445098876953125,0.5598944222971062,0.528771315198902,40400,0.105978610729747,0.0
202,1.6129968166351318,1.2579352009006612,0.8830196458938453,2.7835688570199535,0.6875786156616186,0.0,0.12682493144660748,0.1,0.005090236663818359,0.05631875991821289,0.050812926,2.0254552,1.2139552046901374,0.0,0.024572840663831554,0.0,200,0.025070905685424805,0.3487913376499132,0.32963182998084145,40600,0.1075908021353661,0.0
203,1.554774284362793,1.2177429798742923,0.7771843541516887,2.3668622427721755,0.47416309628020253,0.0,0.13052817221776003,0.1,0.013205289840698242,0.07322430610656738,0.050312687,1.4590132,1.2143339822085528,0.0,0.024013383776292856,0.0,200,0.10156965255737305,0.29947454492366216,0.3073256735249222,40800,0.12876753801726779,0.0
204,1.4245707988739014,1.7082968324992862,0.8931404232831959,2.418395536165282,0.21051299063036175,0.0,0.12875222437624753,0.1,0.0030629634857177734,0.055579185485839844,0.050005507,0.8276841,1.263730267237626,0.0,0.03343368491969759,0.0,200,0.017834901809692383,0.2813037018207463,0.2628145930698434,41000,0.22204186431556638,0.0
205,1.5484354496002197,1.9903035971384981,1.4483532752359431,4.1207255768516635,0.08327654075815571,0.0,0.1283604669953828,0.1,0.0030057430267333984,0.05470013618469238,0.05050715,1.1579814,1.3363876002277133,0.0,0.03908068108749127,0.0,200,0.0352628231048584,0.41775578330605895,0.3933344094838647,41200,0.3534550630153504,0.0
206,1.5857243537902832,1.5584174279131378,1.156259985636346,3.0565755380031177,0.2361366671232838,0.0,0.12937342290985449,0.1,0.003968954086303711,0.0700681209564209,0.05065554,1.059299,1.3585905829962557,0.0,0.030594183576788288,0.0,200,0.0253753662109375,0.38565001357994,0.39039901814024036,41400,0.3896228587565061,0.0
207,1.7133097648620605,2.0422869434190907,0.7847315314836877,2.825158973736231,0.7940047633499872,0.0,0.12172177769012257,0.1,0.07553315162658691,0.09699296951293945,0.049726214,1.019457,1.4269602190385393,0.0,0.03951590001331837,0.0,200,0.04306173324584961,0.18322201587791234,0.17559643214575027,41600,0.16746330128930773,0.0
208,1.5605237483978271,1.3687204586754769,0.7703667569054967,2.4197970918135963,0.4089134967785563,0.0,0.13228728248431273,0.1,0.103485107421875,0.13885021209716797,0.05046754,1.1933293,1.421136243002233,0.0,0.026715924681260328,0.0,200,0.022790908813476562,0.3389445474333836,0.31036389938273823,41800,0.4428943324636511,0.0
209,1.5416982173919678,1.1624560892131062,0.793689846468521,2.1277801444627467,0.3648209480032234,0.0,0.12434499698958047,0.1,0.09709405899047852,0.24297857284545898,0.05037842,0.94504374,1.3952682276233204,0.0,0.022504688700359078,0.0,200,0.030501127243041992,0.5124814214950004,0.4022769969488137,42000,0.13585323854894477,0.0
210,1.596797227859497,1.332383049180753,0.6713061123534063,2.438073302609676,0.6260792680130663,0.0,0.11989028005901202,0.1,0.005466938018798828,0.07007551193237305,0.04973872,1.7673455,1.3889797097790635,0.0,0.026080010920383277,0.0,200,0.02244424819946289,0.23215569097017005,0.2101861253731993,42200,0.13001740167339504,0.0
211,1.5228650569915771,1.0744993079444582,0.5122650274069074,1.9166227679147403,0.5360879115079302,0.0,0.12623627047495764,0.1,0.006009578704833984,0.07414484024047852,0.049717143,1.3696736,1.357531669595603,0.0,0.021454332899974587,0.0,200,0.046025753021240234,0.2772054130198108,0.2338193455189548,42400,0.25185782558782166,0.0
212,1.6091222763061523,0.7085501159852009,0.27192576739397745,1.0319243716243804,0.43689032424266877,0.0,0.12165803215256246,0.1,0.09924793243408203,0.36243748664855957,0.049379643,1.1293552,1.2926335142345629,0.0,0.01364254728003572,0.0,200,0.06561017036437988,0.6184091046258472,0.4109900771263717,42600,0.19750713599726574,0.0
213,1.6322247982025146,0.7413496998577902,0.4240817275904441,1.4453603087915732,0.36533864748386774,0.0,0.12520328940510772,0.1,0.0992729663848877,0.28017139434814453,0.050113104,1.197416,1.2375051327968856,0.0,0.014436575728950674,0.0,200,0.01746368408203125,0.49141673136620234,0.38475896764634615,42800,0.17807741678281744,0.0
214,1.6866240501403809,1.4719152530452888,1.0820707262716263,3.1157641240723644,0.07614549869081924,0.0,0.12166790299641032,0.1,0.004137516021728516,0.07360005378723145,0.050023686,1.3828642,1.2609461448217258,0.0,0.028991117248496984,0.0,200,0.16768765449523926,0.4572499010652424,0.4710040333594077,43000,0.07464334880970992,0.0
215,1.6638832092285156,1.382476939805751,1.0849633613357768,3.154232581385821,0.243110536088185,0.0,0.12853418042000983,0.1,0.003613710403442383,0.07623004913330078,0.04958648,1.3284038,1.2730992243201282,0.0,0.027258693577379006,0.0,200,0.1633467674255371,0.4807847787145037,0.46983198930739006,43200,0.465100059789828,0.0
216,1.5644972324371338,0.7292895616423257,0.6763602599535207,1.8793124133984322,0.23061403881307949,0.0,0.12663374535151542,0.1,0.005602121353149414,0.0766603946685791,0.050599046,1.560039,1.218718258052348,0.0,0.014386389614450847,0.0,200,0.16559696197509766,0.5155757450744911,0.5175114192922057,43400,0.24008175365818485,0.0
217,1.6341617107391357,1.201381430028857,1.2647300734508824,3.378276893751853,0.32158590812576854,0.0,0.1278591428502534,0.1,0.012799978256225586,0.06937956809997559,0.049779195,1.8177594,1.2169845752499988,0.0,0.02347787982233219,0.0,200,0.16791057586669922,0.5700671831775309,0.559234713258737,43600,0.180253885455937,0.0
218,1.6761202812194824,0.9454637754258712,0.5327076376501492,1.5015782468813275,0.2744615411914764,0.0,0.12468750537849976,0.1,0.010650873184204102,0.05554461479187012,0.04982693,1.6427281,1.1898324952675863,0.0,0.018383228113013666,0.0,200,0.16547107696533203,0.24922529547585598,0.24555049244873095,43800,0.17322397108175222,0.0
219,1.496899127960205,1.540601700630264,0.5135345345364128,2.29542373726541,0.860136403395837,0.0,0.12816028556994663,0.1,0.10032916069030762,0.326244592666626,0.049493734,1.120007,1.224909415803854,0.0,0.030196663432944644,0.0,200,0.023476600646972656,0.2358472945859214,0.2114998438841678,44000,0.15756266589702228,0.0
220,1.5580029487609863,0.8041973856596083,0.6094790327785254,1.781112009669077,0.26435042015408305,0.0,0.13106945127968775,0.1,0.005452871322631836,0.05659198760986328,0.04993441,1.151493,1.1828382127894295,0.0,0.01588549221619618,0.0,200,0.16718316078186035,0.42884445612779665,0.44474168307878825,44200,0.2208646540352648,0.0
221,1.5472877025604248,1.2818272402072095,1.1489621634202687,3.1766276570459704,0.0902826956240934,0.0,0.12241044590036719,0.1,0.0031991004943847656,0.07227683067321777,0.049540244,1.9748356,1.1927371155312074,0.0,0.025358221454311936,0.0,200,0.07830476760864258,0.4639765164606985,0.46177132910042895,44400,0.1863874679604479,0.0
222,1.572075366973877,1.6310148460948688,0.505549908831354,2.2256198816894437,0.8629470131430201,0.0,0.12735416600060226,0.1,0.002920389175415039,0.05667424201965332,0.049832128,1.2617306,1.2365648885875737,0.0,0.03233877839890993,0.0,200,0.03506755828857422,0.1932057479016165,0.1781551860578448,44600,0.3860683697719139,0.0
223,1.5836844444274902,2.177341910012588,0.4406693159576622,2.904756316407162,1.7169971190707123,0.0,0.1250532908096702,0.1,0.003014802932739258,0.055547237396240234,0.05016577,0.7999884,1.3306425907300754,0.0,0.04271815837306125,0.0,200,0.04609847068786621,0.25702368319455554,0.2073578556481636,44800,0.19690568966587482,0.0
224,1.4760096073150635,0.8777484883335899,0.47212367381870673,1.6744383923231412,0.4530465760303087,0.0,0.12811156067974075,0.1,0.003069639205932617,0.05519986152648926,0.049925227,1.2269582,1.2853531804904268,0.0,0.017533281603471312,0.0,200,0.03881359100341797,0.37295690362702566,0.46112617383444143,45000,0.5640567957948693,0.0
225,1.4432425498962402,0.9160753259482528,0.4562299813307171,1.4342528805573413,0.19877352586260066,0.0,0.127565606351454,0.1,0.003024578094482422,0.05422186851501465,0.049931973,0.7183243,1.2484253950362094,0.0,0.018240479955553467,0.0,200,0.024066925048828125,0.614461214791341,0.5506422073419525,45200,0.15223494535004592,0.0
226,1.5388188362121582,2.293881306998789,1.6518968625099062,4.7202481075776,0.33901635979725503,0.0,0.11913511960731206,0.1,0.0965576171875,0.30448436737060547,0.04961234,5.105623,1.3529709862324673,0.0,0.04528632828344063,0.0,200,0.020886659622192383,0.43681558505172396,0.432173402615767,45400,0.2689891145654289,0.0
227,1.6023616790771484,1.0566536074577766,0.7678337265766052,2.0880475482713794,0.1042612852218837,0.0,0.1295826617888995,0.1,0.0044672489166259766,0.05601859092712402,0.04950477,0.9431601,1.3233392483549982,0.0,0.021039449163798078,0.0,200,0.16825246810913086,0.45298765439725397,0.45368912503203757,45600,0.13530614522016057,0.0
228,1.5690321922302246,1.7432188995431281,1.2752925616131834,3.6728342924930892,0.17873943526216018,0.0,0.1226801749172681,0.1,0.01766037940979004,0.053694725036621094,0.050004788,1.6090769,1.3653272134738113,0.0,0.03445390003964734,0.0,200,0.4127542972564697,0.37182019371385755,0.36898217675842837,45800,0.1546945997361385,0.0
229,1.5460855960845947,1.1740863126906942,0.7602115872445364,2.011168624512019,0.15363303367394338,0.0,0.12737384472751656,0.1,0.006593465805053711,0.055871009826660156,0.048824005,1.022224,1.3462031233954996,0.0,0.023240594509196986,0.0,200,0.09300112724304199,0.3339657905348192,0.32148669788630685,46000,0.22721740637184998,0.0
230,1.6512393951416016,0.8703351075198584,0.6258939578099403,1.6015655881699604,0.1713194413973651,0.0,0.12666291150933284,0.1,0.0030748844146728516,0.05533099174499512,0.04982524,0.8342084,1.2986163218079354,0.0,0.017237848199064584,0.0,200,0.017611026763916016,0.5623941136440569,0.47668160855798253,46200,0.24142204205054638,0.0
231,1.5065479278564453,1.0370941043420139,0.8419070557186199,2.35381611040813,0.2853435156331907,0.0,0.12862279102675256,0.1,0.007955789566040039,0.32852840423583984,0.049890436,1.0125014,1.2724641000613433,0.0,0.02042503527537292,0.0,200,0.14586710929870605,0.4413790450477849,0.41697153258379593,46400,0.3104734175466099,0.0
232,1.5246052742004395,1.0399421488017888,0.6582255196662363,1.97575587273606,0.15007663911972358,0.0,0.12841335874249005,0.1,0.002962827682495117,0.05780506134033203,0.049843125,1.5490984,1.2492119049353878,0.0,0.02068385774306687,0.0,200,0.033315420150756836,0.37423659085347005,0.3479293879323453,46600,0.22619675867151823,0.0
233,1.6155600547790527,1.1325192248012805,0.838501597440612,2.434957333937173,0.35626905609817366,0.0,0.12145069558082017,0.1,0.09317803382873535,0.6527843475341797,0.049810957,3.2114587,1.237542636921977,0.0,0.02230738756628854,0.0,200,0.051387786865234375,0.38562977831877804,0.38954765518052864,46800,0.24464150183289343,0.0
234,1.6331455707550049,1.314308013471249,0.22497344058152585,1.6856989065783865,1.088139467497224,0.0,0.12460019937517754,0.1,0.09285378456115723,0.3281393051147461,0.049663838,2.0510135,1.2452191745769041,0.0,0.025710700453383938,0.0,200,0.16256070137023926,0.1412236522219311,0.10928570582143103,47000,0.22491424271535587,0.0
235,1.561293125152588,0.5648675780754306,0.33691840761829533,1.1268965906647739,0.22951130240549306,0.0,0.1212718375085584,0.1,0.0030460357666015625,0.0594024658203125,0.049537357,1.5545753,1.1771840149267567,0.0,0.011255890064654408,0.0,200,0.0159299373626709,0.8385111039285496,0.833719331198433,47200,0.39770466598243454,0.0
236,1.525123119354248,2.6899195988884994,0.5001375379934252,3.1770035987853804,2.042257738069695,0.0,0.12265885213858721,0.1,0.0036301612854003906,0.06965208053588867,0.050127074,1.4286274,1.3284575733229311,0.0,0.05353081964645619,0.0,200,0.048844337463378906,0.4361448438438478,0.3754759756599462,47400,0.25873686699908166,0.0
237,1.542191982269287,1.8510314602746007,1.0917913869601412,3.1973513855923597,0.4900366871024069,0.0,0.13496107756149234,0.1,0.08281850814819336,1.3594603538513184,0.049921144,1.0506833,1.3807149620180983,0.0,0.03630886081595786,0.0,200,0.16742396354675293,0.38368460301753665,0.3175587981969137,47600,0.32983304553679027,0.0
238,1.598586082458496,1.6409986975528703,1.0988134184332023,2.918660522324088,0.22537186519416755,0.0,0.12119533947794735,0.1,0.005532026290893555,0.06641578674316406,0.04942708,1.4053077,1.4067433355715757,0.0,0.03239467897773181,0.0,200,0.1687629222869873,0.30900420085496516,0.29778992688076333,47800,0.27701896180645263,0.0
239,1.6372389793395996,1.9772886039497646,1.788388011000335,4.684800685146226,0.2914028050014835,0.0,0.1274572467434069,0.1,0.005011558532714844,0.0559239387512207,0.050157838,1.354547,1.4637978624093946,0.0,0.038884208304236306,0.0,200,0.1672210693359375,0.4778994346423634,0.4637879232674708,48000,0.3915287407311763,0.0
240,1.6204273700714111,2.3465612789618637,1.1172705816313089,3.2860102642789055,0.44747547991742886,0.0,0.12834366914548065,0.1,0.052225589752197266,0.07892704010009766,0.05016697,0.88543546,1.5520742040646414,0.0,0.04650670828897126,0.0,200,0.08265829086303711,0.25177569345290707,0.2281657024233823,48200,0.8520093380627012,0.0
241,1.5849077701568604,0.8866518616143668,0.4329355536114656,1.4793128358806937,0.2706987412157138,0.0,0.13156071821036816,0.1,0.005159616470336914,0.055700063705444336,0.050105624,0.8972298,1.4855319698196139,0.0,0.01735583914310241,0.0,200,0.04948115348815918,1.47206855412128,1.321407422088842,48400,3.0140451856776074,0.0
242,1.5995497703552246,1.3119004433889243,0.6902561762423707,1.9994896090048881,0.2288066851168675,0.0,0.13266699218098174,0.1,0.004029750823974609,0.05462765693664551,0.049490947,1.0436199,1.468168817176545,0.0,0.025856637397032384,0.0,200,0.07363438606262207,0.5089488787335743,0.3477304724479311,48600,0.5725068255355293,0.0
243,1.595149040222168,1.461934994173272,0.8681457115787362,2.5969323989363042,0.47693031353255894,0.0,0.11709659706786056,0.1,0.00646662712097168,0.05533957481384277,0.048354875,1.664293,1.4675454348762178,0.0,0.028912285505353935,0.0,200,0.0355072021484375,0.29177233343680953,0.27860869975886343,48800,0.45931305137290596,0.0
244,1.6141910552978516,1.933991178653098,0.9027278563862093,3.42539138615362,1.066872682103922,0.0,0.12723286692888286,0.1,0.003008604049682617,0.059940338134765625,0.05019289,1.708373,1.5141900092539058,0.0,0.03762927272244306,0.0,200,0.11141610145568848,0.2155444346999907,0.2310010158250439,49000,0.179282280325334,0.0
245,1.5606586933135986,1.451219708917077,0.8941692635565321,2.6710691240175377,0.15683435542301843,0.0,0.13182335893523478,0.1,0.0034067630767822266,0.0617070198059082,0.05032957,0.8362741,1.507892979220223,0.0,0.028565114903705953,0.0,200,0.0701594352722168,0.3369814820410166,0.3352018434224183,49200,0.47043909824996494,0.0
246,1.5892558097839355,2.206680120868103,1.0433754873867116,4.007999599946841,1.5137459683960919,0.0,0.12718147877434907,0.1,0.09956121444702148,0.1722109317779541,0.049640775,2.0574546,1.577771693385011,0.0,0.04307924716732945,0.0,200,0.04535102844238281,0.2970556211125128,0.2791457083265667,49400,0.3065468636988485,0.0
247,1.5927748680114746,1.8885380001228373,1.1601730901422236,3.430327684546286,0.34066603212658725,0.0,0.12954498388524313,0.1,0.10559797286987305,0.33180689811706543,0.050411344,1.049846,1.6088483240587936,0.0,0.03739057209922438,0.0,200,0.042608022689819336,0.3145534611846335,0.30096275286218227,49600,0.7024486479053499,0.0
248,1.6362998485565186,2.3623180770429193,1.1239181552135762,3.8323084191779637,0.8541194811351676,0.0,0.12757334275958623,0.1,0.09850382804870605,0.8186907768249512,0.049563482,1.3030244,1.6841952993572062,0.0,0.04648520739774881,0.0,200,0.04596734046936035,0.26302940197273106,0.23688079710150992,49800,0.3659812372591518,0.0
249,1.5656588077545166,1.934105959493352,1.1370964431342194,3.4711328960541636,0.2675271607293571,0.0,0.12571031141082653,0.1,0.09358501434326172,0.4482533931732178,0.04996771,1.0272373,1.709186365370821,0.0,0.03857400281168921,0.0,200,0.34998178482055664,0.2875554227892561,0.2842516597347327,50000,0.16142328506889025,0.0
250,1.6255052089691162,0.6919804747285192,0.41821153093813385,1.2531426580816583,0.11819843816085464,0.0,0.1270377846827242,0.1,0.0031023025512695312,0.05505180358886719,0.04942623,0.8108287,1.607465776306591,0.0,0.013666793240302996,0.0,200,0.08610129356384277,2.7185422261032195,2.393249142426458,50200,0.13719964512866167,0.0
251,1.7045104503631592,1.6422315274659665,0.9316005266397888,3.1711573482627964,0.6473237608457661,0.0,0.12324637728368126,0.1,0.0061724185943603516,0.060751914978027344,0.050307397,1.7123605,1.6109423514225285,0.0,0.03218972538764218,0.0,200,0.0770254135131836,0.2710374658623937,0.2535929733100441,50400,0.10992270683617096,0.0
252,1.6874074935913086,1.15367184747099,0.32659508635613604,1.574952347033617,0.8045643956657348,0.0,0.12809773181789477,0.1,0.014862775802612305,0.055974721908569336,0.050050516,0.9101442,1.5652153010273746,0.0,0.022691931405074535,0.0,200,0.015882253646850586,0.30926572901969335,0.2008563337694156,50600,0.13433263701721113,0.0
253,1.7561421394348145,1.8013102430195873,0.6366868996378807,2.3882956497015178,0.7470652039015468,0.0,0.1172605114153995,0.1,0.004087924957275391,0.054842233657836914,0.050179288,1.487717,1.588824795226596,0.0,0.03569373716464744,0.0,200,0.1454315185546875,0.17569920161584296,0.19019034323061348,50800,0.1143186619692917,0.0
254,1.7340571880340576,0.8902514110890509,0.8125683995228571,2.164825039665661,0.1635269186390658,0.0,0.11845908141023315,0.1,0.0036919116973876953,0.0710601806640625,0.04978968,1.1733043,1.5189674568128415,0.0,0.01770537446806136,0.0,200,0.017230510711669922,0.7370531075022355,0.6693951036399409,51000,0.1894691362292862,0.0
255,1.6292941570281982,0.7188736080035789,0.15425546282576366,0.9686346632306513,0.5465369896367103,0.0,0.12428775745382863,0.1,0.0028548240661621094,0.0560450553894043,0.050205804,0.9615727,1.4389580719319153,0.0,0.0137660395510576,0.0,200,0.1538989543914795,0.7404540247537023,0.48812135476366547,51200,0.22099045167481,0.0
256,1.624746322631836,0.6997216020730123,0.38818824364916305,1.257209917717859,0.30018899163639307,0.0,0.12832495829977106,0.1,0.002919435501098633,0.05602216720581055,0.050124537,0.7623569,1.365034424946025,0.0,0.013789281775780196,0.0,200,0.03792977333068848,0.8269934773249452,0.549363493287984,51400,0.28393148932199946,0.0
257,1.576568841934204,0.9371986676285778,0.6994704418190099,1.9897127770163552,0.11130105699261826,0.0,0.1255080333309889,0.1,0.0037004947662353516,0.07003617286682129,0.049812466,1.5624504,1.3222508492142802,0.0,0.018593160608810992,0.0,200,0.13934564590454102,0.42294669702693855,0.39111921853047554,51600,0.4175914144643927,0.0
258,1.6513314247131348,1.1424797177415358,1.1420427507359614,3.096153083556081,0.19970341765611382,0.0,0.12001695091765394,0.1,0.003476381301879883,0.07961463928222656,0.04964324,1.8695127,1.3042737360670058,0.0,0.022746587055009385,0.0,200,0.4529135227203369,0.4963187127454488,0.5078432321111167,51800,0.8271604372219423,0.0
259,1.8353569507598877,1.1083698865006633,0.8593838364745771,2.5226139826350913,0.21149663209681863,0.0,0.12238584116674771,0.1,0.0054302215576171875,0.056349992752075195,0.049405184,2.8206112,1.2846833511103717,0.0,0.022068305755609464,0.0,200,0.017179489135742188,0.4583733229513539,0.45167345460273406,52000,0.4849246671904081,0.0
260,1.719801664352417,1.7535758647508488,1.1256316469348815,3.357036061326107,0.558644894141294,0.0,0.12118630454467844,0.1,0.04552268981933594,0.0549619197845459,0.050189883,1.5955299,1.3315726024744194,0.0,0.03441865246733075,0.0,200,0.09367704391479492,0.49018592138403555,0.4560061967285724,52200,0.5634883062286503,0.0
261,1.7428834438323975,2.5515061085560258,1.6454335751308669,4.182192478965434,0.347548044927607,0.0,0.12411464755312719,0.1,0.0028908252716064453,0.05508017539978027,0.049885646,1.1688477,1.45356595308258,0.0,0.05014810495554187,0.0,200,0.03361701965332031,0.5790309674807755,0.5183681560230151,52400,0.5391297854611834,0.0
262,1.753638744354248,1.2521572038246989,0.6277365741899479,1.9274552227202542,0.6055578113070262,0.0,0.12167482131799734,0.1,0.026744842529296875,0.07013702392578125,0.050123833,1.5383562,1.4334250781567919,0.0,0.023891686372068885,0.0,200,0.05426383018493652,0.22510731682246446,0.20397504904697505,52600,0.3856059842691553,0.0
263,1.6086583137512207,1.6013830197219843,1.000021241068206,2.89963883087225,0.13010540571761886,0.0,0.12191833073936696,0.1,0.0029900074005126953,0.05526089668273926,0.049848534,1.099495,1.4502208723133112,0.0,0.0311605711318546,0.0,200,0.020980119705200195,0.31500739302590275,0.29027661391902715,52800,0.5726457662032299,0.0
264,1.6761963367462158,1.8445885930994792,1.3935353758936357,3.615427981177492,0.09755140973715884,0.0,0.12610847479764073,0.1,0.003950595855712891,0.0561978816986084,0.04948304,1.3975842,1.489657644391928,0.0,0.03662335879367411,0.0,200,0.04476284980773926,0.4133198078926126,0.40603721520805786,53000,0.5985514106689594,0.0
265,1.7141120433807373,1.1130211397903784,0.7194696746104037,1.994719096678394,0.31658003509199323,0.0,0.12855602210501024,0.1,0.0029010772705078125,0.05509138107299805,0.049870204,0.8675725,1.451993993931773,0.0,0.02191251106585645,0.0,200,0.02267599105834961,0.44755957288681675,0.4166453055490964,53200,0.7750276302262545,0.0
266,1.6975398063659668,1.6531199779667198,0.35791300307041546,2.215804851778097,1.2290042087769157,0.0,0.13430785138518356,0.1,0.0031824111938476562,0.056496620178222656,0.049788047,1.0731865,1.4721065923352676,0.0,0.03278502670819619,0.0,200,0.04765510559082031,0.12596917495023643,0.11881994700987855,53400,0.49293595750373936,0.0
267,1.6334898471832275,2.122408355946665,0.7193578727389959,3.13235190467841,1.293561264597605,0.0,0.12435496335472841,0.1,0.002888202667236328,0.05460071563720703,0.0498981,1.4156559,1.5371367686964075,0.0,0.04131866114964636,0.0,200,0.013243675231933594,0.17495918443660557,0.1701528074675893,53600,0.4667897104348912,0.0
268,1.720628261566162,3.454294825621606,0.5595657530616431,4.107365160125519,2.5640043478337144,0.0,0.12274776386925344,0.1,0.002995729446411133,0.05437922477722168,0.050411962,1.0961722,1.7288525743889274,0.0,0.06826155451812971,0.0,200,0.08117222785949707,0.3130729666682407,0.24804331410973848,53800,0.6428440963028752,0.0
269,1.6697275638580322,1.8055644909964568,1.5299956086062398,3.980592215687994,0.34720937219395176,0.0,0.12154619466073338,0.1,0.0977935791015625,0.054113149642944336,0.05003977,1.5581349,1.7365237660496804,0.0,0.03580467277161983,0.0,200,0.039998531341552734,0.42254591005381165,0.44518870848975856,54000,1.6369575868492898,0.0
270,1.7610392570495605,0.8900710412990553,0.5976957161619448,1.8247102536154278,0.26590100649191273,0.0,0.12365063191215821,0.1,0.09923052787780762,0.5967206954956055,0.049709007,0.92689186,1.651878493574618,0.0,0.01763262011479154,0.0,200,0.030129194259643555,2.1083131996735194,1.7325845152969293,54200,0.47691803208808325,0.0
271,1.7411391735076904,1.6089395638193764,1.1339973388848321,3.3920961457588508,0.27869789032808573,0.0,0.1262131641841554,0.1,0.05307292938232422,0.05705595016479492,0.04995559,1.1228064,1.647584600599094,0.0,0.03136921590208583,0.0,200,0.07080936431884766,0.39034114109393087,0.36805286499249357,54400,0.5661666104510832,0.0
272,1.697528600692749,2.3730799574945296,1.5624303174219918,4.872497395695163,0.8506617345461029,0.0,0.12832081208039028,0.1,0.0973045825958252,0.2785227298736572,0.04994459,1.4771975,1.7201341362886375,0.0,0.046557850918863886,0.0,200,0.09305214881896973,0.36403685206005354,0.3770585275172195,54600,0.37704870302494237,0.0
273,1.704451322555542,1.8531072419125023,1.2290320391597596,3.091765998734588,0.3232490607449797,0.0,0.1266003418847588,0.1,0.09601449966430664,0.5005757808685303,0.050040904,0.88838845,1.733431446851024,0.0,0.03604897617678791,0.0,200,0.17069554328918457,0.33059104283222185,0.329689725623138,54800,0.4761895298163034,0.0
274,1.7991418838500977,3.011100328894461,1.3342320469988533,4.540223303582283,0.9735627563781278,0.0,0.12535035396432467,0.1,0.0030357837677001953,0.05505847930908203,0.050396834,1.018855,1.8611983350553676,0.0,0.05944846021183041,0.0,200,0.08440375328063965,0.31906301699282325,0.28762755389913325,55000,0.5060226324341641,0.0
275,1.768277645111084,1.9872141518905884,0.6703328450065558,2.8680484156597355,0.9867211946858375,0.0,0.12669472568447315,0.1,0.005986690521240234,0.09368681907653809,0.05033925,1.0144863,1.8737999167388897,0.0,0.039100663982928524,0.0,200,0.023941993713378906,0.13849136457683633,0.13973450362589582,55200,0.7903076776679904,0.0
276,1.6653571128845215,1.6321210768851135,0.9214831052831219,2.5578885514469665,0.6276256991543916,0.0,0.12851917672783594,0.1,0.0030126571655273438,0.054711341857910156,0.050389666,1.0063329,1.849632032753512,0.0,0.032344215104954235,0.0,200,0.0726923942565918,0.33342996396374275,0.34727774629893565,55400,0.4539265410533555,0.0
277,1.702420949935913,0.9025675420239095,0.7339848440896787,2.059317352562209,0.12472673703368357,0.0,0.1257354552837,0.1,0.0030629634857177734,0.05739784240722656,0.050719213,0.89150864,1.7549255836805517,0.0,0.01786829366691099,0.0,200,0.015779972076416016,1.4886435591352047,1.2620472578626478,55600,0.31368163481950007,0.0
278,1.7328195571899414,1.7669838737318284,1.0853807019396493,2.84478195280113,0.34469273440429404,0.0,0.12672796131495892,0.1,0.003148317337036133,0.5114352703094482,0.0493167,0.9097312,1.7561314126856795,0.0,0.03474308347960144,0.0,200,0.16485905647277832,0.2944379724023095,0.28769792947149203,55800,0.30646194878937744,0.0
279,1.7130637168884277,1.034243815582855,0.6782271798721021,2.0195362605721163,0.3838137628848542,0.0,0.12369674166865524,0.1,0.10226273536682129,0.06420493125915527,0.050083205,1.0855926,1.6839426529753971,0.0,0.020384685546647765,0.0,200,0.166487455368042,0.6873095379359967,0.5492887814247479,56000,0.353034410884484,0.0
280,1.7132940292358398,2.5911319361674945,1.5545409562485795,5.26766803691238,1.47223552658944,0.0,0.1278298100319478,0.1,0.0031328201293945312,0.055184364318847656,0.04931366,1.7641537,1.774661581294607,0.0,0.05109300627675128,0.0,200,0.017293930053710938,0.36958637107513276,0.38127283285770075,56200,0.4097998813744383,0.0
281,1.7624292373657227,1.2219418463996525,0.8645854655125715,2.63228418943338,0.27948455468721417,0.0,0.1288805129605302,0.1,0.0031044483184814453,0.05596446990966797,0.049839236,1.088339,1.7193896078051114,0.0,0.024191538863554362,0.0,200,0.07596421241760254,0.4319392564339198,0.42194487026026795,56400,0.5049821850354943,0.0
282,1.9163751602172852,1.9386843189948342,0.7336008589024202,2.8972611189444484,0.9424597179985034,0.0,0.12681766591693736,0.1,0.002887248992919922,0.05522632598876953,0.04980736,1.3273249,1.7413190789240838,0.0,0.038230640648516445,0.0,200,0.01447296142578125,0.2194320196114955,0.21641693800885026,56600,0.7199548538511163,0.0
283,1.5885009765625,1.7638668102053607,1.1499994082843266,3.359446569275437,0.6536078038204571,0.0,0.1241066802962567,0.1,0.014008283615112305,0.22899746894836426,0.049885165,1.3860366,1.7435738520522115,0.0,0.03500404611396318,0.0,200,0.1729121208190918,0.3471253630935384,0.3441653702189263,56800,0.4474396400392589,0.0
284,1.6010639667510986,1.0977264454870643,0.8127057833432937,2.356843328874455,0.1715212216079005,0.0,0.12218460824216526,0.1,0.003300905227661133,0.05636930465698242,0.049594555,1.2400512,1.6789891113956967,0.0,0.02138817518572176,0.0,200,0.058762311935424805,0.5191486461214038,0.4960070706311377,57000,0.5701445889450296,0.0
285,1.5968337059020996,1.4088559344453784,0.7408189657519,2.1909406820745083,0.1944882015581391,0.0,0.12253726761319518,0.1,0.003100156784057617,0.054879188537597656,0.050583556,0.94883424,1.651975793700665,0.0,0.027736929104019786,0.0,200,0.015663623809814453,0.303517074996138,0.29728614830561273,57200,0.5124418314106801,0.0
286,1.6533615589141846,1.1488136508463829,0.5934265940676966,1.9468386744854997,0.3153069646500208,0.0,0.12751164905048273,0.1,0.0032639503479003906,0.056365251541137695,0.050083704,1.4240254,1.6016595794152368,0.0,0.022524979612070298,0.0,200,0.038976192474365234,0.3500244770078482,0.32700256240641107,57400,0.467806742651429,0.0
287,1.7017860412597656,1.8012547231536913,0.4819487949202059,2.535980103548562,1.1862962849293146,0.0,0.12471069005061966,0.1,0.0030345916748046875,0.05556797981262207,0.050117493,1.4502841,1.6216190937890824,0.0,0.03531869182303305,0.0,200,0.033457279205322266,0.15230583589466595,0.1520171274110243,57600,0.7059227262085498,0.0
288,1.6415290832519531,1.7900342183469715,0.8157934119789784,2.5821758798302508,0.42699595047641936,0.0,0.12884671294704134,0.1,0.002942323684692383,0.055490970611572266,0.05024931,0.8781931,1.6384606062448714,0.0,0.03479856626376963,0.0,200,0.01306295394897461,0.2592471246538207,0.24428066163140102,57800,0.7717026706461088,0.0
289,1.7044010162353516,0.9583445453485377,1.3077111940739248,3.2145994675980645,0.033548862160737374,0.0,0.12616835431637197,0.1,0.0032160282135009766,0.05630207061767578,0.050058376,1.453369,1.570449000155238,0.0,0.018864561967310945,0.0,200,0.07483315467834473,0.6668396467814394,0.6681318486208528,58000,0.5872124361174733,0.0
290,1.7216839790344238,3.352281980889091,0.4229132776720573,4.0465927250029665,2.9360926311650717,0.0,0.12094443431969953,0.1,0.0029993057250976562,0.058448076248168945,0.04959341,1.0514863,1.7486322982286233,0.0,0.06670092497454955,0.0,200,0.16038084030151367,0.32067453923582295,0.2829415307720302,58200,0.4260798238858167,0.0
291,1.7356090545654297,1.749048680689495,0.8571486200390337,3.0544724500166427,0.6477024807073456,0.0,0.13173396218984837,0.1,0.002955198287963867,0.05552530288696289,0.049257055,1.2367986,1.7486739364747106,0.0,0.03427912171459159,0.0,200,0.08162188529968262,0.23261708720939972,0.23039597460720904,58400,0.3702228827129104,0.0
292,1.6975319385528564,2.3264119728860075,1.1890832797818491,3.587135513076932,0.948027595479112,0.0,0.1209364337300893,0.1,0.002895832061767578,0.05670452117919922,0.050321184,1.2536595,1.8064477401158405,0.0,0.046082661769169544,0.0,200,0.014463424682617188,0.24150717811112873,0.21760585428292833,58600,0.3429958427326208,0.0
293,1.6249582767486572,1.7669571101837538,1.7418894397565543,4.533043711405361,0.1006070336401843,0.0,0.13292607354665414,0.1,0.002919912338256836,0.05555582046508789,0.04984552,1.4649816,1.802498677122632,0.0,0.03465059162349843,0.0,200,0.014328718185424805,0.5209192602672782,0.5259818496102576,58800,0.22391856321849946,0.0
294,1.6721992492675781,2.0430174100469833,1.4704089489448657,3.7860957308115224,0.34629372197757796,0.0,0.1281688133741198,0.1,0.002980470657348633,0.055695295333862305,0.050885644,1.0684271,1.826550550415067,0.0,0.039876525976252714,0.0,200,0.11944389343261719,0.3812100798467456,0.38114983895788085,59000,0.45818103512844705,0.0
295,1.748863935470581,1.6366740290695803,1.01013447396367,3.3806470966678335,0.9798980476443729,0.0,0.12682981473979466,0.1,0.0029883384704589844,0.05407309532165527,0.050299663,1.5291132,1.8075628982805183,0.0,0.03235969258991822,0.0,200,0.1563270092010498,0.3255136852698037,0.31720210773689017,59200,0.4709879829082533,0.0
296,1.682483196258545,1.2837780922151971,0.8352440782151916,2.448342264710575,0.1152018097602745,0.0,0.12637721074859945,0.1,0.002972126007080078,0.05425715446472168,0.04987217,1.1197902,1.7551844176739864,0.0,0.0255509471245422,0.0,200,0.10100460052490234,0.5780238739940142,0.4924613622901092,59400,0.5018878465785345,0.0
297,1.7051141262054443,2.152830616065164,0.9532487423663045,3.7408043220354146,1.2701877779300854,0.0,0.12077345324710476,0.1,0.0029556751251220703,0.05661654472351074,0.049165,2.9432821,1.7949490375131043,0.0,0.04287432444146549,0.0,200,0.014142274856567383,0.18916547773863585,0.19486003476410896,59600,0.40542536937845036,0.0
298,1.7373027801513672,1.7100401834546743,1.1990197323838732,3.519912824873363,0.5682406563814603,0.0,0.1257709344091112,0.1,0.005375385284423828,0.055069684982299805,0.049521036,1.9194174,1.7864581521072613,0.0,0.033734188957259936,0.0,200,0.015330076217651367,0.35218312345159003,0.3504179814777143,59800,0.2957005910422859,0.0
299,1.7323532104492188,2.1485754504233108,0.9513950295186695,3.7651047100870993,1.350043116074618,0.0,0.13688396810995543,0.1,0.0033211708068847656,0.08430647850036621,0.05000721,1.6240554,1.8226698819388663,0.0,0.042609235126702706,0.0,200,0.032192230224609375,0.2424790406512359,0.23338698109946576,60000,0.2768796178170753,0.0
300,1.677471399307251,0.5355525743193972,0.30807706680189617,1.068118005227434,0.3267359783996962,0.0,0.12770316078242253,0.1,0.0030107498168945312,0.05385279655456543,0.049957324,0.9028955,1.6939581511769195,0.0,0.010521533727693235,0.0,200,0.04857230186462402,4.430334318487997,3.84357996063903,60200,0.2601890963377176,0.0
301,1.8098645210266113,1.027195181286669,0.6307844088923727,1.7467065490890563,0.25006165818853937,0.0,0.1245482630110747,0.1,0.10403680801391602,0.3030397891998291,0.05009668,0.823783,1.6272818541878944,0.0,0.02047053908491077,0.0,200,0.0835878849029541,0.575197812175748,0.4529584030936309,60400,0.3748811209926293,0.0
302,2.6716415882110596,1.9911927031106775,1.3325670166400572,4.274576616177472,0.930419367958263,0.0,0.12619579128118763,0.1,0.09749341011047363,0.2534606456756592,0.0501619,2.3088279,1.6636729390801728,0.0,0.03943630653895236,0.0,200,0.022382259368896484,0.34434961224727,0.3570541896092754,60600,0.3223252573719203,0.0
303,1.6481921672821045,1.9266515053997602,1.0805944200578668,3.4549704614462167,0.4629617073674966,0.0,0.12764690642834697,0.1,0.003304719924926758,0.05597257614135742,0.049516097,1.1126261,1.6899707957121315,0.0,0.03798714591179392,0.0,200,0.15694212913513184,0.3016650346809939,0.3019282685048366,60800,0.1411875974085019,0.0
304,1.659728765487671,0.6489078247277689,0.3467440625368036,1.1534359795698312,0.23000036981335806,0.0,0.1307421569492947,0.1,0.0033600330352783203,0.05583000183105469,0.049670186,1.4589376,1.5858644986136954,0.0,0.012953946739631936,0.0,200,0.08329510688781738,1.634484111715834,1.4967172271170361,61000,0.19917227433323267,0.0
305,1.6312682628631592,2.0561524071684376,1.2267477000638018,3.5882033554043202,0.3278072197631885,0.0,0.1168983438244102,0.1,0.0030443668365478516,0.05611109733581543,0.049990587,1.0538386,1.6328932894691697,0.0,0.04027119883062467,0.0,200,0.04533576965332031,0.37481465179782325,0.37021961922084307,61200,0.16609953372650552,0.0
306,1.622675895690918,1.0956525969212736,0.7345716246083871,2.1590710480699977,0.08297821182372254,0.0,0.1249264941301245,0.1,0.003077268600463867,0.05851435661315918,0.049796663,1.6799386,1.57916922021438,0.0,0.02161561923363313,0.0,200,0.013359546661376953,0.3555159158314937,0.3613108932337879,61400,0.1948650597996023,0.0
307,1.6024997234344482,2.565813097097544,1.375417100005872,4.097101539482958,0.8564873247593411,0.0,0.12028542045561334,0.1,0.003996372222900391,0.0548853874206543,0.04970933,1.650947,1.6778336079026965,0.0,0.050901572767675214,0.0,200,0.015295267105102539,0.3750117409709961,0.3531158870652922,61600,0.1944533535170695,0.0
308,1.7131290435791016,2.8638103293610166,1.2210305548762073,4.77117936559774,1.3666587929549705,0.0,0.12543979807540756,0.1,0.0045833587646484375,0.09001994132995605,0.05023021,1.4686942,1.7964312800485285,0.0,0.05651716601794595,0.0,200,0.045905351638793945,0.346849517524303,0.29870909965835457,61800,0.2554699126573953,0.0
309,1.718083143234253,2.9182180905958846,0.8874871195343768,3.8053099231197574,1.4430644218542021,0.0,0.12998750082536148,0.1,0.005187511444091797,0.06090188026428223,0.05024281,0.996596,1.9086099611032643,0.0,0.05774688340514885,0.0,200,0.09035682678222656,0.24776299079155206,0.19280182471450688,62000,0.258463646735349,0.0
310,1.6924302577972412,1.95595161267436,1.0384132815225395,2.6367995245862526,0.16354346943495351,0.0,0.12736587362090548,0.1,0.004964113235473633,0.055860280990600586,0.049932297,0.83298737,1.9133441262603739,0.0,0.038768588736881986,0.0,200,0.09127330780029297,0.22958844039775997,0.24491008439028597,62200,0.17765862572257216,0.0
311,1.6918225288391113,3.323432066085987,1.5756265923299615,4.740240013085725,0.8036028545637635,0.0,0.1263428221563461,0.1,0.005136966705322266,0.054465532302856445,0.050259244,1.2091187,2.054352920242935,0.0,0.06525189157214223,0.0,200,0.02923274040222168,0.29348971023250287,0.259208157140478,62400,0.26277650154190646,0.0
312,1.7141668796539307,2.6085419596156445,0.847134420652219,3.4691202911276435,1.594444395959321,0.0,0.12657857272252296,0.1,0.09386181831359863,0.197706937789917,0.050532755,1.28167,2.109771824180206,0.0,0.051030325922033284,0.0,200,0.013289213180541992,0.1485035504559672,0.14980650469229684,62600,0.28198872820531634,0.0
313,1.7173616886138916,1.4756894960202003,1.4519970706135068,3.966425076526484,0.3630829590040088,0.0,0.12419413971263259,0.1,0.003179788589477539,0.05544137954711914,0.049241044,1.7470502,2.0463635913642055,0.0,0.028853037618427373,0.0,200,0.15786075592041016,0.7528622191498562,0.7178260304988996,62800,0.33385947204680977,0.0
314,1.7321124076843262,1.4991677893296471,0.7191948901247437,2.611298269665847,0.7410552546652525,0.0,0.12656434492383067,0.1,0.0030100345611572266,0.05459952354431152,0.05063111,0.914298,1.9916440111607498,0.0,0.029349483575167448,0.0,200,0.015339851379394531,0.5157008166207488,0.35803912401583476,63000,0.39324949523391206,0.0
315,1.7950243949890137,2.429903558807543,0.7510332411180378,3.605313481865782,1.549822536599782,0.0,0.1265317884296829,0.1,0.003082752227783203,0.05518054962158203,0.050252408,1.1559727,2.0354699659254294,0.0,0.04728738588530643,0.0,200,0.12366104125976562,0.12357915163863786,0.13933597235304127,63200,0.2255582255461861,0.0
316,1.7525198459625244,3.1595779293553705,1.173633403762234,4.364628970119217,1.8044782433842754,0.0,0.12635855305254204,0.1,0.0036020278930664062,0.05429720878601074,0.04999207,1.416973,2.1478807622684233,0.0,0.06233071557562622,0.0,200,0.016103267669677734,0.21198112722799678,0.20266639376758258,63400,0.31955202338486094,0.0
317,1.7193717956542969,0.916773109219403,0.6903426646785428,1.9755168969222145,0.18401102925515028,0.0,0.12424457326699634,0.1,0.003045797348022461,0.06035494804382324,0.05035369,0.8862084,2.024769996963521,0.0,0.01811360044071593,0.0,200,0.048696279525756836,1.7623966182524207,1.6369454487022594,63600,0.321298495976358,0.0
318,1.7074534893035889,0.9631192332413733,0.7826112655157307,2.2895559195674493,0.2578418620146469,0.0,0.12744291802030802,0.1,0.03951454162597656,0.060623884201049805,0.0498913,1.1697018,1.9186049205913065,0.0,0.019045637854407774,0.0,200,0.13654780387878418,1.2940385080380017,0.9855719308832015,63800,0.4446994601362582,0.0
319,1.7286286354064941,2.771777976623111,0.4455322180904997,3.4382326740801528,2.1901546294422776,0.0,0.12278383554064791,0.1,0.015246152877807617,0.05386805534362793,0.049419492,2.5089276,2.003922226194487,0.0,0.05469791112184507,0.0,200,0.08058714866638184,0.13741745711826203,0.16109232591757888,64000,0.4277111697744303,0.0
320,1.6870112419128418,1.3239904373640576,1.0675414357535729,2.42208136769207,0.18670529836303168,0.0,0.12446055028244739,0.1,0.004593372344970703,0.05687284469604492,0.04958869,0.9964984,1.935929047311444,0.0,0.026413840316281464,0.0,200,0.09021377563476562,0.520434941321261,0.49487261908499564,64200,0.36760681612301965,0.0
321,1.6672089099884033,2.395799172528432,0.7304065973284569,3.5108297859828155,1.4702496878027693,0.0,0.11879159702732622,0.1,0.0030050277709960938,0.05758047103881836,0.04996541,1.6278889,1.981916059833143,0.0,0.04764893576582968,0.0,200,0.016031742095947266,0.16961099006703742,0.1708565946493012,64400,0.23188230767774545,0.0
322,1.7229814529418945,1.8102301106445693,0.8891702354341087,2.7134178993759397,0.3838689289697823,0.0,0.12442614073636518,0.1,0.0030951499938964844,0.054935455322265625,0.04999632,1.4288177,1.9647474649142858,0.0,0.03587885296578727,0.0,200,0.1615581512451172,0.21990397686028554,0.215435218588787,64600,0.2980896659687985,0.0
323,1.6609501838684082,2.760625974131315,0.45010809626309767,3.2585642651890256,2.1158995448676925,0.0,0.13169640277042907,0.1,0.003040313720703125,0.05671238899230957,0.049644623,1.3419626,2.0443353158359887,0.0,0.054890235128760345,0.0,200,0.01550745964050293,0.1704840036378284,0.1496664240233725,64800,0.18970521426587528,0.0
324,1.7120187282562256,2.878152465660554,1.2516658140710217,4.450301861691431,1.1183998228783878,0.0,0.12462613655411253,0.1,0.00393223762512207,0.055212974548339844,0.049687248,1.4348449,2.127717030818445,0.0,0.056829377137196734,0.0,200,0.014954566955566406,0.2746121653941576,0.2396324370327241,65000,0.21962757160362756,0.0
325,1.7096428871154785,2.8249415000646767,1.6659238663400604,4.744569488096364,1.1139934982445974,0.0,0.12362956505593657,0.1,0.08083486557006836,1.39027738571167,0.049924005,1.2283256,2.1974394777430684,0.0,0.05527167889954103,0.0,200,0.05909919738769531,0.30278942584173935,0.273855421283129,65200,0.19846569297306402,0.0
326,1.6236371994018555,2.661185610507673,2.0009191901210412,5.7961830128441445,0.7168607143716745,0.0,0.1240227436697635,0.1,0.005258321762084961,0.060517311096191406,0.04949502,1.4802381,2.243814091019529,0.0,0.052621829095512544,0.0,200,0.04711151123046875,0.3949130363644917,0.3905617425623,65400,0.20949214486749237,0.0
327,1.727952003479004,2.3082473201024087,1.600576021155375,4.986366221576419,0.7859865752827675,0.0,0.12391689152577853,0.1,0.09355902671813965,0.1654365062713623,0.05038849,1.611201,2.250257413927817,0.0,0.0455090101472087,0.0,200,0.14026093482971191,0.39982459522344416,0.4018484717945702,65600,0.19472848281742383,0.0
328,1.6854403018951416,1.8079843850019142,0.5651530713283577,2.754866363526269,1.2815587504159576,0.0,0.12407247681811483,0.1,0.0076906681060791016,0.3765418529510498,0.050745238,1.48372,2.206030111035227,0.0,0.035644367891815104,0.0,200,0.11083436012268066,0.30035979466245083,0.2489185478315188,65800,0.26378381768095666,0.0
329,1.7743704319000244,2.6549341359818586,0.6332291542230816,3.5776515647409584,1.9175374866656527,0.0,0.12843957403542547,0.1,0.10130929946899414,0.08870935440063477,0.049852047,1.512989,2.25092051352989,0.0,0.05233107677420053,0.0,200,0.03408622741699219,0.08340488399382673,0.0853317690090074,66000,0.21617553483193128,0.0
330,1.7323338985443115,3.0897750005575495,2.13614745367917,6.492458602438599,0.9585679930590033,0.0,0.12807394903418354,0.1,0.002951383590698242,0.054672956466674805,0.050034273,2.020072,2.334805962232656,0.0,0.06067281620622952,0.0,200,0.02040576934814453,0.3499476213620716,0.34878577266246347,66200,0.24894685941240027,0.0
331,1.7197799682617188,2.0269388663013945,1.6533450049291019,4.607694261549598,0.38992256680728454,0.0,0.12233933470717345,0.1,0.0031976699829101562,0.058003902435302734,0.049235255,1.8933425,2.30401925263953,0.0,0.04025667672883658,0.0,200,0.025763750076293945,0.4203987730434432,0.41870278654918835,66400,0.30156878972229,0.0
332,1.7734079360961914,2.9749462868556216,1.8380333688437478,5.582152248416527,0.47580133436294936,0.0,0.11840094061191185,0.1,0.08908534049987793,1.4475996494293213,0.049993925,1.5645783,2.371111956061139,0.0,0.05869718452645735,0.0,200,0.03265261650085449,0.319719373953581,0.3161636847772932,66600,0.6801970470985238,0.0
333,1.7031059265136719,1.6522748503583757,0.8461625467635584,3.0300444760668435,0.7311709098126257,0.0,0.12350484037472712,0.1,0.004709005355834961,0.055405616760253906,0.049702927,1.4355989,2.2992282454908626,0.0,0.03254368068147938,0.0,200,0.15288114547729492,0.3837597417051477,0.36116050739464545,66800,0.6672982278471684,0.0
334,1.7780306339263916,2.894178368709653,1.389709535196201,4.709158987911841,0.8133080663209358,0.0,0.1253993747986207,0.1,0.09781599044799805,1.2597928047180176,0.050383653,1.2511302,2.3587232578127417,0.0,0.0571077065925057,0.0,200,0.023675918579101562,0.2542392999218493,0.25395913566011236,67000,0.5929515456455304,0.0
335,1.7065517902374268,2.7350103537036685,0.9743994992242409,4.404193736288745,2.00821039201101,0.0,0.1268039017946205,0.1,0.002947092056274414,0.05598616600036621,0.04990865,2.1432931,2.3963519674018343,0.0,0.05426582418120433,0.0,200,0.024008989334106445,0.1514860017743044,0.14390357018725264,67200,0.5959139280753084,0.0
336,1.7522928714752197,2.2629747917391594,1.605990989068288,4.851429523008561,0.8483575489617902,0.0,0.12407754086626885,0.1,0.1040496826171875,0.5322349071502686,0.05002276,1.382805,2.3830142498355666,0.0,0.04454122891896049,0.0,200,0.12839341163635254,0.33647693063804396,0.33706653902578315,67400,0.5948047317164484,0.0
337,1.7396104335784912,1.5025526343656022,0.5391749745406919,2.3790817963303743,1.002350536042537,0.0,0.1257087910385012,0.1,0.09726572036743164,0.21779704093933105,0.05030819,0.92143273,2.29496808828857,0.0,0.029665425590318144,0.0,200,0.060623884201049805,0.5853441135532941,0.472024169113946,67600,0.2764145586602153,0.0
338,1.763646125793457,1.6891672271757228,1.606799131913056,4.4271516781856315,0.39472752645064174,0.0,0.11926646694618365,0.1,0.0029172897338867188,0.05380678176879883,0.050376244,1.8044121,2.2343880021772855,0.0,0.03371617640282125,0.0,200,0.09069252014160156,0.6890950216005676,0.5862745571587905,67800,0.5553979523316596,0.0
339,1.7333290576934814,1.3397253395525714,0.5902269202189931,1.883026807574985,0.3462645777534475,0.0,0.13435117671870414,0.1,0.003421783447265625,0.05625557899475098,0.050074708,0.7361984,2.1449217359148145,0.0,0.025896584402310966,0.0,200,0.037850379943847656,0.4378695336854073,0.3128508596502396,68000,0.2706296449690461,0.0
340,1.6946232318878174,2.276581345356081,1.294766661759565,3.9365352288232365,0.8745752139126255,0.0,0.12360981030114732,0.1,0.003064870834350586,0.055957794189453125,0.049686126,1.0628854,2.1580876968589413,0.0,0.0451173633134469,0.0,200,0.031516313552856445,0.299905768387382,0.31646790769888317,68200,0.3996373989778048,0.0
341,1.6711499691009521,1.8333986787153502,1.223176546328123,3.7064012804670083,0.544606611936014,0.0,0.12107781419308569,0.1,0.003718137741088867,0.0709829330444336,0.04992862,1.5526607,2.1256187950445824,0.0,0.03648329778629518,0.0,200,0.16472697257995605,0.35694729983095164,0.35386232086352487,68400,0.9315636513613584,0.0
342,1.7384107112884521,2.022899123365401,0.888132800073568,3.2464771101205665,1.1165987420940076,0.0,0.12733274896997768,0.1,0.003171682357788086,0.055614471435546875,0.049227312,1.0032315,2.1153468278766643,0.0,0.03961111449844579,0.0,200,0.02432703971862793,0.21265302951826778,0.1944534275176321,68600,1.0363155025217263,0.0
343,1.7947025299072266,2.593965914543414,1.3223650094575383,4.56401951303454,0.8620417465639071,0.0,0.122664356707684,0.1,0.003046274185180664,0.05780434608459473,0.04999473,2.8018289,2.1632087365433392,0.0,0.05114007004159024,0.0,200,0.019627094268798828,0.2865725331105832,0.25438840482050296,68800,1.4245247082696297,0.0
344,1.743628978729248,2.417531245340168,1.9302657495880287,4.366247687448663,0.09358149963134092,0.0,0.13027762606235768,0.1,0.005205392837524414,0.07310199737548828,0.049376287,1.0562478,2.1886409874230224,0.0,0.04782460219210336,0.0,200,0.05783510208129883,0.41684590322468007,0.40029033244640105,69000,1.259005025772901,0.0
345,1.6462204456329346,0.8966668560306162,0.46327617744400457,1.4880845335348842,0.18872644228420263,0.0,0.12436977980052374,0.1,0.004529714584350586,0.055138587951660156,0.049980063,0.93006974,2.0594435742837818,0.0,0.017786919152123593,0.0,200,0.06574320793151855,1.9948783836340682,1.8491307998056732,69200,0.9816224762826004,0.0
346,1.716174602508545,2.3079246226284793,1.48621313447031,3.950742441603675,0.5850379299190446,0.0,0.12849619543114985,0.1,0.004552602767944336,0.05634307861328125,0.04966801,1.0594774,2.0842916791182517,0.0,0.04543691903013708,0.0,200,0.16450905799865723,0.32224855263768526,0.3244769832776805,69400,0.8790002401117588,0.0
347,1.6924703121185303,2.6312372064250664,0.6031551398860097,3.124069398604428,1.6224602070913103,0.0,0.12809957607562591,0.1,0.0029222965240478516,0.11963057518005371,0.050164994,1.096658,2.1389862318489334,0.0,0.051561016176990694,0.0,200,0.08900904655456543,0.12580058677021058,0.12132767247689005,69600,1.1849211425689286,0.0
348,1.738910436630249,1.6654909416525197,1.2154276076512156,3.699187962762888,0.48289786134120716,0.0,0.12026570763688617,0.1,0.0030977725982666016,0.055078983306884766,0.04974277,1.8054789,2.091636702829292,0.0,0.03259984547626196,0.0,200,0.09435319900512695,0.3837885256310016,0.38044289020704264,69800,1.9227471561421048,0.0
349,1.6733298301696777,1.553333517433786,0.8380214360215443,2.9883507831769656,0.9075315016852078,0.0,0.13018802084150996,0.1,0.002928018569946289,0.05639791488647461,0.050007172,1.0975305,2.037806384289741,0.0,0.03092095770141651,0.0,200,0.019704103469848633,0.46692349526359794,0.4090999955136069,70000,2.0130763103481057,0.0
350,1.8011648654937744,1.8987122704674753,0.3534117100076382,2.4392563845850574,1.5144603496246323,0.0,0.1221445823091425,0.1,0.0030188560485839844,0.055266380310058594,0.05029143,1.4973271,2.0238969729075147,0.0,0.037280815798846484,0.0,200,0.06583380699157715,0.053652416097744626,0.05909390634945838,70200,2.171058408838108,0.0
351,1.6476161479949951,2.912497943906089,0.9182867094216309,4.044024589505751,1.4925364257089977,0.0,0.1268451297591851,0.1,0.0028738975524902344,0.05503988265991211,0.049923476,1.387807,2.112757070007372,0.0,0.05741800139801418,0.0,200,0.09533834457397461,0.21856044674764985,0.20871917694818404,70400,2.244746446987411,0.0
352,1.7021293640136719,2.0440825881285436,1.1065099157656275,3.562009881530059,0.4376138963494918,0.0,0.12720241226068524,0.1,0.09308910369873047,0.20021629333496094,0.050487746,1.2181548,2.105889621819489,0.0,0.04007836822175965,0.0,200,0.2887592315673828,0.24613630570236505,0.23518689440120027,70600,3.1525704597928836,0.0
353,1.7380211353302002,2.837922550555069,1.0232194972536974,4.159478852607897,1.2849311715664016,0.0,0.12313696534945348,0.1,0.060080528259277344,0.05654549598693848,0.049359854,1.2235206,2.1790929146930473,0.0,0.05560667420139175,0.0,200,0.0971062183380127,0.208639050776139,0.17380554452954722,70800,2.7181714162075163,0.0
354,1.7390024662017822,2.198684186672857,1.5786134696734422,4.793627356170746,0.5458529770302306,0.0,0.1212213776660436,0.1,0.09895634651184082,0.22565031051635742,0.05066998,1.6940825,2.1810520418910286,0.0,0.04353472920836067,0.0,200,0.08460259437561035,0.3215064228677912,0.32369805637563714,71000,2.4642169974355257,0.0
355,1.713897466659546,3.382635531477207,1.6192018714001377,4.903073760035125,0.9104097661811912,0.0,0.12332752996223757,0.1,0.0967109203338623,0.5095086097717285,0.04993534,1.0888832,2.3012103908496466,0.0,0.06649088624954567,0.0,200,0.03187227249145508,0.2881509991762022,0.2543341074710605,71200,1.5613203466541348,0.0
356,1.678875207901001,3.2696245565039987,1.0444611416450755,5.03404173042838,2.3730343586766076,0.0,0.13682721323987013,0.1,0.0036203861236572266,0.436445951461792,0.049895078,1.3171387,2.398051807415082,0.0,0.06468750580118209,0.0,200,0.1633749008178711,0.1357316819523481,0.1066486167766551,71400,2.8261009162283908,0.0
357,1.7611312866210938,3.2987569529424494,1.4378287848852567,4.782694257326404,0.9839996648071042,0.0,0.12729314855533316,0.1,0.0996098518371582,0.3602721691131592,0.04954849,0.9164361,2.4881223219678192,0.0,0.0648593864070702,0.0,200,0.023916006088256836,0.1771422525658155,0.18272046150180757,71600,1.638608490118285,0.0
358,1.712684154510498,3.193001726090632,0.45905238453163416,3.920973659341707,2.67222351948067,0.0,0.13258294216094343,0.1,0.003994464874267578,0.05620265007019043,0.04988333,0.9357164,2.5586102623801006,0.0,0.063321138312229,0.0,200,0.1157996654510498,0.07592736865528825,0.06519245413255191,71800,1.240983369234869,0.0
359,1.6752634048461914,2.0971765467704135,0.8969401937567296,3.6240100951397727,1.4301096478049553,0.0,0.12750434888204576,0.1,0.0036475658416748047,0.07138276100158691,0.049709197,1.2817498,2.512466890819132,0.0,0.04143739959495156,0.0,200,0.16251063346862793,0.6046845266133839,0.3469529222335851,72000,1.0538135961146622,0.0
360,1.8299012184143066,1.8049962475952852,0.7929728546842382,2.557107070724098,0.6131072571599847,0.0,0.12956143346037155,0.1,0.08093500137329102,0.07232427597045898,0.05021775,0.94364566,2.4417198264967475,0.0,0.03555015938058502,0.0,200,0.16463232040405273,0.5653722054369112,0.27682337590134826,72200,1.0051412222925205,0.0
361,1.7058360576629639,2.2451740073602267,0.9477632277987206,3.5795181233403017,0.9512983544665493,0.0,0.1301677661642398,0.1,0.005137443542480469,0.07878351211547852,0.05009426,0.9715796,2.4220652445830955,0.0,0.04375729331619166,0.0,200,0.1574721336364746,0.17141813685064045,0.1760330978428908,72400,1.0173020432738624,0.0
362,1.7872462272644043,1.5117746707703124,1.0280616309799508,3.0588989910326267,0.5117109046621857,0.0,0.12910089667421262,0.1,0.0029807090759277344,0.05453681945800781,0.049861807,1.2237722,2.3310361872018173,0.0,0.02975260057426416,0.0,200,0.05171465873718262,0.47734423857942065,0.3960651298873376,72600,1.2726102730783306,0.0
