iteration,time_sampling,stoc_pol_mean,stoc_pol_std,stoc_pol_max,stoc_pol_min,rollout_success,alpha,delta,time_vpg,time_npg,kl_dist,surr_improvement,running_score,rwd_sparse,rwd_dense,success_percentage,num_samples,time_VF,VF_error_before,VF_error_after,env_samples,eval_score,eval_success
0,1.2025673389434814,0.02070744189094033,0.015008006669979645,0.04202000754859105,0.0025711971243356827,0.0,0.14319777220666988,0.1,0.031279563903808594,0.07074999809265137,0.055416804,1.2002647,0.02070744189094033,0.0,0.00040935353716772187,0.0,200,0.015137434005737305,4.778297635762806,1.5138769837607002,200,0.020970195479082205,0.0
1,1.1575663089752197,0.026396360515286422,0.011397499259708052,0.04443106757140912,0.014618575019107773,0.0,0.1469412222796033,0.1,0.002701282501220703,0.05226922035217285,0.04855137,0.86180025,0.02127633375337494,0.0,0.0004984462502437564,0.0,200,0.013971805572509766,1.2002100934468776,0.43221068750710784,400,0.023321191049909217,0.0
2,1.136883020401001,0.019854621547940588,0.004161074465468284,0.02390847112376478,0.014010445501051821,0.0,0.1438355398951485,0.1,0.0028595924377441406,0.0517270565032959,0.052481774,1.0957212,0.021134162532831506,0.0,0.00039471096238903483,0.0,200,0.013837337493896484,1.2205957615000393,0.34824858283006815,600,0.025915727478609457,0.0
3,1.1883540153503418,0.02099594096465611,0.016131866896384035,0.04305508628919694,0.0038117964543647794,0.0,0.14491597388387614,0.1,0.0027310848236083984,0.05308175086975098,0.052285537,0.91857195,0.021120340376013964,0.0,0.00041808097493980525,0.0,200,0.014371395111083984,0.4734060168762167,0.6234492695539048,800,0.03657681818924618,0.0
4,1.1128387451171875,0.06790999632630779,0.032557809915227706,0.10197932052049807,0.019874866835771915,0.0,0.1476463528183296,0.1,0.0026471614837646484,0.0519871711730957,0.05300003,1.1751354,0.025799305971043348,0.0,0.0013551189478492069,0.0,200,0.013823986053466797,0.8218305094982294,0.3720719727567906,1000,0.05407681486479284,0.0
5,1.1609611511230469,0.08643852827609985,0.0159330906311753,0.1058670904378494,0.06647595861175984,0.0,0.13971042112796694,0.1,0.0028197765350341797,0.051926612854003906,0.04840281,0.7779604,0.031863228201549,0.0,0.0017215322094141965,0.0,200,0.014347553253173828,0.35872934227894115,0.3189006788510007,1200,0.06884281273900127,0.0
6,1.188957929611206,0.034088139026405104,0.024584609220979766,0.07262617879853987,0.011275401777389473,0.0,0.1559281591705042,0.1,0.0026514530181884766,0.05187392234802246,0.050055332,0.8741925,0.03208571928403461,0.0,0.0006804416876854101,0.0,200,0.013197183609008789,2.815009034539027,1.2873868184857449,1400,0.10371963055275474,0.0
7,1.0926826000213623,0.03414178131202054,0.033412165918484,0.09095773014894598,0.009994346903702413,0.0,0.15013806576601765,0.1,0.002943277359008789,0.05180478096008301,0.050782274,1.4160507,0.0322913254868332,0.0,0.0006794213154111728,0.0,200,0.014770030975341797,1.3717024061931091,0.5534359145061782,1600,0.08510063254896148,0.0
8,1.2103650569915771,0.23863596129604783,0.32871602018736806,0.8035191728843213,0.011444346788886072,0.0,0.1403873570105588,0.1,0.004718780517578125,0.05227494239807129,0.047682453,1.760086,0.052925789067754664,0.0,0.004760427125154454,0.0,200,0.0162351131439209,0.9380526483945729,0.8656433108227096,1800,0.10736820824939752,0.0
9,1.1873905658721924,0.07370327306080279,0.06274525772228769,0.15452948254619717,0.006167428034512875,0.0,0.14463065488084834,0.1,0.0028715133666992188,0.05184149742126465,0.050939485,1.0200775,0.05500353746705948,0.0,0.0014645395832534004,0.0,200,0.015192985534667969,0.49188227896711445,0.5821683758196088,2000,0.10639429190691989,0.0
10,1.1671288013458252,0.037643869141305866,0.026344414118094687,0.07203483340829095,0.004226718043871541,0.0,0.14061191723305508,0.1,0.0027914047241210938,0.05271410942077637,0.050513178,1.1448992,0.05326757063448412,0.0,0.0007527375476240623,0.0,200,0.013432025909423828,3.1025660194616687,3.322174543351754,2200,0.07408798367318252,0.0
11,1.1026263236999512,0.13593117410678107,0.1543954230880348,0.39706204074886864,0.01414836409877972,0.0,0.1401308382456026,0.1,0.002729177474975586,0.05284452438354492,0.04924293,1.4333409,0.06153393098171382,0.0,0.0027094786341402234,0.0,200,0.015141725540161133,0.6663979059807582,0.6635597345675619,2400,0.07001939945076094,0.0
12,1.2414486408233643,0.09503067472298468,0.06143994773291323,0.15899781038224986,0.031349140893040625,0.0,0.14437440734927445,0.1,0.0030231475830078125,0.05297350883483887,0.04815568,1.0199069,0.06488360535584091,0.0,0.0019003178439370935,0.0,200,0.014853239059448242,0.4429571918335155,0.4255275128351125,2600,0.07913545968519796,0.0
13,1.2018420696258545,0.10912936749859298,0.14082748626521197,0.35007148083008455,0.009155161524073354,0.0,0.14015932634402115,0.1,0.002757549285888672,0.05186891555786133,0.048534337,1.4619815,0.06930818157011612,0.0,0.0021794059910405107,0.0,200,0.014267206192016602,0.6858452021008633,0.6766267000213817,2800,0.09803303718171123,0.0
14,1.1230320930480957,0.36783050618698043,0.38517376840080636,1.0313802740725921,0.10332060264366892,0.0,0.14266317396034,0.1,0.002750396728515625,0.052145957946777344,0.049043473,1.5309926,0.09916041403180255,0.0,0.00734804092557253,0.0,200,0.013587713241577148,0.8007277595088863,0.721106287214295,3000,0.11373625594846003,0.0
15,1.145179033279419,0.046429952408934966,0.011647153254024135,0.05644397815288221,0.026745986848665356,0.0,0.13507499966087008,0.1,0.002730846405029297,0.052039384841918945,0.050426893,3.7224267,0.09388736786951579,0.0,0.000926155759820553,0.0,200,0.013727426528930664,7.245756487742263,11.636910688068646,3200,0.12015539457941343,0.0
16,1.2287871837615967,0.09264710096011304,0.05242827152923045,0.16580069745376594,0.03260421630431809,0.0,0.13508555378630338,0.1,0.002674102783203125,0.05213332176208496,0.050333843,1.0900257,0.09376334117857552,0.0,0.0017889240039782118,0.0,200,0.01391148567199707,0.9280597056486419,0.6865476674660006,3400,0.1767970696060708,0.0
17,1.1948158740997314,0.09135060207616451,0.05454296629260543,0.16669665367074316,0.0305040109560478,0.0,0.1408048344189759,0.1,0.002653837203979492,0.05278587341308594,0.050063197,1.0247117,0.09352206726833442,0.0,0.0018182572371319321,0.0,200,0.013495922088623047,0.8300399773748405,0.4548342337821679,3600,0.16924478347086894,0.0
18,1.1605067253112793,0.40099695134689883,0.20709222672185754,0.61731856554515,0.09511472950400764,0.0,0.1445213275899139,0.1,0.002704143524169922,0.05160260200500488,0.04923471,0.9508763,0.12426955567619087,0.0,0.008002784379140345,0.0,200,0.01386713981628418,0.6174444631761572,0.5748963207828859,3800,0.1870481403541003,0.0
19,1.1525228023529053,0.10246655840676952,0.09489848729508893,0.2631489610186334,0.017449576107275086,0.0,0.13838164463817643,0.1,0.0026192665100097656,0.05256390571594238,0.04899906,1.2564609,0.12208925594924874,0.0,0.0020047432610148757,0.0,200,0.018471717834472656,0.6172276335030071,0.742007022410578,4000,0.15777003466956288,0.0
20,1.317859411239624,0.11304922271530127,0.02559556570201017,0.14312406000577818,0.07248648366505804,0.0,0.1418870459420489,0.1,0.0026345252990722656,0.05306577682495117,0.04978723,0.9076864,0.121185252625854,0.0,0.0022273530334882196,0.0,200,0.013631105422973633,0.4114908702587039,0.37004787137085815,4200,0.18404643384724842,0.0
21,1.2137689590454102,0.09576986013815568,0.09597766369212295,0.2591749448796493,0.01735271233222253,0.0,0.13264384468642348,0.1,0.002727985382080078,0.05200934410095215,0.04996872,2.1665678,0.11864371337708417,0.0,0.001911147469123903,0.0,200,0.01432180404663086,0.8890995337766182,0.7284002253627057,4400,0.19686681044195367,0.0
22,1.185723066329956,0.4193187274566863,0.39865356934285584,1.0257790397447457,0.025394384213654503,0.0,0.13938622134850065,0.1,0.0026895999908447266,0.0536041259765625,0.049818896,1.1854078,0.1487112147850444,0.0,0.00834992256972485,0.0,200,0.012739896774291992,0.7284104672776774,0.7131606146175655,4600,0.33138671835491473,0.0
23,1.264005184173584,0.14775024685669844,0.07315810064332978,0.23016133017075363,0.03362812747838628,0.0,0.1411524460394461,0.1,0.0027494430541992188,0.05401158332824707,0.04880514,1.1582462,0.1486151179922098,0.0,0.002895049905001081,0.0,200,0.0275113582611084,0.2741618368275188,0.2867596254177374,4800,0.4358078971795473,0.0
24,1.3313310146331787,0.38370841044732107,0.25561845613863676,0.7242856577188839,0.0740902912271804,0.0,0.13569324265503446,0.1,0.002608060836791992,0.05280470848083496,0.049687114,1.3339826,0.1721244472377209,0.0,0.007593709888744861,0.0,200,0.03390049934387207,0.5792827292376534,0.5115615640990031,5000,0.3933396599483963,0.0
25,1.2885527610778809,0.17490642575900492,0.06873912572143395,0.2773977465040791,0.10094654650715569,0.0,0.1423765540006454,0.1,0.002685070037841797,0.052602291107177734,0.048692547,1.1681672,0.17240264508984932,0.0,0.0034338359608198747,0.0,200,0.014222145080566406,0.2571836944636549,0.3410462673597865,5200,0.42998019556683326,0.0
26,1.3037333488464355,0.29334762548731874,0.23902361506238534,0.6845670129097883,0.050933263200740014,0.0,0.12974731327981998,0.1,0.0026493072509765625,0.05230855941772461,0.04886729,1.9657387,0.18449714312959628,0.0,0.005846128592859585,0.0,200,0.014672517776489258,0.4896531345310417,0.4759367320302837,5400,0.3669026074197393,0.0
27,1.1427397727966309,0.1381900672303163,0.12896380634807098,0.35193245208866836,0.016470217808757084,0.0,0.13472223010730575,0.1,0.0030517578125,0.054028987884521484,0.051015723,1.4737839,0.17986643553966827,0.0,0.002758230043964146,0.0,200,0.014963150024414062,0.9605666152395325,0.8051587945161233,5600,0.38538609004774854,0.0
28,1.1205673217773438,0.11229573916598315,0.12193572486270593,0.3233343836307822,0.036466021549384546,0.0,0.1342426679303646,0.1,0.0027551651000976562,0.0541379451751709,0.04994217,1.4961483,0.17310936590229978,0.0,0.002238557457999679,0.0,200,0.015613079071044922,1.3401550996084555,0.8341094391786058,5800,0.5797463357813414,0.0
29,1.2131478786468506,0.24127726956764736,0.2896269676406793,0.7391135440232581,0.021776715853316045,0.0,0.14085141404255702,0.1,0.002675771713256836,0.052687644958496094,0.048489098,1.4237279,0.17992615626883454,0.0,0.0048086262442518565,0.0,200,0.014941930770874023,0.6456347052755126,0.6710764963981851,6000,0.8808727198236544,0.0
30,1.164424180984497,0.1695297146996404,0.12923087902749636,0.3554577750621732,0.04170136222001631,0.0,0.13089431543771873,0.1,0.002796173095703125,0.05437493324279785,0.049545813,0.9360495,0.17888651211191514,0.0,0.0033892831296346315,0.0,200,0.01524043083190918,0.36795272589103367,0.3686622750015531,6200,1.0154269237204867,0.0
31,1.2192699909210205,0.28419535027834697,0.26370977884049734,0.7323475299990272,0.05744523640082919,0.0,0.1454003329038098,0.1,0.002791881561279297,0.07300806045532227,0.049027424,1.953713,0.18941739592855833,0.0,0.005679570746986301,0.0,200,0.014063596725463867,0.5747790690903821,0.5570445360557572,6400,1.1065556523086248,0.0
32,1.127575159072876,0.07210243244699666,0.022866420466705662,0.10145866440590513,0.0426718035226172,0.0,0.14217625000903517,0.1,0.0026988983154296875,0.05190777778625488,0.050111514,0.8530815,0.17768589958040215,0.0,0.001432981761858246,0.0,200,0.014504432678222656,2.4558956970532213,2.2634755822731907,6600,1.0527019200701935,0.0
33,1.1449708938598633,0.5293249478820913,0.38108592347864617,1.1661465273419733,0.16468566446936472,0.0,0.1396958076138489,0.1,0.002794981002807617,0.0519864559173584,0.050805926,1.8292818,0.21284980441057108,0.0,0.010514115981701735,0.0,200,0.015184164047241211,0.6894386708720864,0.6420736235190533,6800,0.7635004745616049,0.0
34,1.1800196170806885,0.17480511015239864,0.16531036691585896,0.4415566760989852,0.03577178373476224,0.0,0.12685873695178934,0.1,0.005150556564331055,0.05592918395996094,0.04944422,1.8369488,0.20904533498475383,0.0,0.0034136950937813096,0.0,200,0.01483607292175293,0.50164306572949,0.5616777564327613,7000,1.3018701128656296,0.0
35,1.1949725151062012,0.20563295752089933,0.1421071682906753,0.4265804284666214,0.054884308546705105,0.0,0.13007933709710207,0.1,0.002796173095703125,0.05682826042175293,0.049682155,1.9876928,0.20870409723836839,0.0,0.004102896700976593,0.0,200,0.014446020126342773,0.3655862959838973,0.3777240481378374,7200,1.3080301888789643,0.0
36,1.1635968685150146,0.43777957397658146,0.40899049854054326,1.1190066154703981,0.06367152893634703,0.0,0.11373703281629043,0.1,0.0027244091033935547,0.05334758758544922,0.04919415,6.4702535,0.23161164491218972,0.0,0.008600584316525058,0.0,200,0.01470041275024414,0.6250827940938006,0.584865024765444,7400,1.529164416214358,0.0
37,1.1920280456542969,0.1481856988481893,0.1416564553723,0.39297251692929774,0.05178884915448968,0.0,0.13600172308816608,0.1,0.0026712417602539062,0.052983760833740234,0.048782673,1.1642637,0.2232690503057897,0.0,0.002826101427866879,0.0,200,0.014371395111083984,0.9688896929664192,1.051574123258998,7600,1.1544355548298848,0.0
38,1.246178388595581,0.26436836699767935,0.19866404618672187,0.603638675524835,0.10020361151477783,0.0,0.13140305114664821,0.1,0.0028734207153320312,0.05187630653381348,0.049837094,2.8622308,0.22737898197497866,0.0,0.005284909547364574,0.0,200,0.014800310134887695,0.4449837041683847,0.402320741530465,7800,1.151959937195185,0.0
39,1.343409538269043,0.2870883634209825,0.22775631126998358,0.5312229058245275,0.026827680442931066,0.0,0.1338531671974113,0.1,0.0026564598083496094,0.057749271392822266,0.04986339,0.9901158,0.23334992011957906,0.0,0.005649137325233414,0.0,200,0.014687538146972656,0.4255610772848874,0.4271839868189415,8000,1.5812277339757854,0.0
40,1.3261139392852783,0.3484686667650347,0.13809102484970018,0.48939453841582137,0.13521652640803897,0.0,0.13710453069507741,0.1,0.002676248550415039,0.05255436897277832,0.049776345,1.1086679,0.24486179478412462,0.0,0.006848477584248837,0.0,200,0.014106035232543945,0.2291196293614778,0.2118836812452584,8200,1.4632505507876983,0.0
41,1.3231618404388428,0.5364237750549778,0.3648289212583466,1.114182011819205,0.1036178677922603,0.0,0.1312909747966926,0.1,0.002790212631225586,0.05168747901916504,0.04971778,1.7664156,0.27401799281121,0.0,0.010450780419352297,0.0,200,0.012933015823364258,0.5278642262136398,0.45881282865728257,8400,1.9121096812029004,0.0
42,1.3339002132415771,0.5966302115306291,0.2271590174202461,0.8966509139337286,0.3705576189263663,0.0,0.13063222946651784,0.1,0.002815723419189453,0.05350446701049805,0.048903357,1.2920903,0.3062792146831519,0.0,0.011669001035877176,0.0,200,0.013756752014160156,0.3213424271567115,0.20403629457883285,8600,1.3748763723013708,0.0
43,1.2610878944396973,0.8422151664542085,0.6230796347611288,1.5484911155882173,0.20337929245800246,0.0,0.12677509964604333,0.1,0.0030341148376464844,0.05440211296081543,0.048589554,1.3783674,0.3598728098602576,0.0,0.016815230809406806,0.0,200,0.015206098556518555,0.5009138298480627,0.40749809803302217,8800,1.8353053289272976,0.0
44,1.2651023864746094,0.9774219523990649,0.43401497368638514,1.726287969777726,0.680193848569371,0.0,0.1331307692170804,0.1,0.002796173095703125,0.052745819091796875,0.05034539,1.7081094,0.42162772411413835,0.0,0.019284105106242937,0.0,200,0.01388239860534668,0.2787563448747252,0.2554814995273671,9000,1.6788345954009145,0.0
45,1.2682032585144043,0.23535581926197835,0.1735790632580236,0.4523367305776398,0.04724218299000068,0.0,0.14011563333057248,0.1,0.0032188892364501953,0.05273318290710449,0.04969856,1.1624782,0.40300053362892235,0.0,0.004508137379049277,0.0,200,0.014458656311035156,9.147157756307887,4.290993523370876,9200,2.2461561978436566,0.0
46,1.2557191848754883,0.32540321403600514,0.22283470107191888,0.5861526342084948,0.020368910513074573,0.0,0.12550266957404657,0.1,0.0029053688049316406,0.05328655242919922,0.04971293,1.4878693,0.39524080166963066,0.0,0.006498369096787386,0.0,200,0.01522684097290039,1.9242327005157773,0.5235805709987239,9400,2.1048570803112265,0.0
47,1.279097080230713,0.4993172255514546,0.3761273302558828,1.1083256376878574,0.1540770916126902,0.0,0.13497245504349528,0.1,0.0028252601623535156,0.05486726760864258,0.049328428,1.0607086,0.40564844405781303,0.0,0.00992277074991154,0.0,200,0.015392303466796875,0.4626291166549176,0.5607495090376374,9600,2.326656600348973,0.0
48,1.2668578624725342,0.7787687189492354,0.6257983085055597,1.810544816799112,0.1897071854790428,0.0,0.12367127660917043,0.1,0.0028228759765625,0.052489280700683594,0.049037915,3.1053815,0.4429604715469553,0.0,0.015563173188774804,0.0,200,0.014554977416992188,0.6469411114496691,0.6135477317843516,9800,1.3047824466403843,0.0
49,1.3453412055969238,0.4481992423895491,0.2037668041131738,0.7671582790163237,0.20041597814816747,0.0,0.1270939175390588,0.1,0.002809762954711914,0.05212593078613281,0.049693022,1.4779162,0.44348434863121466,0.0,0.008907598346484078,0.0,200,0.01442098617553711,0.2573424066263067,0.2288859563286573,10000,1.838499678826423,0.0
50,1.270749807357788,0.6085044849492545,0.45026560975840585,1.3830803949944463,0.2961005737870339,0.0,0.14094128103643477,0.1,0.002871274948120117,0.052519798278808594,0.049716845,1.3862715,0.45998636226301864,0.0,0.012075660692902324,0.0,200,0.016284942626953125,0.4948450506597735,0.4553012264561397,10200,2.556532871037941,0.0
51,1.2734556198120117,0.43565131356632886,0.17423752034845297,0.6576902127565556,0.18369037191716653,0.0,0.12480152365735571,0.1,0.0030434131622314453,0.054007768630981445,0.049714137,2.1078887,0.45755285739334967,0.0,0.008709428353911655,0.0,200,0.014979124069213867,0.19255540268428722,0.20695221209665368,10400,1.8559992522622126,0.0
52,1.26812744140625,0.30198165321877934,0.2627968959130605,0.7471139080112291,0.08016664890808706,0.0,0.12940295322817613,0.1,0.0028076171875,0.05211615562438965,0.049759265,1.8161223,0.4419957369758926,0.0,0.0060334663358907505,0.0,200,0.013977527618408203,0.6354004673806115,0.6188646752614385,10600,2.461073929157681,0.0
53,1.3026483058929443,0.8796628723794038,0.7140768570746937,1.985833122120428,0.16432581535513704,0.0,0.13476854304035896,0.1,0.0027179718017578125,0.05297398567199707,0.051237475,1.1955054,0.4857624505162437,0.0,0.017228418370900802,0.0,200,0.013827085494995117,0.5649203869512697,0.5475329369833762,10800,2.236235285052356,0.0
54,1.309596061706543,0.8245777320072767,0.5129119481323542,1.5955501055964172,0.28399506601570035,0.0,0.127933197332466,0.1,0.0027925968170166016,0.052793025970458984,0.050421733,2.9919453,0.5196439786653471,0.0,0.01645897238813474,0.0,200,0.014331579208374023,0.44532938931756316,0.39526980343188295,11000,2.8111901999589683,0.0
55,1.322695016860962,0.5202846648546328,0.4587941844532603,1.2730919295683318,0.1151903832783855,0.0,0.13240216439235275,0.1,0.0028133392333984375,0.05299019813537598,0.050216287,1.4160429,0.5197080472842757,0.0,0.010398731526382751,0.0,200,0.014760494232177734,0.4970258745483159,0.5174736373043505,11200,1.2166324933236232,0.0
56,1.3085699081420898,0.3798577161528901,0.3240693496419268,0.9115692813805744,0.053341470351969386,0.0,0.12471891296655928,0.1,0.0026047229766845703,0.05140948295593262,0.049589176,2.139686,0.5057230141711371,0.0,0.007412547585491307,0.0,200,0.014329671859741211,0.7370042445349049,0.7162259047358446,11400,1.3936600340885057,0.0
57,1.3145897388458252,0.4955261292102684,0.5188591481841396,1.3604125909559455,0.07817404491737467,0.0,0.13603004032988555,0.1,0.0027463436126708984,0.051810264587402344,0.05015278,1.247513,0.5047033256750502,0.0,0.009891716155218524,0.0,200,0.015500545501708984,0.5746365977370731,0.548389597457985,11600,1.234952726306481,0.0
58,1.3551969528198242,0.6384698171533282,0.12823191195623623,0.7226022894019856,0.41683052941262344,0.0,0.13057695822284124,0.1,0.003581523895263672,0.05209827423095703,0.04985075,0.93589056,0.5180799748228779,0.0,0.01276793983991524,0.0,200,0.01479649543762207,0.09523263235649017,0.1020201678832788,11800,1.5156510297432917,0.0
59,1.3459084033966064,0.4829376922023388,0.33908869568602346,1.0489362837462413,0.15972368168125717,0.0,0.1301039083171658,0.1,0.0025963783264160156,0.05272722244262695,0.04969289,1.5756934,0.5145657465608241,0.0,0.009656495160850861,0.0,200,0.015350580215454102,0.3670907601146035,0.3620011005832716,12000,0.9478175248048384,0.0
60,1.2809398174285889,0.20814625564422712,0.14997896016197548,0.4578770834893618,0.07689546985237382,0.0,0.1307594293266898,0.1,0.002754688262939453,0.05330085754394531,0.04934123,1.1743203,0.4839237974691644,0.0,0.004151192346846695,0.0,200,0.014394521713256836,2.0844859496318717,1.617685499627341,12200,0.6391325954423773,0.0
61,1.3430438041687012,0.4137946339800461,0.3399505413511967,0.9935291926855141,0.12674596557153733,0.0,0.1290443332102366,0.1,0.0026967525482177734,0.05264902114868164,0.04992586,1.5291724,0.4769108811202526,0.0,0.008260073280242954,0.0,200,0.015033721923828125,0.46469160451425073,0.4490128210671842,12400,0.4428671188700258,0.0
62,1.2964253425598145,0.8786429548076686,0.5205167986258596,1.635537325719351,0.3683052649084211,0.0,0.1337698058396665,0.1,0.0029358863830566406,0.05359959602355957,0.049606074,1.2934135,0.5170840884889942,0.0,0.01730832968754627,0.0,200,0.014909029006958008,0.500425515287876,0.4817265198764671,12600,0.23896219299100496,0.0
63,1.2672371864318848,0.48765231826662514,0.37912932569715396,1.0681327628901798,0.09893972383556668,0.0,0.11739072029152724,0.1,0.002826213836669922,0.05282330513000488,0.04931346,11.274768,0.5141409114667573,0.0,0.009746657933456294,0.0,200,0.014396905899047852,0.45869947066502753,0.4507927995235812,12800,0.3975122133520293,0.0
64,1.3155145645141602,1.0082937726674233,0.713487093353149,1.8636657640490149,0.2016814914160952,0.0,0.12899889743164528,0.1,0.002772808074951172,0.05268263816833496,0.05030951,1.1775216,0.563556197586824,0.0,0.01964171324999755,0.0,200,0.01630997657775879,0.5561605556058162,0.4942426882237539,13000,0.20816644253798047,0.0
65,1.2839984893798828,0.4970713667364099,0.397995111452632,0.9899828617212058,0.050861293422213044,0.0,0.1240466152152717,0.1,0.0027990341186523438,0.05599331855773926,0.049965315,1.1005994,0.5569077145017826,0.0,0.009932043012211345,0.0,200,0.014285802841186523,0.4602070126177383,0.522780736727334,13200,0.36183529419644644,0.0
66,1.2725660800933838,0.9593765643064777,0.619291022218851,1.7952504912573315,0.08158035119204532,0.0,0.12058395706800812,0.1,0.0028853416442871094,0.052567243576049805,0.049527884,1.736278,0.5971545994822521,0.0,0.019071151022732588,0.0,200,0.014197826385498047,0.40059696100384345,0.3724703318446429,13400,0.370073963858978,0.0
67,1.2773680686950684,0.21433179483348397,0.1579473783223216,0.47398446639644054,0.07428455529281236,0.0,0.14164145068258654,0.1,0.002748727798461914,0.05242753028869629,0.04939752,1.0159553,0.5588723190173753,0.0,0.004230258321646803,0.0,200,0.01444864273071289,4.235552655766356,3.746728911890892,13600,0.23224725669692692,0.0
68,1.2849583625793457,0.8261282424503674,0.3920827431713883,1.3352580549451796,0.2517548531300543,0.0,0.13132642245798665,0.1,0.00272369384765625,0.05453968048095703,0.04958832,1.1968906,0.5855979113606746,0.0,0.01649940089393903,0.0,200,0.013768196105957031,0.2379572315365555,0.24699857339170522,13800,0.1538987672300794,0.0
69,1.2916839122772217,0.9163136473070362,0.5837643207944202,1.7518593831636078,0.10413098200168354,0.0,0.12910507792847994,0.1,0.003023862838745117,0.05471205711364746,0.04969729,1.1088343,0.6186694849553108,0.0,0.018136280283775848,0.0,200,0.018341541290283203,0.38604849517915363,0.37652324004159665,14000,0.08576254023143016,0.0
70,1.307983636856079,0.5187339833507072,0.4642850064426581,1.2908280286598748,0.049514344544340935,0.0,0.12917361601731148,0.1,0.0028486251831054688,0.052274465560913086,0.049270764,1.421988,0.6086759347948505,0.0,0.010181438642173007,0.0,200,0.01491093635559082,0.5243739140935426,0.5219253078555277,14200,0.09234102603549403,0.0
71,1.3296418190002441,0.7241170726712112,0.5071838017196538,1.4651206851456564,0.2229266692160294,0.0,0.13219071547523262,0.1,0.0027589797973632812,0.05496668815612793,0.05013521,1.629005,0.6202200485824866,0.0,0.014245094902435824,0.0,200,0.014978408813476562,0.3894334899699196,0.38417817711880886,14400,0.14690304767660753,0.0
72,1.3214082717895508,0.9373173995409099,0.164926541059291,1.1344762933081078,0.676970647602156,0.0,0.135032561332559,0.1,0.002753734588623047,0.052019596099853516,0.05044899,0.90708905,0.651929783678329,0.0,0.0184607474407082,0.0,200,0.014173030853271484,0.16260366821647246,0.1478071678529007,14600,0.17513903724290616,0.0
73,1.3408913612365723,0.5118043952208637,0.2968465362584646,0.9637699963777557,0.17480145188956023,0.0,0.13741196347641338,0.1,0.002800464630126953,0.05199623107910156,0.05035796,1.166142,0.6379172448325825,0.0,0.009968879219069342,0.0,200,0.014430046081542969,0.4331966998162076,0.4328521555474874,14800,0.23117103920747806,0.0
74,1.3085002899169922,0.4283429847077399,0.09954669455366554,0.5891999070406548,0.3207719590558489,0.0,0.12872254225213023,0.1,0.0030002593994140625,0.055095672607421875,0.04958882,1.7644235,0.6169598188200983,0.0,0.008508131360013126,0.0,200,0.014765501022338867,0.6104849448486424,0.4386865046707709,15000,0.1780123885294478,0.0
75,1.3322384357452393,0.5659654579119604,0.3869709216592981,1.19871523957367,0.17135418093701513,0.0,0.12616604157750105,0.1,0.002757549285888672,0.051842689514160156,0.050027817,1.578338,0.6118603827292844,0.0,0.011211543002665907,0.0,200,0.013628959655761719,0.33738594360715535,0.3175929364936322,15200,0.16723718722406675,0.0
76,1.371314287185669,0.6478021050048968,0.3130168515859206,1.091668986373268,0.2794670564275426,0.0,0.13412247816956976,0.1,0.0026578903198242188,0.053102731704711914,0.050143883,1.166354,0.6154545549568456,0.0,0.012717372456010954,0.0,200,0.01624584197998047,0.2580212981382636,0.26384012153463104,15400,0.12209072577284275,0.0
77,1.5013904571533203,0.9745080602019098,0.7743867951198035,2.1820563768045114,0.03690904072824923,0.0,0.13567415506283137,0.1,0.002710103988647461,0.0528416633605957,0.04965636,1.2893759,0.651359905481352,0.0,0.0192483522234747,0.0,200,0.013471841812133789,0.5374278411374637,0.5171355792189734,15600,0.1108191142388714,0.0
78,1.3296208381652832,0.43529112993769475,0.20145243574255045,0.7098483490435381,0.1428842829648907,0.0,0.1249285766666437,0.1,0.003080606460571289,0.07344460487365723,0.049878616,0.777199,0.6297530279269863,0.0,0.008688747058211446,0.0,200,0.0162811279296875,0.39541709431813404,0.45768905993542686,15800,0.19633310303017285,0.0
79,1.269315481185913,0.9194158491878016,0.49001046741477394,1.4521881131064727,0.1208278473221353,0.0,0.13087377746415435,0.1,0.002777099609375,0.053906917572021484,0.05016053,0.94338,0.6587193100530678,0.0,0.01829888941042055,0.0,200,0.014045476913452148,0.3266061513361262,0.31327049215287167,16000,0.1792365199747272,0.0
80,1.3036558628082275,1.193143530674424,0.8035371024378247,2.3441662312680887,0.43609690843354826,0.0,0.13257811936285402,0.1,0.002699613571166992,0.05254173278808594,0.049231414,1.4609022,0.7121617321152035,0.0,0.02338701100808941,0.0,200,0.013750076293945312,0.48340436151559285,0.42891607502312773,16200,0.19680773730351211,0.0
81,1.3631048202514648,1.3596722575427251,0.7384873331171956,2.4297623055300734,0.5909143959565317,0.0,0.11533339827479797,0.1,0.002872943878173828,0.05398273468017578,0.049821325,2.5088775,0.7769127846579558,0.0,0.026871329389908733,0.0,200,0.014568567276000977,0.384105508932157,0.29811318379604995,16400,0.21469618747576555,0.0
