iteration,time_sampling,stoc_pol_mean,stoc_pol_std,stoc_pol_max,stoc_pol_min,rollout_success,alpha,delta,time_vpg,time_npg,kl_dist,surr_improvement,running_score,rwd_sparse,rwd_dense,success_percentage,num_samples,time_VF,VF_error_before,VF_error_after,env_samples,eval_score,eval_success
0,1.4245383739471436,70.05797323269583,0.02145653192961686,70.08459046483404,70.02495885663168,0.0,0.16188582225799736,0.1,0.06203341484069824,0.062215566635131836,0.054464594,0.5192645,70.05797323269583,0.0,0.9207618093110683,0.0,300,0.03982806205749512,0.9979123375725598,0.9913504718299223,300,70.05258428694538,0.0
1,1.3376164436340332,67.32678841244825,3.6136615853922383,70.06243923375321,61.107329464770885,0.0,0.16213473396111225,0.1,0.002953052520751953,0.057744503021240234,0.051416993,0.5346302,69.78485475067107,0.0,0.8876878797498654,0.0,300,0.017676830291748047,0.9911216606764803,0.9814399032174111,600,70.0595667770017,0.0
2,1.2596900463104248,70.0692335232515,0.01444772187004944,70.08642144351651,70.04662325042294,0.0,0.17612392329968365,0.1,0.0028333663940429688,0.05652761459350586,0.053470712,0.52294356,69.81329262792912,0.0,0.9209197126053349,0.0,300,0.017713069915771484,0.9823584572422779,0.966416158924834,900,70.0643915523326,0.0
3,1.2540078163146973,70.05014834109711,0.01787362575752034,70.07658595964834,70.03235333190686,0.0,0.17218491058775498,0.1,0.0028409957885742188,0.05730843544006348,0.050644226,0.5354135,69.83697819924592,0.0,0.92065968899895,0.0,300,0.01839590072631836,0.9660634494551033,0.938215455936401,1200,70.06347288223755,0.0
4,1.3313910961151123,64.61486438793152,9.476009394346423,70.09107750833446,48.20193738967258,0.0,0.17047595864966777,0.1,0.0029077529907226562,0.05632781982421875,0.050604902,0.5207534,69.31476681811448,0.0,0.8514995056778579,0.0,300,0.017343759536743164,0.9356029119099586,0.8891554054805155,1500,70.0740586984855,0.0
5,1.251753568649292,37.3893132562401,19.350771071708035,70.15904422073008,23.102491894655277,0.0,0.17450925689622823,0.1,0.0027854442596435547,0.056893348693847656,0.05239142,1.0279285,66.12222146192704,0.0,0.4951354976760196,0.0,300,0.01787877082824707,0.8751303462826091,0.8129645237605811,1800,70.07616951179419,0.0
6,1.3766634464263916,68.30395770146029,3.0051979982886152,70.04529177275694,63.09880642992141,0.0,0.17778260050488012,0.1,0.002857685089111328,0.05683016777038574,0.049685635,0.514481,66.34039508588037,0.0,0.9007200118764099,0.0,300,0.017368078231811523,0.83272001743082,0.7484829567678655,2100,70.07244245729008,0.0
7,1.2707605361938477,57.556736591684654,20.50230141974543,70.04213550302893,22.052415063923778,0.0,0.1749487296698688,0.1,0.002777576446533203,0.05543398857116699,0.050560765,0.5724348,65.46202923646081,0.0,0.7640710726197727,0.0,300,0.01690363883972168,0.7485798175095618,0.6397224532672594,2400,70.08024918767406,0.0
8,1.1288537979125977,51.406577416004104,18.85797467310406,70.1097743280621,29.077669740312448,0.0,0.16788261953364975,0.1,0.0027780532836914062,0.05537700653076172,0.05135015,0.6514582,64.05648405441514,0.0,0.6787300421808368,0.0,300,0.016956567764282227,0.628642738633957,0.5205920116945983,2700,37.10422518770074,0.0
9,1.214097023010254,61.09419757472904,11.40578489074057,70.1001931393972,42.16173479789102,0.0,0.17190956518557338,0.1,0.002878427505493164,0.056833505630493164,0.051556755,0.6607111,63.76025540644653,0.0,0.8079026774113452,0.0,300,0.017530202865600586,0.5001545805606384,0.37768161626234503,3000,29.1082235680302,0.0
10,1.3719582557678223,60.566152914998774,16.42463318153604,70.05859313259515,32.11785925506157,0.0,0.16024264067824462,0.1,0.002984762191772461,0.056885719299316406,0.05056867,0.6236172,63.44084515730175,0.0,0.7975382900366531,0.0,300,0.018027305603027344,0.39016891690326044,0.2973003394888498,3300,31.10815714623151,0.0
11,1.1798944473266602,63.88574467895976,10.72510406973969,70.11597394433903,45.30938177846713,0.0,0.17498329249154793,0.1,0.002765655517578125,0.05747342109680176,0.049652997,0.53277624,63.485335109467556,0.0,0.84176249737419,0.0,300,0.016370773315429688,0.2847288650531349,0.2277202169681553,3600,33.09940073408614,0.0
12,1.1143269538879395,60.884354512192786,15.41957959106153,70.19956539363696,34.18815546043651,0.0,0.16743778034723275,0.1,0.002842426300048828,0.05578470230102539,0.050180186,0.62936765,63.22523704974009,0.0,0.8051005662900954,0.0,300,0.016537904739379883,0.2461361349678179,0.23502352968855048,3900,29.128618833308323,0.0
13,1.1644303798675537,60.097703284797134,11.169906641963426,70.11526185577196,43.07774999896842,0.0,0.16679741192392833,0.1,0.0030202865600585938,0.05715346336364746,0.0505303,0.6845283,62.91248367324579,0.0,0.7946166379888964,0.0,300,0.017506837844848633,0.24216560916599386,0.21450220164985892,4200,30.148884208157128,0.0
14,1.2307367324829102,44.416929443633855,15.07915288359046,70.06375546777309,31.352012681106874,0.0,0.1632714053626053,0.1,0.0029892921447753906,0.055892229080200195,0.049681768,0.94257414,61.0629282502846,0.0,0.5888443767920375,0.0,300,0.01768326759338379,0.7283302380297068,0.50738060925083,4500,28.162231450661608,0.0
15,1.1547820568084717,70.08511579061458,0.01980024011138814,70.10389317379075,70.05350469579734,0.0,0.17001349925359516,0.1,0.0027871131896972656,0.05547070503234863,0.051246785,1.2274569,61.9651470043176,0.0,0.9211163070244981,0.0,300,0.016551494598388672,0.15334230882137798,0.1637416071715172,4800,33.17975941946742,0.0
16,1.163132905960083,46.61971395806144,14.51478821243136,70.06996655058049,33.08910788920756,0.0,0.17087154462739532,0.1,0.0029778480529785156,0.061493873596191406,0.050304793,1.1298096,60.430603699691986,0.0,0.6182594493855902,0.0,300,0.01778721809387207,0.3612783671953181,0.32537848054075086,5100,33.14068316391011,0.0
17,1.1758973598480225,49.35074367719929,14.363736425739996,70.04091784255014,30.05763969320189,0.0,0.17041049791607718,0.1,0.00286102294921875,0.05671334266662598,0.050220344,1.0028417,59.322617697442716,0.0,0.6546475996933294,0.0,300,0.017050504684448242,0.25151607639087037,0.227137921197511,5400,70.10737406437057,0.0
18,1.1870274543762207,45.37573816586388,14.61500402058971,70.06934536261289,33.12742386768039,0.0,0.17515190473358203,0.1,0.0030515193939208984,0.05636453628540039,0.051233392,1.1978835,57.92792974428483,0.0,0.601659212388601,0.0,300,0.017157316207885742,0.3000472335641642,0.26999625879031086,5700,30.116144151633993,0.0
19,1.194338083267212,52.07186032097569,19.07833786298621,70.08556430472392,25.107308277908437,0.0,0.16505787171285177,0.1,0.0027534961700439453,0.05518388748168945,0.051490117,0.8164359,57.34232280195392,0.0,0.6876086754115006,0.0,300,0.016794681549072266,0.2685607505447785,0.264297061354601,6000,70.09026980688859,0.0
20,1.2021751403808594,56.6284164854943,15.593844791077382,70.14875111487878,32.076569105483046,0.0,0.1696808565506287,0.1,0.0027382373809814453,0.05524277687072754,0.050163157,1.1505172,57.27093217030796,0.0,0.7483628755137943,0.0,300,0.01768779754638672,0.2216736664778816,0.20614733051289896,6300,30.099096090886594,0.0
21,1.2171111106872559,60.87152650426768,15.943224787683787,70.15370138865293,33.25717411517114,0.0,0.16063153197480612,0.1,0.002921581268310547,0.05507683753967285,0.05013764,1.0445797,57.63099160370393,0.0,0.8015480107686708,0.0,300,0.017069578170776367,0.22371745588732742,0.19664897189050132,6600,70.09111961534332,0.0
22,1.2175202369689941,46.91969577253157,23.24895756967233,70.04814938403062,20.319936208942927,0.0,0.16488333758747054,0.1,0.002830028533935547,0.05517745018005371,0.0501012,0.9255106,56.55986202058669,0.0,0.618852746464564,0.0,300,0.016190767288208008,0.3865478314666568,0.3981895932719434,6900,70.06234736000806,0.0
23,1.2558958530426025,60.34202873433919,16.88696330470901,70.19221864398602,31.09315130058271,0.0,0.17580954938287913,0.1,0.002913951873779297,0.05658435821533203,0.05047699,0.7829766,56.93807869196194,0.0,0.7945381705909597,0.0,300,0.0170745849609375,0.15880795478185591,0.1516199196501966,7200,70.04211317942587,0.0
24,1.1573081016540527,37.697472735860465,19.047949918828696,70.3113447738147,22.130531988535687,0.0,0.16569144375602488,0.1,0.0028460025787353516,0.05583333969116211,0.049475726,1.2961453,55.0140180963518,0.0,0.4992931287046583,0.0,300,0.01708221435546875,0.6985724000678403,0.5858943420181921,7500,70.0366350080435,0.0
25,1.182434320449829,67.09105784415712,5.174798204409317,70.12551080092526,58.12823204837029,0.0,0.1736483140324711,0.1,0.0028116703033447266,0.05546998977661133,0.049596187,1.3475783,56.221722071132334,0.0,0.8844562429398247,0.0,300,0.0165097713470459,0.1246785518971251,0.13339470817671392,7800,70.03620314426307,0.0
26,1.157231092453003,61.60281561419173,14.679485271844772,70.13185905710752,36.17727909449667,0.0,0.16915277538295093,0.1,0.0027790069580078125,0.058638572692871094,0.049885605,1.0394778,56.75983142543828,0.0,0.8113650398484143,0.0,300,0.016926050186157227,0.16177139048490452,0.14538408999148641,8100,70.04249054958953,0.0
27,1.1925220489501953,60.33548938328023,15.142157507555819,70.05919150173415,34.13602976792088,0.0,0.17656686077618428,0.1,0.002797842025756836,0.05858016014099121,0.04987365,0.93024945,57.117397221222475,0.0,0.7977974054295326,0.0,300,0.017088651657104492,0.16537106165494544,0.15919568053212654,8400,70.04078414870214,0.0
28,1.184861183166504,70.05857006406728,0.021533230496930098,70.09442694944269,70.03858863446536,0.0,0.17324937663893805,0.1,0.002777576446533203,0.055013418197631836,0.04932593,1.5418694,58.41151450550696,0.0,0.9207490966598395,0.0,300,0.016682863235473633,0.09158793364603472,0.07090371556232129,8700,70.03593099562806,0.0
29,1.2776682376861572,64.54926841449418,9.528066986615567,70.09281930787039,48.04623421181566,0.0,0.17706533479106915,0.1,0.0027093887329101562,0.05720663070678711,0.050716475,0.82000476,59.02528989640568,0.0,0.8506582867547576,0.0,300,0.016386985778808594,0.10170821024102036,0.10525121884199504,9000,70.0406446282745,0.0
30,1.171600341796875,61.83444800842048,14.215048602342192,70.05098069979508,37.21326403946742,0.0,0.16415128435275209,0.1,0.0029625892639160156,0.05644035339355469,0.049212933,1.5589789,59.30620570760716,0.0,0.8144580868547878,0.0,300,0.016616344451904297,0.1540492088465061,0.15038119905409397,9300,70.03529643208914,0.0
31,1.1961970329284668,70.07978629045998,0.019009854604533628,70.0957615861339,70.04922429460386,0.0,0.17504282455256667,0.1,0.002936840057373047,0.0572662353515625,0.049602903,1.2235389,60.38356376589245,0.0,0.921061932114539,0.0,300,0.019806623458862305,0.07130978240665505,0.06902146641715268,9600,70.03128635175518,0.0
32,1.1781628131866455,68.3788375209624,2.919129081592852,70.08448261239657,63.32280841020333,0.0,0.17841426412731248,0.1,0.0028848648071289062,0.058255910873413086,0.04987941,0.65742487,61.183091141399444,0.0,0.9017038839527365,0.0,300,0.017400026321411133,0.07138533673128705,0.06811962942474142,9900,70.03193294786276,0.0
33,1.1981396675109863,65.06137587058089,8.669405501712607,70.10165355823175,50.0455744038101,0.0,0.17178365305621673,0.1,0.0029942989349365234,0.05709195137023926,0.05013526,1.1886152,61.570919614317596,0.0,0.8574799664527426,0.0,300,0.017615556716918945,0.09913563555246019,0.09603139948934332,10200,70.03441418220211,0.0
34,1.224931240081787,66.12423132526912,6.7768392966571005,70.04136141338802,54.386402534113515,0.0,0.15772314307063004,0.1,0.002966642379760742,0.05686616897583008,0.049850885,1.7160109,62.02625078541275,0.0,0.8715392098578861,0.0,300,0.01671314239501953,0.08635641403937203,0.08153098987864127,10500,70.03277229941024,0.0
35,1.2234628200531006,70.0462796292871,0.010560688442001444,70.06072199911075,70.03464509440974,0.0,0.16465508690315228,0.1,0.002892017364501953,0.056905269622802734,0.05043688,1.752349,62.82825366980018,0.0,0.9206087784591828,0.0,300,0.016501188278198242,0.0643551863810426,0.0605464468511761,10800,70.0320504253717,0.0
36,1.2298250198364258,70.08068937721666,0.039383906297364935,70.13864955447018,70.02844931521376,0.0,0.15296200952874553,0.1,0.002861499786376953,0.0567779541015625,0.04962636,17.742437,63.55349724054183,0.0,0.9210515737354475,0.0,300,0.016979217529296875,0.05867794227970615,0.053815839185804584,11100,70.03535953332502,0.0
37,1.2080767154693604,54.58137870428208,19.771527696622016,70.0366171692221,21.08543366214054,0.0,0.16490290428085277,0.1,0.0028748512268066406,0.05787372589111328,0.049423415,1.0381862,62.65628538691586,0.0,0.7243979230911413,0.0,300,0.018286705017089844,0.2707837062772485,0.23221998094496743,11400,70.03402258601716,0.0
38,1.228637933731079,59.08025703720605,16.803456617642265,70.08058400922853,30.111386990407382,0.0,0.1670268184334874,0.1,0.0028159618377685547,0.0561375617980957,0.0501383,1.0847484,62.29868255194488,0.0,0.7777153241927424,0.0,300,0.016476154327392578,0.14147600389968054,0.1274696842835865,11700,70.0344761133605,0.0
39,1.2101967334747314,68.59428714167956,2.5296474492084573,70.06580598760395,64.21286342265482,0.0,0.1617156428594361,0.1,0.0029909610748291016,0.059234619140625,0.048934225,2.014144,62.928243010918344,0.0,0.9045764369049488,0.0,300,0.01781749725341797,0.07786685146978861,0.07859958493578807,12000,70.03918225438721,0.0
40,1.2679557800292969,63.84344450912797,10.822839592870741,70.11515031324905,45.09775428429429,0.0,0.16574145223339667,0.1,0.0028040409088134766,0.05555391311645508,0.049543757,0.91885704,63.01976316073931,0.0,0.841218132472432,0.0,300,0.016921281814575195,0.10570681056687836,0.10053721015460752,12300,70.04028697822311,0.0
41,1.2830941677093506,60.346111942885095,10.172362917541758,70.06383267841866,45.10137414202667,0.0,0.17181719571723017,0.1,0.0036745071411132812,0.05608630180358887,0.04974171,1.0235158,62.752398038953885,0.0,0.7979230010998918,0.0,300,0.018041610717773438,0.10051991703456603,0.0994816986689086,12600,70.03955655450874,0.0
42,1.2709577083587646,55.6116802570287,15.501464821197057,70.05829671812347,33.20400618990056,0.0,0.17347688279219287,0.1,0.0029168128967285156,0.0553736686706543,0.050290104,0.99393004,62.038326260761366,0.0,0.7348045330908806,0.0,300,0.01672196388244629,0.1858157769349518,0.16314303213149203,12900,70.03213836074858,0.0
43,1.2801556587219238,51.66415517563332,17.25383557606289,70.04477325563518,24.44643923226376,0.0,0.16503822837578858,0.1,0.0028867721557617188,0.055319786071777344,0.049649272,1.468543,61.00090915224856,0.0,0.6855209318750068,0.0,300,0.016543149948120117,0.19453196650407725,0.17202343033495196,13200,70.02856345041364,0.0
44,1.2914326190948486,70.09994327346891,0.039383312533022144,70.16570229335152,70.06286030918328,0.0,0.1609190249725119,0.1,0.002895355224609375,0.05518174171447754,0.04952811,2.210117,61.9108125643706,0.0,0.9212985905082685,0.0,300,0.016621828079223633,0.10083324732499382,0.08556060595547547,13500,70.028806328105,0.0
45,1.3058030605316162,65.83662364168507,5.7313182050045235,70.05122383260066,56.129057713418405,0.0,0.16653926667921046,0.1,0.0027980804443359375,0.057056427001953125,0.05037389,1.0737596,62.30339367210205,0.0,0.8711466455330097,0.0,300,0.016392230987548828,0.07885939065269232,0.054998432142900774,13800,70.0290608622122,0.0
46,1.2470839023590088,68.08215933392074,3.411775513689806,70.07001852405595,62.172848763524755,0.0,0.16968145640823606,0.1,0.0027506351470947266,0.05886721611022949,0.050287474,1.6134727,62.88127023828392,0.0,0.8977621081482672,0.0,300,0.01654195785522461,0.059593496834432304,0.054342304007044595,14100,70.03458531452746,0.0
47,1.2574894428253174,57.13015181366808,7.71826805693838,70.14794554994612,50.17335223271016,0.0,0.15730572814470403,0.1,0.002779722213745117,0.05783963203430176,0.049718592,2.7442362,62.30615839582234,0.0,0.7582763229798727,0.0,300,0.015095233917236328,0.1318374799764116,0.11322192582532443,14400,70.03579547660487,0.0
48,1.2375280857086182,52.8751444112538,17.231052835267633,70.15167740936175,35.217287357396245,0.0,0.1604250914270058,0.1,0.0031414031982421875,0.05641531944274902,0.049612153,1.9695268,61.36305699736548,0.0,0.6982351225669963,0.0,300,0.017064332962036133,0.2303465186691689,0.17263395695029018,14700,70.0423516705239,0.0
49,1.2409939765930176,68.37320000946252,3.003073851591759,70.22914188633167,63.173359834152684,0.0,0.16595558153996415,0.1,0.002897977828979492,0.05774521827697754,0.049143728,2.4132712,62.064071298575186,0.0,0.9015239497029964,0.0,300,0.018697500228881836,0.07127232880021812,0.07932372785692979,15000,70.0379101919755,0.0
50,1.2142856121063232,69.0490068580479,1.728149493942508,70.06209995251447,66.05580997305783,0.0,0.16396663639278586,0.1,0.002977132797241211,0.05817866325378418,0.05080453,1.5208262,62.76256485452246,0.0,0.9106465266109725,0.0,300,0.016980886459350586,0.0752615190742054,0.04895371178587128,15300,70.04634647396936,0.0
51,1.2449007034301758,69.31067939276932,0.826812359803637,70.06104217552266,68.04585439024966,0.0,0.17006870988729578,0.1,0.002870798110961914,0.05633401870727539,0.04969062,2.7894645,63.417376308347144,0.0,0.9141383815162958,0.0,300,0.018665790557861328,0.05386667591197502,0.035616389998132644,15600,67.04392765993715,0.0
52,1.310225009918213,67.32129961143099,2.743677288152352,70.0414987343953,64.05336272366533,0.0,0.16335111211203457,0.1,0.0029244422912597656,0.05665946006774902,0.049603764,1.0648578,63.80776863865553,0.0,0.8842783485192652,0.0,300,0.017467737197875977,0.04554828457782047,0.04355623887143875,15900,68.04845045092041,0.0
53,1.2412045001983643,51.671449765486216,19.2887426329269,70.17633278096912,25.299897376399898,0.0,0.17036999019799862,0.1,0.002920389175415039,0.05617713928222656,0.050396983,1.1674298,62.5941367513386,0.0,0.6821517365944318,0.0,300,0.01762533187866211,0.3799337258895794,0.27076369814448037,16200,45.042746082782834,0.0
54,1.2638826370239258,61.8539950272675,14.291990037524625,70.146613897539,37.099587323573836,0.0,0.16839042719374048,0.1,0.0028829574584960938,0.05580282211303711,0.049657118,1.3774937,62.5201225789315,0.0,0.8146640990280367,0.0,300,0.0165708065032959,0.11970860859809111,0.10081536541218653,16500,69.0304910074631,0.0
55,1.3505432605743408,68.05176587258828,2.9141216715995917,70.06561444196578,63.05497790915321,0.0,0.16875939427065936,0.1,0.0029134750366210938,0.05570793151855469,0.05096239,1.6447825,63.07328690829718,0.0,0.8973594601244853,0.0,300,0.016763925552368164,0.07491583754680865,0.08017979323083299,16800,70.03271610026856,0.0
56,1.2507669925689697,69.30765920635073,1.3003216948347809,70.06726069718816,67.05548790921704,0.0,0.16357524330605436,0.1,0.002774477005004883,0.05934572219848633,0.050076265,1.776278,63.69672413810254,0.0,0.914072233380238,0.0,300,0.018356800079345703,0.06707442587809147,0.042028854363988594,17100,70.03651008321353,0.0
57,1.26417875289917,68.56038286779729,2.588656587620476,70.09787554470294,64.07693783928772,0.0,0.1656052423774941,0.1,0.0029838085174560547,0.05701327323913574,0.049638722,5.255095,64.18309001107201,0.0,0.9040848731771833,0.0,300,0.01753067970275879,0.03938088898164401,0.030705866086299632,17400,70.0353952105228,0.0
58,1.2984273433685303,65.31835989604915,8.232634717376389,70.0803013578178,51.059022060990124,0.0,0.14844727209758785,0.1,0.00566554069519043,0.05695509910583496,0.048834722,6.864258,64.29661699956972,0.0,0.8609060851581588,0.0,300,0.01732659339904785,0.061852406808269776,0.06550693444392737,17700,70.04223087023317,0.0
59,1.2956295013427734,60.29757218826526,16.87046598976049,70.04409625812126,31.07706906373289,0.0,0.17507514017975398,0.1,0.002808094024658203,0.056398630142211914,0.05005597,0.9546648,63.89671251843927,0.0,0.7939663498869458,0.0,300,0.016851425170898438,0.16724395749335413,0.1495238135855841,18000,70.04557745805947,0.0
60,1.305924415588379,70.04186996235816,0.01703616354544589,70.0703307462467,70.02506851003066,0.0,0.15531353612812324,0.1,0.002763032913208008,0.05516314506530762,0.050299745,8.936635,64.51122826283117,0.0,0.9205444980902707,0.0,300,0.01659560203552246,0.03545120426658544,0.037909911291509404,18300,65.14457790962923,0.0
61,1.3178355693817139,70.04540584975163,0.016080836099162037,70.06902057991005,70.02673540651325,0.0,0.1538355824772053,0.1,0.0028581619262695312,0.054968833923339844,0.049280386,4.444619,65.06464602152322,0.0,0.9206010569974411,0.0,300,0.017951250076293945,0.03687395166297443,0.034302215962204625,18600,67.14527103641454,0.0
62,1.3382282257080078,62.05377455268433,13.847197406265126,70.05840142035501,38.06973409969105,0.0,0.16709337697251342,0.1,0.0030517578125,0.05610942840576172,0.049597457,1.0142912,64.76355887463933,0.0,0.8173666226850492,0.0,300,0.018428325653076172,0.11168773953984382,0.11078789279300107,18900,65.22100640904515,0.0
63,1.3197169303894043,67.07912683935018,4.615501236968633,70.04620538217107,59.11145646091584,0.0,0.15763476942526,0.1,0.0027284622192382812,0.05575275421142578,0.049043518,2.505413,64.99511567111041,0.0,0.8843538547171016,0.0,300,0.01620793342590332,0.03952766085034609,0.03661986937052554,19200,64.30075738217748,0.0
64,1.242189884185791,64.85479486598871,8.99626759104707,70.06496463413379,49.2728119970274,0.0,0.16501051452758767,0.1,0.0031545162200927734,0.056609392166137695,0.04953689,1.2142116,64.98108359059825,0.0,0.8547311648145859,0.0,300,0.017796993255615234,0.07333451707533474,0.07247270940609755,19500,62.22947012955789,0.0
65,1.2432093620300293,70.04056312285618,0.007987008338182578,70.04832130023334,70.02821775783622,0.0,0.16110683421911037,0.1,0.0030393600463867188,0.056732177734375,0.049163163,7.9986377,65.48703154382405,0.0,0.9205342002340998,0.0,300,0.016833782196044922,0.0321996726317311,0.030122472203890388,19800,66.27825171141923,0.0
66,1.257800817489624,70.08982785642253,0.06633456084694832,70.20169314774442,70.03751871509041,0.0,0.15745312457369123,0.1,0.002924203872680664,0.0568690299987793,0.04885995,1.6342283,65.9473111750839,0.0,0.9211844466631933,0.0,300,0.01745319366455078,0.0683132063291355,0.05874123167338899,20100,65.27697428404711,0.0
67,1.2586085796356201,70.03450552065756,0.010931424823797838,70.05263752938703,70.02440450195046,0.0,0.1753688973091336,0.1,0.0028629302978515625,0.0572049617767334,0.05004019,1.742858,66.35603060964127,0.0,0.9204651631171769,0.0,300,0.01682448387145996,0.028612189461235803,0.027226966624795422,20400,63.22434994960528,0.0
68,1.2777724266052246,70.05900645634054,0.014032141294522056,70.07220339412113,70.03544120595413,0.0,0.1615681921768216,0.1,0.002871990203857422,0.056101322174072266,0.050221276,1.6864048,66.7263281943112,0.0,0.9207724168537754,0.0,300,0.016989469528198242,0.033844873796864496,0.031857843014157755,20700,63.36488615879798,0.0
69,1.288360595703125,69.56130131467752,0.8139791839676868,70.03847520929683,68.15147745171079,0.0,0.14647628732492557,0.1,0.0029277801513671875,0.056116580963134766,0.05063157,19.474205,67.00982550634782,0.0,0.9141232467623821,0.0,300,0.017307519912719727,0.023574317975798318,0.023112865650839105,21000,66.46693960628033,0.0
70,1.2418229579925537,69.56881574039635,0.7959322946299869,70.03533664554776,68.19024856939618,0.0,0.1651370682009084,0.1,0.0028662681579589844,0.060288429260253906,0.049414743,1.7317723,67.26572452975267,0.0,0.9175866135212553,0.0,300,0.016884803771972656,0.02417981493566942,0.02312887952274864,21300,65.3838566958715,0.0
71,1.2431070804595947,59.08821513840522,17.885502448522054,70.09715819645875,28.142854329236695,0.0,0.16611667509855832,0.1,0.0028159618377685547,0.05520963668823242,0.049417783,1.0361694,66.44797359061792,0.0,0.7811659082072269,0.0,300,0.01668834686279297,0.18885620915969986,0.16397494771466045,21600,67.49457449190795,0.0
72,1.2705039978027344,70.09803088486854,0.0413431656547682,70.14172420273576,70.04129119756439,0.0,0.17376503789524814,0.1,0.002756357192993164,0.055385589599609375,0.050556175,3.0621195,66.81297932004298,0.0,0.9213129740195423,0.0,300,0.017322301864624023,0.02428777832069564,0.028346730622600985,21900,66.43740675009784,0.0
73,1.2629280090332031,68.55596871632835,2.590705139026375,70.05590865405516,64.06874199983177,0.0,0.14739131011849466,0.1,0.0029282569885253906,0.05606484413146973,0.049639653,5.49936,66.98727825967153,0.0,0.9040819999655991,0.0,300,0.018730640411376953,0.033014562112974655,0.029296810629418826,22200,70.16590419169427,0.0
74,1.2723546028137207,64.55984245327089,9.513020429644119,70.08587804516465,48.08285468161029,0.0,0.16046149585747385,0.1,0.0028777122497558594,0.05541586875915527,0.050713483,2.3238654,66.74453467903146,0.0,0.8507972965686293,0.0,300,0.018956899642944336,0.07257255237281789,0.07088265803593399,22500,70.10655270749079,0.0
75,1.3115358352661133,70.03504725717346,0.015536607410379027,70.06113926384008,70.0225929022667,0.0,0.16640045584687316,0.1,0.003037691116333008,0.05620312690734863,0.04941653,1.4456016,67.07358593684566,0.0,0.9204710062511429,0.0,300,0.01749396324157715,0.02927435754906396,0.02459117585735506,22800,68.48034192883857,0.0
76,1.285799503326416,70.0366028027187,0.004458828963733621,70.044317166286,70.03369653587946,0.0,0.1700610053031307,0.1,0.002811431884765625,0.05777907371520996,0.04970955,2.2410421,67.36988762343296,0.0,0.9204864539520938,0.0,300,0.016678333282470703,0.021602517604526694,0.019882130101445527,23100,70.06724642831254,0.0
77,1.3022072315216064,70.03187426271936,0.005101358343195586,70.03925592482915,70.02577130583106,0.0,0.17217448101002747,0.1,0.002913236618041992,0.05543708801269531,0.050178356,2.2194753,67.6360862873616,0.0,0.9204204566467744,0.0,300,0.017110347747802734,0.021346295069809253,0.02084491488015676,23400,70.07415650562368,0.0
78,1.288907527923584,70.04796377189908,0.005375937660098164,70.05533940788966,70.04165663959223,0.0,0.1656900881139952,0.1,0.0028069019317626953,0.05531787872314453,0.050681625,3.8764153,67.87727403581535,0.0,0.92063575811046,0.0,300,0.016633272171020508,0.025505017152273147,0.020978891605795177,23700,70.07343428285627,0.0
79,1.30377197265625,70.04806740599257,0.009907462736499957,70.06321013170961,70.03900568902256,0.0,0.16530963670429832,0.1,0.00289154052734375,0.05525016784667969,0.049648132,2.6407633,68.09435337283307,0.0,0.920646138709917,0.0,300,0.016483783721923828,0.02149905827917891,0.021066238647946874,24000,70.04499502223372,0.0
80,1.312147617340088,70.05829126173829,0.031090736432835914,70.10836254304081,70.02370409526284,0.0,0.17296139412070943,0.1,0.002794027328491211,0.05620884895324707,0.05029223,3.1501012,68.2907471617236,0.0,0.9207826423449906,0.0,300,0.016712188720703125,0.02538495357295424,0.02394307189484257,24300,70.06683000844592,0.0
81,1.3250117301940918,70.06206879160821,0.02238240323493411,70.09011582418695,70.02778961921791,0.0,0.1635477226996391,0.1,0.0027015209197998047,0.055094242095947266,0.049784508,2.612631,68.46787932471207,0.0,0.9208313577391847,0.0,300,0.017661571502685547,0.023438463376007662,0.021345571965652736,24600,70.06455245384292,0.0
82,1.258528709411621,70.05447202116403,0.029447764955805394,70.10509359219546,70.03330514904239,0.0,0.1591702879352421,0.1,0.0029752254486083984,0.05660533905029297,0.049774602,4.700294,68.62653859435727,0.0,0.9206945471702949,0.0,300,0.017641782760620117,0.023834873353387992,0.02208291270237541,24900,70.07138380416919,0.0
83,1.271164894104004,60.55573216928645,16.43117821402615,70.04978243582019,32.09609820252162,0.0,0.16314067265934185,0.1,0.0030024051666259766,0.056806325912475586,0.049496572,1.8826115,67.8194579518502,0.0,0.7974118242697316,0.0,300,0.01750802993774414,0.13324942319866295,0.10530035892324192,25200,70.0591319008315,0.0
84,1.2797293663024902,70.0418223797945,0.010961037169889,70.05457200628618,70.02507104027119,0.0,0.15256189551561933,0.1,0.0029053688049316406,0.05656027793884277,0.050483454,35.11048,68.04169439464462,0.0,0.9205619622607774,0.0,300,0.017751455307006836,0.027848164899160713,0.03285688807893087,25500,70.04222525334409,0.0
85,1.2977051734924316,70.02910948413343,0.006493155498337433,70.03620366047211,70.0206320820901,0.0,0.175799600098815,0.1,0.0030057430267333984,0.05630803108215332,0.05025673,1.6059822,68.24043590359351,0.0,0.9203912252186078,0.0,300,0.018950700759887695,0.03152857916901138,0.021225826022249844,25800,70.04667249140867,0.0
86,1.3342785835266113,70.03141710332693,0.00367293857861197,70.03768171554646,70.02840655148151,0.0,0.16436867617095968,0.1,0.0028688907623291016,0.05573892593383789,0.04984566,4.204729,68.41953402356685,0.0,0.920418392100707,0.0,300,0.017142534255981445,0.02046353944071007,0.019504117269678295,26100,70.05948879712356,0.0
87,1.2914650440216064,70.03921202687388,0.02057543968232222,70.07430431889271,70.02193089205565,0.0,0.18485915432821762,0.1,0.002958536148071289,0.05641674995422363,0.049690947,1.1997203,68.58150182389755,0.0,0.9205255658879701,0.0,300,0.016466617584228516,0.01824884002845248,0.016691114984469978,26400,70.05945965245178,0.0
88,1.2961597442626953,70.03713485020354,0.006038182961433516,70.04628195695126,70.02931276708627,0.0,0.15673448172148235,0.1,0.0028276443481445312,0.055838823318481445,0.049993597,5.9080386,68.72706512652815,0.0,0.9205002997178814,0.0,300,0.017393827438354492,0.018891425303470166,0.018408732478432756,26700,70.09866226964517,0.0
89,1.2950801849365234,70.05057674860282,0.010296034055496787,70.06184438637356,70.0378868820965,0.0,0.1587405412885431,0.1,0.002988576889038086,0.05763864517211914,0.049052175,6.4439354,68.85941628873562,0.0,0.9206666854915626,0.0,300,0.01781439781188965,0.014716589177315501,0.01412158780138374,27000,70.14169842710156,0.0
90,1.3034167289733887,70.03527154178656,0.01342690286512591,70.05346688253444,70.02149701966134,0.0,0.16019318133475757,0.1,0.0029087066650390625,0.05676913261413574,0.049906556,2.3985705,68.9770018140407,0.0,0.9204754149535952,0.0,300,0.018249988555908203,0.02008869184578375,0.017847409329773186,27300,70.16882976350236,0.0
91,1.2839627265930176,69.78366609668282,0.4265970251145815,70.03322059403492,69.04480300405989,0.0,0.1529945298100949,0.1,0.0027947425842285156,0.05546116828918457,0.04966994,10.183486,69.05766824230491,0.0,0.9204508672960751,0.0,300,0.01618027687072754,0.015150851554347864,0.01418335304407197,27600,69.39650447116276,0.0
92,1.3358092308044434,70.04594226932018,0.026068826722534112,70.09105830126437,70.029545298588,0.0,0.1722399924120001,0.1,0.0028493404388427734,0.05525660514831543,0.05005159,3.1393645,69.15649564500644,0.0,0.9206138081061978,0.0,300,0.016976356506347656,0.0154989672482089,0.01522514964647081,27900,70.1922879286726,0.0
93,1.3561408519744873,70.0412414030682,0.01580650217963264,70.06290816736092,70.02294736156134,0.0,0.15982192857704766,0.1,0.0027735233306884766,0.055280208587646484,0.050561145,2.8084762,69.24497022081262,0.0,0.9205523573683891,0.0,300,0.0168306827545166,0.021143839273502357,0.020314646391439133,28200,70.10182012319491,0.0
94,1.310706377029419,69.10146182856188,1.6103766266463926,70.05174539276877,66.31229375831283,0.0,0.16542765652349442,0.1,0.0028710365295410156,0.05985260009765625,0.04977808,4.0580153,69.23061938158754,0.0,0.9080200140572463,0.0,300,0.01766514778137207,0.015864899863866622,0.015037574935971808,28500,70.15619522863027,0.0
95,1.3351171016693115,70.03485747418267,0.010484525726603194,70.05197277785636,70.0241607088996,0.0,0.16145020854062236,0.1,0.002930164337158203,0.05558609962463379,0.048485644,3.071328,69.31104319084706,0.0,0.9204669355848825,0.0,300,0.017882108688354492,0.01253340429456394,0.011767492413537814,28800,70.09555982674456,0.0
96,1.2951443195343018,67.8423968178709,3.8044511969290533,70.05433275376257,61.25291457747981,0.0,0.15538390868976829,0.1,0.0028743743896484375,0.057054996490478516,0.0485802,4.43152,69.16417855354945,0.0,0.8945506041688774,0.0,300,0.01727604866027832,0.016137308645297496,0.014738288774367355,29100,70.1189326713271,0.0
97,1.3749945163726807,69.78982392611044,0.4234160537088529,70.04389908874316,69.05652667350486,0.0,0.17376015953788312,0.1,0.002933025360107422,0.05711531639099121,0.05032004,1.9539423,69.22674309080554,0.0,0.9205241720942593,0.0,300,0.017347097396850586,0.01311803234918144,0.012711623345233436,29400,70.05404459134976,0.0
98,1.3385803699493408,70.05342376114311,0.03174115414628375,70.10386881166811,70.02563238537539,0.0,0.1649701339949664,0.1,0.002741098403930664,0.05503582954406738,0.049350664,1.8843151,69.30941115783929,0.0,0.9206667613585156,0.0,300,0.016144990921020508,0.01602512331526988,0.015152431677261007,29700,70.06076521189003,0.0
99,1.375572681427002,70.02866687089522,0.007442501435023577,70.04086662983283,70.02076242414064,0.0,0.15072534885540967,0.1,0.002827167510986328,0.05503702163696289,0.050521187,17.930483,69.38133672914489,0.0,0.9203817615043806,0.0,300,0.016562223434448242,0.011674046747036895,0.011387135240285605,30000,70.02531330472844,0.0
100,1.374882459640503,70.0427175671405,0.021005684922863414,70.06787054707732,70.02091544171087,0.0,0.15180728452017286,0.1,0.0031023025512695312,0.05862283706665039,0.049148325,4.640232,69.44747481294445,0.0,0.9205381149229837,0.0,300,0.017376422882080078,0.017075379068752453,0.013803959930357919,30300,70.02127129708671,0.0
101,1.3360199928283691,70.06929564930033,0.04796192095788884,70.14973707495359,70.02877011177047,0.0,0.17212972350392824,0.1,0.002945423126220703,0.05738234519958496,0.049278826,0.98395,69.50965689658004,0.0,0.9208106365256074,0.0,300,0.019591093063354492,0.013250812756623997,0.012318986938835971,30600,70.02145413822109,0.0
102,1.299621820449829,70.02516010518713,0.005980829692616804,70.03497733299736,70.01919430193372,0.0,0.16269709608756533,0.1,0.0030760765075683594,0.05774283409118652,0.05055813,1.8461128,69.56120721744075,0.0,0.9203409164652466,0.0,300,0.017316818237304688,0.023950966109841768,0.017380993519571415,30900,70.02043036587749,0.0
103,1.333284854888916,70.03057197319441,0.00681992752557687,70.04050283722866,70.02161890880969,0.0,0.16574698860778764,0.1,0.0029120445251464844,0.05754232406616211,0.050109807,1.5216736,69.60814369301612,0.0,0.9204080008238994,0.0,300,0.01958322525024414,0.015884311693465377,0.0173105848489058,31200,70.02048149188593,0.0
104,1.3141274452209473,70.03693273910294,0.015937482814101737,70.05805083887338,70.02064932063186,0.0,0.16105938945513817,0.1,0.0029006004333496094,0.057601213455200195,0.050226852,3.0888553,69.6510225976248,0.0,0.9204929076173993,0.0,300,0.017481088638305664,0.0118500940548839,0.009822059372959971,31500,70.0225492066988,0.0
105,1.2924864292144775,70.03553469380653,0.013467859298226166,70.0537155667248,70.02181473934827,0.0,0.1599546579532341,0.1,0.0030040740966796875,0.05714917182922363,0.049838398,2.989748,69.68947380724298,0.0,0.920477059395588,0.0,300,0.01760125160217285,0.011968544113537993,0.011633568419972155,31800,70.02321391359588,0.0
106,1.3108417987823486,70.02860143811672,0.0033145089255325003,70.0323919762252,70.02384745428654,0.0,0.16401310023618013,0.1,0.0028884410858154297,0.05706477165222168,0.050029404,1.6053935,69.72338657033035,0.0,0.9203793450845891,0.0,300,0.016637563705444336,0.01889970358060848,0.017288400279423105,32100,70.02058541290184,0.0
107,1.3419342041015625,70.03106578154515,0.009586253739278973,70.04314698339724,70.01940829069451,0.0,0.17384226445846085,0.1,0.002897024154663086,0.059502601623535156,0.04965066,1.6131938,69.75415449145183,0.0,0.9204173161959028,0.0,300,0.017378568649291992,0.016732787028814658,0.015700115943347973,32400,70.02260633255662,0.0
108,1.3325848579406738,70.02418684797603,0.005716931528850947,70.03372297292393,70.01944081565489,0.0,0.16092403238167996,0.1,0.0049381256103515625,0.05641436576843262,0.049962744,1.7777903,69.78115772710424,0.0,0.9203255484674534,0.0,300,0.017223834991455078,0.008345535805996559,0.008591480329671516,32700,70.03075653307023,0.0
109,1.4069268703460693,70.02889727182122,0.007150429874872249,70.03750115953746,70.01924883097266,0.0,0.1706828823107659,0.1,0.0028998851776123047,0.055258989334106445,0.049704,2.172154,69.80593168157594,0.0,0.9203809497602007,0.0,300,0.018802642822265625,0.01163978376250206,0.009741737768324852,33000,70.02975800882153,0.0
110,1.342989444732666,64.57414315081881,9.489586905384087,70.07237650556677,48.13771231422437,0.0,0.17520462677828919,0.1,0.002934694290161133,0.0573885440826416,0.050179254,0.7181784,69.28275282850024,0.0,0.8509704215146373,0.0,300,0.01687169075012207,0.051667382397030163,0.04377092981529798,33300,70.03956172433483,0.0
111,1.3459157943725586,70.03255805711021,0.008568460880935592,70.04576048685578,70.0219038552031,0.0,0.1787992187033318,0.1,0.002852201461791992,0.05543065071105957,0.049475256,1.0028914,69.35773335136123,0.0,0.9204356807910583,0.0,300,0.017200708389282227,0.021747659203388916,0.017574268700429403,33600,70.03265516926669,0.0
112,1.3552484512329102,69.7774860826765,0.42362488363092904,70.0249928273466,69.04375392926289,0.0,0.1562083671723873,0.1,0.0029125213623046875,0.056430816650390625,0.048617836,4.2902603,69.39970862449276,0.0,0.9203640578712614,0.0,300,0.016672372817993164,0.013810052646642625,0.01478742897406436,33900,70.01957326814203,0.0
113,1.3486626148223877,70.02299576485402,0.002784294856848777,70.02626715542839,70.01900345669235,0.0,0.18277454579361666,0.1,0.0028219223022460938,0.055373191833496094,0.04962342,0.8718007,69.46203733852889,0.0,0.9203122932964053,0.0,300,0.018011093139648438,0.02022335512613822,0.01579182815075031,34200,70.02009743774168,0.0
114,1.3436391353607178,70.02798081571399,0.008212185008833691,70.0414823147182,70.01926778928029,0.0,0.1736620105392328,0.1,0.0029458999633789062,0.056845664978027344,0.04939952,1.2374895,69.5186316862474,0.0,0.9203731237397244,0.0,300,0.017001628875732422,0.011725807544714991,0.012350815285211385,34500,70.02133724739248,0.0
115,1.312307596206665,69.78832706567664,0.41525400337454316,70.03755864524864,69.06915680913161,0.0,0.1657838522053172,0.1,0.0031654834747314453,0.059095144271850586,0.049633015,2.0097668,69.54560122419032,0.0,0.9205018872689602,0.0,300,0.017322540283203125,0.010135478589230867,0.009808137402138283,34800,70.02013758194789,0.0
116,1.3283209800720215,70.02115123219237,0.0016141574822192018,70.02339199643927,70.01895487551947,0.0,0.17340939096451963,0.1,0.0030078887939453125,0.060294389724731445,0.05044339,0.97500813,69.59315622499052,0.0,0.920286571689648,0.0,300,0.017565250396728516,0.012734635881984674,0.009927431398592987,35100,70.01994477685629,0.0
117,1.332667589187622,70.03384272430785,0.01777470196251328,70.06457681818655,70.02211869162174,0.0,0.16370707144008081,0.1,0.002837657928466797,0.056574344635009766,0.049524505,2.1956346,69.63722487492225,0.0,0.9204103572842779,0.0,300,0.017891407012939453,0.00821812389983327,0.008553726967240048,35400,70.02203893393526,0.0
118,1.4153611660003662,70.02721081025717,0.007995786953508744,70.04085423683279,70.02142748740837,0.0,0.17222678183831278,0.1,0.002826690673828125,0.05647683143615723,0.050218355,3.807084,69.67622346845575,0.0,0.9203665119932296,0.0,300,0.016950607299804688,0.01276648638226454,0.010412530581977567,35700,70.02058018777038,0.0
119,1.3504621982574463,70.03669818602398,0.015140923435685223,70.05612452592331,70.02007648036329,0.0,0.1571814512427789,0.1,0.0029556751251220703,0.05602765083312988,0.049690004,3.0430028,69.71227094021258,0.0,0.920476652603218,0.0,300,0.018032073974609375,0.008526386614872114,0.008838952260242536,36000,70.02108461514936,0.0
120,1.351287841796875,70.02562489917563,0.005023909775397881,70.03217195733272,70.02014005073342,0.0,0.16548979762666105,0.1,0.0029129981994628906,0.0556638240814209,0.049982145,3.5687735,69.74360633610888,0.0,0.9203409206650507,0.0,300,0.01658487319946289,0.00928569432124702,0.00698874051140021,36300,70.02964213005887,0.0
121,1.3281714916229248,70.03238528372756,0.010016765566274292,70.04895523870888,70.02233982526963,0.0,0.17118074306149325,0.1,0.0030515193939208984,0.05559372901916504,0.05014585,2.565813,69.77248423087076,0.0,0.9204318913152929,0.0,300,0.01696944236755371,0.008803248427633355,0.008810626844004202,36600,70.05307854346702,0.0
122,1.370039939880371,70.03123898832604,0.009102312000459693,70.04692244278178,70.02473071120252,0.0,0.18426111485812594,0.1,0.0028717517852783203,0.05560588836669922,0.050611146,1.2899703,69.79835970661628,0.0,0.9204049852828079,0.0,300,0.017294645309448242,0.009288057964344237,0.008941608102558918,36900,70.06717154756656,0.0
123,1.3748033046722412,70.02621048559885,0.004120948734653401,70.03058242469184,70.02003255905134,0.0,0.1786596936393936,0.1,0.0030066967010498047,0.05798459053039551,0.0494629,0.94649047,69.82114478451454,0.0,0.920348105985155,0.0,300,0.018915653228759766,0.01188525043238601,0.0110401817836839,37200,70.02084762421315,0.0
124,1.361285924911499,70.03955267429365,0.031111855649062953,70.0933608983695,70.01931846814736,0.0,0.16620712068001325,0.1,0.0029630661010742188,0.05711531639099121,0.04966519,1.5542908,69.84298557349246,0.0,0.9205259075491967,0.0,300,0.016977548599243164,0.014140536414821051,0.009595792052413602,37500,70.0198129451292,0.0
125,1.3792977333068848,70.02643808937626,0.003389893840260987,70.03104857113394,70.02149230291243,0.0,0.17720026608328762,0.1,0.002915620803833008,0.05742669105529785,0.049692404,1.8355904,69.86133082508084,0.0,0.9203552579201288,0.0,300,0.01659846305847168,0.006822286209869943,0.007337716554711903,37800,70.01893929035089,0.0
126,1.362133502960205,70.02444894268577,0.006126308639546974,70.03379563239068,70.01866439943531,0.0,0.16982554225386526,0.1,0.002977132797241211,0.057071685791015625,0.049676474,1.49822,69.87764263684133,0.0,0.9203205513274748,0.0,300,0.016945362091064453,0.00862698139883266,0.006905869280935753,38100,70.01872675075036,0.0
127,1.385728120803833,70.03310881630028,0.020874076345554247,70.06921626884653,70.01932878721163,0.0,0.17456621355438828,0.1,0.0029146671295166016,0.05671238899230957,0.04943974,0.9620566,69.89318925478722,0.0,0.92041003220502,0.0,300,0.016744375228881836,0.00804225909612545,0.0075228548590184135,38400,70.01899553499219,0.0
128,1.380427598953247,70.02255029404925,0.0024219566940551288,70.02545698106205,70.01998641372992,0.0,0.1766794808641677,0.1,0.003000020980834961,0.05660271644592285,0.048986282,0.8205557,69.90612535871342,0.0,0.9203016020593848,0.0,300,0.016700267791748047,0.007714324816063969,0.0066314990350904565,38700,70.0188436381534,0.0
129,1.4766218662261963,70.02177511023848,0.0018407212836131495,70.02492619264508,70.02039061199046,0.0,0.17481760550833494,0.1,0.0029125213623046875,0.0582733154296875,0.050098084,0.8901589,69.91769033386593,0.0,0.9202942667502729,0.0,300,0.020284175872802734,0.007781209841834921,0.007581421896142909,39000,70.01859151983219,0.0
130,1.3143904209136963,59.527756191390196,18.183521048738008,70.03592235316196,28.032975635057166,0.0,0.16287653568155902,0.1,0.003008604049682617,0.058017730712890625,0.049738273,0.46992493,68.87869691961836,0.0,0.7837041696777027,0.0,300,0.018430233001708984,0.13579058155188414,0.10700296099501541,39300,70.01850620975547,0.0
131,1.3491730690002441,70.021371879768,0.000994749298846062,70.02293372733455,70.02035764462619,0.0,0.17973994236011948,0.1,0.0029764175415039062,0.06786894798278809,0.049474597,0.60569817,68.99296441563334,0.0,0.9202912474680941,0.0,300,0.016245603561401367,0.02556935779558581,0.028258479568448548,39600,70.01863041789771,0.0
132,1.3408877849578857,70.03430076848166,0.019477012140433545,70.06774036222646,70.01983401450353,0.0,0.18543278034268307,0.1,0.002863168716430664,0.05618739128112793,0.049533345,0.7316411,69.09709805091818,0.0,0.9204392423555886,0.0,300,0.0170135498046875,0.028163493504980694,0.0066634729946627455,39900,70.01866904557326,0.0
133,1.3758163452148438,70.02816765655967,0.008993756103402105,70.04359826567112,70.0210493257373,0.0,0.18783500920219845,0.1,0.002888202667236328,0.059735774993896484,0.048979994,0.78961945,69.19020501148233,0.0,0.9203759342041562,0.0,300,0.017139673233032227,0.017456872317887586,0.022873119126513675,40200,70.01882602880912,0.0
134,1.408872365951538,70.02889366730182,0.009724882443069861,70.04469861554529,70.01926808473512,0.0,0.18033667308072493,0.1,0.002901792526245117,0.057456016540527344,0.050270807,0.94485116,69.27407387706428,0.0,0.920364454248958,0.0,300,0.01715373992919922,0.012343056738891495,0.007882606937704154,40500,70.01952974921335,0.0
135,1.3636481761932373,70.03025637896367,0.00593739014131336,70.03991781210475,70.02388241423182,0.0,0.17437672202345347,0.1,0.003030061721801758,0.05601978302001953,0.049630105,0.8659082,69.34969212725423,0.0,0.9203978659572751,0.0,300,0.017095327377319336,0.01020298436919338,0.00870912733936457,40800,70.01948418772042,0.0
136,1.3864636421203613,70.0327771853504,0.012747442989040491,70.05379357166593,70.01950540898564,0.0,0.18231861289161086,0.1,0.0034134387969970703,0.05629253387451172,0.05041765,0.8293139,69.41800063306385,0.0,0.9204125888827299,0.0,300,0.015616893768310547,0.009915592329095,0.010062635500989273,41100,70.01928146326848,0.0
137,1.4228887557983398,70.04564533099752,0.03100145629503422,70.09759757540891,70.02002608814,0.0,0.18004142013242955,0.1,0.003021240234375,0.055281877517700195,0.04965483,0.6404639,69.48076510285722,0.0,0.9205368569756583,0.0,300,0.017020463943481445,0.00929105254326406,0.008818948542273605,41400,70.0191967164767,0.0
138,1.3926606178283691,70.03897652014166,0.025419709750855196,70.08253820611297,70.01999222900658,0.0,0.1660152760077862,0.1,0.0029201507568359375,0.055310726165771484,0.04926166,0.8950895,69.53658624458566,0.0,0.9204301808432716,0.0,300,0.016661882400512695,0.0064693959113147565,0.005283728378733201,41700,70.01967959533216,0.0
139,1.431398630142212,70.02848214357881,0.00543229448231753,70.03741417324197,70.02271664455344,0.0,0.18440145945014988,0.1,0.002839326858520508,0.06049394607543945,0.050399065,1.0846776,69.58577583448498,0.0,0.9203840961114682,0.0,300,0.017340898513793945,0.009205976471804794,0.009102435310210712,42000,70.01994480097423,0.0
140,1.34983491897583,70.04598423138647,0.02777550676457118,70.09306986066176,70.02114492063575,0.0,0.17155051660701875,0.1,0.0029883384704589844,0.05520510673522949,0.050075565,1.7662659,69.63179667417513,0.0,0.9205991350106086,0.0,300,0.01777029037475586,0.00866782293838695,0.006424359194078137,42300,70.01988512007128,0.0
141,1.4797251224517822,70.04114777047083,0.015135512298483528,70.06663801723698,70.02777523295894,0.0,0.17394135320430576,0.1,0.002895832061767578,0.05791640281677246,0.050694104,1.6353018,69.67273178380471,0.0,0.9205414923798313,0.0,300,0.017101287841796875,0.006642377331468678,0.006778290421629048,42600,70.02088153856378,0.0
142,1.344942569732666,70.02550306089904,0.0027630020813462,70.02826490871882,70.02116060921054,0.0,0.17932185137109333,0.1,0.0029358863830566406,0.0568544864654541,0.05020961,0.8043804,69.70800891151414,0.0,0.9203405916222225,0.0,300,0.01694774627685547,0.006688263841770145,0.006303488526903694,42900,70.02023282585641,0.0
143,1.4907898902893066,70.0286998215114,0.004578287077294723,70.03595239486788,70.02326544743718,0.0,0.1668493368888858,0.1,0.0029778480529785156,0.05688834190368652,0.051099744,0.6162134,69.74007800251387,0.0,0.9203703930306598,0.0,300,0.01729297637939453,0.011357026454451363,0.006414462129030941,43200,70.02088295126131,0.0
144,1.429405927658081,70.03084327645715,0.00953531988573783,70.04680164036358,70.02152158285617,0.0,0.15852945069215618,0.1,0.0029251575469970703,0.05848121643066406,0.04949553,1.2873136,69.76915452990819,0.0,0.9204106895767561,0.0,300,0.015574216842651367,0.0057741050018262855,0.006933315415844183,43500,70.02143096180541,0.0
145,1.3760654926300049,70.02558623147166,0.0021751373210019006,70.02919161032052,70.02335530219179,0.0,0.1739754101729481,0.1,0.003705263137817383,0.058432817459106445,0.04954958,1.10392,69.79479770006455,0.0,0.9203462590491872,0.0,300,0.0174407958984375,0.009070986560726173,0.006440348767661393,43800,70.02140845782563,0.0
146,1.3657746315002441,70.02854238890578,0.0022291085181983567,70.03132591506683,70.02517067789137,0.0,0.17208379806676866,0.1,0.003050565719604492,0.05827736854553223,0.05041165,0.92723864,69.81817216894868,0.0,0.9203820584333327,0.0,300,0.01953911781311035,0.005760832962664572,0.006101295356476241,44100,70.02197918730575,0.0
147,1.3708653450012207,70.02532489063694,0.005361343488130117,70.03247523572423,70.01933011159552,0.0,0.18391958186645943,0.1,0.0029320716857910156,0.05779004096984863,0.049636934,0.71065843,69.8388874411175,0.0,0.9203427245122277,0.0,300,0.0170440673828125,0.006805054090907089,0.0061547450824042975,44400,70.0224076631278,0.0
148,1.3680415153503418,70.06444081080713,0.05889755346250715,70.16592195820901,70.02184766020571,0.0,0.18224765993445416,0.1,0.002797365188598633,0.058533430099487305,0.04953881,0.78156054,69.86144277808647,0.0,0.9208556011170311,0.0,300,0.01684093475341797,0.007691072548458988,0.006925553820721958,44700,70.02219811321095,0.0
149,1.3752291202545166,70.02968317369825,0.003272970077180568,70.03201465699202,70.02407825922573,0.0,0.18117287428349188,0.1,0.003006458282470703,0.057563066482543945,0.050081007,0.95540804,69.87826681764764,0.0,0.920394904162845,0.0,300,0.017084598541259766,0.006775171098088475,0.006634307857521716,45000,70.02176272834272,0.0
150,1.3848850727081299,70.03120158656273,0.00784303060077525,70.04289919164118,70.02177247574699,0.0,0.1715751193905978,0.1,0.003004312515258789,0.05707073211669922,0.049626622,0.80083203,69.89356029453916,0.0,0.9204190845863687,0.0,300,0.017180681228637695,0.008616350159572619,0.006118978324052176,45300,70.02089208983558,0.0
151,1.3633441925048828,70.02980501298188,0.004094328332282995,70.03451242266367,70.02503277680731,0.0,0.16073222247048033,0.1,0.0028901100158691406,0.05675864219665527,0.049323607,2.0692618,69.90718476638342,0.0,0.9204026503397869,0.0,300,0.01695728302001953,0.003996742224466123,0.004321955119174691,45600,70.02032195151935,0.0
152,1.4133191108703613,70.03388369815285,0.0064892817289539575,70.04441102412909,70.02798718784845,0.0,0.17497095402928264,0.1,0.0029473304748535156,0.059172630310058594,0.049956117,0.70588046,69.91985465956037,0.0,0.9204372881683821,0.0,300,0.016814708709716797,0.00536445758348088,0.004365269869442133,45900,70.02059579554017,0.0
153,1.391183853149414,70.02547349409133,0.002942840886003154,70.0291838906322,70.02094955245121,0.0,0.17156309057576197,0.1,0.002920389175415039,0.056563377380371094,0.050500013,1.3069702,69.93041654301346,0.0,0.9203438684430687,0.0,300,0.01691579818725586,0.0035744213225547277,0.003366049540870702,46200,70.02048761767433,0.0
154,1.4219677448272705,70.02513946242001,0.006327510917396596,70.03568001305527,70.018802352938,0.0,0.18068318975050773,0.1,0.002850055694580078,0.05548810958862305,0.049764134,0.74471235,69.93988883495412,0.0,0.9203404357238456,0.0,300,0.016858339309692383,0.010399629440673975,0.00636126359676107,46500,70.02058490638056,0.0
155,1.425611972808838,70.02535901822716,0.002691192929033006,70.0290625136268,70.02226993963417,0.0,0.1695878915090287,0.1,0.002912759780883789,0.05604124069213867,0.049612876,1.6542219,69.94843585328142,0.0,0.9203406902321466,0.0,300,0.015594482421875,0.004914874248047316,0.005746278338202795,46800,70.0206373774687,0.0
156,1.410501480102539,70.03039609866676,0.010254467101755826,70.04744222861976,70.02053255995806,0.0,0.18567328640951128,0.1,0.0028002262115478516,0.05517005920410156,0.050260697,0.6427689,69.95663187781996,0.0,0.9203752111115998,0.0,300,0.01680588722229004,0.005639872513809123,0.0038538567754784997,47100,70.0204984326124,0.0
157,1.4494283199310303,70.03847401733505,0.026725343907716623,70.08457398649826,70.0197948880357,0.0,0.18369169918544656,0.1,0.0028069019317626953,0.055068254470825195,0.049756907,0.5772511,69.96481609177147,0.0,0.9204804727227665,0.0,300,0.016241788864135742,0.006102932211545212,0.005744332074548386,47400,70.02028514664528,0.0
158,1.4170122146606445,70.02665155050829,0.004615117440152429,70.03150014762659,70.02154084175501,0.0,0.17395017459364354,0.1,0.0028467178344726562,0.05535721778869629,0.050044198,0.73658234,69.97099963764515,0.0,0.9203607543358105,0.0,300,0.017287015914916992,0.00936340649153517,0.008173382724243013,47700,70.02068040647409,0.0
159,1.4464285373687744,70.02453362807134,0.0029631901720567275,70.0276582108175,70.01980147672677,0.0,0.1813746896226314,0.1,0.0069463253021240234,0.05694699287414551,0.05013227,1.0645651,69.97635303668777,0.0,0.9203316060979432,0.0,300,0.016758441925048828,0.0074985410567002635,0.007678678075537141,48000,70.02223142779825,0.0
160,1.3855781555175781,70.03261968532286,0.006772980411691012,70.04181890429447,70.02277626082164,0.0,0.17527267758700105,0.1,0.003055572509765625,0.059153079986572266,0.050584745,0.7763995,69.98197970155128,0.0,0.9204246864301703,0.0,300,0.01735091209411621,0.005182573575264081,0.004491404068005512,48300,70.02603493919422,0.0
161,1.419609785079956,70.02372689539446,0.0028806529251269074,70.02752687578699,70.02053734662755,0.0,0.17844596368425206,0.1,0.004458904266357422,0.05916404724121094,0.050162192,0.56052464,69.9861544209356,0.0,0.9203195647035776,0.0,300,0.017397642135620117,0.007526315180881317,0.006492588100568157,48600,70.0342529406537,0.0
162,1.518538236618042,70.0257143645307,0.0036566513654968046,70.0314528816552,70.0215925970143,0.0,0.1821072764487828,0.1,0.0030012130737304688,0.05837607383728027,0.049267765,0.70886666,69.99011041529512,0.0,0.9203482209674017,0.0,300,0.019423961639404297,0.005042968853843132,0.004991667459232937,48900,70.13121059992008,0.0
163,1.5385627746582031,69.83278082352527,0.35569164983275076,70.04340538819405,69.21674035426385,0.0,0.1851537334060165,0.1,0.0030906200408935547,0.060132741928100586,0.050098915,0.6916882,69.97437745611813,0.0,0.9210760670895903,0.0,300,0.01622915267944336,0.006747917376918325,0.006468654129683872,49200,70.05695216839887,0.0
164,1.5041077136993408,70.03397547377628,0.013331357681406636,70.05572755391479,70.0195756548006,0.0,0.1870416041942789,0.1,0.0030007362365722656,0.056484222412109375,0.049135957,0.70723003,69.98033725788395,0.0,0.9204325344955718,0.0,300,0.019726276397705078,0.006956700646808092,0.00681213096594405,49500,70.02823492851665,0.0
165,1.4255332946777344,70.04486179218753,0.023496182161871524,70.0787078515322,70.02112714638216,0.0,0.19501617135619703,0.1,0.002906322479248047,0.056648969650268555,0.050078195,0.7594762,69.9867897113143,0.0,0.9205973634135176,0.0,300,0.016670942306518555,0.00590472056339028,0.005293201231382498,49800,70.05560035162411,0.0
166,1.5477585792541504,70.02923180415567,0.005010497766900277,70.03566234797466,70.02296344421124,0.0,0.17900408110543217,0.1,0.002933979034423828,0.05588126182556152,0.04923997,0.78052443,69.99103392059844,0.0,0.9203870178349092,0.0,300,0.01778554916381836,0.0077747130336228544,0.006567154077716667,50100,70.04204878897785,0.0
167,1.5185368061065674,69.52476063724603,0.8623416274623187,70.02425280329588,68.03114229000194,0.0,0.1802519415049932,0.1,0.002930879592895508,0.055417776107788086,0.050066587,0.54327875,69.94440659226319,0.0,0.913666607545454,0.0,300,0.01831364631652832,0.005755318233822143,0.0049466614679838025,50400,70.02254087069436,0.0
168,1.541196584701538,70.02221792613652,0.0031522507646103764,70.02760858083381,70.01960561279654,0.0,0.17806432460425392,0.1,0.003032684326171875,0.0578763484954834,0.04910749,0.69970125,69.95218772565052,0.0,0.9203020232509429,0.0,300,0.0174252986907959,0.007201822114716454,0.006542126801493187,50700,70.02153906135985,0.0
169,1.534855604171753,70.0269724063962,0.006626947544152634,70.0375001890103,70.02003014368103,0.0,0.17225097003715537,0.1,0.003068208694458008,0.057420969009399414,0.04976427,0.64391375,69.95966619372508,0.0,0.9203635551092981,0.0,300,0.017814159393310547,0.008456560148166013,0.00550624484281511,51000,70.02219448426463,0.0
170,1.5494160652160645,70.02902108543688,0.008511696223664012,70.04363790222013,70.02239046119516,0.0,0.18128539759092036,0.1,0.003069639205932617,0.056931257247924805,0.05041754,0.59215504,69.96660168289627,0.0,0.9203918638309254,0.0,300,0.019359827041625977,0.005286884020712515,0.005653451757520564,51300,70.02891575880345,0.0
171,1.527247428894043,70.03084398047442,0.0071555342308128956,70.03840144190963,70.0218108790424,0.0,0.1794285072503099,0.1,0.0028951168060302734,0.05607748031616211,0.050497442,0.90223783,69.9730259126541,0.0,0.9204166239597484,0.0,300,0.01708364486694336,0.008082913210003095,0.006590063919452342,51600,70.02295199294167,0.0
172,1.5410370826721191,62.535084328080586,12.994632784153143,70.06555590228807,40.027739889423685,0.0,0.1678400151863515,0.1,0.003004312515258789,0.056310415267944336,0.049784593,0.5427362,69.22923175419675,0.0,0.8237850597412733,0.0,300,0.017336368560791016,0.09524535635900483,0.06827888010273359,51900,70.02582957649226,0.0
173,1.6137151718139648,70.0230889404869,0.0026248646878717103,70.02528514883448,70.01883035886688,0.0,0.1861630105136573,0.1,0.002775430679321289,0.055672407150268555,0.050036855,0.6332432,69.30861747282576,0.0,0.9203115321743134,0.0,300,0.017635345458984375,0.018805615165699122,0.014288073949433284,52200,70.02503676605703,0.0
174,1.6218950748443604,68.78138262536736,2.1572334463695992,70.030668912543,65.0449499553118,0.0,0.18310761281176213,0.1,0.0028793811798095703,0.056171417236328125,0.050394222,0.688343,69.25589398807992,0.0,0.9037402368502099,0.0,300,0.015369176864624023,0.007505449645311231,0.006470725241930421,52500,70.02872794993502,0.0
175,1.7345013618469238,70.03363752060187,0.0047967527779195045,70.0397521841634,70.02853465994929,0.0,0.1746008546891409,0.1,0.0029754638671875,0.05559349060058594,0.049651787,0.7552861,69.33366834133211,0.0,0.92044356893893,0.0,300,0.016577482223510742,0.006807002860643814,0.0067115622961995995,52800,70.08656949397071,0.0
176,1.5550780296325684,70.02953206040311,0.0056589712641429415,70.0378046146175,70.02217080128145,0.0,0.17490713204388003,0.1,0.0028533935546875,0.05689740180969238,0.049864028,0.800954,69.40325471323922,0.0,0.9203886000774895,0.0,300,0.017563343048095703,0.00511453028576474,0.004002057344279599,53100,70.11093113947204,0.0
177,1.5762953758239746,70.03013584327942,0.006059508384107634,70.03994264206553,70.0236815854416,0.0,0.1847437497069247,0.1,0.0031490325927734375,0.05852341651916504,0.050138813,0.6198153,69.46594282624324,0.0,0.9204021251174606,0.0,300,0.017511606216430664,0.00595596424380266,0.006241935116775146,53400,70.0317436819926,0.0
178,1.522134780883789,70.02453297762291,0.004323443967319107,70.03170104016468,70.02042179163502,0.0,0.18766619583635466,0.1,0.0030603408813476562,0.060218095779418945,0.04985306,0.5346803,69.5218018413812,0.0,0.9203325505337471,0.0,300,0.017012357711791992,0.005011787583833045,0.003919040225212363,53700,70.03591597957394,0.0
179,1.391336441040039,70.0351743694878,0.012310280600908975,70.05531231674541,70.0224975026546,0.0,0.1915397223028354,0.1,0.003036022186279297,0.057582855224609375,0.050242435,0.5291809,69.57313909419186,0.0,0.9204653621930877,0.0,300,0.016868114471435547,0.00643004622774529,0.006294404051068492,54000,70.03968988530235,0.0
180,1.4557733535766602,70.03009087310829,0.0026052263047651506,70.03339583638018,70.02731527647515,0.0,0.17580260543364912,0.1,0.0030701160430908203,0.057456016540527344,0.050681863,0.62531275,69.6188342720835,0.0,0.920401866514397,0.0,300,0.017289400100708008,0.004193884426952259,0.0037725321565616012,54300,70.03679466817471,0.0
181,1.4129807949066162,70.02629098655397,0.002586906608812509,70.02966375174438,70.02241942188982,0.0,0.17881917365691774,0.1,0.0032024383544921875,0.05738258361816406,0.049586378,0.63159215,69.65957994353056,0.0,0.9203553480452351,0.0,300,0.0169980525970459,0.007039533801763674,0.006144167575183682,54600,70.02619228270134,0.0
182,1.4002583026885986,70.02739879967599,0.010490376779072202,70.04546369939384,70.02018337325526,0.0,0.19336837000531812,0.1,0.003179311752319336,0.05765795707702637,0.04978096,0.74085593,69.6963618291451,0.0,0.9203662266041378,0.0,300,0.01681065559387207,0.007200126302637249,0.005513385702903475,54900,70.02461628831723,0.0
183,1.3724346160888672,70.02650178579913,0.005528984482450479,70.03553695827578,70.02172218500398,0.0,0.19647931066035934,0.1,0.0032761096954345703,0.05890512466430664,0.049654517,0.7182532,69.72937582481052,0.0,0.9203480998371547,0.0,300,0.017297029495239258,0.005880259408284539,0.005770765550289353,55200,70.02329859438443,0.0
184,1.4096417427062988,70.02355916363175,0.0023717773250234043,70.026231190162,70.01975196584111,0.0,0.1879525880271972,0.1,0.0031228065490722656,0.0570526123046875,0.04958537,0.64657867,69.75879415869264,0.0,0.9203201447382302,0.0,300,0.017115116119384766,0.0042331626434379275,0.003443214494083399,55500,70.02437929376937,0.0
185,1.409041166305542,70.02947356300596,0.006367072815039358,70.03891166718607,70.02173629169035,0.0,0.17513848029785506,0.1,0.0030341148376464844,0.057912588119506836,0.050356273,0.5517805,69.78586209912397,0.0,0.920385749045344,0.0,300,0.01767706871032715,0.0033114237089621897,0.0032488693212228306,55800,70.0257447967325,0.0
186,1.4357075691223145,70.0352099763102,0.011845676121271362,70.05225091137433,70.02090202580094,0.0,0.1892802525871159,0.1,0.0031163692474365234,0.05577373504638672,0.049450733,0.5594852,69.8107968868426,0.0,0.92046665715018,0.0,300,0.017790555953979492,0.007799010042836763,0.007465174617137124,56100,70.02499539450602,0.0
187,1.396148920059204,70.02864816547645,0.008040389604763571,70.04192297416292,70.02104457577862,0.0,0.1767749883739951,0.1,0.0029754638671875,0.056922197341918945,0.05057484,0.62932736,69.83258201470598,0.0,0.9203865703494571,0.0,300,0.017337322235107422,0.00922378916165538,0.004921771798508783,56400,70.02204298988282,0.0
188,1.4220571517944336,70.02832157100062,0.005903085316822658,70.03800260727638,70.0227138630769,0.0,0.18591551974486512,0.1,0.0028977394104003906,0.05732536315917969,0.050250936,0.66345423,69.85215597033545,0.0,0.9203802274508252,0.0,300,0.016626834869384766,0.008535108578210649,0.007948386526580644,56700,70.02053117389244,0.0
189,1.4508562088012695,70.02877828062527,0.007174629379002324,70.04098632785261,70.02338476146677,0.0,0.19121115394216434,0.1,0.002916574478149414,0.05627131462097168,0.049195375,0.59970295,69.86981820136442,0.0,0.9203748155109277,0.0,300,0.018724918365478516,0.006065892300812312,0.006312104086645526,57000,70.02786439126503,0.0
190,1.44195556640625,70.03318572467654,0.010449610993518222,70.04917429066651,70.02165857705108,0.0,0.1827031030280796,0.1,0.002914905548095703,0.055263519287109375,0.04992245,0.65230894,69.88615495369564,0.0,0.9204307809610699,0.0,300,0.01666545867919922,0.0054310856775347605,0.005077273189592276,57300,70.04264082716305,0.0
191,1.485140085220337,70.04674875325716,0.022956411683900512,70.07030703366632,70.0221345826493,0.0,0.18267471941387006,0.1,0.0029447078704833984,0.055325984954833984,0.050001726,0.8191012,69.90221433365178,0.0,0.9205981444411204,0.0,300,0.01764369010925293,0.0038344695565691706,0.0028161683459512455,57600,70.0379204348559,0.0
192,1.461674690246582,70.04151064304017,0.02001083066038702,70.0651651940436,70.02111382675878,0.0,0.19415213774474063,0.1,0.0028133392333984375,0.05550646781921387,0.049902808,0.53000116,69.91614396459062,0.0,0.9205109980678662,0.0,300,0.01786971092224121,0.004389822038893085,0.0042345492077972445,57900,70.04673316672402,0.0
193,1.4344074726104736,70.0465562124618,0.028522576200409894,70.0956795863615,70.02579435876382,0.0,0.19216817570368763,0.1,0.002902984619140625,0.056526899337768555,0.05035074,0.5283659,69.92918518937773,0.0,0.9206194563158269,0.0,300,0.01648092269897461,0.007051642452528206,0.004277298539623891,58200,70.0317436363646,0.0
194,1.4593570232391357,70.02459961500129,0.001813695916868824,70.02670447348771,70.0220887996775,0.0,0.1909632607742415,0.1,0.002910137176513672,0.056381940841674805,0.050113067,0.5663754,69.93872663194009,0.0,0.9203303810143144,0.0,300,0.017003536224365234,0.006160034315914091,0.006672616094935621,58500,70.03828666414474,0.0
195,1.4590599536895752,70.02953069179894,0.008925977689122245,70.04441395684948,70.021403563612,0.0,0.18586640477671168,0.1,0.0028166770935058594,0.056267499923706055,0.05029217,0.5779017,69.94780703792597,0.0,0.9203800654441643,0.0,300,0.017076730728149414,0.007249397624676323,0.005196020174670888,58800,70.03015477772263,0.0
196,1.442732334136963,70.03324956517942,0.016325101188208863,70.06147023809778,70.02220129305567,0.0,0.18506029469017898,0.1,0.0031485557556152344,0.05874443054199219,0.05017507,0.5436983,69.95635129065131,0.0,0.9204438921810183,0.0,300,0.01723194122314453,0.004429091873758,0.004643931493907718,59100,70.03030932468691,0.0
197,1.4210011959075928,70.0292826932494,0.008452094955168014,70.04380939143992,70.02299228404732,0.0,0.17033979186046028,0.1,0.0030291080474853516,0.05815243721008301,0.049521077,0.84841216,69.96364443091113,0.0,0.9203815120722885,0.0,300,0.017151594161987305,0.008576321062284287,0.008200699492260492,59400,70.02481034402093,0.0
198,1.43868088722229,70.02781072980126,0.004673075848879089,70.03587848069253,70.02450739086474,0.0,0.18563687629484615,0.1,0.003004312515258789,0.058125972747802734,0.04975148,0.59398973,69.97006106080015,0.0,0.9203763263363096,0.0,300,0.017031431198120117,0.004085544828336556,0.0037566223681199822,59700,70.02726757565895,0.0
199,1.405061960220337,70.02873484377996,0.002696170556856663,70.03338351814848,70.02678783262775,0.0,0.1781523157233575,0.1,0.0030660629272460938,0.061553239822387695,0.050716005,4.5977154,69.97592843909813,0.0,0.9203830908939035,0.0,300,0.017901897430419922,0.004226977283787922,0.0037561571788631712,60000,70.03009540867853,0.0
200,1.4308562278747559,70.02521236065702,0.003590134142232932,70.03042132883515,70.02027747865078,0.0,0.17625697331841825,0.1,0.003039836883544922,0.0579531192779541,0.05011592,0.6231636,69.98085683125402,0.0,0.9203388079101287,0.0,300,0.017922401428222656,0.006011189069176364,0.005473316257901667,60300,70.02674815978658,0.0
201,1.4411382675170898,70.02882770055588,0.0054200028713422615,70.03794599439173,70.02373994826394,0.0,0.17957431575700872,0.1,0.0030062198638916016,0.05900740623474121,0.04987314,0.7190409,69.9856539181842,0.0,0.9203882491266115,0.0,300,0.018784046173095703,0.004603079121464162,0.0043206943711017794,60600,70.0224579577692,0.0
202,1.5402297973632812,70.0275047360372,0.0043648922757046765,70.03268536970538,70.02192536842955,0.0,0.17446862396439983,0.1,0.0030536651611328125,0.055889129638671875,0.050016,0.57442856,69.9898389999695,0.0,0.9203713217939262,0.0,300,0.01694035530090332,0.00543541276683898,0.004929319262132472,60900,70.02265912414347,0.0
203,1.3620283603668213,70.02118963250403,0.001648350889537429,70.0240112215354,70.01991745073119,0.0,0.16794733799693803,0.1,0.0031328201293945312,0.05947685241699219,0.04952439,0.68585336,69.99297406322296,0.0,0.9202889410602895,0.0,300,0.01738739013671875,0.007174441455929188,0.005429508533884828,61200,70.02395774393257,0.0
204,1.4730534553527832,70.02546133644356,0.00260273500845798,70.02770578088163,70.02131747409346,0.0,0.17334615044504997,0.1,0.0028448104858398438,0.05537986755371094,0.050058853,0.92765605,69.99622279054502,0.0,0.9203456706150764,0.0,300,0.017042160034179688,0.004369588237231684,0.003144719219028648,61500,70.02245737874071,0.0
205,1.3840408325195312,70.02632929030251,0.007443074774819868,70.03877823143107,70.020548954208,0.0,0.17753459918212489,0.1,0.0028564929962158203,0.05604696273803711,0.050209235,0.6919183,69.99923344052077,0.0,0.9203568700237945,0.0,300,0.016813993453979492,0.0037779111190306127,0.003937070074057725,61800,70.02138176001232,0.0
206,1.3978493213653564,70.05147428664203,0.03707219172333429,70.11497920626542,70.02147028819937,0.0,0.18925026809318637,0.1,0.002809762954711914,0.05540609359741211,0.04980877,0.52813584,70.00445752513289,0.0,0.9206779128383136,0.0,300,0.016796112060546875,0.011476187691679926,0.008574894414419667,62100,70.0209687066165,0.0
207,1.3960013389587402,70.02644290764411,0.003208560678997121,70.03183705280765,70.02387199060517,0.0,0.1845446575582802,0.1,0.002873659133911133,0.05567741394042969,0.05030035,0.606693,70.00665606338401,0.0,0.9203567540511483,0.0,300,0.018619298934936523,0.007028247351421587,0.007247593489777834,62400,70.02076660702826,0.0
208,1.4156227111816406,70.02638828630684,0.0038393082928810723,70.03152248990845,70.02252831534815,0.0,0.18243200475482726,0.1,0.002918720245361328,0.05535554885864258,0.050444912,0.5934346,70.00862928567629,0.0,0.9203566386330203,0.0,300,0.016596078872680664,0.007376811149085397,0.005779494749291908,62700,70.02059499503822,0.0
209,1.4554448127746582,70.02396693112844,0.004129680845134808,70.03029158088422,70.02018299017664,0.0,0.1764764662044912,0.1,0.00283050537109375,0.05744767189025879,0.050334834,0.68505555,70.01016305022151,0.0,0.9203251765305009,0.0,300,0.016268253326416016,0.005220570201227705,0.004928548659166804,63000,70.02058815485485,0.0
210,1.4126627445220947,70.0226227649514,0.0014250076539245107,70.0242374816124,70.02094854420265,0.0,0.16765579665980498,0.1,0.003086090087890625,0.05705666542053223,0.049939666,0.7538755,70.0114090216945,0.0,0.9203081084445819,0.0,300,0.016947269439697266,0.004574838860063715,0.0034671863020870673,63300,70.02059681158049,0.0
211,1.4453887939453125,68.77571093336718,2.161933759317182,70.02827425066948,65.03113507683163,0.0,0.17937462576118013,0.1,0.0028257369995117188,0.05656170845031738,0.04984335,0.92099804,69.88783921286178,0.0,0.907014418424249,0.0,300,0.017161130905151367,0.005003907669062517,0.004930448255990707,63600,70.02023188127045,0.0
212,1.4743881225585938,70.02768317493789,0.00438901380653044,70.03401901734651,70.02269091399025,0.0,0.17984589711921498,0.1,0.002862691879272461,0.057239532470703125,0.050129294,0.5718927,69.9018236090694,0.0,0.9203701211258549,0.0,300,0.017293453216552734,0.0057895876434422,0.004927222726018851,63900,70.02034361340193,0.0
213,1.4393823146820068,70.02486178779287,0.003815930382874259,70.0311663600665,70.02155136491538,0.0,0.1907279239956945,0.1,0.0029621124267578125,0.056694746017456055,0.049872663,0.6876593,69.91412742694175,0.0,0.9203365424001233,0.0,300,0.016773223876953125,0.007047846757875839,0.0063858479810503,64200,70.02037966425407,0.0
214,1.4568896293640137,70.02373896853362,0.0023635031382142537,70.02765162636493,70.02152406934849,0.0,0.18414200248257245,0.1,0.0028944015502929688,0.06024289131164551,0.05004476,0.6494437,69.92508858110094,0.0,0.9203213916609265,0.0,300,0.01700305938720703,0.003682396063696718,0.003025339218812048,64500,70.02041922190254,0.0
215,1.4466795921325684,70.02404294117925,0.00166245368058358,70.02649262670737,70.02181965245065,0.0,0.19055328417206557,0.1,0.002900362014770508,0.06070208549499512,0.050106954,0.64573807,69.93498401710877,0.0,0.920326936202962,0.0,300,0.016950607299804688,0.005114122711851715,0.004362171816702323,64800,70.0204767307836,0.0
216,1.4333946704864502,70.0255703609043,0.00520899033860484,70.03298137861611,70.01983652708599,0.0,0.18407689279570497,0.1,0.0029082298278808594,0.062416791915893555,0.050552614,0.6776569,69.94404265148833,0.0,0.9203469942793507,0.0,300,0.01700592041015625,0.004676607569394535,0.004598927094877873,65100,70.02048130400216,0.0
217,1.452913522720337,70.02381943427545,0.002290456761934407,70.02655057333448,70.0202019439077,0.0,0.18320410455313108,0.1,0.0030181407928466797,0.05578017234802246,0.050170626,0.6924135,69.95202032976705,0.0,0.9203239515033603,0.0,300,0.018239736557006836,0.006915764759378381,0.006284747420924485,65400,70.02071445068522,0.0
218,1.446603536605835,70.02486225514237,0.003460896793957138,70.02996081675421,70.02087694173771,0.0,0.1836986451278895,0.1,0.0029404163360595703,0.0557560920715332,0.051368177,0.6253069,69.95930452230458,0.0,0.9203376144177168,0.0,300,0.017559051513671875,0.006321044731809508,0.0060534836596696645,65700,70.020289744068,0.0
219,1.4680829048156738,68.7760498293048,2.1635712905081683,70.02585478619534,65.02863461452255,0.0,0.18537569294691977,0.1,0.0030355453491210938,0.05660724639892578,0.049754586,0.52819926,69.8409790530046,0.0,0.9036871808837814,0.0,300,0.017606019973754883,0.00997457880427139,0.009743444785182156,66000,70.02003713141298,0.0
220,1.49114990234375,70.02580802958548,0.0030923652311084858,70.03096662656074,70.02308820742284,0.0,0.17916509616028872,0.1,0.002959728240966797,0.05681753158569336,0.050169986,0.53183556,69.85946195066269,0.0,0.9203503416956601,0.0,300,0.019496679306030273,0.009310891211356405,0.005454903406219612,66300,70.02005225294808,0.0
221,1.4702913761138916,70.02377317344383,0.006422907735268894,70.03487230199511,70.01938306313397,0.0,0.17319665919281554,0.1,0.0030426979064941406,0.05901527404785156,0.04966609,0.77098596,69.87589307294081,0.0,0.9203234220810995,0.0,300,0.0170137882232666,0.005083403440898186,0.004567764507670481,66600,70.01989936931875,0.0
222,1.4923090934753418,70.02142259651178,0.0007427020872628452,70.02213528411106,70.02024684513486,0.0,0.17923110097470016,0.1,0.003031492233276367,0.0575101375579834,0.050286174,0.6388977,69.8904460252979,0.0,0.9202915470138152,0.0,300,0.017410755157470703,0.004102174867794227,0.004387451751094407,66900,70.01990727241592,0.0
223,1.5183672904968262,70.0226369550586,0.001304720105729708,70.02462587029076,70.02110185492302,0.0,0.18191385112300587,0.1,0.0029325485229492188,0.055199384689331055,0.049669147,0.62474096,69.90366511827398,0.0,0.9203080493441629,0.0,300,0.01748490333557129,0.003848473614747156,0.003570316078569684,67200,70.0201323165563,0.0
224,1.4299473762512207,70.02124702135134,0.0023335486763661514,70.02389225030977,70.0187860922284,0.0,0.17807446145159034,0.1,0.003134489059448242,0.05714130401611328,0.04918071,0.67775255,69.91542330858172,0.0,0.9202897226666298,0.0,300,0.017776966094970703,0.0049450578371203245,0.003498090131693491,67500,70.01997132653936,0.0
225,1.4768924713134766,70.02501985209017,0.004496805911480527,70.0324964099253,70.02071965400496,0.0,0.18345369379609117,0.1,0.0030236244201660156,0.05637097358703613,0.050563164,0.53975797,69.92638296293256,0.0,0.9203386003274667,0.0,300,0.01724863052368164,0.00512349510020653,0.0033114185202184343,67800,70.01997007569514,0.0
226,1.4436969757080078,70.02174697527663,0.0015115466139212156,70.02368900750461,70.01945955610553,0.0,0.18037478112937347,0.1,0.003070831298828125,0.0564122200012207,0.049874876,0.60184485,69.93591936416696,0.0,0.9202963341760269,0.0,300,0.017667293548583984,0.00585328677912146,0.0060034150701276535,68100,70.01982179923024,0.0
227,1.4819073677062988,70.02168013898412,0.0016799216121543218,70.02359071990894,70.01911333859671,0.0,0.17359337331256094,0.1,0.0028896331787109375,0.05643796920776367,0.04994363,0.6988864,69.94449544164868,0.0,0.9202955107113557,0.0,300,0.017968177795410156,0.005545349995472116,0.004622063184822858,68400,70.01947928214213,0.0
228,1.4567019939422607,70.02008479268876,0.001085948807494483,70.021842958274,70.01890523690305,0.0,0.18192916034354756,0.1,0.002918243408203125,0.05811500549316406,0.050481454,0.6581719,69.9520543767527,0.0,0.9202742166199123,0.0,300,0.01812577247619629,0.003358524945634839,0.0033758943741691956,68700,70.01955456506093,0.0
229,1.4598708152770996,70.02482302512297,0.003232635864853725,70.0280220541355,70.01950742985933,0.0,0.1840792350107541,0.1,0.0030896663665771484,0.0577850341796875,0.050232317,0.60883677,69.95933124158972,0.0,0.920337418368773,0.0,300,0.017742633819580078,0.006068296446601012,0.005309852910219472,69000,70.01944406904026,0.0
230,1.462679386138916,70.02043203782995,0.0021705860914077923,70.0241089477669,70.01854429127414,0.0,0.18398371546959208,0.1,0.003049135208129883,0.05805230140686035,0.049945764,0.7032448,69.96544132121375,0.0,0.92027857303561,0.0,300,0.0178067684173584,0.004223959517735592,0.004082029610079949,69300,70.01957293107205,0.0
231,1.4784963130950928,70.02134631962653,0.0016160315875790316,70.02366318530805,70.01909487424332,0.0,0.17624346940631502,0.1,0.002968311309814453,0.05729413032531738,0.049482383,0.76057905,69.97103182105502,0.0,0.9202910635172064,0.0,300,0.01779460906982422,0.005255527378936567,0.004670122065585082,69600,70.01964210615873,0.0
232,1.4696080684661865,70.02159263168085,0.002271430271508891,70.02512675145877,70.01908682931297,0.0,0.19397465621858892,0.1,0.0029916763305664062,0.05699944496154785,0.049819104,0.63665366,69.97608790211761,0.0,0.9202932851271415,0.0,300,0.01758575439453125,0.004028732702464919,0.0035211886653785515,69900,70.01966758530797,0.0
233,1.5205354690551758,70.01970207160494,0.0010729923984249636,70.02154329848076,70.01892995713175,0.0,0.1826637620089414,0.1,0.0029366016387939453,0.05627775192260742,0.05013957,0.69314086,69.98044931906635,0.0,0.9202691330981123,0.0,300,0.0182034969329834,0.004446445253552134,0.003842948933024477,70200,70.0197926750246,0.0
234,1.5541341304779053,70.02231927547383,0.0016931682884600118,70.02432146712347,70.01967771941129,0.0,0.177584228576153,0.1,0.003028392791748047,0.05566692352294922,0.04965502,0.54212224,69.9846363147071,0.0,0.9203040722673985,0.0,300,0.017920732498168945,0.003609050428712651,0.0033123404162683323,70500,70.01968198022794,0.0
235,1.4960663318634033,69.77444554171504,0.4267275621556991,70.02176528272828,69.0353332499651,0.0,0.1690963939745761,0.1,0.0029900074005126953,0.05721759796142578,0.049863357,0.54594785,69.9636172374079,0.0,0.9169986017202844,0.0,300,0.017824649810791016,0.0038682614092276292,0.0030682579803216633,70800,70.01971178976909,0.0
236,1.531151533126831,70.02432877008563,0.005832951866935997,70.03428039738397,70.01959067536171,0.0,0.17654503953665474,0.1,0.0028121471405029297,0.05563163757324219,0.049508806,0.7215157,69.96968839067567,0.0,0.9203308347000593,0.0,300,0.01921558380126953,0.0038185142363167473,0.003508039187272968,71100,70.01975579010899,0.0
237,1.4986248016357422,70.02523052103864,0.00437564554065999,70.03154666989538,70.02016414698416,0.0,0.17955693633073644,0.1,0.0029001235961914062,0.05535244941711426,0.049824335,0.6088045,69.97524260371198,0.0,0.9203427029116922,0.0,300,0.018073081970214844,0.0039446218686177365,0.0029626481018020377,71400,70.01993360085216,0.0
238,1.4947404861450195,70.0225834643525,0.001996845558384603,70.0250885574754,70.02016523221334,0.0,0.1848584765726302,0.1,0.0029768943786621094,0.05665326118469238,0.049551215,0.69095075,69.97997668977604,0.0,0.9203075770969716,0.0,300,0.01850271224975586,0.004381723436648916,0.0030293610826529122,71700,70.0201351806394,0.0
239,1.4851086139678955,70.02626177136852,0.005686805163522075,70.03579473076958,70.0216368169855,0.0,0.1779086932068992,0.1,0.002790689468383789,0.055052995681762695,0.050039094,1.0045451,69.98460519793528,0.0,0.9203565229510455,0.0,300,0.019962310791015625,0.004072590456910962,0.003997591232884042,72000,70.02023157077429,0.0
240,1.5023536682128906,70.02181178133486,0.0019978278537931744,70.02476010879239,70.01929312013827,0.0,0.18215594181287748,0.1,0.0029420852661132812,0.05532193183898926,0.049767904,0.7821786,69.98832585627524,0.0,0.9202970248959199,0.0,300,0.017946958541870117,0.004137795741679045,0.0040020969062541335,72300,70.02015271852018,0.0
241,1.530602216720581,70.02404120806463,0.0011354337175659107,70.02554119646516,70.02234538934393,0.0,0.1822423419818753,0.1,0.002930879592895508,0.05505228042602539,0.049794216,0.64308524,69.99189739145417,0.0,0.9203270442062306,0.0,300,0.017691373825073242,0.00250054169924689,0.0024153107705194364,72600,70.02015137999027,0.0
242,1.5037281513214111,70.02039891192457,0.0008812299765755653,70.02159633186906,70.01913446029526,0.0,0.18227907204660176,0.1,0.002852201461791992,0.05681777000427246,0.049903795,0.62941116,69.99474754350122,0.0,0.920278469771584,0.0,300,0.017392635345458984,0.005142274658375488,0.003952833075994456,72900,70.01993325209915,0.0
