Iter | Sampling Pol | Evaluation Pol | Best (Sampled) 
   0 -427.78 -402.45 -100000000.00 
   1 -424.54 -406.15 -427.78 
   2 -435.80 -404.64 -424.54 
   3 -437.36 -390.47 -424.54 
   4 -426.79 -411.02 -424.54 
   5 -442.70 -407.77 -424.54 
   6 -424.36 -422.51 -424.54 
   7 -442.85 -394.99 -424.36 
   8 -443.42 -407.50 -424.36 
   9 -439.88 -420.28 -424.36 
  10 -438.92 -416.27 -424.36 
  11 -439.06 -416.89 -424.36 
  12 -435.51 -412.55 -424.36 
  13 -444.40 -384.01 -424.36 
  14 -425.79 -384.13 -424.36 
  15 -432.08 -383.12 -424.36 
  16 -424.44 -387.61 -424.36 
  17 -430.30 -388.07 -424.36 
  18 -433.53 -386.63 -424.36 
  19 -427.97 -383.95 -424.36 
  20 -423.08 -384.91 -424.36 
  21 -433.45 -384.49 -423.08 
  22 -434.40 -380.62 -423.08 
  23 -425.66 -408.36 -423.08 
  24 -432.85 -382.98 -423.08 
  25 -444.10 -384.34 -423.08 
  26 -415.12 -386.25 -423.08 
  27 -425.71 -387.11 -415.12 
  28 -418.87 -385.23 -415.12 
  29 -428.71 -380.70 -415.12 
  30 -423.14 -375.75 -415.12 
  31 -424.66 -367.84 -415.12 
  32 -418.48 -366.57 -415.12 
  33 -410.78 -370.25 -415.12 
  34 -406.01 -372.24 -410.78 
  35 -425.37 -373.51 -406.01 
  36 -432.14 -361.60 -406.01 
  37 -419.68 -357.59 -406.01 
  38 -415.04 -353.68 -406.01 
  39 -430.60 -355.38 -406.01 
  40 -405.99 -339.87 -406.01 
  41 -411.48 -343.72 -405.99 
  42 -410.99 -346.25 -405.99 
  43 -401.56 -346.84 -405.99 
  44 -400.45 -349.71 -401.56 
  45 -411.47 -346.29 -400.45 
  46 -405.44 -347.00 -400.45 
  47 -397.34 -345.35 -400.45 
  48 -395.66 -344.26 -397.34 
  49 -412.55 -342.32 -395.66 
  50 -401.31 -340.04 -395.66 
  51 -408.78 -333.26 -395.66 
  52 -405.12 -335.58 -395.66 
  53 -402.19 -334.04 -395.66 
  54 -401.74 -335.29 -395.66 
  55 -401.81 -342.18 -395.66 
  56 -400.81 -336.61 -395.66 
  57 -394.50 -336.88 -395.66 
  58 -397.95 -334.53 -394.50 
  59 -413.10 -360.67 -394.50 
  60 -407.97 -350.02 -394.50 
  61 -412.28 -346.77 -394.50 
  62 -405.76 -357.52 -394.50 
  63 -413.26 -343.77 -394.50 
  64 -402.36 -343.62 -394.50 
  65 -406.32 -347.35 -394.50 
  66 -410.13 -348.18 -394.50 
  67 -414.89 -350.61 -394.50 
  68 -412.92 -354.06 -394.50 
  69 -412.73 -355.27 -394.50 
  70 -405.89 -351.44 -394.50 
  71 -407.74 -351.72 -394.50 
  72 -410.64 -351.67 -394.50 
  73 -408.14 -362.09 -394.50 
  74 -408.03 -362.75 -394.50 
  75 -404.68 -363.75 -394.50 
  76 -415.08 -366.40 -394.50 
  77 -408.03 -359.84 -394.50 
  78 -402.56 -358.42 -394.50 
  79 -413.54 -372.57 -394.50 
  80 -408.58 -374.25 -394.50 
  81 -411.15 -372.62 -394.50 
  82 -409.81 -361.15 -394.50 
  83 -406.98 -365.96 -394.50 
  84 -409.70 -372.25 -394.50 
  85 -420.98 -370.13 -394.50 
  86 -408.32 -374.46 -394.50 
  87 -408.71 -378.57 -394.50 
  88 -415.30 -365.52 -394.50 
  89 -426.80 -360.12 -394.50 
  90 -415.63 -362.88 -394.50 
  91 -401.28 -364.58 -394.50 
  92 -404.24 -367.99 -394.50 
  93 -416.96 -370.84 -394.50 
  94 -399.76 -374.38 -394.50 
  95 -420.04 -374.54 -394.50 
  96 -406.68 -370.86 -394.50 
  97 -410.47 -376.10 -394.50 
  98 -402.17 -369.72 -394.50 
  99 -408.79 -373.31 -394.50 
 100 -412.18 -379.28 -394.50 
 101 -415.04 -377.80 -394.50 
 102 -409.91 -381.25 -394.50 
 103 -418.36 -380.72 -394.50 
 104 -404.60 -382.75 -394.50 
 105 -412.14 -381.57 -394.50 
 106 -419.25 -382.33 -394.50 
 107 -412.95 -378.38 -394.50 
 108 -408.30 -379.75 -394.50 
 109 -405.05 -375.30 -394.50 
 110 -412.87 -377.80 -394.50 
 111 -406.57 -378.95 -394.50 
 112 -414.15 -374.07 -394.50 
 113 -414.62 -370.36 -394.50 
 114 -411.12 -367.74 -394.50 
 115 -421.86 -364.62 -394.50 
 116 -419.31 -363.84 -394.50 
 117 -410.91 -366.01 -394.50 
 118 -416.95 -363.67 -394.50 
 119 -414.57 -363.26 -394.50 
 120 -409.32 -365.03 -394.50 
 121 -411.17 -364.84 -394.50 
 122 -415.69 -365.45 -394.50 
 123 -428.41 -370.95 -394.50 
 124 -410.82 -368.64 -394.50 
 125 -407.98 -370.44 -394.50 
 126 -420.10 -369.17 -394.50 
 127 -410.07 -368.57 -394.50 
 128 -428.30 -368.23 -394.50 
 129 -403.38 -367.17 -394.50 
 130 -414.41 -357.74 -394.50 
 131 -409.04 -365.53 -394.50 
 132 -416.47 -348.55 -394.50 
 133 -417.28 -368.64 -394.50 
 134 -425.53 -358.11 -394.50 
 135 -418.45 -359.56 -394.50 
 136 -414.61 -364.52 -394.50 
 137 -412.73 -357.26 -394.50 
 138 -421.96 -362.66 -394.50 
 139 -422.62 -363.38 -394.50 
 140 -413.62 -367.17 -394.50 
 141 -414.30 -373.80 -394.50 
 142 -410.57 -376.13 -394.50 
 143 -427.08 -375.43 -394.50 
 144 -410.62 -374.70 -394.50 
 145 -407.68 -380.41 -394.50 
 146 -417.77 -371.56 -394.50 
 147 -406.85 -375.59 -394.50 
 148 -401.91 -370.97 -394.50 
 149 -412.03 -369.44 -394.50 
 150 -409.92 -363.04 -394.50 
 151 -410.07 -370.58 -394.50 
 152 -409.04 -361.19 -394.50 
 153 -407.25 -353.67 -394.50 
 154 -405.19 -355.33 -394.50 
 155 -402.99 -351.14 -394.50 
 156 -398.83 -347.67 -394.50 
 157 -435.98 -339.61 -394.50 
 158 -404.83 -322.91 -394.50 
 159 -415.06 -319.66 -394.50 
 160 -409.74 -324.25 -394.50 
 161 -405.41 -326.16 -394.50 
 162 -405.85 -323.81 -394.50 
 163 -417.53 -348.96 -394.50 
 164 -404.34 -356.12 -394.50 
 165 -408.64 -357.41 -394.50 
 166 -411.36 -343.44 -394.50 
 167 -405.33 -347.05 -394.50 
 168 -396.79 -343.19 -394.50 
 169 -411.48 -377.57 -394.50 
 170 -400.17 -380.01 -394.50 
 171 -409.89 -373.53 -394.50 
 172 -399.70 -373.05 -394.50 
 173 -409.77 -371.16 -394.50 
 174 -397.18 -366.25 -394.50 
 175 -406.97 -372.22 -394.50 
 176 -400.89 -329.98 -394.50 
 177 -401.75 -331.21 -394.50 
 178 -408.34 -319.32 -394.50 
 179 -389.26 -324.17 -394.50 
 180 -391.64 -319.66 -389.26 
 181 -387.62 -325.25 -389.26 
 182 -379.17 -315.79 -387.62 
 183 -411.51 -324.20 -379.17 
 184 -402.96 -315.40 -379.17 
 185 -384.47 -317.49 -379.17 
 186 -398.83 -326.74 -379.17 
 187 -408.99 -328.93 -379.17 
 188 -393.99 -328.29 -379.17 
 189 -397.52 -328.22 -379.17 
 190 -378.11 -371.09 -379.17 
 191 -395.53 -366.23 -378.11 
 192 -389.30 -367.92 -378.11 
 193 -386.72 -332.38 -378.11 
 194 -394.45 -366.09 -378.11 
 195 -395.13 -362.65 -378.11 
 196 -379.34 -327.01 -378.11 
 197 -399.78 -342.49 -378.11 
 198 -392.12 -343.98 -378.11 
 199 -372.65 -343.85 -378.11 
 200 -377.46 -342.75 -372.65 
 201 -396.84 -348.36 -372.65 
 202 -392.38 -350.81 -372.65 
 203 -379.53 -351.68 -372.65 
 204 -381.68 -349.16 -372.65 
 205 -380.46 -349.32 -372.65 
 206 -372.99 -352.36 -372.65 
 207 -373.45 -352.03 -372.65 
 208 -369.38 -352.74 -372.65 
 209 -371.85 -350.21 -369.38 
 210 -371.54 -352.24 -369.38 
 211 -382.87 -352.16 -369.38 
 212 -373.41 -352.18 -369.38 
 213 -381.25 -352.98 -369.38 
 214 -367.99 -352.54 -369.38 
 215 -374.96 -352.92 -367.99 
 216 -366.68 -353.26 -367.99 
 217 -370.16 -352.41 -366.68 
 218 -368.67 -353.09 -366.68 
 219 -386.53 -354.37 -366.68 
 220 -368.94 -355.65 -366.68 
 221 -381.80 -356.40 -366.68 
 222 -360.12 -356.48 -366.68 
 223 -386.55 -356.03 -360.12 
 224 -369.70 -356.80 -360.12 
 225 -370.36 -358.42 -360.12 
 226 -368.22 -357.80 -360.12 
 227 -372.05 -360.42 -360.12 
 228 -362.86 -357.86 -360.12 
 229 -378.24 -358.28 -360.12 
 230 -383.79 -357.26 -360.12 
 231 -385.39 -359.72 -360.12 
 232 -371.16 -361.40 -360.12 
 233 -374.24 -361.10 -360.12 
 234 -368.90 -360.93 -360.12 
 235 -368.15 -357.56 -360.12 
 236 -376.06 -353.51 -360.12 
 237 -369.57 -343.09 -360.12 
 238 -377.12 -357.73 -360.12 
 239 -381.96 -356.83 -360.12 
 240 -383.40 -357.98 -360.12 
 241 -379.84 -354.22 -360.12 
 242 -377.10 -330.09 -360.12 
 243 -363.40 -338.20 -360.12 
 244 -359.39 -356.93 -360.12 
 245 -387.53 -360.56 -359.39 
 246 -378.85 -359.44 -359.39 
 247 -382.11 -360.42 -359.39 
 248 -363.07 -358.11 -359.39 
 249 -368.54 -357.98 -359.39 
 250 -377.92 -356.73 -359.39 
 251 -387.17 -325.84 -359.39 
 252 -358.67 -351.32 -359.39 
 253 -378.43 -329.80 -358.67 
 254 -370.54 -351.77 -358.67 
 255 -358.25 -335.03 -358.67 
 256 -369.33 -358.98 -358.25 
 257 -364.21 -359.09 -358.25 
 258 -371.31 -355.90 -358.25 
 259 -361.42 -347.99 -358.25 
 260 -386.16 -320.81 -358.25 
 261 -363.94 -311.35 -358.25 
 262 -368.55 -316.52 -358.25 
 263 -376.83 -319.13 -358.25 
 264 -375.03 -357.56 -358.25 
 265 -373.76 -358.40 -358.25 
 266 -365.82 -357.63 -358.25 
 267 -355.88 -356.18 -358.25 
 268 -375.02 -361.00 -355.88 
 269 -364.71 -361.34 -355.88 
 270 -354.88 -360.33 -355.88 
 271 -370.32 -363.10 -354.88 
 272 -357.38 -363.05 -354.88 
 273 -354.39 -362.66 -354.88 
 274 -363.00 -360.47 -354.39 
 275 -361.41 -361.25 -354.39 
 276 -361.30 -360.78 -354.39 
 277 -370.03 -361.82 -354.39 
 278 -372.13 -362.44 -354.39 
 279 -367.02 -361.01 -354.39 
 280 -352.75 -361.46 -354.39 
 281 -367.16 -357.96 -352.75 
 282 -359.07 -358.81 -352.75 
 283 -363.23 -358.96 -352.75 
 284 -366.76 -356.27 -352.75 
 285 -356.55 -337.62 -352.75 
 286 -359.53 -355.24 -352.75 
 287 -352.66 -352.76 -352.75 
 288 -358.62 -334.53 -352.66 
 289 -358.89 -337.79 -352.66 
 290 -366.50 -337.84 -352.66 
 291 -363.48 -338.19 -352.66 
 292 -359.66 -338.43 -352.66 
 293 -359.38 -338.43 -352.66 
 294 -363.47 -338.67 -352.66 
 295 -361.14 -352.98 -352.66 
 296 -364.38 -353.62 -352.66 
 297 -355.90 -354.60 -352.66 
 298 -368.13 -355.73 -352.66 
 299 -362.51 -355.10 -352.66 
 300 -361.76 -353.02 -352.66 
 301 -365.16 -356.26 -352.66 
 302 -369.20 -355.89 -352.66 
 303 -361.50 -356.58 -352.66 
 304 -353.78 -354.24 -352.66 
 305 -359.75 -354.23 -352.66 
 306 -366.55 -355.94 -352.66 
 307 -367.78 -357.05 -352.66 
 308 -359.73 -358.12 -352.66 
 309 -370.05 -358.75 -352.66 
 310 -367.18 -358.72 -352.66 
 311 -360.84 -358.09 -352.66 
 312 -364.45 -356.80 -352.66 
 313 -357.20 -354.00 -352.66 
 314 -360.48 -355.69 -352.66 
 315 -361.48 -354.10 -352.66 
 316 -369.14 -351.89 -352.66 
 317 -365.92 -351.81 -352.66 
 318 -359.07 -348.14 -352.66 
 319 -355.66 -352.10 -352.66 
 320 -363.55 -352.86 -352.66 
 321 -361.36 -354.37 -352.66 
 322 -358.61 -352.29 -352.66 
 323 -363.62 -356.93 -352.66 
 324 -361.88 -352.60 -352.66 
 325 -365.81 -352.54 -352.66 
 326 -361.16 -350.71 -352.66 
 327 -360.45 -351.03 -352.66 
 328 -353.83 -349.82 -352.66 
 329 -354.83 -349.97 -352.66 
 330 -352.74 -338.25 -352.66 
 331 -358.35 -336.71 -352.66 
 332 -355.74 -336.30 -352.66 
 333 -359.42 -336.46 -352.66 
 334 -357.78 -339.09 -352.66 
 335 -355.22 -340.58 -352.66 
 336 -353.65 -339.96 -352.66 
 337 -356.80 -340.64 -352.66 
 338 -352.46 -355.01 -352.66 
 339 -355.28 -350.66 -352.46 
 340 -351.96 -351.20 -352.46 
 341 -356.23 -351.89 -351.96 
 342 -353.64 -350.42 -351.96 
 343 -351.45 -350.75 -351.96 
 344 -351.44 -350.91 -351.45 
 345 -361.11 -350.97 -351.44 
 346 -351.19 -351.20 -351.44 
 347 -351.13 -350.81 -351.19 
 348 -359.26 -349.59 -351.13 
 349 -352.79 -349.33 -351.13 
 350 -352.71 -350.05 -351.13 
 351 -351.62 -349.60 -351.13 
 352 -355.86 -350.76 -351.13 
 353 -357.20 -345.72 -351.13 
 354 -357.49 -350.53 -351.13 
 355 -361.43 -347.33 -351.13 
 356 -355.45 -347.29 -351.13 
 357 -365.15 -336.06 -351.13 
 358 -358.23 -336.10 -351.13 
 359 -363.17 -336.93 -351.13 
 360 -353.23 -350.59 -351.13 
 361 -355.54 -342.55 -351.13 
 362 -354.86 -344.50 -351.13 
 363 -359.79 -342.71 -351.13 
 364 -357.04 -342.50 -351.13 
 365 -352.52 -346.53 -351.13 
 366 -357.02 -344.12 -351.13 
 367 -358.42 -347.56 -351.13 
 368 -354.78 -350.86 -351.13 
 369 -361.36 -356.40 -351.13 
 370 -362.30 -347.50 -351.13 
 371 -355.10 -346.24 -351.13 
 372 -358.91 -347.11 -351.13 
 373 -359.26 -345.78 -351.13 
 374 -362.02 -348.14 -351.13 
 375 -359.69 -350.74 -351.13 
 376 -353.05 -351.60 -351.13 
 377 -349.46 -352.98 -351.13 
 378 -347.92 -354.34 -349.46 
 379 -354.67 -356.00 -347.92 
 380 -357.44 -356.32 -347.92 
 381 -348.16 -357.21 -347.92 
 382 -345.84 -355.38 -347.92 
 383 -352.21 -353.30 -345.84 
 384 -350.13 -353.51 -345.84 
 385 -346.71 -353.94 -345.84 
 386 -345.20 -354.48 -345.84 
 387 -354.84 -351.75 -345.20 
 388 -348.06 -353.07 -345.20 
 389 -350.51 -353.01 -345.20 
 390 -345.58 -355.78 -345.20 
 391 -349.14 -354.45 -345.20 
 392 -346.81 -354.08 -345.20 
 393 -354.79 -355.30 -345.20 
 394 -346.61 -356.47 -345.20 
 395 -344.73 -354.25 -345.20 
 396 -345.69 -354.60 -344.73 
 397 -353.68 -354.04 -344.73 
 398 -346.44 -353.72 -344.73 
 399 -351.08 -354.04 -344.73 
 400 -344.90 -355.07 -344.73 
 401 -345.21 -357.56 -344.73 
 402 -349.69 -358.22 -344.73 
 403 -343.71 -361.33 -344.73 
 404 -348.84 -354.92 -343.71 
 405 -344.26 -355.54 -343.71 
 406 -344.79 -355.02 -343.71 
 407 -343.34 -355.54 -343.71 
 408 -342.12 -352.20 -343.34 
 409 -347.37 -351.94 -342.12 
 410 -343.82 -353.30 -342.12 
 411 -347.23 -352.89 -342.12 
 412 -347.11 -354.64 -342.12 
 413 -350.83 -353.59 -342.12 
 414 -347.17 -355.53 -342.12 
 415 -347.31 -354.70 -342.12 
 416 -348.24 -353.95 -342.12 
 417 -344.66 -351.26 -342.12 
 418 -345.76 -350.50 -342.12 
 419 -352.32 -350.12 -342.12 
 420 -350.51 -349.58 -342.12 
 421 -349.80 -348.90 -342.12 
 422 -344.59 -348.99 -342.12 
 423 -352.41 -347.46 -342.12 
 424 -343.28 -350.74 -342.12 
 425 -350.44 -351.99 -342.12 
 426 -357.15 -349.90 -342.12 
 427 -345.80 -349.49 -342.12 
 428 -343.72 -348.87 -342.12 
 429 -341.70 -348.26 -342.12 
 430 -342.76 -346.49 -341.70 
 431 -354.79 -347.59 -341.70 
 432 -343.08 -344.64 -341.70 
 433 -345.43 -344.32 -341.70 
 434 -342.16 -333.93 -341.70 
 435 -346.04 -333.81 -341.70 
 436 -357.98 -335.36 -341.70 
 437 -354.46 -335.51 -341.70 
 438 -348.81 -336.28 -341.70 
 439 -344.75 -335.49 -341.70 
 440 -353.97 -334.99 -341.70 
 441 -345.01 -335.12 -341.70 
 442 -345.91 -336.27 -341.70 
 443 -347.93 -335.09 -341.70 
 444 -344.22 -334.99 -341.70 
 445 -346.25 -339.45 -341.70 
 446 -345.48 -339.96 -341.70 
 447 -343.57 -349.56 -341.70 
 448 -346.28 -346.16 -341.70 
 449 -348.76 -338.37 -341.70 
 450 -352.40 -344.44 -341.70 
 451 -344.26 -348.02 -341.70 
 452 -352.35 -348.63 -341.70 
 453 -349.61 -350.84 -341.70 
 454 -350.23 -348.44 -341.70 
 455 -345.06 -347.35 -341.70 
 456 -353.45 -339.53 -341.70 
 457 -354.18 -337.11 -341.70 
 458 -345.87 -343.21 -341.70 
 459 -346.14 -336.45 -341.70 
 460 -351.53 -336.62 -341.70 
 461 -347.40 -336.27 -341.70 
 462 -348.25 -336.15 -341.70 
 463 -349.17 -335.70 -341.70 
 464 -355.74 -335.70 -341.70 
 465 -347.42 -335.45 -341.70 
 466 -347.74 -335.71 -341.70 
 467 -347.78 -335.49 -341.70 
 468 -347.19 -335.31 -341.70 
 469 -345.45 -335.70 -341.70 
 470 -346.06 -334.69 -341.70 
 471 -349.17 -335.93 -341.70 
 472 -345.92 -336.57 -341.70 
 473 -355.88 -335.22 -341.70 
 474 -350.38 -333.50 -341.70 
 475 -352.85 -337.29 -341.70 
 476 -347.39 -339.04 -341.70 
 477 -346.24 -339.03 -341.70 
 478 -349.33 -339.14 -341.70 
 479 -356.12 -339.42 -341.70 
 480 -354.51 -340.19 -341.70 
 481 -350.07 -340.58 -341.70 
 482 -347.69 -340.96 -341.70 
 483 -350.27 -340.66 -341.70 
 484 -350.67 -340.20 -341.70 
 485 -357.28 -340.60 -341.70 
 486 -347.03 -340.50 -341.70 
 487 -349.24 -341.14 -341.70 
 488 -349.55 -341.42 -341.70 
 489 -348.38 -341.29 -341.70 
 490 -353.53 -341.40 -341.70 
 491 -352.84 -341.19 -341.70 
 492 -354.10 -340.99 -341.70 
 493 -348.37 -340.39 -341.70 
 494 -348.42 -340.38 -341.70 
 495 -350.99 -340.55 -341.70 
 496 -352.81 -340.37 -341.70 
 497 -348.58 -340.50 -341.70 
 498 -349.40 -339.75 -341.70 
 499 -348.51 -339.55 -341.70 
