iteration,time_sampling,stoc_pol_mean,stoc_pol_std,stoc_pol_max,stoc_pol_min,rollout_success,alpha,delta,time_vpg,time_npg,kl_dist,surr_improvement,running_score,rwd_sparse,rwd_dense,success_percentage,num_samples,time_VF,VF_error_before,VF_error_after,env_samples,eval_score,eval_success
0,1.309751033782959,-72.98373806714562,106.75937693704866,68.60956635237008,-231.5831057978418,75.0,0.7650973590310414,0.1,0.03245806694030762,0.0515289306640625,0.049316894,0.13927597,-72.98373806714562,-0.7949716410256715,-0.7367216732711606,75.0,400,0.024754762649536133,1.0007178008308757,0.9957242613742061,400,-137.7836140520644,0.0
1,1.1901092529296875,8.194600841605446,76.04489973233824,88.8620977502891,-93.52039889264174,100.0,0.7717964155467909,0.1,0.0031523704528808594,0.06640219688415527,0.057378087,0.13092284,-64.86590417627052,-0.5624833378509253,0.06402434735396575,100.0,400,0.028821945190429688,0.9988179988554795,0.9977714964397939,800,-116.25983336469942,0.0
2,1.2191736698150635,115.36609084662122,66.31168356454859,222.0373168832243,55.44504225583403,100.0,0.8964463766291698,0.1,0.0031881332397460938,0.06635189056396484,0.049794585,0.10564348,-46.842704673981345,-0.5128044098198776,1.1338597115465205,100.0,400,0.03528928756713867,1.008473064874256,1.0048419282178853,1200,-97.51415105508518,0.0
3,1.2247743606567383,242.78675214093835,27.506612723127475,281.1080386857633,205.1937390479723,100.0,0.8901089387053028,0.1,0.003175020217895508,0.06852436065673828,0.053087085,0.11205655,-17.87975899248937,-0.2792467240461009,2.3884930357015697,100.0,400,0.02895522117614746,1.0036390051008977,1.0000848576837873,1600,-102.15087720818933,0.0
4,1.2335255146026611,278.45568891762383,92.12018907129588,398.1972090387637,140.3517487242996,100.0,0.8133817853608883,0.1,0.0031599998474121094,0.06903743743896484,0.053330444,0.12280434,11.75378579852195,-0.31858730135147617,2.7652901246374713,100.0,400,0.028981685638427734,1.000073685156189,0.9983761347040425,2000,281.0708204601926,8.333333333333334
5,1.2460482120513916,351.59664775915843,94.99632796976566,410.02394869272354,187.10243642311227,100.0,0.8553652436960532,0.1,0.0025720596313476562,0.05526995658874512,0.04898802,0.11390356,45.738071994585596,-0.32701721969944164,3.4238959907540782,100.0,400,0.023714780807495117,0.9987043891715632,0.9971897802952945,2400,686.5862100207902,100.0
6,1.227372646331787,477.9447347852795,58.21673609902608,557.8610664507995,402.49430515413076,100.0,0.9135161421979766,0.1,0.0026662349700927734,0.05196714401245117,0.050742254,0.11098795,88.95873827365499,-0.1950803603593702,4.707901359069683,100.0,400,0.02303004264831543,0.997571291457896,0.9952387711148747,2800,669.6648163015727,100.0
7,1.2531993389129639,526.7584221697944,91.244010496625,617.785602659781,376.9226587474121,100.0,0.9789770650614904,0.1,0.002698659896850586,0.05234837532043457,0.05519674,0.11016077,132.73870666326894,-0.18711605945072796,5.175437823590527,100.0,400,0.023624420166015625,0.9958396406878497,0.9922337839037972,3200,604.1579639875558,100.0
8,1.2513453960418701,381.38838850442437,206.6388808264531,596.1664043599192,144.28385638515422,100.0,0.8447014658766256,0.1,0.0026481151580810547,0.05246233940124512,0.052823164,0.1119101,157.6036748473845,-0.40877062200822667,3.7630232499006584,100.0,400,0.02372884750366211,0.9913645139266917,0.9850624846571474,3600,598.4772577093574,100.0
9,1.2338104248046875,582.0252451970308,29.007587950381534,605.2358177785777,533.6615683271697,100.0,0.875789212781681,0.1,0.0028672218322753906,0.05040144920349121,0.050380778,0.10298201,200.04583188234912,-0.1496694779460115,5.749642526489419,100.0,400,0.02236032485961914,0.9873802750620491,0.9789354392801037,4000,630.1726941570431,100.0
10,1.2724254131317139,469.84507087188285,61.88369373604443,511.6589845370016,363.020864117846,100.0,0.9172980135514653,0.1,0.002677440643310547,0.05091452598571777,0.05109065,0.1046818,227.0257557813025,-0.23669969680439829,4.615929956452071,100.0,400,0.02268671989440918,0.97591290390578,0.9616718718870961,4400,663.5821596400926,100.0
11,1.2905280590057373,534.9370158188234,51.64516108381954,589.8470870090086,451.28627614008104,100.0,1.0045422672779956,0.1,0.0025033950805664062,0.050650835037231445,0.05284209,0.106957294,257.8168817850546,-0.21554147752807334,5.267840090650474,100.0,400,0.02246832847595215,0.9657009372674356,0.9473617332796449,4800,678.5756270120002,100.0
12,1.2818536758422852,573.8182771773401,37.42323972745446,632.4491967619238,528.2287064061267,100.0,1.0682716635889982,0.1,0.002486705780029297,0.051081180572509766,0.057143107,0.08669173,289.41702132428316,-0.14921435716367099,5.658907830093602,100.0,400,0.023475170135498047,0.9475996350416634,0.9225916695504871,5200,663.4443288831211,100.0
13,1.303180456161499,540.4862176346116,46.91495993245862,597.1301668433381,467.37080661943264,100.0,0.84151024324434,0.1,0.0024852752685546875,0.05128765106201172,0.048303414,0.11160586,314.523940955316,-0.16934817150316148,5.3127144505535995,100.0,400,0.022236108779907227,0.917789216602432,0.8852649381815509,5600,665.8946723618708,100.0
14,1.2977774143218994,561.105236747187,88.67488196480993,668.395676246026,432.94939879009155,100.0,1.1459176922494132,0.1,0.0026595592498779297,0.05181884765625,0.045219902,0.07133123,339.1820705345031,-0.1573074980167841,5.521482550227245,100.0,400,0.02325606346130371,0.8907351113409652,0.8529621808934683,6000,683.0017342259949,100.0
15,1.2235512733459473,578.873693421943,10.449266663537061,591.9940007305412,567.900914808589,100.0,1.0750761705352168,0.1,0.0027434825897216797,0.05276823043823242,0.049443956,0.09295651,363.1512328232471,-0.14974593318038182,5.696544457336406,100.0,400,0.024211406707763672,0.8524374544443767,0.8061575567728207,6400,679.0373003353601,100.0
16,1.246253252029419,577.400670906108,73.42196763884243,666.1397513072814,463.0087160955945,100.0,0.8395727447162032,0.1,0.0031325817108154297,0.06620502471923828,0.05143005,0.114324026,384.5761766315332,-0.21987575384939934,5.682429339706029,100.0,400,0.027667760848999023,0.81972578728239,0.7681384661807001,6800,693.790082430335,100.0
17,1.2516539096832275,625.0164001317941,58.59064847041349,684.5924379348436,529.2292290622969,100.0,0.9922186648506525,0.1,0.003237485885620117,0.06627321243286133,0.048938427,0.0875498,408.62019898155927,-0.12940125942984287,6.157760026556745,100.0,400,0.028566837310791016,0.7695809414744686,0.7110620581227768,7200,693.6897804057866,100.0
18,1.2385475635528564,512.2779713560942,97.79944025342985,615.6132103465951,372.89684781801367,100.0,1.00317709597796,0.1,0.0031499862670898438,0.06618714332580566,0.054978717,0.08708085,418.9859762190128,-0.22995491876518848,5.030948454977905,100.0,400,0.03253507614135742,0.6763567003103763,0.6104094529534286,7600,686.024109602016,100.0
19,1.2528541088104248,574.4984491723643,60.21198232862993,676.3595888611828,519.5580729042782,100.0,1.0499349125975526,0.1,0.0026836395263671875,0.05618023872375488,0.047219988,0.08310403,434.53722351434794,-0.1959132254135243,5.653948365915281,100.0,400,0.023457050323486328,0.6461378387503718,0.5808810998324643,8000,670.9792593437495,100.0
20,1.2392101287841797,588.0251830489365,94.74124117361148,698.0554127536379,484.16223609007574,100.0,0.7789326236443912,0.1,0.0026946067810058594,0.05218076705932617,0.046620015,0.11679231,449.8860194678068,-0.16826680623636175,5.789553280241626,100.0,400,0.028627395629882812,0.5708208749289829,0.5039952384817249,8400,668.5844376639482,100.0
21,1.3147644996643066,540.408675762203,26.916003843886028,565.0407231591882,500.3610757815185,100.0,0.8637877799708139,0.1,0.0026137828826904297,0.053993940353393555,0.051936343,0.10802427,458.9382850972465,-0.17500096006837842,5.313221816747465,100.0,400,0.02396416664123535,0.4656229657297329,0.40318610886353906,8800,657.3980602942686,100.0
22,1.2798864841461182,506.7934377354522,80.0600293669662,612.4384997229079,388.1348118982332,100.0,0.8782846333461043,0.1,0.0027234554290771484,0.052646636962890625,0.051590327,0.10031388,463.72380036106705,-0.22264820328385795,5.017428213215667,100.0,400,0.023152828216552734,0.4076745368816141,0.35423276431570355,9200,642.8853481362185,100.0
23,1.2900443077087402,557.4145096967818,50.38741218257403,617.9320545112557,485.09150035431696,100.0,1.377504503654398,0.1,0.0025682449340820312,0.05162358283996582,0.051720344,0.0634561,473.09287129463854,-0.17248052424770507,5.492903478758956,100.0,400,0.023354768753051758,0.3634853761592615,0.3173448004288182,9600,639.9305317074003,100.0
24,1.3293747901916504,585.5614560662458,35.00804098995753,618.8339032370233,526.7465814327916,100.0,0.9474287079586309,0.1,0.0026235580444335938,0.054398536682128906,0.049534786,0.09735272,484.3397297717993,-0.13380201151733845,5.775642855976904,100.0,400,0.023298263549804688,0.31379009795847546,0.2734514726103111,10000,641.9798337364277,100.0
25,1.3014819622039795,556.7522692398397,52.96756028284193,625.9581984598252,491.7683528457062,100.0,0.9827688482391319,0.1,0.0024907588958740234,0.050821542739868164,0.05216677,0.106516086,491.58098371860336,-0.17998047633074177,5.4750843425448075,100.0,400,0.0227508544921875,0.283554247526668,0.25392648838927007,10400,648.8292266047374,100.0
26,1.285142421722412,569.4448108283638,68.010688287129,621.3672262738422,452.51185048492334,100.0,0.8879798128979085,0.1,0.0024776458740234375,0.05081343650817871,0.049676437,0.109924845,499.3673664295794,-0.1660818132904989,5.602879315368788,100.0,400,0.023686647415161133,0.277531148418049,0.25905631753670394,10800,647.9019832112074,100.0
27,1.2333059310913086,555.321869094036,53.13377196717842,604.8934190505729,477.1002030518816,100.0,0.9037442817936293,0.1,0.003298044204711914,0.07057356834411621,0.051546194,0.0957123,504.9628166960251,-0.1809881162007709,5.491473083281542,100.0,400,0.0294647216796875,0.23299429049374243,0.22149302143819516,11200,649.0140301822929,100.0
28,1.2670917510986328,582.4026061216127,41.740689705766506,633.7314020519191,521.9751198367574,100.0,0.9337680073716101,0.1,0.002696514129638672,0.05249333381652832,0.05190071,0.090285785,512.7067956385838,-0.16582579631441022,5.73260463833364,100.0,400,0.022333383560180664,0.23127733536866124,0.22568087542062687,11600,648.6633936730708,100.0
29,1.24173903465271,598.4867240840173,21.045880136960616,617.9739160547915,565.1443670887976,100.0,1.0419544056494054,0.1,0.002579212188720703,0.05089378356933594,0.055312622,0.09196383,521.2847884831272,-0.15763927613631182,5.895779531532023,100.0,400,0.022680282592773438,0.21912862979663644,0.21632940047062943,12000,668.4440370979407,100.0
30,1.2422468662261963,568.726123525071,32.65820324225258,615.2281691293507,523.3950169822639,100.0,1.0415102272458105,0.1,0.0024940967559814453,0.05057644844055176,0.054484073,0.10789706,526.0289219873216,-0.179460068917224,5.608326984184216,100.0,400,0.02274155616760254,0.2569372590584513,0.255995385332886,12400,668.7268121935086,100.0
31,1.2727303504943848,567.1485296792985,45.772482717481374,601.4389575458572,489.14751570025624,100.0,0.9107362867956612,0.1,0.0025415420532226562,0.05088686943054199,0.052666005,0.09391777,530.1408827565193,-0.16206988014156387,5.579004296602704,100.0,400,0.0231015682220459,0.24989795467314663,0.2463192433814488,12800,662.1279907561463,100.0
32,1.2547533512115479,643.1544590105435,29.08441404735107,685.8720090451206,613.3654939159534,100.0,0.9131540100046112,0.1,0.0025146007537841797,0.050713300704956055,0.0447324,0.09773304,541.4422403819217,-0.11186306575725061,6.3381306649250195,100.0,400,0.02211904525756836,0.2331033607769094,0.23192150773051956,13200,676.3125906995036,100.0
33,1.2883877754211426,557.2325857602593,19.336456053902776,590.2803708119125,541.9525380161646,100.0,0.9485207702746972,0.1,0.0025453567504882812,0.051235198974609375,0.054218497,0.10356889,543.0212749197555,-0.16453883140118994,5.522543429372246,100.0,400,0.021899938583374023,0.24263382812606984,0.24117334341348443,13600,684.0557929922517,100.0
34,1.2785553932189941,553.1574558394694,53.064342829539804,632.3709566365667,501.68526977645746,100.0,0.8376547420525347,0.1,0.0025293827056884766,0.05114150047302246,0.051805682,0.101701446,544.0348930117269,-0.16697133374091416,5.452336863155757,100.0,400,0.023090839385986328,0.2328137970107699,0.2306392874399586,14000,685.319289375031,100.0
35,1.2738595008850098,585.6696285374678,49.674186488607326,669.758110569107,540.4800712150765,100.0,1.0719889434228587,0.1,0.002629518508911133,0.0509796142578125,0.052000586,0.090099536,548.1983665643011,-0.13076842942264888,5.786896048116544,100.0,400,0.023384571075439453,0.21002290809550778,0.2097764798433137,14400,676.6357238912879,100.0
36,1.2837255001068115,598.2198936451211,52.00707025311549,639.0640383904282,510.9148061376306,100.0,0.7965376527932573,0.1,0.002609729766845703,0.051012277603149414,0.04939182,0.12106609,553.2005192723831,-0.1282928659179441,5.8919310136358565,100.0,400,0.022307872772216797,0.2159632910161322,0.2150142899297439,14800,675.365813700587,100.0
37,1.2903296947479248,539.052873344526,64.51258723780174,634.5763753543654,452.5598490764836,100.0,1.0590609417700358,0.1,0.0028514862060546875,0.0512542724609375,0.05675174,0.09047314,551.7857546795974,-0.17832959556174777,5.321166767762022,100.0,400,0.024742841720581055,0.21120129182586928,0.21039787853027425,15200,668.934342917825,100.0
38,1.2726263999938965,632.3387605651162,40.226850221164895,698.6585439797223,594.2173967522219,100.0,0.878623986789093,0.1,0.0024962425231933594,0.05091142654418945,0.049415994,0.09629409,559.8410552681493,-0.11928313001899582,6.230903874566862,100.0,400,0.028057575225830078,0.22974499470751436,0.22739577023345786,15600,671.1914632667848,100.0
39,1.302222728729248,601.7250654193301,28.89277629035775,645.4673880663678,571.4864957114661,100.0,0.9956852480322,0.1,0.0026769638061523438,0.0514373779296875,0.050027117,0.090835646,564.0294562832673,-0.13511453441728125,5.926343734212352,100.0,400,0.023136377334594727,0.21799786219140682,0.21650465484031864,16000,679.6075809789988,100.0
40,1.2420086860656738,597.1909987845356,11.842433677341011,616.7096217905298,585.6365751997247,100.0,0.9496809047964277,0.1,0.0026521682739257812,0.05713295936584473,0.04952584,0.103317596,567.3456105333942,-0.14950100323322185,5.88061977251717,100.0,400,0.023418188095092773,0.22330519710975866,0.22251987739567292,16400,672.2882314081769,100.0
41,1.2330479621887207,636.4106969584927,50.2063911167274,701.2361905229526,570.0224515459877,100.0,0.9949765483564682,0.1,0.0025582313537597656,0.05089259147644043,0.04747093,0.096305564,574.252119175904,-0.10464463812990075,6.282737649078653,100.0,400,0.02273106575012207,0.21554600995273512,0.21390149502142528,16800,673.2092726795929,100.0
42,1.2492942810058594,603.8995085139014,45.70188568583019,672.4899370828055,543.7867991757705,100.0,1.0582412156387395,0.1,0.0025703907012939453,0.05459117889404297,0.053246975,0.0911138,577.2168581097038,-0.17841389337915317,5.950243950129923,100.0,400,0.02298426628112793,0.2096934864588925,0.2081428629291966,17200,673.7013431011234,100.0
43,1.2564523220062256,619.1795467477402,25.016008505898068,640.2636149549853,577.4572909879985,100.0,0.861498493376761,0.1,0.0025298595428466797,0.05108308792114258,0.052760493,0.1081732,581.4131269735075,-0.1458891155435773,6.110767202987686,100.0,400,0.02288365364074707,0.21454864433143206,0.21345694293884468,17600,667.9256184873849,100.0
44,1.2614855766296387,589.7834651549899,14.736512902086515,614.5684570783524,576.1053626002176,100.0,1.0372184532278885,0.1,0.0026121139526367188,0.05166029930114746,0.04786828,0.087324865,582.2501607916557,-0.15666512182426048,5.807032504194958,100.0,400,0.023456335067749023,0.2133993552139916,0.21183386653773315,18000,667.0673866489506,100.0
45,1.2919094562530518,644.3495581132843,42.01536021919867,699.0161666367108,593.3288963729501,100.0,0.8976507725636191,0.1,0.0025823116302490234,0.0507051944732666,0.049879722,0.10134088,588.4601005238186,-0.1096947481635856,6.353137899194287,100.0,400,0.023706912994384766,0.21360502950664634,0.2128542433588892,18400,673.8485187718937,100.0
46,1.3077223300933838,614.7540614069071,22.611456977028517,641.4838067876489,585.9288121695226,100.0,1.059456191499127,0.1,0.0026350021362304688,0.05391407012939453,0.04713004,0.08647966,591.0894966121274,-0.127257998367294,6.0771332151624025,100.0,400,0.02375483512878418,0.21944311096143665,0.21753056556804123,18800,663.8789045765579,100.0
47,1.276428461074829,591.0448481052414,30.034743512760276,632.1029185083509,550.295332640983,100.0,0.8666239928047433,0.1,0.0025489330291748047,0.05113720893859863,0.047649518,0.10421092,591.0850317614388,-0.17075988394873406,5.819297855812661,100.0,400,0.02302241325378418,0.20466405379742125,0.20403617161098708,19200,649.1138386020215,100.0
48,1.2886090278625488,586.1759294006265,26.282939675669592,619.0737257001986,559.8509235252822,100.0,0.8182160731093397,0.1,0.0025234222412109375,0.05097675323486328,0.053928223,0.10682369,590.5941215253577,-0.1472037645305699,5.781524426573163,100.0,400,0.02292323112487793,0.21027136049403652,0.20939740601308876,19600,648.0338379378128,100.0
49,1.2898120880126953,623.8932339207007,39.02502761920671,663.978716588272,567.6937237604133,100.0,1.2266570161164005,0.1,0.0025310516357421875,0.05185437202453613,0.047961615,0.07263248,593.924032764892,-0.11696309370011959,6.14764141975413,100.0,400,0.022006511688232422,0.20764149448340638,0.20669747041816527,20000,657.2409780404033,100.0
50,1.3267793655395508,515.7178534162537,29.783093442105024,548.4306839367508,485.0460376591624,100.0,1.2156783648815521,0.1,0.0025682449340820312,0.051001787185668945,0.048898708,0.08265075,586.1034148300282,-0.2207360026669669,5.077115525453711,100.0,400,0.026421785354614258,0.21411210724079865,0.210086644931828,20400,645.6012396837506,100.0
51,1.2920351028442383,637.3329480794057,37.26480679456738,671.0040115297165,574.5712819154331,100.0,0.9109360121897588,0.1,0.002698659896850586,0.052364349365234375,0.04963979,0.09659539,591.2263681549659,-0.12362239831583278,6.292174596907536,100.0,400,0.023607969284057617,0.22383395520621777,0.2232692330268086,20800,627.1120592595279,100.0
52,1.2507812976837158,503.8696123219413,80.38219421538447,600.4189286062893,378.63558719907184,100.0,1.031199092924117,0.1,0.002574920654296875,0.05195021629333496,0.046124216,0.09109758,582.4906925716635,-0.2454252306267372,4.946727320212168,100.0,400,0.023314237594604492,0.18075098753424437,0.17913370923864239,21200,626.4924878828119,100.0
53,1.230449914932251,539.6154658941743,25.53334501962681,575.1952700228138,509.76375960213926,100.0,0.9583176759732279,0.1,0.002592802047729492,0.055780649185180664,0.053128187,0.096160665,578.2031699039147,-0.15443556103787548,5.31415861141583,100.0,400,0.02388143539428711,0.21516857129560804,0.2124681198851556,21600,639.7414627082015,100.0
54,1.2385237216949463,561.8758124323775,47.150458577779766,607.4684981482189,486.7277022875488,100.0,0.9480443636871974,0.1,0.002583026885986328,0.051857709884643555,0.05410808,0.10897779,576.570434156761,-0.18827371996581405,5.526201743112495,100.0,400,0.023087739944458008,0.19319272748540878,0.19210281750739075,22000,629.2025978978387,100.0
55,1.2814531326293945,573.266062130125,48.46621813019699,622.4079456027537,510.0570372079073,100.0,1.2801658525417745,0.1,0.002576589584350586,0.0536961555480957,0.05139742,0.073728584,576.2399969540975,-0.16474397529544454,5.6522068375734875,100.0,400,0.023462772369384766,0.19573565556367797,0.19338583929751932,22400,662.0666793839856,100.0
56,1.2517852783203125,630.127899221179,32.57540559943285,675.8449393671254,588.9799355550343,100.0,0.9487329174634607,0.1,0.0025632381439208984,0.050226449966430664,0.047403757,0.11621765,581.6287871808057,-0.11023414718774158,6.208973121477357,100.0,400,0.02297806739807129,0.20659038805483523,0.20495748778119183,22800,666.6656076563087,100.0
57,1.3237104415893555,590.1893266614425,34.58391913939533,648.7775613888913,558.9732685692351,100.0,1.1035777415243595,0.1,0.00247955322265625,0.05058622360229492,0.050058722,0.089940086,582.4848411288693,-0.13545458464928262,5.810369249989245,100.0,400,0.022884368896484375,0.19749916106483292,0.19688129406460475,23200,674.0025515794043,100.0
58,1.2814147472381592,580.2714055955548,48.260667680414144,620.7282387125389,498.65763473807465,100.0,0.8530908903979083,0.1,0.0026302337646484375,0.055887699127197266,0.05185462,0.10680654,582.2634975755379,-0.17524417112879764,5.71226143266155,100.0,400,0.02296590805053711,0.19921239253987186,0.19820065447872898,23600,677.2074075812502,100.0
59,1.313046932220459,592.8848623702305,58.609320663255154,645.4405437610637,495.1786384230492,100.0,0.9300855719028249,0.1,0.0027518272399902344,0.05052971839904785,0.050290674,0.100648664,583.3256340550072,-0.16030956483781095,5.8476659894815715,100.0,400,0.022791147232055664,0.2162376908289476,0.21487110726865025,24000,683.3578949186707,100.0
60,1.337982177734375,560.0853601264696,28.01580082467731,586.9310629220305,516.0699203176944,100.0,1.237580918009173,0.1,0.0024983882904052734,0.05101633071899414,0.04822655,0.08229211,581.0016066621534,-0.18722331153384675,5.509809025003844,100.0,400,0.022871971130371094,0.18179430188770673,0.17977199436747648,24400,680.778357434811,100.0
61,1.2697594165802002,579.362054983967,33.32642427657743,610.927687805666,526.945379277329,100.0,0.9428569490291537,0.1,0.0025186538696289062,0.05108451843261719,0.051366348,0.09024803,580.8376514943349,-0.16075192586739906,5.722252998497412,100.0,400,0.02367377281188965,0.20756808926124926,0.2056039402374223,24800,675.9116570105448,100.0
62,1.259601354598999,589.5149473694364,28.661898691658234,636.8345001770904,561.214043833477,100.0,0.987845177986692,0.1,0.0026895999908447266,0.050066232681274414,0.048448693,0.095062815,581.7053810818451,-0.15152167466968464,5.804353651927203,100.0,400,0.022601842880249023,0.1866346193479357,0.1856718357001344,25200,679.8897346298418,100.0
63,1.2971839904785156,568.2532468641834,51.59900198499258,629.2059981011784,500.5687311452454,100.0,1.0845954811419958,0.1,0.0025839805603027344,0.05417442321777344,0.048861295,0.09233239,580.3601676600789,-0.1750508011230607,5.592896238572322,100.0,400,0.021861553192138672,0.19193629727650272,0.19080741553322308,25600,677.5644419771957,100.0
64,1.3181962966918945,563.471437984826,67.65719665054846,660.0109548662623,470.66229812831887,100.0,0.9037281960523373,0.1,0.0031201839447021484,0.06572890281677246,0.051950336,0.09740719,578.6712946925537,-0.17462176166583956,5.55586241317495,100.0,400,0.028384923934936523,0.19326343183248015,0.19224112482266778,26000,681.0178300105518,100.0
65,1.3070604801177979,591.467688185295,45.09065031399354,653.1181623362834,543.5404610613072,100.0,0.8953950399549118,0.1,0.0031545162200927734,0.07209444046020508,0.05346475,0.10029438,579.9509340418278,-0.13933320760055973,5.834503885960496,100.0,400,0.029850244522094727,0.1831078433345551,0.18204847411261146,26400,685.2025608505373,100.0
66,1.2371296882629395,524.3028576421501,43.51843864275212,598.5161693182233,489.2293884268802,100.0,1.2101175171612197,0.1,0.0027313232421875,0.05229926109313965,0.048011847,0.07360898,574.3861264018601,-0.1849406863422845,5.151492600045648,100.0,400,0.02236652374267578,0.20562244143135613,0.20120866100594578,26800,688.2701587250891,100.0
67,1.2545018196105957,548.2479723734375,18.518728978983273,576.9497639998842,525.4526929886262,100.0,1.0739955650720832,0.1,0.002683401107788086,0.05222201347351074,0.048851404,0.088707834,571.7723109990179,-0.1495400969628845,5.411987141824847,100.0,400,0.026584386825561523,0.21389620012862515,0.2109956380329983,27200,691.5715970974462,100.0
68,1.2636997699737549,562.6130930506396,73.86858573533453,662.4185275391724,454.4133270771485,100.0,0.8965168050706877,0.1,0.0028243064880371094,0.052019357681274414,0.04851626,0.10515117,570.8563892041801,-0.14722836326581526,5.574712956891162,100.0,400,0.02332305908203125,0.21183225496870525,0.21073816148282903,27600,689.9678170660394,100.0
69,1.2567758560180664,557.7826746248752,48.74468012620447,637.2282522549301,505.23539598429124,100.0,1.078932279043127,0.1,0.003126382827758789,0.06551814079284668,0.046017848,0.08764158,569.5490177462497,-0.18873732781627334,5.484529343113481,100.0,400,0.028379201889038086,0.1802433425361883,0.1740041594901403,28000,689.9066899646596,100.0
70,1.2457098960876465,546.406752950528,32.485433138236,582.3924443874109,512.97821489306,100.0,0.9062377733358166,0.1,0.002671957015991211,0.057602882385253906,0.050715894,0.094399415,567.2347912666775,-0.1663176249762158,5.3929072081462675,100.0,400,0.023631572723388672,0.18255811402965466,0.18254605912017646,28400,682.2488585546572,100.0
71,1.2831029891967773,556.6155027748581,24.53556627593423,579.2216326677417,519.661044092816,100.0,0.9625013942772522,0.1,0.0027556419372558594,0.05208444595336914,0.050118398,0.09164442,566.1728624174956,-0.15279005970826143,5.497451630241788,100.0,400,0.02335500717163086,0.22261621433640763,0.216385743869457,28800,682.4687752255713,100.0
72,1.2725369930267334,598.5549734661143,42.31488890897803,632.2875101834917,526.1380816236305,100.0,0.7545668402261794,0.1,0.0025992393493652344,0.05209517478942871,0.053325146,0.12182806,569.4110735223575,-0.13341513654194406,5.8949058111360015,100.0,400,0.02326488494873047,0.19708188961704237,0.19637358650952697,29200,681.7511847392891,100.0
73,1.2853014469146729,573.9044571384313,17.44771086504777,591.703345271698,553.3305429136013,100.0,1.105508852795143,0.1,0.0026636123657226562,0.0524139404296875,0.051249295,0.08081756,569.860411883965,-0.19575692486149943,5.64818064942371,100.0,400,0.023420095443725586,0.18155539901395465,0.1767196507750998,29600,681.7935319438858,100.0
74,1.2685601711273193,535.197354624079,31.57821514002472,564.8870120127755,483.3519167889123,100.0,1.2624475991340678,0.1,0.0026421546936035156,0.050889015197753906,0.049977727,0.077576734,566.3941061579764,-0.20838660670120798,5.2609539409268,100.0,400,0.021952152252197266,0.17207788858623968,0.1716756998543029,30000,684.2968226793374,100.0
75,1.2776403427124023,586.0919245934441,23.390081533243947,620.0230401126705,553.9348798007178,100.0,1.2138874207515558,0.1,0.002584695816040039,0.05068707466125488,0.047150735,0.070344344,568.3638880015232,-0.16517074120581587,5.767555703554706,100.0,400,0.022675752639770508,0.1761977642572905,0.17470515604003545,30400,682.7345070256805,100.0
76,1.3166749477386475,574.1322111698419,22.62508954985746,601.9852210239886,539.4212930104819,100.0,0.9760231648617009,0.1,0.002562284469604492,0.05077862739562988,0.050941825,0.093930274,568.940720318355,-0.1441829894287605,5.681798092809016,100.0,400,0.02602243423461914,0.1867496105685019,0.18517015420458205,30800,679.1738622760224,100.0
77,1.298426866531372,569.8823887930422,22.751146356322337,604.310796100045,543.0393633768044,100.0,1.0455109130100315,0.1,0.0024881362915039062,0.05075550079345703,0.047480214,0.08059403,569.0348871658239,-0.16534249161287592,5.618493173094167,100.0,400,0.02248096466064453,0.19536984832588455,0.19235059973307764,31200,682.105628218229,100.0
78,1.273740530014038,608.5072792149512,40.30869606358291,677.6576910256703,576.4629428391723,100.0,1.0771405269825627,0.1,0.0025262832641601562,0.050318241119384766,0.051348343,0.08669564,572.9821263707366,-0.1323635424831039,6.005085493853382,100.0,400,0.027485370635986328,0.18284931750971048,0.1813511668575299,31600,678.7757259521505,100.0
79,1.4272031784057617,574.5871614847135,24.779083150390708,606.5425634743932,539.4024397781096,100.0,0.9384595321703387,0.1,0.002660512924194336,0.05245232582092285,0.050907847,0.092510395,573.1426298821343,-0.16445920061194394,5.656271737872746,100.0,400,0.0230557918548584,0.17863801535031182,0.17696245593156298,32000,681.384178097229,100.0
80,1.230034589767456,574.789496864585,85.96848361043538,652.3523336017066,442.6526676731626,100.0,0.9148942670755283,0.1,0.0029375553131103516,0.05268406867980957,0.05373677,0.09161566,573.3073165803794,-0.15328827666195233,5.677605082249236,100.0,400,0.029810428619384766,0.19263313030968968,0.19094008378250654,32400,678.5377301572471,100.0
81,1.2333238124847412,611.235322656722,32.28029390869503,664.5786740209394,582.7412106625056,100.0,1.1410175715046063,0.1,0.002512693405151367,0.052152395248413086,0.044231974,0.07871519,577.1001171880137,-0.1257014103998257,6.022643154896331,100.0,400,0.0227203369140625,0.1765426649533303,0.1730447228026265,32800,683.1966604329937,100.0
82,1.2473912239074707,593.3833443007805,41.62124360605045,661.4832532772191,550.9986491443002,100.0,0.9125259913373094,0.1,0.002497434616088867,0.050798892974853516,0.049138192,0.084684245,578.7284398992904,-0.16050769588928404,5.842312786497428,100.0,400,0.022813081741333008,0.17666790801943782,0.17549545444193337,33200,678.1914124769246,100.0
83,1.2532522678375244,648.8894046800435,15.974150573763644,673.3537775736071,632.0415608700598,100.0,1.029656201401021,0.1,0.002599954605102539,0.05781221389770508,0.04780598,0.08778945,585.7445363773656,-0.10942971144090367,6.397136065952877,100.0,400,0.02354288101196289,0.178551175609806,0.17673428360703017,33600,684.708437144815,100.0
84,1.2664127349853516,581.6293209363037,33.6615236825004,634.2503797370035,540.9412451534364,100.0,1.2262216597203115,0.1,0.00250244140625,0.05362105369567871,0.044806078,0.081567466,585.3330148332595,-0.15426783416973155,5.7365331808419215,100.0,400,0.023122787475585938,0.1628463769005227,0.16038374835404115,34000,685.6648723472034,100.0
85,1.2781248092651367,621.3027196164238,41.41481237083348,676.8877823867907,571.4818589701746,100.0,1.2628881898887365,0.1,0.002606630325317383,0.05078530311584473,0.046966717,0.07446105,588.929985311576,-0.1411708697466834,6.141401380661118,100.0,400,0.022864818572998047,0.16613164233063626,0.1645749552249137,34400,686.949773704745,100.0
86,1.2737841606140137,570.4537590507375,43.38346059048155,636.5554008269212,525.8827122130918,100.0,0.9769610653660237,0.1,0.002629518508911133,0.05196261405944824,0.046989802,0.1034089,587.0823626854923,-0.17930981994366604,5.613910806328885,100.0,400,0.023294448852539062,0.1599807573184478,0.15792785140135818,34800,682.6226566242157,100.0
87,1.2936348915100098,580.8138886940103,50.86846659436546,656.9416490329448,530.5998341944244,100.0,1.0967743621164678,0.1,0.002536773681640625,0.05064654350280762,0.05039053,0.08983996,586.4555152863442,-0.1790681914966376,5.71835692449598,100.0,400,0.023073196411132812,0.16002755425550383,0.15859923528871303,35200,688.0590258221118,100.0
88,1.2894287109375,578.7910491493881,26.008395388812655,597.4488718014026,534.4112661437158,100.0,0.7997681672197734,0.1,0.002536296844482422,0.06157541275024414,0.048844796,0.11904827,585.6890686726485,-0.14537645464635524,5.698469537050077,100.0,400,0.02288985252380371,0.16130037138183587,0.15961496445167628,35600,686.5677565773598,100.0
89,1.2790822982788086,581.5077642304619,37.87017843018132,629.2291644689674,523.2227089879128,100.0,0.907206628136006,0.1,0.0025599002838134766,0.0511474609375,0.056973718,0.07902803,585.2709382284299,-0.1651197770301534,5.734101230958478,100.0,400,0.023145437240600586,0.1691963478443321,0.16796102401183996,36000,685.3536747391917,100.0
90,1.2687606811523438,620.279259208344,37.0585190941714,668.3589036295674,566.6179507091983,100.0,0.9987006150925234,0.1,0.0025789737701416016,0.05048418045043945,0.050790843,0.095918804,588.7717703264213,-0.1269775861397052,6.121924166699767,100.0,400,0.02170085906982422,0.17400806676452804,0.17060813040355546,36400,688.1775715140162,100.0
91,1.2988712787628174,577.6751352372798,42.301137569640396,644.0481075642705,528.2155736506246,100.0,1.4357551852744224,0.1,0.002736330032348633,0.051740169525146484,0.05119175,0.066126205,587.6621068175073,-0.16971536103135515,5.705883995051794,100.0,400,0.024093151092529297,0.16094676855670847,0.15938867127551803,36800,686.8623681679745,100.0
92,1.246638536453247,623.7057753377973,41.50203733721576,668.1238828714477,555.6844712413421,100.0,1.2731440338527946,0.1,0.0025985240936279297,0.05141425132751465,0.049983643,0.06872944,591.2664736695363,-0.12088825326945513,6.176397590227502,100.0,400,0.02742457389831543,0.1644712438936157,0.16248747104959788,37200,684.6839821710172,100.0
93,1.2554347515106201,638.9258066796283,49.392088932048715,683.0704439987483,556.2425608845335,100.0,0.9722701120077675,0.1,0.0026254653930664062,0.05291438102722168,0.052592736,0.09732288,596.0324069705455,-0.11317844397439647,6.298423719366287,100.0,400,0.02272319793701172,0.1839701750888774,0.18219509559096267,37600,678.1018996368086,100.0
94,1.2501020431518555,601.4831093565772,41.488395187642716,646.8101469132073,535.5986975280923,100.0,1.0150194956021963,0.1,0.002603769302368164,0.05216550827026367,0.04732644,0.10474184,596.5774772091487,-0.1605211883834021,5.933001761724226,100.0,400,0.028850317001342773,0.15586442770898612,0.15371318727947228,38000,671.8751421519314,100.0
95,1.2615509033203125,577.9464160987679,41.45143924907682,645.4288233177385,540.9537069443426,100.0,0.9561820081490614,0.1,0.0026733875274658203,0.05280494689941406,0.047149573,0.09892005,594.7143710981106,-0.17106012782073343,5.697781839487422,100.0,400,0.022770404815673828,0.14674579531819956,0.1451214595102096,38400,671.9004457341251,100.0
96,1.2448031902313232,656.969002939958,29.23539864112374,688.258964794571,626.994900604066,100.0,1.2249927285006452,0.1,0.002508878707885742,0.052286624908447266,0.049738888,0.08052308,600.9398342822954,-0.09557838551460157,6.477251939264492,100.0,400,0.02278447151184082,0.15521564732088108,0.1521937495998391,38800,675.9378489520468,100.0
97,1.2903227806091309,634.298101915123,26.753162992870802,680.0986509498323,614.0435898586377,100.0,1.0388037019537304,0.1,0.0025649070739746094,0.05756020545959473,0.049151108,0.093499765,604.2756610455781,-0.12203652080317864,6.2510651684036995,100.0,400,0.0228421688079834,0.14876779793277456,0.1462702365971823,39200,670.7952059889226,100.0
98,1.2808341979980469,635.4851109607428,36.72390836257953,683.0728968978103,586.0841280302214,100.0,1.095425755966097,0.1,0.002548694610595703,0.05037093162536621,0.04753287,0.09426417,607.3966060370947,-0.10613330565863,6.263237727378388,100.0,400,0.02192997932434082,0.15548981882100754,0.1524747469729138,39600,665.4933549892829,100.0
99,1.2840230464935303,614.7144831822493,38.664722873091186,669.5378223053881,568.3653865372436,100.0,1.0665077847099722,0.1,0.0025300979614257812,0.050464630126953125,0.048071958,0.08796827,608.1283937516101,-0.15526152560793607,6.056625091025148,100.0,400,0.02282404899597168,0.13867014621627313,0.13717984033988678,40000,661.1441321529456,100.0
100,1.296452522277832,646.9799584655568,42.41411452695926,698.1886815468632,584.1370525606703,100.0,0.919964322963927,0.1,0.002478361129760742,0.05120587348937988,0.053751506,0.099906065,612.0135502230048,-0.11839430321201336,6.3786487776677685,100.0,400,0.023429155349731445,0.14892843015468107,0.1463820889370061,40400,661.3933577021459,100.0
101,1.2713909149169922,590.9721500210727,42.848843636235955,636.1699380539828,539.0581063404048,100.0,1.1669329787280038,0.1,0.0024955272674560547,0.05033373832702637,0.05322046,0.081638396,609.9094102028116,-0.17816525191290816,5.818675496130913,100.0,400,0.022235393524169922,0.13676119868026335,0.13458668863007278,40800,660.9032398399868,100.0
102,1.2916724681854248,637.0969990290421,54.13447972526135,694.8827169486108,548.2267196732624,100.0,0.9222831067067918,0.1,0.002506732940673828,0.05204033851623535,0.051244833,0.09907332,612.6281690854346,-0.1317836678072286,6.279563214938388,100.0,400,0.022647857666015625,0.14279486137904537,0.14023785935578842,41200,657.3551523258733,100.0
103,1.286393165588379,640.7700495564563,17.29940451958097,663.5258935480314,614.815173797775,100.0,1.2224794113562099,0.1,0.002600431442260742,0.05170798301696777,0.048573114,0.07786246,615.4423571325368,-0.10648672228561865,6.315845480779281,100.0,400,0.02280712127685547,0.14084903794626927,0.13880873746397734,41600,661.965296973363,100.0
104,1.2866098880767822,621.2001445204965,27.36426198832424,653.1727642313119,581.0193602875306,100.0,0.9391259783201937,0.1,0.0026044845581054688,0.05136561393737793,0.049429588,0.09682192,616.0181358713328,-0.11915400879258575,6.121449335072788,100.0,400,0.02306652069091797,0.15229107492728142,0.14565742916225793,42000,650.7483932804149,100.0
105,1.7128164768218994,620.3543265650288,24.819444896658293,647.7915407504777,589.8731478822608,100.0,1.1412267578964586,0.1,0.0026018619537353516,0.05246710777282715,0.052283905,0.08931591,616.4517549407024,-0.13590992596984253,6.123153176494566,100.0,400,0.02266216278076172,0.13321454507532565,0.1315154383092051,42400,647.6352034291934,100.0
106,1.2637109756469727,573.8790629836878,53.14532052081701,644.1034934060701,507.9179109454169,100.0,0.9532131831406983,0.1,0.00269317626953125,0.05245351791381836,0.045465644,0.08076484,612.1944857450009,-0.17553830550743965,5.647545119190549,100.0,400,0.023265838623046875,0.12367200530897711,0.12063475705436864,42800,652.9235168827798,100.0
107,1.2662632465362549,611.7907846488758,56.7595577952928,692.918340424587,535.945552134911,100.0,1.0441433099742419,0.1,0.002733469009399414,0.05557680130004883,0.04509142,0.080342636,612.1541156353883,-0.14051902155387241,6.025687587721195,100.0,400,0.023401737213134766,0.1285821693909265,0.12602621688857119,43200,647.2869466815054,100.0
108,1.2313024997711182,641.4307410059766,35.948156256921344,693.2542757922506,601.0184425650651,100.0,0.9504210667581638,0.1,0.002659320831298828,0.05203962326049805,0.047775503,0.094021045,615.0817781724471,-0.10235873373967214,6.323144471276629,100.0,400,0.023305892944335938,0.1362124276702785,0.13393157349415571,43600,653.8480295003635,100.0
109,1.2835493087768555,599.2249836250097,53.70307658254219,652.6825078520682,511.87043143920755,100.0,1.1463294195197833,0.1,0.002555370330810547,0.05467557907104492,0.0504791,0.07264792,613.4960987177034,-0.15146523890146066,5.9009704166385974,100.0,400,0.02265000343322754,0.1253684434125099,0.12278769474226833,44000,656.8107631853852,100.0
110,1.290820837020874,586.7871172650558,14.886631547945045,597.2715383488569,561.0853461845015,100.0,1.1843618104708415,0.1,0.0026161670684814453,0.05253314971923828,0.04998995,0.08723625,610.8252005724387,-0.17476806450291132,5.776984113547662,100.0,400,0.023398637771606445,0.11441169466676541,0.11238957762961717,44400,642.8547292497818,100.0
111,1.2534501552581787,621.2044674718984,54.32588706426989,662.8567275271263,528.3281205968235,100.0,0.7482584489440525,0.1,0.002541780471801758,0.05759286880493164,0.051328015,0.14182402,611.8631272623846,-0.1298674513720609,6.12239598094698,100.0,400,0.022613525390625,0.1299239340358575,0.1274935976644344,44800,647.9375713627444,100.0
112,1.250037670135498,607.4376158650712,57.48102693473317,668.2834005544775,513.519992447081,100.0,1.1765719551934002,0.1,0.002572774887084961,0.05112481117248535,0.05054896,0.08075209,611.4205761226533,-0.12343795442160191,5.983383573838513,100.0,400,0.022074460983276367,0.12034446476224382,0.11730829365920759,45200,664.9856655750074,100.0
113,1.2462198734283447,602.0336464819444,59.7935977623462,671.9921683963634,520.9985218788934,100.0,1.1179047003881477,0.1,0.0024695396423339844,0.050553321838378906,0.049004532,0.080997065,610.4818831585825,-0.13743158895332563,5.929743566387392,100.0,400,0.022621870040893555,0.1219714925023191,0.11968025270905326,45600,664.77813905679,100.0
114,1.2398681640625,571.9210276020578,45.411670661342335,629.7685674713932,522.0098024218025,100.0,0.945942442331099,0.1,0.002546548843383789,0.0510103702545166,0.05265689,0.102397405,606.62579760293,-0.1735259474143042,5.62800633246581,100.0,400,0.021800518035888672,0.11469351100646903,0.11158679259405527,46000,654.2079614485802,100.0
115,1.291811227798462,642.6317824695468,36.547433873901156,690.8918034403648,591.2192569832523,100.0,0.8067211835190194,0.1,0.0024878978729248047,0.050463199615478516,0.049221903,0.10498023,610.2263960895917,-0.10890422577544293,6.333374056781848,100.0,400,0.024881362915039062,0.12385044575721435,0.11856017603041669,46400,656.3838277914034,100.0
116,1.3175482749938965,605.747449968557,51.89270567943271,666.6090191357581,536.856669610134,100.0,1.0504246746941,0.1,0.0026106834411621094,0.050411224365234375,0.04786762,0.08530115,609.7785014774882,-0.1630917370653605,5.976405867870584,100.0,400,0.021816492080688477,0.10813899218460055,0.10655418561893595,46800,660.9941452666027,100.0
117,1.3274118900299072,600.1497402384502,47.214095296812715,662.696893208722,546.7361704178446,100.0,1.1501788799511345,0.1,0.00252532958984375,0.05092334747314453,0.050879482,0.06846889,608.8156253535846,-0.14376965675216113,5.91206212506272,100.0,400,0.023749351501464844,0.10475213472064861,0.100474296973823,47200,657.4380084803021,100.0
118,1.371729850769043,644.6296574694393,45.01768354815148,693.1400906514298,571.117060790792,100.0,0.9322183240361711,0.1,0.0026085376739501953,0.05316805839538574,0.0472397,0.086740136,612.3970285651701,-0.11793397342830249,6.355630342126949,100.0,400,0.02334284782409668,0.11592884584076392,0.11314325800119386,47600,656.1494619727799,100.0
119,1.2800683975219727,639.4510996653235,29.162058565810625,689.7762769503687,618.6134649164295,100.0,1.002688271929491,0.1,0.002597808837890625,0.05126619338989258,0.046558257,0.09850632,615.1024356751855,-0.10599948692088586,6.305474614835052,100.0,400,0.023405075073242188,0.10808722285438545,0.10455414633470149,48000,657.6800861179305,100.0
120,1.291128158569336,585.168719585351,30.384428312467925,619.3135259611239,551.4972429070503,100.0,0.9264182812963895,0.1,0.002597808837890625,0.05120563507080078,0.05249076,0.09560268,612.1090640662021,-0.15667074899581024,5.781733791484332,100.0,400,0.022676944732666016,0.11049007395204247,0.10442703484489094,48400,658.0328596523482,100.0
121,1.253023624420166,608.9412773535448,27.362350063718836,648.0442458975471,578.6494543591565,100.0,0.8919833977441589,0.1,0.002759218215942383,0.05262565612792969,0.048012063,0.118283235,611.7922853949364,-0.1309674667975565,5.998613743409266,100.0,400,0.023323535919189453,0.10497886823723225,0.1032766849301621,48800,657.9725372859151,100.0
122,1.2573878765106201,661.530805875919,38.80201701744579,693.537408446464,595.9452016172223,100.0,1.1530645178433045,0.1,0.002607107162475586,0.05313396453857422,0.047196366,0.07818973,616.7661374430347,-0.10026453408504767,6.52371343213383,100.0,400,0.023762941360473633,0.11101852389684526,0.10469434945230115,49200,653.7880390932309,100.0
123,1.2977306842803955,669.9695440253263,13.827879054160718,682.0113051649973,648.049878259642,100.0,1.117579928436557,0.1,0.002638101577758789,0.05392050743103027,0.049475994,0.07999582,622.0864781012639,-0.08901506171629402,6.608298640577773,100.0,400,0.023866891860961914,0.101446965367295,0.09915416650028284,49600,652.7761563870174,100.0
124,1.2624285221099854,634.1325415812192,22.19593368963975,666.7507612300582,604.3208598592413,100.0,0.9669030332218587,0.1,0.0026574134826660156,0.05209851264953613,0.050144162,0.10133351,623.2910844492594,-0.10669509249388184,6.250453387377103,100.0,400,0.025070667266845703,0.10436156302963971,0.09706853724931003,50000,646.6754464807659,100.0
125,1.285567045211792,605.9036286670664,21.476629741145665,629.4669185973695,575.4695548584428,100.0,0.8795903073395058,0.1,0.0025780200958251953,0.05463147163391113,0.04856298,0.09398066,621.5523388710401,-0.1381264997732162,5.966880443084469,100.0,400,0.023218393325805664,0.08878595449287846,0.08749212717422243,50400,638.7318882183567,100.0
126,1.3845009803771973,634.7459805682839,39.06938397498561,681.4288143037762,575.2983207227809,100.0,1.0620279133644224,0.1,0.002567291259765625,0.05936098098754883,0.048251413,0.08582844,622.8717030407645,-0.11085516667424809,6.257846933429336,100.0,400,0.023070573806762695,0.0926871858945986,0.08823754257091837,50800,638.8107616809366,100.0
127,1.4036085605621338,623.6377139686444,31.080646199863345,659.1121497748715,582.96942713463,100.0,1.154213997309094,0.1,0.00255584716796875,0.05133414268493652,0.047825664,0.08606085,622.9483041335525,-0.1253043783402678,6.154491799730061,100.0,400,0.024110078811645508,0.09041092565090326,0.08827979095100971,51200,643.5445568148597,100.0
128,1.414259910583496,571.3545001130949,34.05738311551982,617.6638549011251,521.5810814169718,100.0,0.9065130788966801,0.1,0.002541780471801758,0.05058646202087402,0.047763158,0.09785786,617.7889237315067,-0.17589008324022193,5.621961491594729,100.0,400,0.029785871505737305,0.0823217444189498,0.07630122049419653,51600,647.1826644567744,100.0
129,1.3191559314727783,587.9644341763383,44.19375119087431,661.7658468509201,549.1125983278174,100.0,0.931763097114529,0.1,0.0026221275329589844,0.05135822296142578,0.05550431,0.09239784,614.8064747759898,-0.17599992340588533,5.800952071584655,100.0,400,0.024692773818969727,0.09406639069929658,0.09164134064562934,52000,652.0654241708982,100.0
130,1.343989610671997,583.002964680016,28.250492992692042,631.4223300909556,560.8738479093602,100.0,0.6102193753024026,0.1,0.0025305747985839844,0.051156044006347656,0.049689803,0.082038194,611.6261237663925,-0.17796738823442834,5.738884477602343,100.0,400,0.025146484375,0.08419912577178124,0.07847105689153759,52400,655.6308778903191,100.0
131,1.3641390800476074,658.5992751711046,22.195559940199505,694.1242976502983,636.3081234026675,100.0,1.1060909018969098,0.1,0.002675294876098633,0.05222821235656738,0.052096605,0.097078964,616.3234389068638,-0.09770175231734891,6.4957512349957,100.0,400,0.0267026424407959,0.08749931095457919,0.08154129169985792,52800,650.3728227966075,100.0
132,1.323441505432129,634.3062456603117,35.8079857390186,692.9597912583505,602.2153455545756,100.0,0.9963641419307651,0.1,0.0025365352630615234,0.05144524574279785,0.050671633,0.09269605,618.1217195822086,-0.11290161521039824,6.251340620966044,100.0,400,0.025856971740722656,0.08053302586281126,0.07783052415581466,53200,647.861187223702,100.0
133,1.3285603523254395,615.5426165194858,52.8532161968086,690.7519848147282,541.2827050164404,100.0,0.9937804926721996,0.1,0.0025627613067626953,0.05074501037597656,0.04810817,0.098796666,617.8638092759363,-0.15081164367212063,6.064616581880186,100.0,400,0.027515888214111328,0.07907610959635789,0.07515664998852996,53600,646.0469551164673,100.0
134,1.2928929328918457,625.1437522950313,41.08572150778828,663.4460811627124,556.3135576400728,100.0,0.961850232750206,0.1,0.002915620803833008,0.05205202102661133,0.049883116,0.096686356,618.5918035778458,-0.11602534954704513,6.160549945039061,100.0,400,0.027776479721069336,0.07534432641511234,0.07304337308976135,54000,650.3936870686517,100.0
135,1.313675880432129,635.9297509303839,30.32732393978228,675.7893555161261,599.9431422488948,100.0,1.1064038401433893,0.1,0.0033435821533203125,0.06811046600341797,0.04941986,0.08759038,620.3255983130996,-0.12072834417911055,6.269197437605565,100.0,400,0.03594517707824707,0.07755242165445973,0.0746974335504746,54400,640.2773673434409,100.0
136,1.2776246070861816,597.5558885635866,22.397354759074908,632.5437502773822,570.1309354827677,100.0,0.9894736272427772,0.1,0.0026819705963134766,0.05290484428405762,0.052691065,0.09015231,618.0486273381482,-0.15611964699543984,5.8834706727724955,100.0,400,0.02855658531188965,0.06913556041658714,0.06599722025896614,54800,638.6152651144024,100.0
137,1.2904648780822754,630.5546964804792,54.77217808538764,689.8719405841631,567.7313583395646,100.0,0.906628407290628,0.1,0.0026743412017822266,0.05225563049316406,0.04730182,0.095752954,619.2992342523813,-0.12220821386173125,6.214256767972108,100.0,400,0.02879929542541504,0.07348931235982126,0.07154331657646502,55200,632.4518587815172,100.0
138,1.3498995304107666,623.2239236187474,29.536815820392466,658.8900494431131,578.8276088448702,100.0,0.9222674133415073,0.1,0.002628803253173828,0.05671119689941406,0.053796887,0.091947936,619.691703189018,-0.1178922878043216,6.1428134722166625,100.0,400,0.030247211456298828,0.06643325021085567,0.06368552044457228,55600,631.3113985336261,100.0
139,1.3476283550262451,658.3972167420761,25.36191027281814,679.3123071294577,615.3770470101327,100.0,1.1597034207545587,0.1,0.003078937530517578,0.05170631408691406,0.054068614,0.08287229,623.5622545443238,-0.09632952779113459,6.492607944385286,100.0,400,0.02871990203857422,0.06464396423158174,0.06213790221764487,56000,638.5573691657095,100.0
140,1.3762648105621338,594.3930772670542,50.446847860660014,678.91325558926,545.9774579932042,100.0,0.9972273591697133,0.1,0.0025436878204345703,0.050217628479003906,0.05281256,0.10743992,620.6453368165969,-0.1559547384030309,5.855001174006443,100.0,400,0.02813410758972168,0.06817083581331551,0.060336199763638125,56400,642.789161970987,100.0
141,1.3861067295074463,608.2826255409534,47.22671241592342,672.9482076437241,546.5822921022761,100.0,0.826559132593806,0.1,0.0025300979614257812,0.052573442459106445,0.046679825,0.101435296,619.4090656890326,-0.14874827043283848,6.002505239779063,100.0,400,0.03252840042114258,0.06413218927207644,0.061731980446105394,56800,639.3429146555685,100.0
142,1.3777031898498535,615.4558016268193,46.1925412319495,690.6844866194182,570.4024762646794,100.0,0.8507140536842428,0.1,0.0025794506072998047,0.05616950988769531,0.047422677,0.1191395,619.0137392828113,-0.1381349211850012,6.063690803299308,100.0,400,0.02972722053527832,0.055350323257515,0.053436376719371376,57200,640.3968011659107,100.0
143,1.38706636428833,638.9503710633459,23.40021345285957,676.0697074087934,611.8337711424386,100.0,0.9225580312260352,0.1,0.002672910690307617,0.0525822639465332,0.048653957,0.09971524,621.0074024608648,-0.1011240334024032,6.299546877678297,100.0,400,0.030162572860717773,0.060164884966773705,0.05714330169781143,57600,635.7386300457516,100.0
144,1.4592256546020508,602.7776410338065,57.896696436046774,687.1411347501154,539.9364989314307,100.0,0.8695563634909615,0.1,0.0026602745056152344,0.0526430606842041,0.04845822,0.10827964,619.1844263181589,-0.15635439343357857,5.936446841677895,100.0,400,0.03123188018798828,0.05444591441063928,0.05269236097713758,58000,635.535547821397,100.0
145,1.3947486877441406,632.3578606963351,46.482156136799794,689.7598385953169,565.7470078336604,100.0,0.861273206315467,0.1,0.0025854110717773438,0.05122542381286621,0.048448343,0.09521358,620.5017697559765,-0.12437772138444683,6.242212450434048,100.0,400,0.03014826774597168,0.054507019348171294,0.052062716913291104,58400,635.8207517971256,100.0
146,1.4480323791503906,604.2365644119548,3.350595003421375,607.7334117052937,598.7138440378329,100.0,0.9005597700958069,0.1,0.0025696754455566406,0.05152440071105957,0.049802624,0.096541375,618.8752492215743,-0.14191661284952364,5.962119957656122,100.0,400,0.03185439109802246,0.04915055174407609,0.04724800409601524,58800,638.2336158615977,100.0
147,1.3983266353607178,622.6924037715321,55.20563547376516,677.7565075105899,556.914645803949,100.0,0.9572418468260527,0.1,0.0025038719177246094,0.05060386657714844,0.05482937,0.08985506,619.2569646765701,-0.1327532187981283,6.135318581285906,100.0,400,0.03119373321533203,0.048214743340132676,0.046201255979484546,59200,637.5169779023564,100.0
148,1.3394410610198975,612.6823792236423,55.01068301325294,681.4287132944261,531.6695297161737,100.0,0.9501032592396619,0.1,0.002676248550415039,0.05200028419494629,0.05437764,0.10110391,618.5995061312774,-0.1357562606937707,6.037536758847085,100.0,400,0.030313730239868164,0.04647613234574079,0.044464458293639486,59600,622.4985147509918,100.0
149,1.401115894317627,620.4772120232305,46.78750622246883,684.185700628239,573.7927027933134,100.0,1.0150542858129714,0.1,0.0026254653930664062,0.05106306076049805,0.053543825,0.093057826,618.7872767204727,-0.12568615638145614,6.124520633294077,100.0,400,0.031880855560302734,0.0455266834469327,0.0429040061544889,60000,628.3666180866708,100.0
150,1.3751745223999023,629.0464968660167,37.65031649774326,685.3623157632603,579.45948869754,100.0,0.9925877198996148,0.1,0.002552032470703125,0.05137968063354492,0.05409496,0.09042334,619.8131987350272,-0.11856295719799145,6.197663519695547,100.0,400,0.0307157039642334,0.03909516836162051,0.03730951633806478,60400,638.7495809583651,100.0
151,1.3874995708465576,519.7513850539368,80.27381509895588,623.831047470135,428.9650892822838,100.0,0.8219932346277748,0.1,0.0026047229766845703,0.051984548568725586,0.04794447,0.10896525,609.8070173669182,-0.2744249997646917,5.107371359626548,100.0,400,0.03243660926818848,0.07559637141376047,0.06232043192694061,60800,583.7798143274996,91.66666666666667
152,1.3225388526916504,567.5205668279856,118.80004310901077,675.3936755344776,366.5785119551644,100.0,0.779278388376919,0.1,0.002472400665283203,0.051599979400634766,0.04982724,0.09815738,605.5783723130249,-0.21661756481763347,5.584405829665753,100.0,400,0.03246665000915527,0.07156379258681596,0.06583191650489413,61200,576.1305338761842,91.66666666666667
153,1.3050687313079834,512.9171378649692,175.66470788147635,680.852559836318,234.21889663291626,100.0,0.6433172149010762,0.1,0.0024640560150146484,0.05568337440490723,0.049526397,0.12890343,596.3122488682193,-0.33014829369062826,5.049000352330428,100.0,400,0.032677650451660156,0.12601062281954323,0.11190283482661065,61600,580.2462877952338,91.66666666666667
154,1.2920799255371094,617.6708249007004,38.40075977711526,669.6677478308524,571.1313444374642,100.0,0.8928959063039994,0.1,0.0025153160095214844,0.05147886276245117,0.05332804,0.095022984,598.4481064714674,-0.12932088391893473,6.086153811532895,100.0,400,0.03971147537231445,0.040996208974953,0.03403740571832476,62000,579.1850461692048,91.66666666666667
155,1.3101410865783691,411.7639869612343,388.99922968377007,676.8959204361901,-260.5931522584524,75.0,0.6614031594896572,0.1,0.0025627613067626953,0.05131387710571289,0.05030814,0.13664445,579.7796945204442,-0.5747575011391891,4.050215719367128,75.0,400,0.03386664390563965,0.7471995247387926,0.5810406027860469,62400,640.8546645751459,100.0
156,1.362781047821045,381.2627787890932,282.03820467993205,680.6938348503858,-60.47971935566153,100.0,1.1591486418946542,0.1,0.0025730133056640625,0.05092644691467285,0.049639706,0.078239925,559.9280029473091,-0.5913929420276277,3.7213887766223017,100.0,400,0.033551692962646484,0.3522070837264488,0.3159867518602245,62800,577.0703365464308,91.66666666666667
157,1.3111271858215332,202.36944129172502,463.8749334945094,681.5994537225615,-263.1049733526765,50.0,0.8672628225530613,0.1,0.002565622329711914,0.051104068756103516,0.05320391,0.11197214,524.1721467817507,-1.0144022574862863,1.9829180275751228,50.0,400,0.03451061248779297,1.1041201645995282,0.8897274486901016,63200,574.0297443247202,91.66666666666667
158,1.3360435962677002,551.186994531234,86.88614640850537,669.222665106017,440.5262995808345,100.0,0.8255795051549933,0.1,0.003105640411376953,0.06646442413330078,0.050600804,0.108802214,526.873631556699,-0.23041200229059855,5.421690014124966,100.0,400,0.04039287567138672,0.2366739170879777,0.14496940630203953,63600,564.8532935802674,91.66666666666667
159,1.3113069534301758,416.94262006305803,402.03886472076636,687.8121710954665,-274.37588542614424,75.0,0.8913940951067301,0.1,0.002786874771118164,0.05346488952636719,0.051243268,0.11081263,515.880530407335,-0.5873314160265959,4.101188706784557,75.0,400,0.03618931770324707,0.4282786087999876,0.3951656791779268,64000,632.089957422965,100.0
160,1.2827932834625244,414.8968735775144,397.16217194233434,695.5317759870024,-269.6124802239361,75.0,0.7981355057347458,0.1,0.00263214111328125,0.0531315803527832,0.050361123,0.11084652,505.7821647243529,-0.5662298395217888,4.082617060678496,75.0,400,0.036206722259521484,0.40874463027501323,0.38569235555082293,64400,636.6863819942901,100.0
161,1.3968744277954102,687.2622845526323,10.41395930061565,697.7986641064596,673.034107792779,100.0,0.9385666682041146,0.1,0.002716541290283203,0.05721926689147949,0.05170166,0.11246552,523.9301767071809,-0.0797036473943723,6.782390666402932,100.0,400,0.0374908447265625,0.07838334987412739,0.05986970506877609,64800,644.6122601684417,100.0
162,1.3830838203430176,613.879034281331,70.46976106042038,689.2750922179756,498.7010924008975,100.0,0.8831083712643117,0.1,0.0027840137481689453,0.05240774154663086,0.044470634,0.105694875,532.925062464596,-0.16198720370134612,6.058680364961791,100.0,400,0.03710007667541504,0.060737567482685474,0.049964349900131794,65200,637.287915354985,100.0
163,1.4497435092926025,576.9736536833468,85.51651657698429,635.4774580350914,429.37500466082406,100.0,1.0523077634980245,0.1,0.0026476383209228516,0.05238962173461914,0.05173039,0.090638615,537.3299215864711,-0.20907707304357684,5.678099525268389,100.0,400,0.037456512451171875,0.04585450451162794,0.044666713636372216,65600,641.0351917785681,100.0
164,1.388521671295166,-37.895215463949036,374.9469220900922,610.4779229981878,-272.2766117749332,25.0,0.9404665808493523,0.1,0.002582550048828125,0.05629158020019531,0.04825256,0.12411373,479.80740788142907,-1.4302753369852494,-0.40891328092809043,25.0,400,0.037578582763671875,2.493250949107544,1.5186020899269297,66000,640.385520870042,100.0
165,1.3845527172088623,625.2097480818904,53.30194128074234,700.8654019402486,557.2150699580635,100.0,1.0404622388349423,0.1,0.0025212764739990234,0.051305294036865234,0.04677404,0.102768116,494.34764190147524,-0.14550200952477452,6.160399538134123,100.0,400,0.03697633743286133,0.12132811369938898,0.16139639230459,66400,649.8388022425007,100.0
166,1.4055202007293701,652.8547495697248,36.643023790768915,704.5827820697438,612.1462845347536,100.0,0.9621389990915958,0.1,0.0024738311767578125,0.05076885223388672,0.05181468,0.09377095,510.19835266830023,-0.10487689252346935,6.435931786603761,100.0,400,0.03576922416687012,0.1614904936325729,0.07383325005993543,66800,642.2894368950689,100.0
167,1.490973711013794,370.4704873440758,386.9067043594802,663.056719232218,-282.02907901989005,75.0,0.8824046781118001,0.1,0.0025489330291748047,0.05050301551818848,0.049120832,0.0946723,496.2255661358778,-0.6301661789259541,3.637388350698706,75.0,400,0.036478281021118164,0.34864567266195384,0.3559637532121995,67200,638.630921128078,100.0
168,1.4089875221252441,619.3174506418311,11.783563633511001,639.3390028203437,609.1531712041811,100.0,1.048888179468108,0.1,0.002528667449951172,0.05035734176635742,0.050197944,0.097591974,508.5347545864731,-0.12360683657113165,6.101672623391792,100.0,400,0.036734819412231445,0.043567525290766386,0.037924591914320044,67600,636.6826634859827,100.0
169,1.3380005359649658,625.903161895392,67.83986312487698,684.55773690793,511.5966928594143,100.0,1.2721856234746673,0.1,0.002630949020385742,0.0515894889831543,0.046076633,0.073531836,520.271595317365,-0.14395408176064833,6.166568361733633,100.0,400,0.03666329383850098,0.03735366763058705,0.036104208672933284,68000,642.5055175272661,100.0
170,1.358466386795044,539.6634080668687,98.57304308554704,643.3069627510299,377.28656593662976,100.0,0.7902295208998182,0.1,0.002490997314453125,0.05117011070251465,0.0495387,0.120666504,522.2107765923154,-0.26446357571405366,5.30520199679659,100.0,400,0.036363840103149414,0.039241797139384325,0.03784696748094875,68400,650.9809705329285,100.0
171,1.3468284606933594,618.3194130413025,77.76451202283009,710.6889964385936,535.1214655279883,100.0,1.0250390593733434,0.1,0.0025086402893066406,0.050331830978393555,0.04758908,0.096449,531.8216402372141,-0.15195917993247748,6.090924900341305,100.0,400,0.03792214393615723,0.03987615032444521,0.03839438926045781,68800,654.991339236575,100.0
172,1.3652081489562988,580.3989347093483,78.05571368687342,691.1285383455589,470.5898393617935,100.0,0.8353069401382587,0.1,0.002586841583251953,0.05234670639038086,0.05071478,0.10194059,536.6793696844275,-0.19593022754528489,5.720437755882988,100.0,400,0.03638601303100586,0.034019307220245314,0.03268400661461558,69200,647.544998203213,100.0
173,1.2893645763397217,576.3085344471451,59.329617661009074,648.9195540001128,484.83498337292826,100.0,1.165306757150484,0.1,0.0032987594604492188,0.06761002540588379,0.052111875,0.09255947,540.6422861606992,-0.18879223331536416,5.670906988423104,100.0,400,0.04279613494873047,0.029805465486419276,0.02848135284814269,69600,643.7418843262957,100.0
174,1.2694263458251953,582.8286460790928,44.98705766220907,645.1150248887028,525.9878429518049,100.0,1.1342032532635857,0.1,0.0032269954681396484,0.07373404502868652,0.048502088,0.08858885,544.8609221525386,-0.1887387481655738,5.735386545987682,100.0,400,0.04202842712402344,0.03048499047135747,0.02926334114942784,70000,644.429672326591,100.0
175,1.282256841659546,638.9843448146353,4.813645060805524,647.2081012165252,635.1522217555535,100.0,1.0525948635729636,0.1,0.0026140213012695312,0.05211520195007324,0.046899814,0.10038147,554.2732644187482,-0.1075023400929877,6.298721649016244,100.0,400,0.03660726547241211,0.03217226972959474,0.030895428880825342,70400,646.6831562602805,100.0
176,1.2929186820983887,597.940839637127,41.10314269809796,662.5779963282048,549.6589496227148,100.0,0.852775870815929,0.1,0.002620220184326172,0.05217409133911133,0.051438734,0.101338565,558.6400219405862,-0.1551770396893613,5.889430811633018,100.0,400,0.03623032569885254,0.03004627926595046,0.028573430215721365,70800,642.3277380246449,100.0
177,1.2946009635925293,614.3658883516682,36.94640919494638,668.1538458716018,568.0080913384955,100.0,0.828039850871307,0.1,0.0024805068969726562,0.05102968215942383,0.05079122,0.13633677,564.2126085816943,-0.14292968081853086,6.052167012394832,100.0,400,0.03573966026306152,0.028319412183518213,0.026829365666310424,71200,648.9742396796745,100.0
178,1.371263027191162,609.8388242993744,51.02639539911056,667.2542785457706,541.8502095824724,100.0,0.9093679859404242,0.1,0.0025436878204345703,0.05110430717468262,0.051647477,0.112546034,568.7752301534623,-0.15162230790606537,6.006439176705126,100.0,400,0.0361781120300293,0.028299506408438476,0.027271084938723125,71600,650.5752091662113,100.0
179,1.3745489120483398,594.1894945472814,55.6181222467552,658.3048444262771,535.3715155687905,100.0,0.8292044627289478,0.1,0.0025620460510253906,0.057424068450927734,0.050260857,0.11767712,571.3166565928442,-0.15938470129834595,5.84834964452839,100.0,400,0.03624749183654785,0.029429512066379383,0.025614926743317043,72000,658.6403583667826,100.0
180,1.4008214473724365,635.7351117010223,30.539670000177274,681.2342966540792,595.5345441154683,100.0,0.9076948132248913,0.1,0.0024809837341308594,0.05088233947753906,0.053378332,0.109412804,577.7585021036621,-0.11827811306638196,6.263848379943082,100.0,400,0.03644728660583496,0.025162317835005138,0.024582677044590773,72400,660.1025575704017,100.0
181,1.4110004901885986,620.9108579813462,52.20208185743854,682.1228538541573,552.3967655213896,100.0,0.9790587941326364,0.1,0.002613067626953125,0.05276846885681152,0.05540742,0.098319925,582.0737376914304,-0.1361823741320058,6.117870780185438,100.0,400,0.03748273849487305,0.02414848850695968,0.022476590295581442,72800,662.952980482742,100.0
182,1.3910086154937744,624.9948897567351,40.33577939597831,692.1046257817413,586.2193961403916,100.0,0.9750132987831232,0.1,0.0025458335876464844,0.051329851150512695,0.04738395,0.103092976,586.365852897961,-0.13207086729658146,6.166917538494014,100.0,400,0.035535335540771484,0.02579307065670745,0.02458196688100901,73200,660.1559119130693,100.0
183,1.4077677726745605,639.9463726133945,20.010810923183097,670.2530733207332,617.7892498601778,100.0,1.0179841123596318,0.1,0.0025482177734375,0.05499267578125,0.053314246,0.09534484,591.7239048695043,-0.11276559683126552,6.31831112384193,100.0,400,0.03735661506652832,0.02079094763874209,0.01963677331194097,73600,659.6800604585923,100.0
184,1.3332312107086182,619.4821326532956,26.783199473793378,653.9984506914795,592.7883419849247,100.0,0.992436312374359,0.1,0.002906322479248047,0.05999350547790527,0.049581766,0.12786292,594.4997276478833,-0.1310287857701577,6.123264619008048,100.0,400,0.036603689193725586,0.023199981076232747,0.022083787184251115,74000,668.1562646307437,100.0
185,1.382523775100708,628.6603634661024,39.260521129349,663.586220198028,562.7977945351516,100.0,0.8563641261763524,0.1,0.0027227401733398438,0.05336928367614746,0.049194563,0.11007223,597.9157912297053,-0.13010612962046472,6.1949444515988406,100.0,400,0.036234140396118164,0.022943344814465833,0.021996278228769435,74400,666.787422253668,100.0
186,1.4231419563293457,674.5269325441034,13.964804726767705,690.2395157069649,654.8848781054648,100.0,0.896541394517959,0.1,0.0026640892028808594,0.052480220794677734,0.053370066,0.11499603,605.5769053611451,-0.09148116664723141,6.654245056860949,100.0,400,0.03990292549133301,0.02217710474503923,0.020804904832400536,74800,668.3743501152375,100.0
187,1.2892930507659912,643.7627369216075,31.223758099324055,674.4423227950881,602.7295136954934,100.0,0.825933196908674,0.1,0.002687215805053711,0.05844831466674805,0.053347796,0.10569589,609.3954885171914,-0.10685698165208421,6.356429448621531,100.0,400,0.036995649337768555,0.019419210931735813,0.018689004053345455,75200,670.5376139808637,100.0
188,1.2952795028686523,628.4845844505769,67.78291675068296,704.5983433560639,552.3547465828774,100.0,0.8841161987988012,0.1,0.0026662349700927734,0.0511171817779541,0.051059313,0.1076945,611.30439811053,-0.1470953740674976,6.192169384803313,100.0,400,0.03638291358947754,0.018126666871222392,0.01729287133374827,75600,673.016507401135,100.0
189,1.2980687618255615,649.5857341427138,34.33583597662017,685.6077225042102,608.2354662555447,100.0,0.8482329466504185,0.1,0.002522706985473633,0.05771136283874512,0.050230693,0.128588,615.1325317137484,-0.10349811897799834,6.4041510172234855,100.0,400,0.03689289093017578,0.015598425059029947,0.014860473800902425,76000,668.2100219488,100.0
190,1.3162107467651367,648.3316602014049,45.83899329810058,703.3207380925202,592.6545665737659,100.0,1.1539047408803222,0.1,0.002531290054321289,0.05174541473388672,0.048978902,0.0899023,618.4524445625142,-0.11789471965134135,6.390165232660539,100.0,400,0.036309242248535156,0.015783386053302286,0.015069278566594351,76400,668.78376323605,100.0
191,1.3438012599945068,639.2020741314194,14.114461118192304,653.9324153094063,616.1417148550253,100.0,0.9079301537851411,0.1,0.002455472946166992,0.0527806282043457,0.048695832,0.12680948,620.5274075194047,-0.10638849491180583,6.299959560063058,100.0,400,0.04242682456970215,0.01595673394466355,0.015109469997488916,76800,667.8523152810856,100.0
192,1.3124420642852783,617.3147357913789,50.10652669184291,703.0443135937503,577.5577395487207,100.0,1.0363233829506395,0.1,0.003094196319580078,0.06694388389587402,0.049575735,0.097304575,620.2061403466022,-0.15249560686689934,6.0812125006627165,100.0,400,0.04738163948059082,0.014911164862925172,0.01415685523417901,77200,667.8854211993043,100.0
193,1.3314423561096191,657.0258900259203,27.554705527917545,695.2202819907558,619.6022945449428,100.0,0.9360729440902191,0.1,0.003264188766479492,0.06827497482299805,0.04868777,0.09455449,623.888115314534,-0.09377495605842023,6.480057828592526,100.0,400,0.04163932800292969,0.013717296809570158,0.013106430873564607,77600,667.7423507856314,100.0
194,1.3663654327392578,684.9847247165446,8.785454105161454,698.0247559041765,674.1599471037401,100.0,0.9681280327982009,0.1,0.002562284469604492,0.0506129264831543,0.051232573,0.10827522,629.9977762547352,-0.08211477250291571,6.758803620325907,100.0,400,0.03524303436279297,0.014799598869773669,0.01403279972752648,78000,667.8632630950164,100.0
195,1.354386568069458,627.3563737166073,61.18456299225806,700.8867862828556,549.2803393160827,100.0,0.9607469817827411,0.1,0.002609729766845703,0.05064201354980469,0.05145483,0.09218411,629.7336360009224,-0.14382961081591297,6.181094005600094,100.0,400,0.03730058670043945,0.012931366032015813,0.012332248364564102,78400,665.1638124321222,100.0
196,1.4475922584533691,604.3856031521635,35.77195728684562,653.8802063102036,564.2273352926119,100.0,0.8410721060340548,0.1,0.0025818347930908203,0.050989389419555664,0.052300908,0.10957962,627.1988327160466,-0.15474051692408464,5.952291654675223,100.0,400,0.03537297248840332,0.012927054576947334,0.012381901345314158,78800,667.5790150370144,100.0
197,1.4214143753051758,612.0671370723885,41.37990528350483,664.5132902824964,550.0459373737847,100.0,0.9908673939828427,0.1,0.0025300979614257812,0.05364513397216797,0.0482154,0.10850848,625.6856631516807,-0.159626328087637,6.029502807659922,100.0,400,0.03475594520568848,0.010487370465707906,0.010013332936228046,79200,661.8464931091188,100.0
198,1.350045919418335,642.0847242060015,34.27716095502928,693.2068961511867,606.8403418001442,100.0,1.101053587542739,0.1,0.002629518508911133,0.0517578125,0.0470153,0.09479594,627.3255692571129,-0.11494982191525921,6.328290918718073,100.0,400,0.034842729568481445,0.010829236169792228,0.010217633786905636,79600,652.6193316945208,100.0
199,1.3796567916870117,630.8015283535973,19.293398666005977,658.7857517205315,610.2029128253495,100.0,0.869559939584494,0.1,0.0026874542236328125,0.05269622802734375,0.05054406,0.17768167,627.6731651667614,-0.12368474795083508,6.215867391494036,100.0,400,0.0384526252746582,0.009791900741840992,0.009456962093268505,80000,660.0192790829176,100.0
200,1.4008758068084717,621.8614620674911,50.101661735611835,685.3316487624053,558.431589534867,100.0,0.9172366021350377,0.1,0.0025224685668945312,0.05121779441833496,0.04942093,0.10558745,627.0919948568343,-0.12890542096846586,6.127200734084683,100.0,400,0.03492593765258789,0.01007539909671806,0.00941387910642521,80400,653.2030770287469,100.0
201,1.3631694316864014,612.9340109635142,29.536015429557665,660.3924683167205,579.4965118602021,100.0,1.1035153107792648,0.1,0.0025987625122070312,0.05064225196838379,0.051250122,0.087174624,625.6761964675023,-0.1551289441347405,6.038381567635904,100.0,400,0.03535294532775879,0.009585024162716954,0.009123168474984707,80800,647.4062939956175,100.0
202,1.372469425201416,626.947375308856,36.680161251531494,661.270800735473,570.333833056776,100.0,0.7476943383555561,0.1,0.002655506134033203,0.05248260498046875,0.04634304,0.21875101,625.8033143516377,-0.12707563380759046,6.18743471605708,100.0,400,0.03545999526977539,0.010323022293692021,0.00976816314272542,81200,662.8060733145559,100.0
203,1.4054491519927979,634.4791109797075,29.843376567192212,673.2269248064465,591.6719203996123,100.0,0.8714687488892594,0.1,0.0026845932006835938,0.05074954032897949,0.05139591,0.120133474,626.6708940144447,-0.12416048752384883,6.252910672915455,100.0,400,0.03483247756958008,0.009094945907761613,0.008450510774638246,81600,663.1470677991025,100.0
204,1.3909294605255127,659.2556684361891,13.067430990179558,680.1504681501139,644.0958633769453,100.0,0.9864267760332591,0.1,0.0027086734771728516,0.05660676956176758,0.04992385,0.09587141,629.9293714566192,-0.0935667435161028,6.511771373430757,100.0,400,0.04420614242553711,0.009127936162890343,0.00887068679642613,82000,666.8599883745675,100.0
205,1.400773048400879,650.2800305393188,16.911333122286923,672.0700969444489,625.2283856377366,100.0,0.8927495555684754,0.1,0.00258636474609375,0.050914764404296875,0.053315282,0.09792373,631.9644373648891,-0.10924441703691812,6.410613169110074,100.0,400,0.035710811614990234,0.0084134885627653,0.00794908703351577,82400,672.1372177470738,100.0
206,1.4260632991790771,626.0790328785038,45.13538117958143,674.6576966722181,555.1109083526529,100.0,1.001637396171014,0.1,0.002718210220336914,0.05228137969970703,0.053527843,0.09614096,631.3758969162507,-0.1339638290050627,6.1680370260572275,100.0,400,0.03486990928649902,0.0076347096436795055,0.007302495785929993,82800,672.0724446462144,100.0
207,1.4479966163635254,615.7787790145242,44.43372847130393,691.0612215177367,575.6120162292464,100.0,0.8515402508309532,0.1,0.003186464309692383,0.06609535217285156,0.048087377,0.16786285,629.816185126078,-0.16425069367682826,6.064674488839638,100.0,400,0.04655051231384277,0.007661849487592182,0.007294506904092896,83200,672.99046614471,100.0
208,1.3309903144836426,660.031623164723,18.793365128804314,679.5636043459718,636.2844297233149,100.0,0.8602444981172623,0.1,0.0031952857971191406,0.06164860725402832,0.049516574,0.1409711,632.8377289299425,-0.10276108228656805,6.507782768189472,100.0,400,0.03526473045349121,0.006960156671208502,0.006405634738329057,83600,670.7605848725817,100.0
209,1.4798507690429688,642.5803144624383,12.83947659278131,664.3698597012374,631.1736578912881,100.0,0.8875235433398619,0.1,0.002503633499145508,0.05085897445678711,0.05262227,0.13296434,633.8119874831922,-0.11092787727567395,6.334176570393104,100.0,400,0.03908538818359375,0.005961283778320091,0.005752861622913016,84000,668.2661004838536,100.0
210,1.2837204933166504,590.3027413740149,15.399339082630274,608.2881365797489,571.3508567482816,100.0,0.9403842881535044,0.1,0.002675294876098633,0.05993533134460449,0.051890664,0.10918104,629.4610628722745,-0.1690294095558487,5.811226862505221,100.0,400,0.034627676010131836,0.008220200119286186,0.0076669126152955555,84400,669.8400292634179,100.0
211,1.3007826805114746,593.545841199887,23.969821007196213,618.7576019603431,556.6037842465742,100.0,0.7435910610112387,0.1,0.002552509307861328,0.05126142501831055,0.048676997,0.14566347,625.8695407050358,-0.15439684199288878,5.843235901066382,100.0,400,0.0349125862121582,0.006204556295658744,0.005904122775399396,84800,667.1335386568262,100.0
212,1.28572678565979,640.3492784488976,42.497474360969186,695.0686964922613,575.9472919828436,100.0,0.805079480172247,0.1,0.0025560855865478516,0.051362037658691406,0.047525562,0.14754076,627.317514479422,-0.1254077506307223,6.311779567135381,100.0,400,0.03458714485168457,0.00788039590885193,0.0074149086346680226,85200,662.4701144660667,100.0
213,1.2707493305206299,657.1452993291459,34.15705439762632,690.9183237008606,600.4678065875399,100.0,0.9754989405933546,0.1,0.0025780200958251953,0.05083155632019043,0.046739835,0.0969543,630.3002929643944,-0.10927676545896678,6.477565060451183,100.0,400,0.03555893898010254,0.006724968667920576,0.005267561544211296,85600,664.1432289052558,100.0
214,1.2819232940673828,637.7284802496489,39.07903486387137,681.9078297745299,593.3629674532835,100.0,0.8459232068109237,0.1,0.0025320053100585938,0.05113482475280762,0.04652401,0.13900964,631.0431116929199,-0.12139653322140709,6.28561391597393,100.0,400,0.03403210639953613,0.0062124409782231115,0.005723273416162719,86000,658.9175061634606,100.0
215,1.3026399612426758,650.3243205326886,15.935880738883688,675.7256586645718,631.7913725133282,100.0,0.8851106419668658,0.1,0.0024886131286621094,0.05115008354187012,0.051994108,0.11413965,632.9712325768968,-0.09941881955487143,6.411989713480665,100.0,400,0.03433370590209961,0.005290580190583878,0.00518863508231692,86400,669.4276739583225,100.0
216,1.2865169048309326,629.6397747444116,11.081926526671282,642.256528863755,617.4656061989723,100.0,0.9033037605225296,0.1,0.0025136470794677734,0.051342010498046875,0.05418136,0.108401164,632.6380867936483,-0.11649874958590087,6.206035919127405,100.0,400,0.0330815315246582,0.006887313971270254,0.004604725281586662,86800,668.6649643178732,100.0
217,1.3509013652801514,611.4828216320195,32.742372537878865,661.5090873893578,571.6120440313174,100.0,1.0343452482220734,0.1,0.0026144981384277344,0.05288529396057129,0.052205104,0.081692666,630.5225602774855,-0.15387958869812152,6.023042492298878,100.0,400,0.03397536277770996,0.006066147300780358,0.005514123267297095,87200,675.0423553662199,100.0
218,1.3841984272003174,625.607849675685,42.17214933528001,686.2884918736981,583.7228886899716,100.0,0.7939174689259049,0.1,0.0024874210357666016,0.0618898868560791,0.045999326,0.14885454,630.0310892173054,-0.14786786421108336,6.185674025364178,100.0,400,0.034345388412475586,0.006606128279097245,0.0061563778430820705,87600,680.4943879796773,100.0
219,1.4367845058441162,604.788541457645,30.775687979772467,655.8177936006085,577.5068664716911,100.0,0.8466810130391565,0.1,0.0025205612182617188,0.050215959548950195,0.04831096,0.10603342,627.5068344413394,-0.14865940076386114,5.956058971303608,100.0,400,0.03644585609436035,0.0053960690490034964,0.005212836676810865,88000,676.9888999778537,100.0
220,1.419602394104004,611.2967810768798,56.0068331159085,708.1102612109842,574.2045928370562,100.0,0.7518267526806744,0.1,0.0025551319122314453,0.050397634506225586,0.048375826,0.13009486,625.8858291048934,-0.15201189056484987,6.020103080720681,100.0,400,0.03369855880737305,0.005787418441863554,0.005613532424945652,88400,675.7951447976399,100.0
221,1.4003973007202148,652.8817898588272,34.741433713903106,691.341359679049,614.3785178477941,100.0,0.7875568123927209,0.1,0.0025777816772460938,0.0534062385559082,0.04050591,0.10734276,628.5854251802868,-0.1185114969290377,6.437030790707161,100.0,400,0.03368377685546875,0.004816691778582654,0.004098082223473893,88800,684.3937119398212,100.0
222,1.3137931823730469,616.2022223851229,36.85740223206813,659.2252869586312,565.9994590950058,100.0,0.662464958654358,0.1,0.0027666091918945312,0.05061459541320801,0.047073927,0.3302401,627.3471049007704,-0.14353775216873305,6.071584234482772,100.0,400,0.03424787521362305,0.00590039286488276,0.0042622901737292326,89200,680.6860625682215,100.0
223,1.3172307014465332,612.3107337617186,4.728473613333697,616.5292314424895,604.4538415710366,100.0,0.7869573158516321,0.1,0.002702474594116211,0.052095651626586914,0.04747754,0.2735933,625.8434677868652,-0.15141092269977266,6.0298518967281165,100.0,400,0.03711891174316406,0.005138322422560469,0.0048375029085935455,89600,682.2728184843683,100.0
224,1.3013465404510498,629.597380127354,28.35695350869228,673.7687894383862,601.7046600626951,100.0,0.8054116278631097,0.1,0.002614259719848633,0.05095791816711426,0.055124484,0.1381302,626.2188590209141,-0.13091001603875613,6.213747488705421,100.0,400,0.03342437744140625,0.0048274395162198344,0.004794584912089227,90000,678.4425121131667,100.0
225,1.319589376449585,662.0800764405944,23.67880487026062,693.2258506978604,634.1534571251403,100.0,0.9784634587388882,0.1,0.0025620460510253906,0.0510859489440918,0.04344522,0.08963397,629.8049807628821,-0.10241135520776683,6.529543424333489,100.0,400,0.03584647178649902,0.0037950974279667335,0.0034903946811906342,90400,672.927300550763,100.0
226,1.344447374343872,623.3684419600498,28.42203816178856,662.6201388473077,584.4752731541607,100.0,0.7580165247877022,0.1,0.002691984176635742,0.05269980430603027,0.05359634,0.21409988,629.1613268825989,-0.13737058145685066,6.14359223062086,100.0,400,0.035028696060180664,0.0046346662836371484,0.004500939291471371,90800,669.0744881663859,100.0
227,1.2833318710327148,623.108132390611,52.66957735310196,695.1786643696555,559.5426486237376,100.0,0.8996289578728432,0.1,0.0028085708618164062,0.05369830131530762,0.048172798,0.09276877,628.5560074334002,-0.13309824500176587,6.140480355910091,100.0,400,0.03688216209411621,0.005245975150840644,0.004616347055839149,91200,659.163356529804,100.0
228,1.2968013286590576,655.9883777110347,33.12630277566658,705.7531616819998,616.3394277817343,100.0,0.8464442848459852,0.1,0.002690553665161133,0.052635908126831055,0.046796206,0.12817556,631.2992444611637,-0.1079120480355202,6.4682859448425285,100.0,400,0.035094261169433594,0.003725922572200266,0.0036963453017332263,91600,654.4571887115126,100.0
229,1.3329193592071533,593.5422513537665,18.91968309394072,617.0342835764714,564.8563093485352,100.0,0.8623929544008213,0.1,0.0026044845581054688,0.05186963081359863,0.049161382,0.121916905,627.523545150424,-0.16380625673629878,5.84273276483318,100.0,400,0.03487038612365723,0.0043799000528611425,0.004278717871547421,92000,645.598226711912,100.0
230,1.3316731452941895,640.9565985473663,17.23955943404727,664.8310455600822,620.5385168551597,100.0,0.9306637784434414,0.1,0.002557516098022461,0.051399946212768555,0.04953163,0.10102267,628.8668504901182,-0.11548914497060378,6.327536708581962,100.0,400,0.03443121910095215,0.004346704096238277,0.0038709409362967565,92400,639.6400636724325,100.0
231,1.3821046352386475,628.7089797911678,37.721249469959794,692.4314015668642,598.3009685821071,100.0,0.7957642416016192,0.1,0.002541065216064453,0.05183219909667969,0.043189332,0.11591665,628.8510634202231,-0.14721066154316587,6.19498252377448,100.0,400,0.03490591049194336,0.0034879368879556123,0.003422524557009712,92800,647.3876513630452,100.0
232,1.3898932933807373,623.4221391555503,32.177525273692794,678.3570445685261,596.3955478489102,100.0,0.9785092823371793,0.1,0.0026085376739501953,0.05214190483093262,0.04830141,0.10823526,628.3081709937559,-0.15037981395592417,6.15208311267913,100.0,400,0.03504133224487305,0.004168033388318648,0.0038776988445808347,93200,651.9586298151936,100.0
233,1.4151322841644287,616.0676997972851,27.592853095032876,646.9599478705932,572.1094684772244,100.0,0.7695609510583585,0.1,0.0027158260345458984,0.056673526763916016,0.051683817,0.109769754,627.0841238741087,-0.12386386202407135,6.078801336610206,100.0,400,0.03468656539916992,0.005248796375378479,0.004915915333397162,93600,645.8636142556039,100.0
234,1.416961908340454,627.281479431173,19.72691639117936,644.8535052591803,596.9552861079927,100.0,0.7743663166816301,0.1,0.0026738643646240234,0.05077195167541504,0.048876315,0.118919924,627.1038594298152,-0.13390518416802785,6.19119779378157,100.0,400,0.03438138961791992,0.002716961942986243,0.002507356033450301,94000,644.168718465305,100.0
235,1.4029278755187988,641.6310072240143,26.00659106898449,679.7669167719521,617.2713442608344,100.0,0.8569311917229107,0.1,0.0032885074615478516,0.0660867691040039,0.05105341,0.09954853,628.5565742092351,-0.11840167533895826,6.334055358523317,100.0,400,0.03477835655212402,0.002628657991982355,0.002548318335644552,94400,658.2034000214245,100.0
236,1.4235501289367676,655.7188999118256,22.667291931525465,693.0054215996884,634.5907269945925,100.0,0.9601707254633188,0.1,0.0025942325592041016,0.05208444595336914,0.047402088,0.11936128,631.2728067794942,-0.10239811381321051,6.466685585563642,100.0,400,0.03805088996887207,0.0025817451683873044,0.0023998906826293636,94800,646.8380643733254,100.0
237,1.4083740711212158,629.0573624710539,20.094841412499882,658.0449983226027,605.5397276780662,100.0,0.9676016049679395,0.1,0.002618551254272461,0.05138349533081055,0.04390728,0.068133496,631.0512623486502,-0.1354261815269027,6.199485514612917,100.0,400,0.03571963310241699,0.002646851940901442,0.002445184925895911,95200,665.282309939758,100.0
238,1.4344093799591064,686.3161096685503,34.431052499945935,708.0775218455415,626.7871438665003,100.0,0.8626912015724295,0.1,0.002582073211669922,0.05102872848510742,0.049658455,0.11357513,636.5777470806403,-0.08025005376966973,6.772073251156769,100.0,400,0.034484148025512695,0.002434029314050571,0.0021972051993582,95600,662.7877338500851,100.0
239,1.3630468845367432,679.5594298120941,39.136409697994466,708.4627928941673,612.1983804773724,100.0,0.7390005564712671,0.1,0.002524852752685547,0.05085134506225586,0.04731587,1.2857097,640.8759153537857,-0.0998231464093485,6.703431010327218,100.0,400,0.03440213203430176,0.002046870341813094,0.001932841696572637,96000,669.9390320264728,100.0
240,1.3654894828796387,637.865402382574,38.84900738687436,704.7740335422293,608.855903098939,100.0,0.7115564880265928,0.1,0.0026476383209228516,0.053092241287231445,0.04844086,0.15036812,640.5748640566645,-0.12539468893845152,6.287049900605831,100.0,400,0.03505897521972656,0.002892081121963294,0.0025512640259939424,96400,671.8263569095307,100.0
241,1.399914026260376,655.1937248503202,35.22865401082162,699.150510109002,620.1972425572103,100.0,0.6930643171793245,0.1,0.002662181854248047,0.05245542526245117,0.05345399,0.326617,642.0367501360302,-0.11164827583118515,6.459680355481465,100.0,400,0.034665584564208984,0.0022915242913389778,0.0022085587825791384,96800,674.7319022482782,100.0
242,1.4360685348510742,670.6021096917866,33.217835694249224,706.4789243335711,632.464707311916,100.0,0.8840492186509313,0.1,0.002603292465209961,0.05197882652282715,0.05226496,0.11327773,644.8932860916059,-0.09265663519172043,6.613949296219891,100.0,400,0.03539013862609863,0.0017746852786840745,0.001670171927558863,97200,673.1610840701109,100.0
243,1.4526829719543457,634.3890270355579,32.20235806292051,688.8831226327396,605.2755609241572,100.0,0.8416765649384165,0.1,0.0025703907012939453,0.05222010612487793,0.048320442,0.1100126,643.8428601860011,-0.1347615676514693,6.252281816002348,100.0,400,0.03536820411682129,0.002097920419514738,0.0018567108552785482,97600,669.7854333199949,100.0
244,1.4135518074035645,675.5457463076594,15.048803137045011,691.8643282834448,652.3450994013806,100.0,0.936936474470111,0.1,0.0026426315307617188,0.058130741119384766,0.050879307,0.10800325,647.013148798167,-0.08858561288418193,6.66296060839223,100.0,400,0.03692364692687988,0.0017396205257159563,0.0012888667401703552,98000,673.2841742450386,100.0
245,1.416891098022461,659.5737507171306,37.114267864740505,695.3218319629722,606.7713188338998,100.0,0.6828447748637702,0.1,0.002575397491455078,0.05289101600646973,0.050163843,0.32476044,648.2692089900634,-0.10072659614807213,6.514343575755316,100.0,400,0.03558492660522461,0.0019815372861634963,0.0019122212152188746,98400,676.990702627381,100.0
246,1.3661949634552002,686.5853375101523,12.900773166903898,697.1603760800634,665.143373882969,100.0,0.9904488519969709,0.1,0.0025548934936523438,0.05142402648925781,0.04848049,0.09702417,652.1008218420723,-0.08399322080473284,6.775089831099653,100.0,400,0.03502774238586426,0.0013305540790920249,0.0013064110122586127,98800,671.1300248809592,100.0
247,1.4052693843841553,652.056283163692,21.339359386508573,688.2325943373203,633.7014473992734,100.0,0.7860951032814005,0.1,0.0029134750366210938,0.05182647705078125,0.0480275,0.124699906,652.0963679742342,-0.11822405088966643,6.4281416761723955,100.0,400,0.03539705276489258,0.0019546131620553696,0.0017036079173567346,99200,673.3321786077735,100.0
248,1.325850009918213,689.3373822702074,24.397547476611468,707.6547178528225,647.3285222151114,100.0,0.8891797439583972,0.1,0.0024793148040771484,0.0507044792175293,0.050472874,0.108896345,655.8204694038316,-0.07907116486476133,6.8010114205861685,100.0,400,0.0350947380065918,0.001811461014175022,0.001630284822298679,99600,690.0652883307949,100.0
249,1.3270149230957031,650.5258077324918,27.086632266651335,687.3644837804914,612.2130055277897,100.0,1.032959222801559,0.1,0.002560138702392578,0.05122685432434082,0.051634606,0.092930436,655.2910032366975,-0.11555595586418549,6.41231499035852,100.0,400,0.035227298736572266,0.0017974458125597876,0.001675162317293245,100000,689.3737408583193,100.0
250,1.3213601112365723,692.2535774629821,6.79452386338789,701.4231639654994,684.7460064874007,100.0,0.7279461372372577,0.1,0.003275632858276367,0.06636428833007812,0.046432626,0.17512064,658.987260659326,-0.0820397534846762,6.830420985322877,100.0,400,0.0406041145324707,0.001413283271269011,0.001136518730265113,100400,688.6781372167724,100.0
251,1.2657127380371094,643.6615481671904,20.822029395348157,677.1375100763715,623.7380169084976,100.0,0.7175221166251334,0.1,0.002682924270629883,0.05218648910522461,0.048306976,0.15736207,657.4546894101125,-0.11808811880457867,6.34545645844973,100.0,400,0.034856557846069336,0.0014688008804486631,0.0014286394913978454,100800,686.4546704230014,100.0
252,1.3181357383728027,675.0635213923293,31.360472517024878,706.5799413704965,641.6625012703834,100.0,0.8901986967033547,0.1,0.003240823745727539,0.07142877578735352,0.046233106,0.11532012,659.2155726083341,-0.09522175630192645,6.6602930831167555,100.0,400,0.04124617576599121,0.001370827724109834,0.0013069645254163108,101200,691.5104430965438,100.0
253,1.299858570098877,641.1774221722729,40.810086337797756,706.29517639314,596.1290335351379,100.0,0.789088674733182,0.1,0.002610445022583008,0.05253338813781738,0.04732133,0.11052287,657.411757564728,-0.12142681390667648,6.318922234692834,100.0,400,0.03519439697265625,0.002065380022584684,0.001937937654036585,101600,690.8365425423148,100.0
254,1.2950608730316162,658.6421930840535,25.154834193394173,695.6845935023309,632.4041170236529,100.0,0.7650085134689171,0.1,0.0026068687438964844,0.05317521095275879,0.048298813,0.11559431,657.5348011166606,-0.11408467885173884,6.494209929641476,100.0,400,0.035689592361450195,0.0014597188229882835,0.001359993708989082,102000,691.0321188197689,100.0
255,1.305943489074707,635.274860791378,30.26335260956356,687.4836093002654,613.984211868517,100.0,0.7822966427511806,0.1,0.002599954605102539,0.051856040954589844,0.049953524,0.109334745,655.3088070841324,-0.12905182363404483,6.2588356566583565,100.0,400,0.03575849533081055,0.001641168498944777,0.00132409776145755,102400,691.3468332495336,100.0
256,1.3101882934570312,670.495022436165,32.2669096138408,702.4663282132833,618.8689005855608,100.0,0.8884557012570335,0.1,0.0025548934936523438,0.054551124572753906,0.05827607,0.10304957,656.8274286193357,-0.09992931123624356,6.610632275545564,100.0,400,0.03547263145446777,0.0011283314882921947,0.0010242620849354159,102800,683.7722356638105,100.0
257,1.3360264301300049,650.469962361534,26.13133907075926,684.5367186451522,616.7680377365525,100.0,0.7864775359766768,0.1,0.0025870800018310547,0.05160999298095703,0.048361827,0.17748299,656.1916819935556,-0.10870319839368678,6.411794967516512,100.0,400,0.03539299964904785,0.0012141888563000581,0.0012057863620685337,103200,678.952056215821,100.0
258,1.319225788116455,630.0037834047245,15.043503774113576,655.3985905664923,618.0217354658505,100.0,0.6867611668348539,0.1,0.002561330795288086,0.05178236961364746,0.045908686,0.4426186,653.5728921346725,-0.123252700099924,6.20946158616172,100.0,400,0.03554797172546387,0.0016679322201463517,0.0015664013437996546,103600,676.3252397326179,100.0
259,1.355182409286499,680.7207557688529,23.13764180430453,708.527140043337,652.363274422994,100.0,1.1742315915718455,0.1,0.0030088424682617188,0.05072808265686035,0.048637513,0.084611244,656.2876784980906,-0.08052141801776122,6.716631200529981,100.0,400,0.03603053092956543,0.0010721628239562051,0.0010228451367108211,104000,676.730151653334,100.0
260,1.3462879657745361,684.5532601475719,8.810617080133863,699.7303091101919,678.6094928896592,100.0,0.9741441089616465,0.1,0.0025386810302734375,0.05114603042602539,0.051919304,0.09475389,659.1142366630388,-0.07840496086333111,6.754425208461915,100.0,400,0.03538656234741211,0.0008360406166791423,0.000709272373639925,104400,675.0276334775986,100.0
261,1.3835937976837158,634.1068748623725,26.778613990529376,677.9846498051782,609.1955677140033,100.0,0.6512476169692134,0.1,0.002643108367919922,0.0504460334777832,0.046518575,0.10891222,656.6135004829722,-0.11479158470263402,6.246796209478231,100.0,400,0.03512239456176758,0.002161284654203569,0.001811166938462162,104800,677.3616112452103,100.0
262,1.3661308288574219,644.6835015784525,31.880724867720797,698.8512970962207,619.9088092352595,100.0,0.8628273276332398,0.1,0.0025289058685302734,0.050909996032714844,0.049115695,0.1020013,655.4205005925203,-0.12122746287820921,6.356075552023555,100.0,400,0.03506040573120117,0.001325042909349767,0.0011324749540944949,105200,679.2404625902085,100.0
263,1.389502763748169,663.5879841115295,32.36991838660259,706.4370604761791,625.5369556692472,100.0,0.7811909704575647,0.1,0.0025315284729003906,0.05126810073852539,0.04722699,0.1508799,656.2372489444213,-0.10670544697737522,6.543158146466397,100.0,400,0.035073280334472656,0.0008747310867625565,0.0008635719557013571,105600,687.8802647356675,100.0
264,1.380941390991211,660.7999607986128,39.212990994070374,707.2474983611991,600.9315879393911,100.0,0.9635870421451143,0.1,0.0025148391723632812,0.05048370361328125,0.052371245,0.10768318,656.6935201298404,-0.10511042654523288,6.51708673708108,100.0,400,0.03517293930053711,0.002116997344130693,0.0013423645032812853,106000,673.2160851115173,100.0
265,1.3823001384735107,636.0207640109062,41.83728761310802,707.431935909455,605.552758260018,100.0,1.082470234904499,0.1,0.0025343894958496094,0.05079936981201172,0.04879304,0.086215295,654.6262445179469,-0.1348696045476605,6.268554878123028,100.0,400,0.03509330749511719,0.001658823538150939,0.0013001458376678983,106400,679.2086671643691,100.0
266,1.3463828563690186,648.9743596503512,40.87403987516225,704.9325452181163,596.7400367517326,100.0,0.8087490170794772,0.1,0.002652883529663086,0.05136990547180176,0.046552636,0.11164862,654.0610560311874,-0.11869867228708691,6.398683113314549,100.0,400,0.03471803665161133,0.001236867476394252,0.0012619811127197922,106800,683.3240811720249,100.0
267,1.2593166828155518,656.9564555747536,34.48756603592645,696.2383796429334,617.2134433590559,100.0,0.8243935090348132,0.1,0.0026216506958007812,0.05111503601074219,0.048923925,0.13832144,654.350595985544,-0.09918323607692904,6.476851564248436,100.0,400,0.03569149971008301,0.0009681655274125697,0.0009781219823699577,107200,685.0873738812387,100.0
268,1.2542164325714111,636.4968940135069,21.512802004940546,665.8204567447741,612.7821420468077,100.0,0.793044613401634,0.1,0.0025565624237060547,0.053798675537109375,0.04611025,0.14016926,652.5652257883403,-0.12868551822339858,6.271613916611869,100.0,400,0.0354156494140625,0.0007747575378087074,0.000736401293576413,107600,687.2694627206461,100.0
269,1.243915319442749,652.3293870013254,30.467343841067414,692.5724403625725,608.3658035739844,100.0,0.8783457172303727,0.1,0.0025823116302490234,0.050595760345458984,0.03499785,0.14406744,652.5416419096388,-0.1040517075547602,6.4301186538375115,100.0,400,0.03459739685058594,0.0009324521071641514,0.0009209500717948436,108000,687.0331564368421,100.0
270,1.2471363544464111,635.7690555655346,5.83738229978875,642.5313879942869,627.1693786259827,100.0,0.8883973944991216,0.1,0.0025861263275146484,0.050605058670043945,0.05016342,0.11134687,650.8643832752284,-0.13736306503693213,6.264988429012166,100.0,400,0.03476905822753906,0.0009082416601334846,0.0008863906330973869,108400,687.316540764797,100.0
271,1.2825708389282227,669.8214806687174,21.45215133651753,699.2713385724812,638.7449153459129,100.0,0.7966415223435237,0.1,0.0025780200958251953,0.05659961700439453,0.051486198,0.22302313,652.7600930145774,-0.09154531037047635,6.606563675809124,100.0,400,0.035489559173583984,0.0006274779632742488,0.0005770992750929187,108800,688.4025120237667,100.0
272,1.2653024196624756,659.1406289849464,38.39246999653341,704.4587848856158,620.7613962006188,100.0,0.855904117064611,0.1,0.0025942325592041016,0.050432682037353516,0.050214957,0.1018771,653.3981466116143,-0.10299385707466066,6.500344183943798,100.0,400,0.03562593460083008,0.0008889798271114655,0.0008480910768296438,109200,692.751917190158,100.0
273,1.2733211517333984,647.5134155046155,12.160192894568814,665.1459370910563,633.1281718425114,100.0,0.8619146269519065,0.1,0.0026085376739501953,0.05144906044006348,0.0485447,0.1396438,652.8096735009144,-0.10843263859891776,6.383782034560029,100.0,400,0.03577828407287598,0.0008617703107102595,0.0008545877239521948,109600,696.5391006867044,100.0
274,1.2633750438690186,673.6308175271413,26.29499807681574,705.1854778121522,632.8282283498514,100.0,0.8346040578767525,0.1,0.0026175975799560547,0.051546573638916016,0.048614025,0.11487754,654.8917879035372,-0.08996092717613416,6.64374795869709,100.0,400,0.035230398178100586,0.0006633287553658255,0.0006533934842635403,110000,697.5796658769,100.0
275,1.2634387016296387,664.3050714285516,30.065364168522876,697.3704422201492,628.4236911121103,100.0,0.8031372934994864,0.1,0.002593994140625,0.051477670669555664,0.051013757,1.0279713,655.8331162560387,-0.09734008606820475,6.550683108842215,100.0,400,0.03472781181335449,0.0007663153452234302,0.0007389087782648711,110400,696.7280803847883,100.0
276,1.3039679527282715,654.3169452311527,35.951369310717794,705.0978556137293,605.2248695936357,100.0,0.9839497751709083,0.1,0.002635955810546875,0.050438642501831055,0.05283319,0.09437759,655.6814991535501,-0.11241838261362219,6.4512368784252345,100.0,400,0.03539705276489258,0.0008937518362307582,0.0008737102382158518,110800,700.123427594042,100.0
277,1.2946062088012695,660.2170396371272,30.994601757821634,695.7542760317308,624.0775192976374,100.0,0.9158671986405383,0.1,0.0026018619537353516,0.0503997802734375,0.0530812,0.106557675,656.1350532019079,-0.10341989778061231,6.509706587693009,100.0,400,0.03484678268432617,0.0008036972729042356,0.0007933395086364831,111200,703.0447103386532,100.0
278,1.2830281257629395,673.0545874528666,33.552879471661186,708.8005156335405,626.9919347972275,100.0,0.7446944699660538,0.1,0.002507925033569336,0.05489802360534668,0.05328002,0.10417233,657.8270066270037,-0.08714794156912986,6.63720280733332,100.0,400,0.03505969047546387,0.0005830720127588824,0.0005740142169896412,111600,701.2410891175873,100.0
279,1.2952971458435059,662.9045581517411,26.061326497818307,706.5337205632801,641.3823211332669,100.0,0.7653308804606902,0.1,0.004931449890136719,0.050718069076538086,0.052983593,0.13765769,658.3347617794775,-0.09946987613135197,6.536872623890702,100.0,400,0.035369873046875,0.0006979790167303516,0.0006869732910643781,112000,702.662000518245,100.0
280,1.325490951538086,642.9621647296674,14.356485100483335,658.9355875077771,627.479827152372,100.0,0.7438596146681172,0.1,0.0026509761810302734,0.05029630661010742,0.052381683,0.1316271,656.7975020744965,-0.1283344354334242,6.335998028277701,100.0,400,0.035062313079833984,0.0006294633728471017,0.0005766271847961667,112400,700.3009004345291,100.0
281,1.235431432723999,660.4873178983778,13.265608350462283,674.4874710050086,639.5535721220231,100.0,0.8862246926525544,0.1,0.002630472183227539,0.051337242126464844,0.0472343,0.17712463,657.1664836568847,-0.09493464525979199,6.5134293855774095,100.0,400,0.03547382354736328,0.000760549708903064,0.000650338113272451,112800,699.6688970063465,100.0
282,1.3609411716461182,679.1370871655682,31.13392808083238,708.589760309347,626.7322041139344,100.0,0.8886882064648784,0.1,0.0026369094848632812,0.051419973373413086,0.04887971,0.111621834,659.363544007753,-0.08413525878511526,6.699496740486305,100.0,400,0.03471255302429199,0.0005540734095840635,0.0005178738060579019,113200,701.9360329763681,100.0
283,1.2644238471984863,655.3897564877859,28.445657084204345,701.3629838921819,626.6385503264322,100.0,1.0700349211191982,0.1,0.002943277359008789,0.05189037322998047,0.049565002,0.08514402,658.9661652557563,-0.1043827142646359,6.462781987359325,100.0,400,0.043993234634399414,0.0006956950251475353,0.0006309833779455226,113600,701.213270304575,100.0
284,1.3277568817138672,649.3092403120991,21.994695393657015,676.3473998149243,623.5030113280125,100.0,1.007971583996894,0.1,0.00258636474609375,0.05046367645263672,0.052068595,0.09675882,658.0004727613906,-0.12026627903656037,6.400443407919677,100.0,400,0.034772634506225586,0.0007793273958544124,0.0007294889975747146,114000,696.3702179983414,100.0
285,1.2730517387390137,670.6622879260008,21.97513895361322,708.2959758255646,652.8819900489202,100.0,0.8427226287312339,0.1,0.002491474151611328,0.05019211769104004,0.04635405,0.1330276,659.2666542778517,-0.09302487679015783,6.614237565561588,100.0,400,0.034380435943603516,0.00046454309570971125,0.0004539113148176746,114400,696.5982214010528,100.0
286,1.2571098804473877,648.1744900925582,20.7586802217891,679.8249345684069,628.3257518652174,100.0,0.7556401104048888,0.1,0.0030379295349121094,0.050362586975097656,0.048917055,0.13172042,658.1574378593224,-0.11443188985904115,6.389872898513128,100.0,400,0.035367727279663086,0.0009570422090950125,0.0008666769303663851,114800,691.8447205541984,100.0
287,1.2594997882843018,669.9274340678481,34.83562920741287,707.4346214512274,618.422253614085,100.0,0.7427523661334776,0.1,0.0025169849395751953,0.05080580711364746,0.05198499,0.111824855,659.334437480175,-0.10008883626596342,6.60708953397388,100.0,400,0.03456306457519531,0.0005930511345041561,0.0005225864367653008,115200,700.2745889464908,100.0
288,1.2626049518585205,690.1490009334915,10.81919146357273,701.3204757794896,673.663745631801,100.0,1.1899220233716554,0.1,0.002522706985473633,0.04999804496765137,0.043504942,0.07757639,662.4158938255067,-0.07692934385342726,6.809910141975361,100.0,400,0.03526616096496582,0.0003039408660655524,0.0003006015815118535,115600,695.0804935292222,100.0
289,1.2957067489624023,672.5849952533856,12.905633640287828,683.8522190429643,652.2550793237347,100.0,0.7418018510108146,0.1,0.0025246143341064453,0.05588412284851074,0.05149845,0.13179654,663.4328039682947,-0.09002680505149202,6.634146481496853,100.0,400,0.03675222396850586,0.00046281588584270886,0.00044622771334169896,116000,694.9050459833702,100.0
290,1.2722413539886475,684.9014224661548,13.980092905753366,702.6805536911462,666.5031641116858,100.0,0.9491740448910994,0.1,0.0025413036346435547,0.05101442337036133,0.043654855,0.1281826,665.5796658180808,-0.074594490562191,6.756885287201742,100.0,400,0.03593587875366211,0.0003933522038502787,0.00033411484916265067,116400,695.4460126641133,100.0
291,1.275263786315918,656.1104153198584,25.077401020685482,696.3254124182632,627.492396002,100.0,0.8672008147418733,0.1,0.002530336380004883,0.05239582061767578,0.046019644,0.0829263,664.6327407682586,-0.1152895254550656,6.470014986856798,100.0,400,0.03628349304199219,0.0006009003354649177,0.0005044711430548498,116800,698.6063459974877,100.0
292,1.285926103591919,689.4195074131512,24.507369340743324,709.5012147201118,648.4770059277738,100.0,0.9591332516630036,0.1,0.002549409866333008,0.0506894588470459,0.04845314,0.12841012,667.1114174327479,-0.08057780785802496,6.8017101166128855,100.0,400,0.03512263298034668,0.0004924815112408485,0.0004601613758721914,117200,700.1798720155565,100.0
293,1.307795763015747,675.220097697027,34.45324566972761,707.921226043959,621.7684471637643,100.0,0.741168377750977,0.1,0.002544879913330078,0.05344080924987793,0.04806393,0.1685955,667.9222854591758,-0.09640694068563532,6.658028598755517,100.0,400,0.0355532169342041,0.0004902764540251059,0.00046565604934062734,117600,697.4384954681749,100.0
294,1.2508337497711182,663.7801337836156,13.621205537376317,681.2416718543026,643.5210243223412,100.0,0.9652215196357798,0.1,0.0026946067810058594,0.051841020584106445,0.04770233,0.092914216,667.5080702916198,-0.10223478412996154,6.544851870902039,100.0,400,0.035140037536621094,0.0007145824068985286,0.0005885889829499598,118000,694.0110970750007,100.0
295,1.2486674785614014,646.0295840453003,26.097350245287206,687.0479349060613,619.8819662332447,100.0,0.8976195446390813,0.1,0.002694368362426758,0.053312063217163086,0.05017645,0.13459778,665.3602216669879,-0.11873866568218036,6.369147969526976,100.0,400,0.038683414459228516,0.00080904412369238,0.0007697203279506077,118400,694.9706694764168,100.0
296,1.28011155128479,647.6670847691474,23.68342218714586,686.2493551584812,622.0556755888756,100.0,0.7889482500651691,0.1,0.002575397491455078,0.05267071723937988,0.047247343,0.13699138,663.5909079772039,-0.13287536346081444,6.382728048213928,100.0,400,0.036437273025512695,0.0007273682029724086,0.0007331966324670313,118800,691.4610228951778,100.0
297,1.2442207336425781,671.9394463872446,39.57847784974772,712.1119069682856,627.4053574659996,100.0,1.0380540450963633,0.1,0.002592325210571289,0.05301976203918457,0.04856868,0.08422159,664.425761818208,-0.10762433659611094,6.6272282887934,100.0,400,0.036344289779663086,0.0006275108706621619,0.0005949260312645495,119200,692.1128873525951,100.0
298,1.2827463150024414,653.1146165394595,13.281749481895236,673.444383407126,640.6766189640449,100.0,0.7508738834220252,0.1,0.0027747154235839844,0.05099010467529297,0.048389565,0.14172101,663.2946472903332,-0.12206036222381542,6.437589366283415,100.0,400,0.04006600379943848,0.0005743688180040354,0.0005659096184527832,119600,690.9191838159231,100.0
299,1.2389869689941406,670.9987644034883,50.227071523825224,711.6086737850273,584.9770018721993,100.0,0.8929101210065837,0.1,0.002634286880493164,0.05060625076293945,0.053801462,0.08905753,664.0650590016487,-0.10649649556987531,6.6164118238553025,100.0,400,0.0362401008605957,0.0009679881570088869,0.0009561623901711779,120000,689.0704975110733,100.0
300,1.3003158569335938,690.3878717496141,16.58858618242101,709.3257627833266,673.5984539671464,100.0,0.8416895372901073,0.1,0.0027818679809570312,0.05039572715759277,0.050741196,0.11963654,666.6973402764453,-0.0810581274282987,6.811763841879357,100.0,400,0.04042553901672363,0.00041215331828576006,0.0003380407177972236,120400,689.6368554323685,100.0
301,1.268312931060791,658.4817476157122,16.535798994147708,676.1679942678177,631.6505668367444,100.0,0.843627356974376,0.1,0.002825498580932617,0.05055689811706543,0.042827595,0.09397564,665.8757810103721,-0.10979496315381528,6.494654111286265,100.0,400,0.03545498847961426,0.000477006461389433,0.00046822370409287545,120800,688.8818457636085,100.0
302,1.2437567710876465,660.0238909284781,35.339673699957494,695.158024736729,606.3963385979471,100.0,0.7037889252582324,0.1,0.002577066421508789,0.05105781555175781,0.04497288,0.15497862,665.2905920021827,-0.11745953176774923,6.508572222919822,100.0,400,0.03602194786071777,0.0011164874458313187,0.0009107857433229359,121200,691.2751659871079,100.0
303,1.2664334774017334,660.098209107995,34.38128528683291,706.083512487199,611.4099397259098,100.0,0.8140906812005716,0.1,0.002553224563598633,0.05118513107299805,0.043886375,0.08833582,664.7713537127639,-0.11615891032503775,6.508380372888764,100.0,400,0.03551340103149414,0.0007842766702728186,0.0006759346537879578,121600,690.1478814200651,100.0
304,1.2662804126739502,659.1769449771928,25.56480637225839,701.6218165373047,633.5699259630514,100.0,1.0564568052334147,0.1,0.002686023712158203,0.05126786231994629,0.049260885,0.07220515,664.2119128392068,-0.10470212494283461,6.501067083774991,100.0,400,0.03869485855102539,0.0015175994516754337,0.0010898072496398666,122000,689.1253750999716,100.0
305,1.2785005569458008,654.6023078431112,30.19031623191482,697.939155636488,619.1025118521809,100.0,0.8293286994476178,0.1,0.0026030540466308594,0.051511526107788086,0.04692893,0.09305727,663.2509523395972,-0.11462107711364272,6.453370747361829,100.0,400,0.03581094741821289,0.00167811132765643,0.0006615405086118224,122400,687.8491044431308,100.0
306,1.2991859912872314,667.298483824652,34.42794033684133,710.683599469172,628.7763095820396,100.0,1.0264849763881125,0.1,0.0025370121002197266,0.05050325393676758,0.048547946,0.35315558,663.6557054881027,-0.10782967146825671,6.580096229365234,100.0,400,0.03563356399536133,0.00047923002058904466,0.0004979994401922196,122800,690.5617080670146,100.0
307,1.329529047012329,629.0554091990094,18.53276211976762,660.0122056118103,611.7835948547405,100.0,0.902027389005192,0.1,0.0025305747985839844,0.050553321838378906,0.05109337,0.10243052,660.1956758591934,-0.1484033052357418,6.198475218387625,100.0,400,0.03657388687133789,0.0013092283004636786,0.000994953207809727,123200,689.9277823247247,100.0
308,1.2638053894042969,675.3325536424317,10.411575833118354,691.9766045138063,664.6528702375597,100.0,1.1828086725944182,0.1,0.0024945735931396484,0.05087733268737793,0.040485166,0.060231894,661.7093636375173,-0.08978444656562698,6.661357651517214,100.0,400,0.03572726249694824,0.0009848857293856823,0.0003910249902002359,123600,692.6572944435729,100.0
309,1.2520110607147217,662.4751158058033,25.10185190637875,703.9449807802897,636.3557127796688,100.0,0.9113897458222847,0.1,0.0026428699493408203,0.0511934757232666,0.049824953,0.117287025,661.7859388543459,-0.11158884163566704,6.531715448819255,100.0,400,0.03597664833068848,0.00045309796480752615,0.0004304094894453113,124000,691.6674848700231,100.0
310,1.265305519104004,685.8002509425081,24.566889081131823,710.4347464787189,645.1116203357434,100.0,1.053210198670803,0.1,0.002613067626953125,0.05070185661315918,0.049843017,0.15346175,664.1873700631621,-0.08093913765009338,6.764052537323144,100.0,400,0.035613298416137695,0.0003326106837183113,0.0003377860036195366,124400,691.6281939867887,100.0
311,1.2275364398956299,685.9634984471875,18.900013576532768,708.0536253976638,659.6345990373605,100.0,1.2111309310663945,0.1,0.0027599334716796875,0.051920413970947266,0.051452182,0.07010541,666.3649829015646,-0.08460692538006843,6.764561374961615,100.0,400,0.037145376205444336,0.0003537829862371535,0.00035093614982196006,124800,690.4255382216321,100.0
312,1.2376177310943604,644.182661227362,16.2586948889287,659.3390840156877,619.3005419959076,100.0,1.1347654756226027,0.1,0.0027027130126953125,0.057412147521972656,0.04959165,0.08236123,664.1467507341445,-0.12779629647916763,6.348316377245405,100.0,400,0.03656291961669922,0.0006150737863923055,0.0005871943498527134,125200,689.3487907468133,100.0
313,1.2536189556121826,682.5075435434867,27.937373513864088,713.552080862841,637.2079688759715,100.0,0.8982972403071018,0.1,0.0026369094848632812,0.05096435546875,0.038036913,0.08004285,665.9828300150788,-0.0930012561276304,6.7322531676546316,100.0,400,0.03678631782531738,0.0004558051130679578,0.00043324687624849166,125600,688.3031555718212,100.0
314,1.2647054195404053,656.2091190870422,31.787102760676152,704.5586033771598,615.3769216284343,100.0,0.794723532878189,0.1,0.002847909927368164,0.052552223205566406,0.04961073,0.13336429,665.0054589222751,-0.12194949352139871,6.4696291932744705,100.0,400,0.036708831787109375,0.0008134340430998496,0.0006932867157219715,126000,687.2568163263921,100.0
315,1.2651309967041016,677.4746978985754,17.77731002278142,698.3571332619254,656.4093010859632,100.0,0.6084011964646424,0.1,0.0026547908782958984,0.05158519744873047,0.055963688,0.13004807,666.2523828199052,-0.08101296046986219,6.6821002681598145,100.0,400,0.0360565185546875,0.0006223960642936827,0.0006211081301602907,126400,690.2201015953832,100.0
316,1.2791473865509033,674.4805459125727,19.935283212315184,700.5731231409848,647.2486930027969,100.0,0.9388700137439281,0.1,0.002634286880493164,0.052039146423339844,0.04919854,0.09833554,667.0751991291719,-0.0966543718963864,6.651271582939409,100.0,400,0.035753488540649414,0.0008212280742719575,0.0005103403891736701,126800,691.2395712027554,100.0
317,1.2577488422393799,677.3754189558708,20.17075856867736,702.197639165764,646.5733083815437,100.0,0.8581428103720936,0.1,0.0026628971099853516,0.05177736282348633,0.042467028,0.11205452,668.1052211118418,-0.0926854606802704,6.678934553077424,100.0,400,0.0360257625579834,0.00038916538378639645,0.00036076165083331126,127200,690.6920825880796,100.0
318,1.2692477703094482,645.0298656666727,17.35197695468955,664.5395086455441,620.9901605094931,100.0,0.912449062285053,0.1,0.002578258514404297,0.05088019371032715,0.052490372,0.07869161,665.797685567325,-0.11973365926970987,6.358186214392961,100.0,400,0.035361289978027344,0.0006908780707482412,0.0006840355490357751,127600,689.0876044836722,100.0
319,1.3002443313598633,643.2421816751094,23.42456539399723,680.2897845031343,615.3585191324926,100.0,0.7115318481579397,0.1,0.002574443817138672,0.05117154121398926,0.053963013,0.091959916,663.5421351781034,-0.13020875828615183,6.339775502379174,100.0,400,0.03591036796569824,0.0008666266255064805,0.0008322143335777085,128000,689.1117206550767,100.0
320,1.2573823928833008,662.8321335858966,24.562800725255606,703.1758840033176,640.8041971264835,100.0,1.0228567574100684,0.1,0.0024890899658203125,0.05093955993652344,0.048807956,0.08964657,663.4711350188828,-0.10441822022377152,6.535022858490299,100.0,400,0.035793304443359375,0.0009532202021690617,0.0009230297759750286,128400,688.5695728574979,100.0
321,1.2717137336730957,649.4096012201182,10.520862209239992,660.5121239210476,634.5528756068608,100.0,1.0712550228420752,0.1,0.0025937557220458984,0.05195760726928711,0.049250845,0.08753437,662.0649816390063,-0.11830782853875765,6.402551858261126,100.0,400,0.036165714263916016,0.0008284949464354842,0.0006730297575537551,128800,690.6476034170096,100.0
322,1.2786445617675781,688.1446928246216,30.19622478639425,712.8721184344564,636.4600048215942,100.0,0.9592968207140005,0.1,0.00254058837890625,0.05495333671569824,0.050198212,0.09956904,664.6729527575678,-0.09475289599279232,6.788868638616837,100.0,400,0.04052877426147461,0.00037973346975164393,0.00038089875817636225,129200,691.7081300820446,100.0
323,1.2770631313323975,658.1291282359139,19.147191702669303,678.31825708113,627.4976795749595,100.0,0.7701010492984387,0.1,0.002671480178833008,0.050258636474609375,0.051278032,0.097679146,664.0185703054025,-0.11349857366836238,6.487754199137835,100.0,400,0.03536701202392578,0.0006306663840700217,0.0005917899995349122,129600,695.9837047198797,100.0
324,1.292590856552124,683.2499751905381,20.771804728354407,714.1564268456434,656.1968944384913,100.0,0.9954745701752916,0.1,0.0027227401733398438,0.051920413970947266,0.057913233,0.108381845,665.9417107939161,-0.0925103606527149,6.739015569707306,100.0,400,0.03655886650085449,0.0003310446550552989,0.00032486226762410016,130000,697.151845719577,100.0
325,1.3390882015228271,688.1796446040137,8.64207188971034,700.7747632141871,678.9233094985304,100.0,0.9752375423825023,0.1,0.002864837646484375,0.050631046295166016,0.051677868,0.1171828,668.1655041749259,-0.09888792207357049,6.7896476976717635,100.0,400,0.035970211029052734,0.00033636989653217526,0.0003052725683756109,130400,695.7540969485522,100.0
326,1.2770977020263672,686.0731584109786,20.29426691695869,712.7130308667956,655.7478037139126,100.0,0.6327157850191033,0.1,0.0031447410583496094,0.06553816795349121,0.052601624,0.13522391,669.9562695985312,-0.11125462797004339,6.7674138671612845,100.0,400,0.041521549224853516,0.0008213707844411754,0.0005867062442332728,130800,695.1645136872926,100.0
327,1.2357254028320312,696.1622881973072,8.854877618527947,709.9164725800135,686.322151504714,100.0,0.9036698546395494,0.1,0.0031638145446777344,0.052607059478759766,0.051244766,0.10307537,672.5768714584088,-0.08577143235844246,6.870233708964048,100.0,400,0.03894352912902832,0.0005578805193087381,0.0003575915681172747,131200,693.5985470134196,100.0
328,1.2603352069854736,684.2388913825167,18.203521910579333,707.5307615647536,666.0534597664662,100.0,1.020303195882577,0.1,0.0026509761810302734,0.052321434020996094,0.048028752,0.08074915,673.7430734508196,-0.1019349024457577,6.749751484413684,100.0,400,0.036075592041015625,0.0004964518996259554,0.00045993530059940287,131600,692.7035667492864,100.0
329,1.290975570678711,700.2271798954221,13.071812655165532,711.4047381326179,679.4464009384034,100.0,1.1469646777931226,0.1,0.0026175975799560547,0.05204653739929199,0.043817744,0.09884861,676.3914840952799,-0.09280944485528506,6.910554644620044,100.0,400,0.036406517028808594,0.0003277324861092568,0.00032382219692024804,132000,691.6920804672177,100.0
330,1.3200457096099854,677.8731879774002,22.603651903015347,716.7742250003056,662.4003614129904,100.0,1.1575853867554553,0.1,0.0026009082794189453,0.051235198974609375,0.04419182,0.07734296,676.539654483492,-0.112855013924239,6.683996069702657,100.0,400,0.03608560562133789,0.00031819511339215603,0.00026930571665058367,132400,691.454940300043,100.0
331,1.2740747928619385,650.9475724614325,5.1759859147890275,659.6355122285169,646.2095796039432,100.0,0.8305580521461288,0.1,0.002995729446411133,0.052082061767578125,0.04979477,0.11493887,673.980446281286,-0.13376536809977674,6.416737389061158,100.0,400,0.03608822822570801,0.0008918297353141271,0.000723940824030469,132800,693.9888563989713,100.0
332,1.2743098735809326,669.2156901447448,20.173333303496555,696.6565061984298,640.3663454293232,100.0,0.8414880892657022,0.1,0.0026276111602783203,0.05195307731628418,0.049228963,0.114195846,673.503970667632,-0.12724994327887426,6.600410913196251,100.0,400,0.03765130043029785,0.0005727905942095577,0.0005143416845550184,133200,694.4304120425217,100.0
333,1.2549099922180176,676.3755787339223,29.06616369055916,715.9128524897734,645.3152482641383,100.0,0.7852801289560543,0.1,0.002546072006225586,0.05132937431335449,0.05382215,0.26003635,673.791131474261,-0.11932029059726398,6.670087237116068,100.0,400,0.03627490997314453,0.0003475499840007101,0.00027248188944414543,133600,694.7309039529737,100.0
334,1.2921411991119385,648.6513285890244,15.932445415354477,672.4538247468869,631.7740900206406,100.0,0.8283482233074935,0.1,0.0025625228881835938,0.05147290229797363,0.047363415,0.13038684,671.2771511857374,-0.1433282413095857,6.393887417840947,100.0,400,0.03647756576538086,0.0019327857439400183,0.0010072477819824074,134000,694.1055987247258,100.0
335,1.2968049049377441,678.2322894923909,22.095760071608865,709.3036766723374,653.5372291186222,100.0,1.0227378174906372,0.1,0.0026023387908935547,0.05193972587585449,0.040567484,0.08408488,671.9726650164027,-0.11349972525564112,6.691442606201509,100.0,400,0.036834716796875,0.0013090558484031654,0.00034324829885789215,134400,694.3962249464853,100.0
336,1.2744901180267334,661.9798010647248,28.878010878782217,699.2030585045073,622.3193401293053,100.0,0.8434301025289712,0.1,0.0025556087493896484,0.05234813690185547,0.049994603,0.11013213,670.973378621235,-0.12062328830688619,6.5382682265991345,100.0,400,0.03631162643432617,0.0012692047469067505,0.0005311021011167364,134800,693.9302448700638,100.0
337,1.2834043502807617,665.4326860932625,20.30544045869049,691.1211003464049,636.7712286231392,100.0,0.8978363751593653,0.1,0.0028905868530273438,0.05147099494934082,0.0498103,0.07515056,670.4193093684378,-0.11921974115210768,6.560789617309844,100.0,400,0.03637576103210449,0.0009521284271642586,0.0003192566310250579,135200,693.7233991758926,100.0
338,1.3125300407409668,682.4928972786053,20.259031754380512,705.7474393444853,652.1907585213652,100.0,1.0715275742443942,0.1,0.0025811195373535156,0.0522768497467041,0.050382227,0.08875844,671.6266681594545,-0.10490364348131129,6.731073134311446,100.0,400,0.036818504333496094,0.00027008231543013426,0.0003292290121823407,135600,694.6232002052025,100.0
339,1.323554277420044,670.3676826718877,14.94414267727081,685.3798072404409,653.7331880198925,100.0,0.965113367237114,0.1,0.0031218528747558594,0.06638550758361816,0.050868083,0.09943802,671.500769610698,-0.11024888385408171,6.611562171239992,100.0,400,0.04243946075439453,0.0005635512177303529,0.00040630134713875283,136000,694.9626654019756,100.0
340,1.3418378829956055,704.1167720164995,18.42163457314684,717.4913825025748,672.3538242305658,100.0,1.078138633564458,0.1,0.0026082992553710938,0.05218029022216797,0.050083216,0.08909642,674.7623698512781,-0.07613532936984864,6.948082363479532,100.0,400,0.03713178634643555,0.0005330938844874451,0.00021697797702575187,136400,692.0681019923508,100.0
341,1.2932236194610596,668.9647823015019,16.39868336420728,695.9317529758446,653.7440876399927,100.0,1.158306472380578,0.1,0.0024957656860351562,0.05039072036743164,0.05126049,0.07818237,674.1826110963004,-0.11499834312760732,6.596571013309335,100.0,400,0.03845810890197754,0.0002728514323747322,0.00024988023842551264,136800,692.2732675428724,100.0
342,1.2867817878723145,675.9996704480736,13.711864392188707,692.583085181362,656.595103499448,100.0,1.0084644736362343,0.1,0.0025887489318847656,0.05338883399963379,0.050246798,0.09113145,674.3643170314778,-0.10181834953799476,6.666953039419363,100.0,400,0.03580164909362793,0.00040772454113330206,0.00033139307373674184,137200,692.8288579239282,100.0
343,1.2382326126098633,679.8727875910047,22.805961891051865,716.2888499654377,653.345222540813,100.0,0.9935088377656269,0.1,0.002616405487060547,0.05092573165893555,0.045884885,0.09171312,674.9151640874305,-0.09960443444831214,6.706079740376888,100.0,400,0.03887796401977539,0.00042284382336478375,0.0002770414217470682,137600,692.8105728287222,100.0
