iteration,time_sampling,stoc_pol_mean,stoc_pol_std,stoc_pol_max,stoc_pol_min,rollout_success,alpha,delta,time_vpg,time_npg,kl_dist,surr_improvement,running_score,rwd_sparse,rwd_dense,success_percentage,effort,num_samples,time_VF,VF_error_before,VF_error_after,env_samples,eval_score,eval_success
0,1.1246695518493652,-540.5662491072882,11.678036004787382,-521.2921490950171,-550.8055785023499,0.125,0.09652532065662862,0.1,0.0416111946105957,0.050092220306396484,0.050955575,1.3723559,-540.5662491072882,-0.10994418986469688,-0.19254599792265972,0.125,0.06075657130734834,66,0.004789113998413086,1.0002727288680797,1.0002727288680797,66,-571.5618741559057,0.49999999999999994
1,0.9920778274536133,-536.4272660312272,7.472821725122727,-525.9275106137859,-547.0016471530549,0.375,0.13794953344011243,0.1,0.0023317337036132812,0.0467221736907959,0.049571622,0.8123125,-540.152350799682,-0.11083917668804147,-0.17256253817874967,0.375,0.060270836192580265,74,0.0029969215393066406,1.0002756756314835,1.0002756756314835,140,-578.2597721384689,0.49999999999999994
2,0.9717395305633545,-537.5864095834975,5.96910451432959,-528.5083141502272,-544.4618660774297,0.375,0.12860519522510763,0.1,0.0022759437561035156,0.04539823532104492,0.05242822,0.775704,-539.8957566780635,-0.12499185030363237,-0.17675017771009385,0.375,0.05983145968353299,69,0.002542734146118164,1.0002733904768517,1.0002733904768517,209,-584.600145144694,0.49999999999999994
3,1.0011169910430908,-538.2226798484173,6.315488769942051,-527.7302951230273,-543.2558401312518,0.375,0.13178259633392217,0.1,0.0031561851501464844,0.04872274398803711,0.047289655,0.8291514,-539.7284489950989,-0.10325094985058325,-0.18157199797439133,0.375,0.057329289587360485,74,0.009066581726074219,1.0002762600760104,1.0002762600760104,283,-591.2893275039957,0.49999999999999994
4,0.9929609298706055,-537.4608031769151,7.783943034616861,-525.4086949511495,-546.6365295592121,0.375,0.12878284364755882,0.1,0.002325773239135742,0.04762625694274902,0.052848376,0.91756845,-539.5016844132806,-0.12442854515812768,-0.17567323303711962,0.375,0.060279321252697124,70,0.002735614776611328,1.0002712422256783,1.0002712422256783,353,-586.9412089317375,0.49999999999999994
5,1.004059076309204,-533.4499141398817,9.14397937681249,-524.0907742966671,-545.310927811225,0.5,0.13030813348340972,0.1,0.002489328384399414,0.05197739601135254,0.052148536,0.9430384,-538.8965073859407,-0.10489699609442382,-0.158927180070284,0.5,0.05972990584791173,72,0.010329008102416992,1.000275613950175,1.000275613950175,425,-571.4402574606305,0.49999999999999994
6,1.0400333404541016,-529.6506283461513,3.348242939320142,-526.1837567587626,-534.3837348643701,0.5,0.13093568800670347,0.1,0.0026438236236572266,0.04696297645568848,0.047834918,0.7968874,-537.9719194819618,-0.10526553488233331,-0.1392089612052646,0.5,0.059805822507300245,67,0.003029346466064453,1.0002718745480486,1.0002718745480486,492,-563.5513319592311,0.49999999999999994
7,1.0599822998046875,-532.5516690683521,5.9186687304289265,-523.8561821291362,-540.5424075618105,0.5,0.13863289044660304,0.1,0.002474546432495117,0.04914355278015137,0.04953552,1.1217992,-537.4298944406008,-0.10256871122992002,-0.1537124557105172,0.5,0.06114229843034489,79,0.0033979415893554688,1.000273416247683,1.000273416247683,571,-557.9598975149681,0.49999999999999994
8,1.0553691387176514,-532.056189352781,5.764926002733573,-527.1255114570987,-541.881599423555,0.375,0.13789669454598227,0.1,0.0023238658905029297,0.04569125175476074,0.049370904,0.87733316,-536.8925239318189,-0.10292303060827196,-0.15213767480477353,0.375,0.05900774720406068,76,0.002802133560180664,1.000276272594655,1.000276272594655,647,-597.0878974769374,0.49999999999999994
9,1.117436408996582,-537.1422048434456,2.0690976064439046,-534.2277859116026,-539.8254789723269,0.375,0.1294782338252464,0.1,0.0022857189178466797,0.04622244834899902,0.05059596,0.83189136,-536.9174920229816,-0.09434249183938337,-0.17748665246329667,0.375,0.06112594029257117,72,0.002902507781982422,1.000274777772357,1.000274777772357,719,-572.8752015674721,0.49999999999999994
10,1.0469276905059814,-530.9946719825182,1.8040579662631058,-528.1198203833867,-533.0526895981748,0.5,0.13292789351110473,0.1,0.0023512840270996094,0.04914522171020508,0.049973145,0.89327323,-536.3252100189353,-0.10643354463979354,-0.14537530815327276,0.5,0.06036433435896202,71,0.002823352813720703,1.0002759654981694,1.0002759654981694,790,-560.6939652773527,0.49999999999999994
11,1.1071522235870361,-530.7199371359583,7.099795441380231,-520.0032049387214,-539.8167674056755,0.5,0.14364492101580104,0.1,0.002396821975708008,0.046547889709472656,0.05416232,0.72392774,-535.7646827306377,-0.11164364488152898,-0.14338621177388178,0.5,0.060368490299812304,72,0.0035626888275146484,1.000275670844554,1.000275670844554,862,-563.6484183295374,0.49999999999999994
12,1.0694010257720947,-532.40205162078,12.455171036529684,-515.3501541813117,-546.9409115920038,0.375,0.13486422473863366,0.1,0.0023810863494873047,0.046405792236328125,0.050040692,0.7077864,-535.4284196196519,-0.09993257883267467,-0.15401167139461058,0.375,0.05896552704635899,68,0.002402782440185547,1.0002748914827522,1.0002748914827522,930,-560.2231578801415,0.49999999999999994
13,1.1318812370300293,-541.6142850102099,5.810373508256203,-533.738888292333,-550.1277368571782,0.5,0.1564602311546511,0.1,0.030063390731811523,0.08490777015686035,0.0512535,0.7774118,-536.0470061587077,-0.11188835896341555,-0.1979391871239091,0.5,0.06001353012531424,91,0.0025606155395507812,1.0002743738081632,1.0002743738081632,1021,-559.2563069446984,0.49999999999999994
14,1.1164131164550781,-535.4596692768396,6.767499987824857,-530.5368649655481,-547.0004160928663,0.375,0.14647861013708224,0.1,0.0022916793823242188,0.04747724533081055,0.050516732,0.9569719,-535.988272470521,-0.09214512466629754,-0.16904282980981322,0.375,0.06131630166015688,82,0.002669811248779297,1.00027359563044,1.00027359563044,1103,-555.4758841153799,0.49999999999999994
15,1.7788212299346924,-538.5288093813549,8.556902781841925,-527.3291923391985,-548.2167609869022,0.25,0.13080598850398548,0.1,0.03133344650268555,0.06063723564147949,0.049117286,0.8764492,-536.2423261616044,-0.0914984974479278,-0.1854643790905725,0.25,0.060053032990293194,70,0.002928018569946289,1.0002720905370348,1.0002720905370348,1173,-555.7271861155824,0.49999999999999994
16,1.0176622867584229,-543.5215786520796,5.729628746037596,-534.4453945418641,-549.8645837850723,0.25,0.14253121670104169,0.1,0.03032231330871582,0.07549667358398438,0.051603273,0.69289076,-536.9702514106519,-0.12484269740446506,-0.20737718520220033,0.25,0.06103498816522377,73,0.002995729446411133,1.0002727067634651,1.0002727067634651,1246,-559.7576509662857,0.49999999999999994
17,1.0097849369049072,-534.7149835679577,10.228313065606889,-519.3388609497052,-546.7483833158643,0.375,0.1363965930618648,0.1,0.0024063587188720703,0.04671931266784668,0.05046702,0.95141447,-536.7447246263825,-0.11428050136747397,-0.16432903515434827,0.375,0.06103011067751317,73,0.0028543472290039062,1.0002750910963718,1.0002750910963718,1319,-560.137625836544,0.49999999999999994
18,1.0340301990509033,-536.583956234173,5.490931203850681,-528.1544996029164,-541.7887428548843,0.375,0.12886238774427888,0.1,0.0024585723876953125,0.04850172996520996,0.050425265,1.4142158,-536.7286477871617,-0.11265162153368473,-0.17285140708649574,0.375,0.058833758541967346,67,0.0031440258026123047,1.000271455085091,1.000271455085091,1386,-560.5301133822541,0.49999999999999994
19,1.0369627475738525,-534.1302582713124,6.4857213283810236,-527.0545279496812,-540.6123033122894,0.5,0.14067631625341856,0.1,0.002321481704711914,0.04724597930908203,0.050629783,0.65630406,-536.4688088355767,-0.10408675228171711,-0.16107927968184937,0.5,0.06064119358913033,69,0.003020048141479492,1.0002729067714276,1.0002729067714276,1455,-569.2994153809204,0.49999999999999994
20,1.0698308944702148,-533.2128432276111,6.168143172347225,-523.3984490101262,-540.4078692852429,0.5,0.14600997111701244,0.1,0.0023124217987060547,0.051505327224731445,0.05005321,0.9792771,-536.1432122747801,-0.0996522672052156,-0.15724846993324368,0.5,0.061882709367609964,77,0.002720355987548828,1.000274641153678,1.000274641153678,1532,-564.1223064490391,0.49999999999999994
21,1.0844120979309082,-534.5804472850475,9.533797831970308,-525.020455177442,-549.1642524403418,0.375,0.1350274310380854,0.1,0.0023653507232666016,0.04763174057006836,0.0503343,0.85023636,-535.9869357758068,-0.09392222535345883,-0.16515381619572464,0.375,0.06227616164681008,79,0.0032567977905273438,1.0002755407988828,1.0002755407988828,1611,-576.1406562900548,0.49999999999999994
22,1.0913364887237549,-538.0212736904465,9.440610859522566,-523.3924068329396,-548.6218917610698,0.5,0.14875198346697888,0.1,0.030039548873901367,0.08135128021240234,0.050994508,0.83959264,-536.1903695672709,-0.11118473857262785,-0.1797614474470388,0.5,0.06104166509676149,84,0.003100156784057617,1.0002748839568798,1.0002748839568798,1695,-586.9876780699801,0.49999999999999994
23,1.0766239166259766,-539.3973333984126,5.5177380460202965,-532.698510014084,-546.8738443864938,0.375,0.14962137653241547,0.1,0.002396821975708008,0.05325007438659668,0.050926987,0.7620535,-536.511065950385,-0.10022855391421645,-0.18850095447610302,0.375,0.05948163926430861,77,0.0033452510833740234,1.0002728200767859,1.0002728200767859,1772,-593.3889634824676,0.49999999999999994
24,1.0884606838226318,-535.2344515869845,1.9868815497366386,-533.2935646530048,-538.5575374252637,0.5,0.13983512784225857,0.1,0.03209638595581055,0.1035146713256836,0.05107732,0.7329658,-536.383404514045,-0.09283637572252053,-0.16999744932232386,0.5,0.06232683305256439,78,0.002672433853149414,1.0002736236584153,1.0002736236584153,1850,-587.5710233308995,0.49999999999999994
25,1.0932981967926025,-530.2693021875143,11.428691418107158,-513.0552796744747,-543.5183077627737,0.375,0.1457690161622558,0.1,0.002372264862060547,0.04792428016662598,0.048898377,1.1925182,-535.7719942813919,-0.09140905094981644,-0.1436529735956678,0.375,0.06107846800325757,73,0.002817392349243164,1.0002721816968971,1.0002721816968971,1923,-590.3858669533666,0.49999999999999994
26,1.1489653587341309,-531.4526957156862,2.5385522659189097,-528.0840661568742,-535.2397143058706,0.5,0.14267230588320048,0.1,0.002911806106567383,0.04806804656982422,0.0513869,0.7952292,-535.3400644248213,-0.1090605743540792,-0.14697260830014058,0.5,0.06069317297257604,73,0.004079580307006836,1.0002727589290261,1.0002727589290261,1996,-581.8309626891471,0.49999999999999994
27,1.1674091815948486,-536.9718707203945,17.77403890183199,-509.42370332798725,-558.3717919515202,0.5,0.16244684648470628,0.1,0.002526521682739258,0.0496973991394043,0.051260885,0.7540108,-535.5032450543787,-0.11450610093992118,-0.17445852565844427,0.5,0.06304064364296946,90,0.0032951831817626953,1.0002704027523788,1.0002704027523788,2086,-578.6620230190543,0.49999999999999994
28,1.4918200969696045,-534.4306866265488,8.47630119345194,-524.0225143424035,-545.7961169282762,0.375,0.14204252905800918,0.1,0.013768196105957031,0.047361135482788086,0.050918665,0.8099173,-535.3959892115957,-0.09609853289373799,-0.16436244798491056,0.375,0.06216651180964195,70,0.005648136138916016,1.000272521141373,1.000272521141373,2156,-563.6539980008207,0.49999999999999994
29,1.0583600997924805,-537.4754197704846,10.485202859407552,-523.8901238482506,-549.2201165950743,0.375,0.13629158474190564,0.1,0.0026967525482177734,0.048348188400268555,0.049980093,0.7325195,-535.6039322674847,-0.11778089986350986,-0.17741566631311434,0.375,0.06273812004875946,74,0.0032677650451660156,1.0002706206374057,1.0002706206374057,2230,-560.4194813699303,0.49999999999999994
30,1.0572006702423096,-540.2102999066309,5.892048079281907,-530.4983599025584,-545.5297169824504,0.25,0.14336264578204208,0.1,0.003323078155517578,0.054758548736572266,0.05096048,0.7952249,-536.0645690313993,-0.10246225071123874,-0.19257093394328328,0.25,0.0597074535536209,79,0.003998517990112305,1.0002728379033763,1.0002728379033763,2309,-555.9857422343986,0.49999999999999994
31,1.0803043842315674,-532.1815627962858,3.581276465312884,-528.6229162891929,-538.1235365981374,0.5,0.145772856383701,0.1,0.002779245376586914,0.05349564552307129,0.050958157,0.71964794,-535.676268407888,-0.09303857281393116,-0.15334846765891041,0.5,0.062000292737732,80,0.0030252933502197266,1.000272972926104,1.000272972926104,2389,-557.3695159500584,0.49999999999999994
32,1.119863748550415,-536.1777646367317,6.096429671481609,-527.5512287209311,-544.0739369359254,0.5,0.1621982415133448,0.1,0.0023708343505859375,0.0513157844543457,0.05030604,0.80445653,-535.7264180307724,-0.07972250962361661,-0.17311015832666088,0.5,0.059801364263053464,85,0.003168821334838867,1.000275170774125,1.000275170774125,2474,-554.4206975827686,0.49999999999999994
33,1.092149257659912,-528.2316574166038,7.812547414302572,-516.1212664561862,-537.9096237798561,0.5,0.15982768599042282,0.1,0.03254199028015137,0.11747336387634277,0.050499655,0.8151833,-534.9769419693555,-0.09232106683491687,-0.1337788413801829,0.5,0.05944448639627649,77,0.003513813018798828,1.0002710944436655,1.0002710944436655,2551,-562.2018187318856,0.49999999999999994
34,1.073817253112793,-529.7560717180197,1.9847441243271926,-527.2451989446316,-532.2230339383161,0.5,0.14381312564179835,0.1,0.0024559497833251953,0.04772377014160156,0.050545942,1.4857359,-534.4548549442219,-0.09068529546768896,-0.14120372117413238,0.5,0.062077411916502276,75,0.002830982208251953,1.0002725207581953,1.0002725207581953,2626,-557.7828764306465,0.49999999999999994
35,1.0522797107696533,-530.224764484352,6.105801021510719,-521.094472801967,-537.002816655746,0.375,0.14216645942434847,0.1,0.0024313926696777344,0.046341896057128906,0.050381027,0.9321665,-534.0318458982349,-0.11035271947149995,-0.14260585913946672,0.375,0.06299342654438715,70,0.018137454986572266,1.0002700794602195,1.0002700794602195,2696,-546.5555226204859,0.49999999999999994
36,1.0822093486785889,-534.4571831974673,4.763657341609657,-529.0351917445046,-541.0096068290504,0.375,0.15139677697112933,0.1,0.0024030208587646484,0.05161309242248535,0.049812276,1.3372042,-534.0743796281581,-0.09605119377439202,-0.1642654039765553,0.375,0.0625305534384355,79,0.002874612808227539,1.0002741419842285,1.0002741419842285,2775,-558.5042787920634,0.49999999999999994
37,1.0610873699188232,-530.8266942707031,8.333247883662642,-518.1421219866289,-541.3497867573868,0.375,0.14361243271683938,0.1,0.002357959747314453,0.04796338081359863,0.049714543,0.75778544,-533.7496110924127,-0.10112273627759513,-0.14565515994444628,0.375,0.06157298084648751,72,0.0027909278869628906,1.00027086975201,1.00027086975201,2847,-557.4837501560729,0.49999999999999994
38,1.1004040241241455,-538.6444853327375,7.3476005502902835,-528.8998880506936,-547.3886402967132,0.25,0.1601264192030761,0.1,0.02996063232421875,0.07538723945617676,0.05072327,0.70595694,-534.2390985164452,-0.09373353696517422,-0.18550624152375145,0.25,0.06073886388287525,83,0.016356706619262695,1.0002731455014204,1.0002731455014204,2930,-562.3411554888763,0.49999999999999994
39,1.1139380931854248,-537.7536619631427,4.526992792098967,-533.0693847497373,-542.9416283367408,0.375,0.14391536577611178,0.1,0.019621610641479492,0.04887557029724121,0.050769947,1.0884178,-534.5905548611149,-0.1267890490653603,-0.17803010642102512,0.375,0.06327935769246484,74,0.0026624202728271484,1.0002708250927963,1.0002708250927963,3004,-558.2795293109771,0.49999999999999994
40,1.1398913860321045,-541.2978457411514,6.854231822864383,-532.8673294876247,-549.1973323270845,0.375,0.16658904393412888,0.1,0.002527952194213867,0.04887819290161133,0.05000357,0.8445196,-535.2612839491186,-0.09141747138990908,-0.19751089976158956,0.375,0.06327116510592819,96,0.003197908401489258,1.0002739016964077,1.0002739016964077,3100,-582.4492142911255,0.49999999999999994
41,1.1036741733551025,-537.0295861984735,7.002888831595312,-529.6451201571313,-547.2387457552812,0.375,0.13859730521349298,0.1,0.0023565292358398438,0.061190128326416016,0.05015078,0.85254806,-535.4381141740541,-0.10993033576497177,-0.1768265403453453,0.375,0.061571229225028584,71,0.005522251129150391,1.0002719085010907,1.0002719085010907,3171,-577.5542802344388,0.49999999999999994
42,1.1118650436401367,-537.6070929293755,3.52292338587251,-532.4265424855939,-542.3672022642639,0.375,0.1501441258518561,0.1,0.0023980140686035156,0.048248291015625,0.050568752,0.8222626,-535.6550120495863,-0.09217219631303103,-0.17995825132490104,0.375,0.06327547672785352,86,0.00814676284790039,1.00027308492304,1.00027308492304,3257,-580.1382926343999,0.49999999999999994
43,1.0567142963409424,-532.4041797404913,9.244910911395982,-516.997296913068,-539.7571699678851,0.25,0.16272758990400935,0.1,0.0028934478759765625,0.0484776496887207,0.050282758,0.8241196,-535.3299288186768,-0.08270193506831343,-0.1560128888267394,0.25,0.06131199380708303,77,0.0030603408813476562,1.0002742428903084,1.0002742428903084,3334,-579.3721214571955,0.49999999999999994
44,1.0450620651245117,-525.8724659230626,6.426790881522377,-516.0498233370726,-531.6355822330808,0.5,0.1334404433269632,0.1,0.0025072097778320312,0.04673027992248535,0.050239045,1.0384134,-534.3841825291154,-0.09670769261801784,-0.1211193679884217,0.5,0.06197394790940336,70,0.0028069019317626953,1.0002740926507736,1.0002740926507736,3404,-577.8378120082524,0.49999999999999994
45,1.0471105575561523,-540.0924551512501,3.7253839464008425,-534.9926030030736,-545.3300539099748,0.125,0.15142390483825066,0.1,0.0025424957275390625,0.0496065616607666,0.04962942,0.74771434,-534.9550097913288,-0.11132721312561818,-0.1910839524698887,0.125,0.062257437734969626,73,0.002752542495727539,1.000270506094719,1.000270506094719,3477,-573.7415043205251,0.49999999999999994
46,1.12850022315979,-534.7927951793788,9.105437602167536,-521.0909408997013,-546.3160838191171,0.5,0.15012872289045281,0.1,0.030710220336914062,0.060875654220581055,0.04980645,0.8929439,-534.9387883301339,-0.10548199553112131,-0.16457662443090432,0.5,0.062403995380831245,77,0.0027506351470947266,1.0002718851759345,1.0002718851759345,3554,-571.7952938360487,0.49999999999999994
47,1.0676805973052979,-535.9592280486779,3.786759495287259,-531.3312422688477,-541.8812054540442,0.375,0.1451880857792646,0.1,0.00286865234375,0.046927690505981445,0.05146179,0.81577545,-535.0408323019883,-0.1123457771844885,-0.17022086689958338,0.375,0.06197197565786958,73,0.004479169845581055,1.0002726200839673,1.0002726200839673,3627,-572.2159319791825,0.49999999999999994
48,1.0665814876556396,-533.9475874605911,5.771184514610553,-524.8865612325793,-540.6576243394425,0.5,0.14526168625434707,0.1,0.0024232864379882812,0.046294212341308594,0.05062191,0.9316102,-534.9315078178486,-0.09542008095680946,-0.16285004710849565,0.5,0.06258122184258506,75,0.003359079360961914,1.000272497957076,1.000272497957076,3702,-569.9374511220094,0.49999999999999994
49,1.0599360466003418,-528.8786217931923,4.124623640075476,-524.4679147925432,-534.4295902634207,0.5,0.1409559150321734,0.1,0.002619504928588867,0.055017709732055664,0.049779527,0.9490107,-534.3262192153829,-0.0865140545201956,-0.13831749104901458,0.5,0.06232175856495191,68,0.002780437469482422,1.000274317285553,1.000274317285553,3770,-568.8721053320054,0.49999999999999994
50,1.1184914112091064,-538.457478610747,7.672385743663175,-526.181068221413,-547.1295085842197,0.5,0.15471158024292347,0.1,0.03021240234375,0.08331298828125,0.050371658,0.8436483,-534.7393451549194,-0.08347748052590574,-0.18487577660282845,0.5,0.0629062902087675,91,0.0033364295959472656,1.0002755599493964,1.0002755599493964,3861,-570.881033837745,0.49999999999999994
51,1.108229398727417,-539.5823795432996,9.605685280780426,-525.8178414807734,-549.2666154161693,0.25,0.1533747409744301,0.1,0.002504587173461914,0.048735857009887695,0.050090972,0.7107346,-535.2236485937575,-0.09779554377332193,-0.18987610420646497,0.25,0.062359595795054165,77,0.003314971923828125,1.0002736065724367,1.0002736065724367,3938,-569.1945183651377,0.49999999999999994
52,1.066803216934204,-535.3783881816371,9.945203360051426,-524.0765531422755,-548.5145188316069,0.25,0.14187035676132784,0.1,0.030646324157714844,0.3234703540802002,0.04969808,0.8405911,-535.2391225525455,-0.11288178472678415,-0.16800396543868826,0.25,0.06324843389175806,69,0.012092828750610352,1.0002723437384038,1.0002723437384038,4007,-564.98033425797,0.49999999999999994
53,1.1353344917297363,-539.7053476369364,3.9935913430952845,-535.5348432552867,-546.0794239163283,0.5,0.16921583222382822,0.1,0.0025904178619384766,0.06488370895385742,0.050717153,0.72774184,-535.6857450609846,-0.08858390565969482,-0.19027125090980665,0.5,0.06044151469739609,94,0.0041463375091552734,1.000272821868017,1.000272821868017,4101,-576.0291501029919,0.49999999999999994
54,1.1342103481292725,-538.132857943724,4.640533134096303,-531.4979751158139,-544.552035549003,0.25,0.14373368206619397,0.1,0.0024046897888183594,0.04909539222717285,0.05030516,0.9846507,-535.9304563492585,-0.1039941922599989,-0.18253552336282167,0.25,0.06265388885218465,75,0.002955198287963867,1.0002722613813386,1.0002722613813386,4176,-571.7910225483316,0.49999999999999994
55,1.0915136337280273,-535.5204851430501,2.933879212330815,-531.2181295098848,-539.4939077644439,0.375,0.1451725095970162,0.1,0.0062410831451416016,0.04665088653564453,0.050156042,0.84635365,-535.8894592286377,-0.10383173348330155,-0.17076399912464973,0.375,0.06254511786213368,72,0.002743244171142578,1.0002748456362165,1.0002748456362165,4248,-568.4853751712719,0.49999999999999994
56,1.103440761566162,-543.375822644977,3.963808424547067,-540.1528701248386,-550.1426059421781,0.125,0.15632645902399406,0.1,0.00231170654296875,0.04781222343444824,0.048846647,0.964241,-536.6380955702716,-0.09952521172677878,-0.20847666341336238,0.125,0.06278685172512556,76,0.002832174301147461,1.0002738066152987,1.0002738066152987,4324,-572.1573484037802,0.49999999999999994
57,1.126845121383667,-534.3514612560739,2.9671875838015778,-529.7351362788769,-537.4041378750569,0.5,0.1555807939042702,0.1,0.007670402526855469,0.048792362213134766,0.049715307,0.763466,-536.4094321388518,-0.10159851765437769,-0.16351354274966964,0.5,0.06280696230337568,80,0.002866029739379883,1.0002740471540335,1.0002740471540335,4404,-571.5343092050254,0.49999999999999994
58,1.5456178188323975,-527.9025797562915,6.077158348800329,-518.3373481413382,-533.6541110659748,0.5,0.13609698008111226,0.1,0.0023064613342285156,0.04606199264526367,0.047982667,1.288153,-535.5587469005958,-0.09223046086999862,-0.13160739995646675,0.5,0.061470476262345336,70,0.003113269805908203,1.0002732887124435,1.0002732887124435,4474,-574.6176066196709,0.49999999999999994
59,1.0474028587341309,-543.8735612140604,6.741242577931277,-534.4740058922715,-553.5373765114995,0.125,0.15192094969468584,0.1,0.0026216506958007812,0.047742605209350586,0.049986564,0.8423415,-536.3902283319422,-0.11291177574836625,-0.2095526149255839,0.125,0.06154649194394218,79,0.002834320068359375,1.0002728465334705,1.0002728465334705,4553,-571.7717763802433,0.49999999999999994
60,1.047992467880249,-532.0321881586499,11.373862193704753,-518.6325672114383,-543.8597248476736,0.25,0.14128833986752104,0.1,0.002402067184448242,0.04593491554260254,0.050271742,1.0989466,-535.954424314613,-0.10266420076901124,-0.15237232996273395,0.25,0.06218451939870662,74,0.0029518604278564453,1.0002730306768282,1.0002730306768282,4627,-576.8060669710522,0.49999999999999994
61,1.0960056781768799,-542.433307069272,9.60338165180573,-532.2463477948337,-555.5655526077974,0.375,0.16439595660250564,0.1,0.0025243759155273438,0.05334901809692383,0.048976805,0.7535685,-536.6023125900789,-0.08811698496028572,-0.20301828540229752,0.375,0.0639210320329831,91,0.0030906200408935547,1.0002726488060583,1.0002726488060583,4718,-570.7401936622763,0.49999999999999994
62,1.0751190185546875,-534.8630337989249,9.350993573998519,-524.5894625897826,-550.0925226738443,0.375,0.14737150371839688,0.1,0.022153139114379883,0.04945564270019531,0.050260317,0.82955116,-536.4283847109634,-0.10631061517788583,-0.1654036936190975,0.375,0.06366496661314719,75,0.0035495758056640625,1.0002731709378456,1.0002731709378456,4793,-570.4773268382123,0.49999999999999994
63,1.0969586372375488,-534.2201187382249,3.3181448658361554,-529.9451491443946,-538.8263094540058,0.5,0.13621699914584498,0.1,0.0023720264434814453,0.047599077224731445,0.050062668,0.93205667,-536.2075581136895,-0.10742756604411965,-0.1634381818373271,0.5,0.06354976649769124,73,0.002870798110961914,1.000272975351566,1.000272975351566,4866,-571.9526869248972,0.49999999999999994
64,1.0685086250305176,-537.8304070689743,6.42993738821001,-527.1419212088628,-543.5738625397304,0.25,0.15515297550549428,0.1,0.031076669692993164,0.04695606231689453,0.049755707,0.75206834,-536.369843009218,-0.09286106528805782,-0.18161968788417657,0.25,0.06231351556790929,81,0.002843618392944336,1.0002740256053306,1.0002740256053306,4947,-557.0603355686949,0.49999999999999994
65,1.0416259765625,-528.2170063272063,5.35279890962292,-519.7184201716484,-534.4743342686028,0.375,0.1268240949230915,0.1,0.0022699832916259766,0.05330467224121094,0.051021967,1.5536393,-535.5545593410169,-0.10992444181073147,-0.13385644978647337,0.375,0.06152746163073746,67,0.002911806106567383,1.0002738915966458,1.0002738915966458,5014,-563.7607548529724,0.49999999999999994
66,1.1164569854736328,-542.3886173794699,8.359824395027763,-535.1386192396978,-556.3688496770765,0.25,0.1453398269978831,0.1,0.002397298812866211,0.05189251899719238,0.050111126,1.1793721,-536.2379651448622,-0.10837293108011122,-0.20271854101805487,0.25,0.06445932064687984,79,0.003687620162963867,1.0002728376186498,1.0002728376186498,5093,-564.7641017570535,0.49999999999999994
67,1.0437586307525635,-531.4438244024703,6.330900344151308,-523.611169435871,-538.4374141155071,0.375,0.1403661008045535,0.1,0.0023369789123535156,0.04727983474731445,0.050263237,0.8827256,-535.758551070623,-0.11047286885037932,-0.14896741709764313,0.375,0.061609808774374025,69,0.0028798580169677734,1.0002727812698762,1.0002727812698762,5162,-558.9172972914063,0.49999999999999994
68,1.0865514278411865,-534.6532745302995,1.0976939313977998,-533.4828409819995,-536.3441673404354,0.5,0.1511687291814197,0.1,0.0024695396423339844,0.04692673683166504,0.04937988,1.0204471,-535.6480234165906,-0.10569884458760362,-0.16482554860932053,0.5,0.06270764115029921,75,0.0030143260955810547,1.0002740246189423,1.0002740246189423,5237,-562.8345844448824,0.49999999999999994
69,1.1099498271942139,-539.2913847345176,5.007460092631406,-533.3635155674101,-545.8374486352574,0.375,0.1404047292399374,0.1,0.02896595001220703,0.16575074195861816,0.049607497,1.0560807,-536.0123595483833,-0.11005359577252227,-0.18657131145955116,0.375,0.06367235962873685,76,0.0031549930572509766,1.0002727241025247,1.0002727241025247,5313,-558.4179314649826,0.49999999999999994
70,1.1307249069213867,-535.2850386227087,5.8362789106562225,-527.6630149544794,-544.0149065462792,0.375,0.14748247663741437,0.1,0.002247333526611328,0.04590940475463867,0.04972072,0.6905548,-535.9396274558159,-0.10060154939578411,-0.16833311441281662,0.375,0.0610735167612438,70,0.002579212188720703,1.0002732909813161,1.0002732909813161,5383,-556.0777235298914,0.49999999999999994
71,1.246093988418579,-537.2728338961213,4.4956632038360755,-531.6124350942225,-542.6080360793809,0.375,0.1420495263070465,0.1,0.002287149429321289,0.046004533767700195,0.05112105,0.98534423,-536.0729480998464,-0.11700936010060631,-0.1764934267425276,0.375,0.06207079759861102,75,0.002604961395263672,1.0002715215725493,1.0002715215725493,5458,-556.8256691458133,0.49999999999999994
72,1.0479531288146973,-539.9521394500887,3.432279887674279,-536.618213310236,-544.719179532555,0.25,0.14863042657439995,0.1,0.013048171997070312,0.04982924461364746,0.050627425,0.82308316,-536.4608672348706,-0.1140345685022025,-0.19253771889291588,0.25,0.06141316293934634,72,0.0025191307067871094,1.000272457646391,1.000272457646391,5530,-558.3614460093423,0.49999999999999994
73,1.0485420227050781,-542.0409110985406,6.698544414769112,-533.7693180697802,-551.9281804918207,0.125,0.14954631019134834,0.1,0.030494213104248047,0.17822480201721191,0.0497247,1.0430555,-537.0188716212376,-0.11164188099057852,-0.20157331859453959,0.125,0.05951779545544002,76,0.0028018951416015625,1.0002728352776644,1.0002728352776644,5606,-563.5919218756916,0.49999999999999994
74,1.0796663761138916,-540.3227943564541,4.205956779281196,-536.0859686419129,-545.4600546396267,0.375,0.151549015556437,0.1,0.0025835037231445312,0.05586671829223633,0.050318293,1.1213267,-537.3492638947592,-0.10436702609195839,-0.19264586359425423,0.375,0.061526278491020665,81,0.0027747154235839844,1.0002718572366858,1.0002718572366858,5687,-560.1429797551145,0.49999999999999994
75,1.1178388595581055,-542.4238522932392,6.630472858193136,-531.7755039889234,-548.6350781072647,0.375,0.18293361208132922,0.1,0.0027074813842773438,0.049234628677368164,0.050488442,0.70773613,-537.8567227346073,-0.10230373839335663,-0.2027047011721181,0.375,0.062081041680638695,93,0.003030061721801758,1.000273236770339,1.000273236770339,5780,-560.5312137253164,0.49999999999999994
76,1.060034990310669,-535.9480295024655,8.303456610162014,-527.1861846606511,-549.0163527305251,0.25,0.14995915234295965,0.1,0.0024688243865966797,0.04920196533203125,0.04948574,1.1875397,-537.6658534113931,-0.0919431151182532,-0.1722934191759756,0.25,0.062359551088838616,75,0.0027513504028320312,1.0002743654231645,1.0002743654231645,5855,-560.810428577227,0.49999999999999994
77,1.1091315746307373,-547.5806826206875,14.94299414438234,-535.7629207054474,-572.8306491246425,0.125,0.156771893663412,0.1,0.0025048255920410156,0.04972982406616211,0.049963966,0.8722342,-538.6573363323225,-0.10783082594652918,-0.22863870225787591,0.125,0.061700402891837335,89,0.003379344940185547,1.000271470992739,1.000271470992739,5944,-561.0080379316697,0.49999999999999994
78,1.0749621391296387,-535.6997566058776,4.195506800508864,-528.5195059315066,-539.1309730534788,0.25,0.14221847065598914,0.1,0.0024700164794921875,0.04934978485107422,0.05082133,1.0758008,-538.361578359678,-0.09519792152479178,-0.17113486035325914,0.25,0.06090521285803828,75,0.0032606124877929688,1.000271372541527,1.000271372541527,6019,-560.4180128241301,0.49999999999999994
79,1.198371171951294,-539.5420944994769,6.513896318043545,-535.3720473552615,-550.8146949937727,0.375,0.16855491526482175,0.1,0.002393484115600586,0.054550886154174805,0.04994236,0.6465098,-538.4796299736579,-0.0833247584108005,-0.18984969270797594,0.375,0.062443698053043575,95,0.0031936168670654297,1.0002755107530452,1.0002755107530452,6114,-556.7961777303739,0.49999999999999994
80,1.1230216026306152,-527.6507866917706,19.670487775136976,-494.84308489996636,-544.560115750106,0.375,0.15905502979265884,0.1,0.005138874053955078,0.04968571662902832,0.050369624,0.65780896,-537.3967456454692,-0.08367850188542617,-0.13117241521679257,0.375,0.06338674967922223,83,0.0029838085174560547,1.0002749645521625,1.0002749645521625,6197,-558.2921827567944,0.49999999999999994
81,1.1251957416534424,-543.8714042589882,6.057463061189612,-535.3802911051348,-550.4718803319886,0.375,0.1527671693671778,0.1,0.0025577545166015625,0.04765939712524414,0.050813254,0.73482877,-538.0442115068211,-0.12277639396789082,-0.20662707369498495,0.375,0.06374648508465101,83,0.0033729076385498047,1.0002733403975426,1.0002733403975426,6280,-564.3382642044331,0.49999999999999994
82,1.1157703399658203,-539.1896274623025,5.379075361458446,-534.1240819457208,-548.2492038957926,0.125,0.1498221929413856,0.1,0.002328634262084961,0.04712653160095215,0.05146033,0.89213544,-538.1587531023692,-0.08550144835728762,-0.18824469221405443,0.125,0.06121832868469412,77,0.002794504165649414,1.0002742013647226,1.0002742013647226,6357,-557.0484842159433,0.49999999999999994
83,1.0978057384490967,-536.2591865930133,2.5058360132163093,-532.2584044091694,-538.9733048979692,0.5,0.1375057100009999,0.1,0.029854774475097656,0.40303540229797363,0.05057176,0.8891547,-537.9687964514337,-0.1035441443156249,-0.17461571856983282,0.5,0.06210935447171517,72,0.016445398330688477,1.000269021999237,1.000269021999237,6429,-562.314141306339,0.49999999999999994
84,1.3343946933746338,-536.918296952362,7.21996294651627,-528.53419568861,-546.5094772306377,0.375,0.15561134805910057,0.1,0.0024785995483398438,0.04795050621032715,0.049943097,1.8422726,-537.8637465015265,-0.08595981504235463,-0.17565976420521995,0.375,0.0613202911274325,91,0.0029497146606445312,1.000275857032302,1.000275857032302,6520,-559.838506157667,0.49999999999999994
85,1.206209421157837,-537.414152168923,4.0104512618359465,-532.638976937335,-542.2827484702477,0.5,0.15301269385768873,0.1,0.03056812286376953,0.17932605743408203,0.049529396,0.74823403,-537.8187870682661,-0.10935188924987504,-0.17779638595416813,0.5,0.06059533577988414,82,0.002916574478149414,1.0002744610312175,1.0002744610312175,6602,-568.1557877031514,0.49999999999999994
86,1.0810439586639404,-538.5345803019558,8.59167833418397,-525.5763852828884,-547.2597422411833,0.25,0.14581819392967899,0.1,0.002323627471923828,0.04600024223327637,0.049400963,0.98880893,-537.8903663916351,-0.10854000741262401,-0.18537853693749512,0.25,0.060291874959727605,67,0.0028235912322998047,1.0002708888299885,1.0002708888299885,6669,-570.6683467956447,0.49999999999999994
87,1.262751579284668,-535.1639018402655,7.571633546182407,-527.3003144392195,-547.554451953727,0.5,0.17354027278444692,0.1,0.002351999282836914,0.04822540283203125,0.050292738,0.70569915,-537.6177199364981,-0.10045171486876418,-0.16704597861513448,0.5,0.06225257460604524,83,0.002926349639892578,1.0002752789202924,1.0002752789202924,6752,-570.2637594911745,0.49999999999999994
88,1.2655978202819824,-537.1455095452744,5.074043147531009,-530.4015651425893,-544.4927444459454,0.375,0.14744736847136913,0.1,0.0026788711547851562,0.04845118522644043,0.049256843,1.0327033,-537.5704988973757,-0.09190318853211829,-0.17849703381249427,0.375,0.06269555182114443,79,0.004399299621582031,1.0002732066873141,1.0002732066873141,6831,-568.1793318383078,0.49999999999999994
89,1.1430795192718506,-542.1685083098464,7.26326866752527,-534.3003709325183,-553.2736855119912,0.5,0.1527875399691558,0.1,0.003162384033203125,0.05349874496459961,0.050470196,0.91064817,-538.0302998386228,-0.1092570183263497,-0.19968994802404394,0.5,0.06253284025190176,95,0.003875255584716797,1.0002737059476323,1.0002737059476323,6926,-569.023246345119,0.49999999999999994
90,1.0584304332733154,-541.4331674568771,1.616640957552386,-540.2317877129955,-544.1784427571239,0.125,0.13928240013073967,0.1,0.007914304733276367,0.04976224899291992,0.049981885,0.822557,-538.3705866004483,-0.10492869374755609,-0.1987329434247365,0.125,0.062059242298636304,72,0.016223669052124023,1.0002739879215403,1.0002739879215403,6998,-559.9833207407647,0.49999999999999994
91,1.1000685691833496,-534.345945154379,5.652849140622687,-524.9482168333092,-539.0756305575221,0.375,0.1473214546975538,0.1,0.03074479103088379,0.14351367950439453,0.05013712,0.8465086,-537.9681224558414,-0.10942207658314432,-0.16372530407846703,0.375,0.06178797558540874,73,0.003123044967651367,1.0002704384405627,1.0002704384405627,7071,-556.5831023478114,0.49999999999999994
92,1.1211562156677246,-537.3189689543447,15.738434486519608,-512.8163956074543,-555.4888116887307,0.375,0.19234104560346582,0.1,0.033226728439331055,0.16892170906066895,0.049362265,0.64749897,-537.9032071056916,-0.08432743369730805,-0.17885664717249927,0.375,0.06003586783357526,92,0.0031938552856445312,1.0002728278918283,1.0002728278918283,7163,-556.7185834336644,0.49999999999999994
93,1.0930945873260498,-540.8466699552328,5.451082141492953,-535.2554014487248,-549.8624328006368,0.375,0.15800397817380774,0.1,0.002448558807373047,0.04748225212097168,0.050371647,0.7860025,-538.1975533906458,-0.0871725090546994,-0.19769271304006542,0.375,0.06068572855593642,80,0.0032176971435546875,1.0002723377939435,1.0002723377939435,7243,-556.7607520440051,0.49999999999999994
94,1.1239042282104492,-539.2985319327462,1.782268190595751,-536.8645191021094,-541.8757284723742,0.375,0.14092230101943554,0.1,0.006307125091552734,0.046936988830566406,0.050563216,1.1593403,-538.3076512448558,-0.10724383778958971,-0.18906624018664114,0.375,0.060709300376725304,75,0.0035872459411621094,1.0002725453440577,1.0002725453440577,7318,-553.5805446918531,0.49999999999999994
95,1.1241390705108643,-534.7898337198178,3.6405889835144842,-531.3268379073764,-540.4517179842916,0.375,0.1466198947628205,0.1,0.0024275779724121094,0.04792451858520508,0.050747093,1.0481802,-537.955869492352,-0.11283485018765099,-0.16438603426833154,0.375,0.062102326303381895,75,0.0029497146606445312,1.000273940572956,1.000273940572956,7393,-557.49964349558,0.49999999999999994
96,1.103264331817627,-537.2082206781272,3.556932080001437,-533.5928411353651,-542.503735366938,0.25,0.15271617658690234,0.1,0.002460002899169922,0.04712176322937012,0.04979962,0.7927745,-537.8811046109295,-0.09704673284949748,-0.17669409129299216,0.25,0.059366581710690834,80,0.0028939247131347656,1.0002737698754933,1.0002737698754933,7473,-563.9697180068546,0.49999999999999994
97,1.0794527530670166,-543.6511133980521,7.8498835132390425,-530.3318413482658,-549.5109201778515,0.125,0.14530360065101317,0.1,0.0022690296173095703,0.04625988006591797,0.05027838,0.7552426,-538.4581054896418,-0.10926369181815244,-0.2099738312631671,0.125,0.06092332925776017,74,0.002813577651977539,1.000270690087287,1.000270690087287,7547,-559.1700082195034,0.49999999999999994
98,1.079451084136963,-541.6701009706602,10.12428842688298,-530.4147583871332,-552.8685841423454,0.25,0.1477364791845932,0.1,0.03174233436584473,0.15208721160888672,0.049199067,0.9241128,-538.7793050377436,-0.12675965674536496,-0.19854261792118205,0.25,0.06060604815442493,73,0.0030393600463867188,1.000272352243985,1.000272352243985,7620,-568.2054881069831,0.49999999999999994
99,1.1138038635253906,-535.8003242771515,7.396715187328927,-524.1406479945169,-544.6867529981878,0.375,0.15462371008931966,0.1,0.002317667007446289,0.04841303825378418,0.049864832,0.9690858,-538.4814069616845,-0.08735615466540766,-0.17164049316823593,0.375,0.06206681397895253,77,0.0028228759765625,1.0002732577679163,1.0002732577679163,7697,-560.1248899031633,0.49999999999999994
100,1.0972037315368652,-535.027030404741,6.33440608978145,-525.845370821677,-543.6461505967885,0.375,0.14282256595298648,0.1,0.0024628639221191406,0.04886317253112793,0.049153097,1.0534532,-538.1359693059901,-0.0920242889292604,-0.16663411479275617,0.375,0.06080571618358289,80,0.002999544143676758,1.0002734993024032,1.0002734993024032,7777,-567.2696345324701,0.49999999999999994
101,1.1099412441253662,-532.2365546739,1.7263942293067203,-530.8074120044356,-535.0989605380944,0.5,0.17339820902617048,0.1,0.00240325927734375,0.04722881317138672,0.050540935,0.5975765,-537.5460278427811,-0.08950914877910542,-0.15470935224836208,0.5,0.0616282113685791,80,0.003294229507446289,1.0002725417330163,1.0002725417330163,7857,-564.8712099959388,0.49999999999999994
102,1.1122231483459473,-539.7174319753987,3.9474559863439977,-536.5701582927394,-546.4465084174291,0.5,0.16728791635653198,0.1,0.0028371810913085938,0.049694061279296875,0.051002514,0.7281904,-537.7631682560428,-0.10701831859631464,-0.18868628230049805,0.5,0.06022089844942055,90,0.0030226707458496094,1.0002726065695282,1.0002726065695282,7947,-569.0928401644828,0.49999999999999994
103,1.1003262996673584,-543.2647668721461,6.9284554316859985,-536.3812862892432,-554.6752637230497,0.25,0.15739591049530297,0.1,0.03038620948791504,0.11816620826721191,0.05080628,0.7479736,-538.3133281176531,-0.10202860301018835,-0.20799613173424705,0.25,0.06218221262097909,87,0.0028336048126220703,1.0002729393035774,1.0002729393035774,8034,-566.5670152179683,0.49999999999999994
104,1.184859037399292,-538.2378212241284,10.179769722474465,-527.7096941534644,-550.5376577576626,0.375,0.15094174161327695,0.1,0.002408266067504883,0.04742908477783203,0.04992913,0.7898986,-538.3057774283006,-0.11205904681657233,-0.18374051415605822,0.375,0.0611034857081284,80,0.002641439437866211,1.0002724773428053,1.0002724773428053,8114,-561.2403467054264,0.49999999999999994
105,1.0589096546173096,-531.881600445739,11.20435395874024,-520.3329059283915,-549.4469443214984,0.375,0.160456344361328,0.1,0.0026788711547851562,0.0504307746887207,0.050352328,1.0739888,-537.6633597300445,-0.08213488689788101,-0.15304499235602592,0.375,0.061834381101168304,83,0.0033445358276367188,1.0002742733122134,1.0002742733122134,8197,-558.0575808430698,0.49999999999999994
106,1.0644001960754395,-534.7457637205874,4.346772944190847,-528.7892045022692,-540.4189042478882,0.25,0.14969378083683552,0.1,0.002409219741821289,0.04632306098937988,0.049489032,1.6698997,-537.3716001290987,-0.09292469286597593,-0.1654183159008471,0.25,0.06241370428303397,75,0.002956390380859375,1.0002729042885201,1.0002729042885201,8272,-559.157058529262,0.49999999999999994
107,1.0885100364685059,-540.9615943134081,5.402110802191934,-534.4266392711165,-549.3567214621343,0.375,0.16091925844251023,0.1,0.002409696578979492,0.05197405815124512,0.050429028,0.8008878,-537.7305995475297,-0.08784164658697295,-0.19647811367671714,0.375,0.06409814389204305,87,0.003760814666748047,1.0002744297133674,1.0002744297133674,8359,-559.917484823318,0.49999999999999994
108,1.074160099029541,-536.6076046610083,7.71197632207721,-530.0950469843403,-549.740958893076,0.375,0.15735645231240425,0.1,0.019124269485473633,0.0477597713470459,0.04992534,0.76107645,-537.6183000588775,-0.10422278915384112,-0.17453849141158356,0.375,0.06219645104320765,76,0.016474008560180664,1.0002697715493998,1.0002697715493998,8435,-557.7762201099177,0.49999999999999994
109,1.0646145343780518,-536.6566556178897,9.947278379657066,-523.6383102632398,-550.4189138861603,0.5,0.1428501006459957,0.1,0.021286964416503906,0.047614097595214844,0.0502605,1.2478374,-537.5221356147787,-0.10643907125014959,-0.17584891871144523,0.5,0.06174176277895217,75,0.0028913021087646484,1.000272552656301,1.000272552656301,8510,-556.2021625149624,0.49999999999999994
110,1.5356645584106445,-529.5533555788038,9.155893665828371,-520.1041400309647,-541.4566132465945,0.5,0.1523250193384594,0.1,0.0023996829986572266,0.04658842086791992,0.050333343,0.887496,-536.7252576111812,-0.08155478619391375,-0.14010738388032312,0.5,0.06133790041915201,86,0.005095720291137695,1.0002724185457,1.0002724185457,8596,-561.5884826214532,0.49999999999999994
111,1.269636631011963,-537.1777945573327,6.677651476386303,-526.937151497616,-544.1607882928587,0.375,0.1527331118759341,0.1,0.002463102340698242,0.04666709899902344,0.050076574,0.79927266,-536.7705113057964,-0.09236792011458418,-0.17703699561711506,0.375,0.060871790969376345,86,0.0032308101654052734,1.000273861244461,1.000273861244461,8682,-558.758270519024,0.49999999999999994
112,1.0918490886688232,-533.0735321718819,2.094540888354042,-530.8065854306468,-535.3730634397457,0.5,0.1375178673107124,0.1,0.002477884292602539,0.04706215858459473,0.05024497,1.2465849,-536.400813392405,-0.10532558833327993,-0.15618719038978868,0.5,0.060772347951484326,78,0.0030553340911865234,1.0002729672444501,1.0002729672444501,8760,-560.2213423365978,0.49999999999999994
113,1.1727361679077148,-532.9146354939695,11.285964262054241,-514.3894534937626,-544.8470687608801,0.5,0.1608684257082234,0.1,0.002396106719970703,0.04656696319580078,0.04934168,0.6907169,-536.0521956025614,-0.08738250328367647,-0.157322309998623,0.5,0.061542827255965604,82,0.0030829906463623047,1.000272520687252,1.000272520687252,8842,-565.7690655141304,0.49999999999999994
114,1.0714976787567139,-534.5953341275869,7.61863940343964,-523.0933061317847,-543.3365459427508,0.375,0.14921835983691042,0.1,0.033560991287231445,0.16400837898254395,0.04938402,0.90095,-535.906509455064,-0.09771453863744833,-0.16392408049280052,0.375,0.06251781199626448,78,0.0029761791229248047,1.0002741902101706,1.0002741902101706,8920,-563.7538000658262,0.49999999999999994
115,1.0906696319580078,-532.367436162662,4.22243531317999,-527.1389390913648,-537.3819452169558,0.5,0.1531190666257337,0.1,0.030138731002807617,0.3718719482421875,0.04964407,0.83986694,-535.5526021258238,-0.09401170085262323,-0.15384531425028147,0.5,0.0638201019755561,81,0.003459453582763672,1.0002751214405592,1.0002751214405592,9001,-562.9920224591975,0.49999999999999994
116,1.1187858581542969,-539.5833644097178,12.556434614120166,-526.6477436105511,-555.420430762493,0.25,0.14760988527407554,0.1,0.0023851394653320312,0.05078434944152832,0.0499897,0.89835024,-535.9556783542132,-0.1000614510496653,-0.18798725648078005,0.25,0.06184990910605377,85,0.0032012462615966797,1.0002727971033343,1.0002727971033343,9086,-566.5633871431218,0.49999999999999994
117,1.105649471282959,-533.8294834953371,5.330140112592081,-527.0798752008604,-541.8758004854379,0.5,0.14044675142688237,0.1,0.0024292469024658203,0.04714608192443848,0.05026038,0.888522,-535.7430588683255,-0.10954544979342373,-0.15951378406651315,0.5,0.060753693003383555,75,0.003032684326171875,1.0002724824005231,1.0002724824005231,9161,-567.1929450324841,0.49999999999999994
118,1.1605613231658936,-541.8674185954699,8.901680911985235,-532.2733255069529,-556.3577531510543,0.5,0.1636664327829651,0.1,0.03192877769470215,0.04931378364562988,0.04907063,0.78311014,-536.35549484104,-0.1070262043771504,-0.19880023252523343,0.5,0.063809277802644,97,0.003203868865966797,1.0002707026895863,1.0002707026895863,9258,-566.6571991643299,0.49999999999999994
119,1.1087560653686523,-534.8890651838025,5.402290853126403,-526.2959677557021,-541.0085622626284,0.375,0.15392499302771598,0.1,0.00232696533203125,0.04556155204772949,0.049117204,0.70945215,-536.2088518753162,-0.09544498881702246,-0.16716860465544536,0.375,0.06136499493678109,74,0.0034093856811523438,1.000272273616335,1.000272273616335,9332,-564.4598473962999,0.49999999999999994
120,1.1428086757659912,-532.5345853191834,9.907001430195967,-522.9919407613158,-549.0536256515873,0.5,0.1404959782091832,0.1,0.025393009185791016,0.04857516288757324,0.04987145,1.0599393,-535.841425219703,-0.11468122576861,-0.15355027656892106,0.5,0.06056135832551443,77,0.00257110595703125,1.0002730436355092,1.0002730436355092,9409,-568.7827126227282,0.49999999999999994
121,1.1066570281982422,-536.9760680108907,2.495294713289958,-533.315100065641,-539.4754195303474,0.25,0.1512460933429193,0.1,0.0023114681243896484,0.04675459861755371,0.04972135,1.0316172,-535.9548894988217,-0.09968679696932552,-0.1767935269613867,0.25,0.06228001769061338,74,0.003021240234375,1.0002738297154514,1.0002738297154514,9483,-561.4896499889911,0.49999999999999994
122,1.0510430335998535,-533.9978495884643,6.531176511332402,-523.4330222726579,-540.302890805573,0.375,0.15089138312657902,0.1,0.031229496002197266,0.35430407524108887,0.050435137,0.73320687,-535.7591855077859,-0.0928331435443823,-0.16205014271936585,0.375,0.06053086350044248,81,0.005116939544677734,1.000273073196634,1.000273073196634,9564,-567.5397834412563,0.49999999999999994
123,1.082810640335083,-547.0848159015561,5.940987286230199,-539.9374783468493,-555.1550707106561,0.25,0.16365608059332262,0.1,0.002549886703491211,0.05214500427246094,0.04966649,0.75494975,-536.8917485471629,-0.10613210767740897,-0.22631574298466048,0.25,0.062392650031539626,93,0.003186464309692383,1.0002732989067689,1.0002732989067689,9657,-566.4793174114708,0.49999999999999994
124,1.032956600189209,-533.9617034354982,4.730611578690536,-529.4750715339956,-541.8217994171205,0.5,0.15019935404129078,0.1,0.0024077892303466797,0.04697299003601074,0.051305182,0.8523487,-536.5987440359964,-0.10814227896675976,-0.16170100959900413,0.5,0.06180144209673924,82,0.002717733383178711,1.0002724466454505,1.0002724466454505,9739,-561.3690136825336,0.49999999999999994
125,1.0313689708709717,-539.3434096356732,4.516125828935077,-532.4823278995647,-545.1666612614634,0.125,0.1324858486783314,0.1,0.002369403839111328,0.05504560470581055,0.04912086,1.0705009,-536.8732105959641,-0.12627480656860834,-0.18819905754926425,0.125,0.06167924671577255,66,0.002986431121826172,1.0002707416800805,1.0002707416800805,9805,-561.0286663601986,0.49999999999999994
126,1.0739398002624512,-536.5179870087185,2.2839719165861645,-532.7790105224248,-538.9734624604879,0.5,0.14373897798537447,0.1,0.030602455139160156,0.17287182807922363,0.049162854,0.8077461,-536.8376882372396,-0.10357822953666841,-0.1740726136170857,0.5,0.06277292550193916,87,0.00590825080871582,1.0002741380010505,1.0002741380010505,9892,-565.1202518916729,0.49999999999999994
127,1.0985848903656006,-535.6849549962662,10.319653952476635,-518.0103052402742,-543.1051808742872,0.25,0.15433990121667746,0.1,0.0024871826171875,0.04763388633728027,0.05055633,0.8045887,-536.7224149131423,-0.10485461618444944,-0.16930617562450717,0.25,0.06102638713333909,76,0.0028548240661621094,1.0002730129426693,1.0002730129426693,9968,-561.9774123693551,0.49999999999999994
128,1.1158945560455322,-535.8557926097175,10.231730720227235,-521.6484066430326,-547.4104000327493,0.375,0.14650212921299813,0.1,0.0022950172424316406,0.05162668228149414,0.04959729,1.025527,-536.6357526827999,-0.11087458593301151,-0.16872949855619943,0.375,0.06237587606322968,78,0.00624847412109375,1.0002726247593847,1.0002726247593847,10046,-562.3381478785267,0.49999999999999994
129,1.1039142608642578,-539.0522609226341,5.309812044567806,-533.9344682180039,-547.9602129327291,0.5,0.15189260137203464,0.1,0.0023741722106933594,0.05110669136047363,0.049089357,0.9125449,-536.8774035067833,-0.12775556776113234,-0.1855599912881049,0.5,0.06349943597882207,79,0.00847172737121582,1.0002709407820913,1.0002709407820913,10125,-561.7769343067346,0.49999999999999994
130,1.0990681648254395,-532.3755000958764,10.621004220439564,-518.474725847403,-548.2219921670968,0.375,0.15141620692079724,0.1,0.0023505687713623047,0.048079729080200195,0.049977824,0.8066582,-536.4272131656926,-0.10154537408098219,-0.1541400485392349,0.375,0.061653429054328815,76,0.0029573440551757812,1.0002709868823338,1.0002709868823338,10201,-563.7225503844168,0.49999999999999994
131,1.0924644470214844,-534.3511617612145,4.065116405168114,-529.458717103977,-540.5461326576647,0.5,0.15253398230631474,0.1,0.0024623870849609375,0.04665040969848633,0.0502906,0.95997316,-536.2196080252448,-0.12061366195005492,-0.16287511558011175,0.5,0.06278934222259362,73,0.0029752254486083984,1.0002725697250847,1.0002725697250847,10274,-563.0273508870141,0.49999999999999994
132,1.1179530620574951,-537.3273733994635,9.12384459529252,-527.4181559450104,-547.2065134582609,0.375,0.15615170907184617,0.1,0.024979114532470703,0.04708671569824219,0.050005298,0.7037011,-536.3303845626667,-0.08066105008551491,-0.17947388788147975,0.375,0.06370076852629085,89,0.0027048587799072266,1.0002713839021886,1.0002713839021886,10363,-563.8513961510862,0.49999999999999994
133,1.1203224658966064,-532.3663038050834,3.2428200269931367,-527.3593789418413,-535.4021246815078,0.5,0.1545507561780569,0.1,0.0023407936096191406,0.04656195640563965,0.05007,0.81024694,-535.9339764869084,-0.1205761233765309,-0.1509554475503831,0.5,0.06062503925099236,76,0.002755403518676758,1.000270042495545,1.000270042495545,10439,-568.5054813431196,0.49999999999999994
134,1.1862945556640625,-539.8035186148403,5.2514056555944375,-532.6788142701835,-546.1760457903408,0.375,0.16541886047900337,0.1,0.002971172332763672,0.04781389236450195,0.049461275,0.9065495,-536.3209306997015,-0.08598853859096861,-0.1901489303862332,0.375,0.06508568618965692,90,0.003153085708618164,1.0002734761997305,1.0002734761997305,10529,-568.184688994361,0.49999999999999994
135,1.1125462055206299,-530.7307615807101,5.295697039938813,-524.4381106427167,-537.2883408065867,0.5,0.15949949213655967,0.1,0.010174751281738281,0.04635453224182129,0.049659215,0.81407785,-535.7619137878024,-0.0994029888595507,-0.14571406399021442,0.5,0.06251028692488994,80,0.0026695728302001953,1.0002708093830748,1.0002708093830748,10609,-563.4339468651,0.49999999999999994
136,1.1281988620758057,-537.4196476842648,3.794035378098192,-531.7446754228803,-541.5444621056553,0.0,0.14881795372920723,0.1,0.0330805778503418,0.10567641258239746,0.05050033,0.76844734,-535.9276871774487,-0.07777884395311543,-0.18126398745481292,0.0,0.06358735169692276,76,0.0028374195098876953,1.0002742009830734,1.0002742009830734,10685,-562.4319860553154,0.49999999999999994
137,1.1138687133789062,-535.4391469677458,6.3583333589806115,-529.4225562838043,-545.4815081726125,0.375,0.1576038480593019,0.1,0.0025458335876464844,0.05084967613220215,0.050744824,0.8027176,-535.8788331564784,-0.08320891822180584,-0.1693805470880448,0.375,0.06297603790208359,87,0.0027604103088378906,1.0002755782011774,1.0002755782011774,10772,-560.333143302241,0.49999999999999994
138,1.849609136581421,-534.6330467450343,14.678187321621698,-517.0879349288965,-557.3075330389041,0.5,0.16345988121771976,0.1,0.0024313926696777344,0.05137801170349121,0.050132938,0.7090395,-535.754254515334,-0.10035443627062125,-0.16367596481475616,0.5,0.06240707041367071,85,0.0028679370880126953,1.0002726689971309,1.0002726689971309,10857,-556.172097435511,0.49999999999999994
139,1.0660860538482666,-536.0957148665609,7.837252799293296,-529.1559336244345,-549.0898251895885,0.375,0.15836176836024288,0.1,0.002538442611694336,0.04805731773376465,0.050271023,0.71982545,-535.7884005504567,-0.0987655459246215,-0.17053230728977217,0.375,0.0620668041682996,80,0.0028755664825439453,1.0002733299287325,1.0002733299287325,10937,-559.3126620629182,0.49999999999999994
140,1.0669631958007812,-540.4718771040426,3.5578406520083172,-536.5795169165827,-546.2529217636595,0.25,0.1395260087646306,0.1,0.0025784969329833984,0.049653053283691406,0.050381467,1.3106182,-536.2567482058153,-0.10313954708822973,-0.19248923449101923,0.25,0.06287762377324871,83,0.0028858184814453125,1.0002708535681104,1.0002708535681104,11020,-561.1620918634275,0.49999999999999994
141,1.0962622165679932,-537.4520305765149,16.418465060398088,-525.6299379635972,-565.7767139719194,0.5,0.16403058039924237,0.1,0.002501249313354492,0.0491023063659668,0.049503908,0.72845477,-536.3762764428852,-0.07596894725316397,-0.18055540631240447,0.5,0.06298756245070015,91,0.0030562877655029297,1.0002734040432826,1.0002734040432826,11111,-557.8762168025664,0.49999999999999994
142,1.0357306003570557,-536.5668247430735,6.695334787133862,-529.7204406784589,-547.5809086616732,0.5,0.15720494550487643,0.1,0.0023043155670166016,0.045809030532836914,0.04901035,0.81330055,-536.3953312729041,-0.1220012418521638,-0.17419938419851905,0.5,0.062094483314629696,71,0.002550363540649414,1.000271527511745,1.000271527511745,11182,-558.1044211408523,0.49999999999999994
143,1.0477914810180664,-536.5464581347228,5.571237651385862,-531.271359860133,-545.8466363476304,0.5,0.15162399830081577,0.1,0.002304553985595703,0.047620534896850586,0.049512852,0.9694145,-536.4104439590859,-0.10930266200765212,-0.17274825667002516,0.5,0.06444111620932759,82,0.003039836883544922,1.0002749920561145,1.0002749920561145,11264,-562.1324047288916,0.49999999999999994
144,1.1024699211120605,-538.8660144749272,8.645537367243533,-532.3745354717869,-553.6444117170988,0.5,0.15755994336439422,0.1,0.02990865707397461,0.05195879936218262,0.050175395,1.1165309,-536.65600101067,-0.10186656934956019,-0.1846228560178922,0.5,0.06463977796064321,88,0.0028586387634277344,1.0002713890208779,1.0002713890208779,11352,-553.8356440166575,0.49999999999999994
145,1.0810797214508057,-536.6177049112434,5.385085506924131,-527.7607550513848,-542.3264145918124,0.375,0.15868154127145936,0.1,0.00657963752746582,0.048957109451293945,0.049071927,0.91941607,-536.6521714007274,-0.0997669210718665,-0.17483177074173634,0.375,0.06234419405780153,80,0.0033385753631591797,1.0002705029195162,1.0002705029195162,11432,-556.6762975281326,0.49999999999999994
146,1.0893263816833496,-536.0113457556658,6.179973889451059,-527.8833292693497,-544.9134287879576,0.375,0.13004733298633872,0.1,0.002440214157104492,0.048790931701660156,0.051379334,1.3251977,-536.5880888362212,-0.10815370322023074,-0.17151668155786418,0.375,0.06384261257256664,73,0.0027468204498291016,1.0002723734028807,1.0002723734028807,11505,-555.0533903789386,0.49999999999999994
147,1.1355407238006592,-537.8416338235606,8.295052968379812,-526.7642720714587,-546.8709879207354,0.375,0.14843631526568543,0.1,0.0023794174194335938,0.04701542854309082,0.050028052,1.094537,-536.7134433349552,-0.12110240777756007,-0.17957911816160832,0.375,0.064540905905653,75,0.002837657928466797,1.0002697344044562,1.0002697344044562,11580,-553.092783281926,0.49999999999999994
148,1.1240661144256592,-537.2073039911584,3.2722111375800886,-532.539778342087,-541.6209061126128,0.5,0.14231878824690058,0.1,0.002302408218383789,0.04582381248474121,0.04961571,0.96431106,-536.7628294005756,-0.12186447270472804,-0.176082867257742,0.5,0.06501530256607832,78,0.0034227371215820312,1.0002721412149338,1.0002721412149338,11658,-554.7781054201062,0.49999999999999994
149,1.1352829933166504,-540.2376856657509,5.961955140051529,-530.6629627184362,-545.7941363156161,0.375,0.15738589909806563,0.1,0.002387523651123047,0.04718756675720215,0.050406553,0.8363917,-537.1103150270931,-0.09456765188471651,-0.1918904600788202,0.375,0.062131666691700956,89,0.016953468322753906,1.0002734141358511,1.0002734141358511,11747,-553.3302868442001,0.49999999999999994
150,1.1697795391082764,-534.1216323597262,5.260256732980704,-527.6068941946033,-540.8506297350292,0.375,0.14745919326930418,0.1,0.0023450851440429688,0.046285390853881836,0.051395323,1.059954,-536.8114467603564,-0.11425963226148725,-0.16144656291644646,0.375,0.06291201686919314,72,0.003547191619873047,1.000270577703589,1.000270577703589,11819,-552.1871786572075,0.49999999999999994
151,1.081712007522583,-538.41036194854,4.136981807553375,-531.7461203516339,-543.1138663330092,0.25,0.13858156603168745,0.1,0.0024442672729492188,0.04585433006286621,0.05013628,1.4653746,-536.9713382791748,-0.10877023550316463,-0.18300950818190653,0.25,0.0627623543183128,73,0.0025887489318847656,1.0002729665479875,1.0002729665479875,11892,-555.2978898776533,0.49999999999999994
152,1.110706090927124,-537.4250462126463,6.005163791984594,-530.6155786274034,-547.0868146984798,0.25,0.15155543070211908,0.1,0.002327442169189453,0.04765748977661133,0.049215984,0.9224571,-537.016709072522,-0.09863607622088616,-0.1774479682894113,0.25,0.06433041362894022,81,0.0030832290649414062,1.00027382535742,1.00027382535742,11973,-560.1340084031507,0.49999999999999994
153,1.203540563583374,-540.2856348187586,6.139121571633698,-534.9881186533077,-550.0563567487254,0.25,0.16988857733572946,0.1,0.0023810863494873047,0.0461275577545166,0.05059101,0.79637825,-537.3436016471456,-0.10352600240954138,-0.1910948969089699,0.25,0.06440990430952517,80,0.002446889877319336,1.0002720100812585,1.0002720100812585,12053,-557.5286904268828,0.49999999999999994
154,1.0916097164154053,-537.9783408319151,1.27434877581251,-536.4664773607986,-539.4217414331065,0.375,0.14436065519308425,0.1,0.0025954246520996094,0.04784965515136719,0.050197218,0.76983833,-537.4070755656227,-0.11252593940679256,-0.18004908122081134,0.375,0.06257558232782068,73,0.0027229785919189453,1.0002721177842198,1.0002721177842198,12126,-558.0517472092818,0.49999999999999994
155,1.0971314907073975,-534.7351158176643,4.579237624356769,-527.2161445765014,-539.5918380926292,0.5,0.14198335347991312,0.1,0.002483367919921875,0.047551631927490234,0.049961347,1.0797393,-537.1398795908268,-0.10588454378051557,-0.16510907688421497,0.5,0.06323895902009188,70,0.0028312206268310547,1.0002732277197794,1.0002732277197794,12196,-557.3557536942031,0.49999999999999994
156,1.0920460224151611,-541.6378324714706,3.308929950592803,-539.1282252000542,-547.3203672336593,0.375,0.14577618728308142,0.1,0.002526521682739258,0.049919843673706055,0.04920221,0.8819129,-537.5896748788912,-0.11445324117017718,-0.19769707977995166,0.375,0.06371085377084937,79,0.0027818679809570312,1.0002737971891855,1.0002737971891855,12275,-556.6712100975309,0.49999999999999994
157,1.0600860118865967,-535.6966540205092,3.3800483936859487,-530.0886144082592,-538.7997608614425,0.5,0.15068346905526295,0.1,0.0025644302368164062,0.048935651779174805,0.04986489,0.87694746,-537.400372793053,-0.08902856314309907,-0.1693527165785877,0.5,0.06328328706163415,89,0.0029761791229248047,1.000275509591079,1.000275509591079,12364,-557.1109446507593,0.49999999999999994
158,1.0545058250427246,-532.2974296016853,2.2853973114387176,-529.007294903,-535.301365201738,0.5,0.13964522230048257,0.1,0.0025861263275146484,0.050604820251464844,0.04946374,1.268692,-536.8900784739162,-0.10984683684931934,-0.1539160823346507,0.5,0.06343085682500098,77,0.002754688262939453,1.000272246798887,1.000272246798887,12441,-560.7485802189079,0.49999999999999994
159,1.061769723892212,-533.5846970749107,11.069443297430206,-517.512882044167,-547.8495410041553,0.375,0.1610282358452089,0.1,0.026922225952148438,0.048829078674316406,0.05085939,0.96587765,-536.5595403340157,-0.10990872081570233,-0.15964648964649716,0.375,0.0642729945573342,78,0.0027713775634765625,1.000273459937546,1.000273459937546,12519,-556.7519217061822,0.49999999999999994
160,1.0681145191192627,-543.8147915932442,8.103967411864163,-534.3803894278539,-556.3106051613878,0.375,0.15768217642661916,0.1,0.002405881881713867,0.05097365379333496,0.05009373,1.0148633,-537.2850654599386,-0.11738055122848823,-0.20925160212229973,0.375,0.06454938020448452,84,0.0032155513763427734,1.000271553645398,1.000271553645398,12603,-553.5833597005924,0.49999999999999994
161,1.0673682689666748,-534.9840214040977,5.73750909832588,-527.1897573556957,-541.4385900630725,0.5,0.14854066342483851,0.1,0.00557255744934082,0.04861927032470703,0.050912593,0.81627595,-537.0549610543544,-0.10038472595670364,-0.16587983338024392,0.5,0.06389603142615133,74,0.0027472972869873047,1.000269054426823,1.000269054426823,12677,-554.0898041270376,0.49999999999999994
162,1.044830083847046,-534.7621569997975,2.9253218947793735,-531.9704991402539,-539.3342591879268,0.375,0.14130043204465453,0.1,0.0023674964904785156,0.04704451560974121,0.050285213,0.81055146,-536.8256806488987,-0.10999735582955253,-0.16576007163535622,0.375,0.06379341278617702,72,0.0029036998748779297,1.0002716518765429,1.0002716518765429,12749,-553.947904421661,0.49999999999999994
163,1.0543372631072998,-537.2830456880295,5.193053176835645,-531.0138884889811,-542.777761693872,0.375,0.16034845927087732,0.1,0.002304553985595703,0.047164201736450195,0.05045255,0.71956307,-536.8714171528118,-0.0947465420416169,-0.17877627275319083,0.375,0.06307562173293847,79,0.00281524658203125,1.0002733935369967,1.0002733935369967,12828,-553.0325000405935,0.49999999999999994
164,1.1895532608032227,-537.9363301524447,5.57982667683703,-531.5237685634604,-545.8455671115469,0.5,0.170193994622468,0.1,0.030544757843017578,0.15377020835876465,0.04948132,0.76860505,-536.9779084527751,-0.09432347365276396,-0.1811116590365715,0.5,0.06268439832194019,88,0.0030128955841064453,1.0002754075332483,1.0002754075332483,12916,-553.108767277255,0.49999999999999994
165,1.1199226379394531,-538.5631667311802,6.148766401508147,-533.3386876936901,-548.8822125830513,0.375,0.15664058326210684,0.1,0.032099246978759766,0.08123636245727539,0.049081016,1.100179,-537.1364342806156,-0.08537298271176369,-0.18400522760849763,0.375,0.06474154146713551,91,0.0027930736541748047,1.000274325522425,1.000274325522425,13007,-554.4269803311681,0.49999999999999994
166,1.1193222999572754,-533.0731094621648,5.733339807845718,-525.0337687174031,-540.121286375755,0.5,0.15148126229687875,0.1,0.0023725032806396484,0.04645895957946777,0.04940485,1.3418783,-536.7301017987705,-0.11167021157604354,-0.15531646497837992,0.5,0.0643297122989625,75,0.0031278133392333984,1.0002727323316933,1.0002727323316933,13082,-553.3410905920256,0.49999999999999994
167,1.0932319164276123,-534.8794839476896,2.434904784595505,-532.9482994330107,-539.0549072450889,0.375,0.16077085751878678,0.1,0.02376270294189453,0.050756216049194336,0.049250774,0.9302102,-536.5450400136624,-0.09165860044067682,-0.16615759650510303,0.375,0.06461996357526498,81,0.006626605987548828,1.0002756771800034,1.0002756771800034,13163,-550.7097912646749,0.49999999999999994
168,1.1966567039489746,-531.901064693326,1.6219006072930913,-530.4402884181088,-534.4774807180265,0.5,0.1408574637943576,0.1,0.002463817596435547,0.049280643463134766,0.049154427,1.163393,-536.0806424816288,-0.11201096595005491,-0.15248329419328355,0.5,0.06376570264701471,67,0.0029337406158447266,1.000268411089051,1.000268411089051,13230,-551.4107678370129,0.49999999999999994
169,1.1998729705810547,-528.6485809023234,4.518177727886035,-520.9466707702352,-532.5199161149525,0.5,0.14145315579863968,0.1,0.0023148059844970703,0.04677629470825195,0.049547996,1.0667627,-535.3374363236983,-0.10603301776502314,-0.1349356019697176,0.5,0.06415641099907292,74,0.0031375885009765625,1.0002707839894045,1.0002707839894045,13304,-553.5146188213694,0.49999999999999994
170,1.0750768184661865,-535.468009590401,4.807180748569368,-529.0843441702083,-541.2346708657602,0.5,0.15400913352404363,0.1,0.031015396118164062,0.20050859451293945,0.050070178,0.9929123,-535.3504936503685,-0.11021594017527085,-0.1697102671173512,0.5,0.06358118330978545,75,0.011887311935424805,1.0002730545916383,1.0002730545916383,13379,-553.1847560246168,0.49999999999999994
171,1.0914947986602783,-531.2773702927997,4.68324821836104,-523.7636905304718,-536.011287199111,0.5,0.15038281879719115,0.1,0.03176307678222656,0.3394904136657715,0.050742827,0.8079453,-534.9431813146117,-0.10876566416477498,-0.14724282726501003,0.5,0.06297039663805135,74,0.002924203872680664,1.0002690665159482,1.0002690665159482,13453,-552.1250937075903,0.49999999999999994
172,1.1795287132263184,-536.9774635099565,7.513285483173227,-529.0898997431085,-547.3663206694403,0.375,0.14185099216611882,0.1,0.0024063587188720703,0.047158241271972656,0.050083887,1.9185103,-535.1466095341461,-0.1151748575088627,-0.17595412140281264,0.375,0.06418311246784228,75,0.0030219554901123047,1.0002707496694034,1.0002707496694034,13528,-553.2447633430069,0.49999999999999994
173,1.104334831237793,-537.3196855462669,5.683385345463895,-528.9978889172908,-543.8689015406674,0.25,0.15690215343451114,0.1,0.002427339553833008,0.04826617240905762,0.049967866,0.97381085,-535.3639171353582,-0.11156842464371272,-0.1774245504655102,0.25,0.06417412300739167,75,0.0032813549041748047,1.0002712899610484,1.0002712899610484,13603,-549.8750418535429,0.49999999999999994
174,1.0946168899536133,-533.3722948811413,3.8091614381715546,-529.5253004286775,-539.5136445483906,0.25,0.14894563574223899,0.1,0.002434253692626953,0.046874046325683594,0.049324933,0.68628526,-535.1647549099365,-0.0857861420201478,-0.16078400840304088,0.25,0.06326983373095592,71,0.0033736228942871094,1.0002736390728149,1.0002736390728149,13674,-550.182161689295,0.49999999999999994
175,1.104752779006958,-535.55539644595,6.731473613075608,-526.8381262389063,-545.7563182345807,0.5,0.15617767803932156,0.1,0.0024263858795166016,0.05005168914794922,0.050101455,0.6426295,-535.2038190635378,-0.10138247808790095,-0.16889898830732678,0.5,0.06407625505000585,82,0.0029931068420410156,1.0002736573982645,1.0002736573982645,13756,-551.5589571086317,0.49999999999999994
176,1.1048808097839355,-536.8599534422078,2.509971015740693,-533.709161775268,-540.6881803877001,0.375,0.1526311352509023,0.1,0.002460956573486328,0.04746723175048828,0.049335208,1.3993152,-535.3694325014048,-0.11382312142307488,-0.17683011753497585,0.375,0.06467336953158849,76,0.0027480125427246094,1.0002729946225786,1.0002729946225786,13832,-547.9175517942688,0.49999999999999994
177,1.0964171886444092,-534.2241396046479,3.405097740211367,-530.8531537392425,-539.7935446744845,0.5,0.15082401688262564,0.1,0.03176712989807129,0.40386104583740234,0.051103458,0.84929466,-535.2549032117291,-0.11577640990490143,-0.16091865873213515,0.5,0.06466732601062533,75,0.0035774707794189453,1.0002734491541931,1.0002734491541931,13907,-549.1981093834082,0.49999999999999994
178,1.0823614597320557,-533.6485701544543,4.314489951193384,-527.9209305705009,-538.063864219105,0.375,0.13935714375168579,0.1,0.002456188201904297,0.04916191101074219,0.049810268,0.8757059,-535.0942699060016,-0.09253991692811857,-0.16187600313361006,0.375,0.06554789218963611,72,0.0026972293853759766,1.000271643743727,1.000271643743727,13979,-550.5981151780494,0.49999999999999994
179,1.133575677871704,-537.4527975950546,9.088836872604384,-529.2137682087409,-552.5982050388299,0.5,0.14636099755009777,0.1,0.002535581588745117,0.047876834869384766,0.050083067,0.8075944,-535.3301226749069,-0.1260229643703709,-0.17769618247702337,0.5,0.06408481087663281,78,0.0029449462890625,1.00027035089009,1.00027035089009,14057,-550.692585722717,0.49999999999999994
180,1.0922081470489502,-534.4056464482696,8.456156979411798,-521.525243271891,-544.9450024001891,0.375,0.138837145533108,0.1,0.008768081665039062,0.04905200004577637,0.051155012,0.98815405,-535.2376750522432,-0.1104992580482361,-0.1645364234253297,0.375,0.06481797050288896,67,0.00805974006652832,1.0002724079086727,1.0002724079086727,14124,-551.7746713068298,0.49999999999999994
181,1.0949139595031738,-533.3368746702362,3.4663759304954884,-529.5666703678443,-538.6254949274983,0.5,0.16893448952400356,0.1,0.032277584075927734,0.1618192195892334,0.050022546,0.8445001,-535.0475950140425,-0.0977780552309217,-0.15835744027088136,0.5,0.06471110264710667,84,0.0031375885009765625,1.0002699404092887,1.0002699404092887,14208,-551.9568276137603,0.49999999999999994
182,1.099473237991333,-534.1755450090492,3.409604638928145,-530.4684149205078,-539.716412797207,0.5,0.1475220262797296,0.1,0.00249481201171875,0.047278642654418945,0.04873027,0.926448,-534.9603900135431,-0.12012050750418363,-0.16269906741457396,0.5,0.06398991403996691,74,0.003020763397216797,1.0002712203453017,1.0002712203453017,14282,-552.8124680959905,0.49999999999999994
183,1.2352955341339111,-540.729423440464,10.038220072687581,-532.2763594921848,-557.3177293707226,0.5,0.15936969150850033,0.1,0.0025665760040283203,0.046483516693115234,0.050627306,1.5770231,-535.5372933562353,-0.11652852520332045,-0.19387297153156086,0.5,0.06564729647193358,82,0.002813100814819336,1.0002701750229712,1.0002701750229712,14364,-551.7026503202715,0.49999999999999994
184,1.1113159656524658,-534.000547773627,9.505379933596194,-520.8892902409905,-546.304182238621,0.375,0.15148878779154967,0.1,0.002363443374633789,0.049132585525512695,0.04895712,1.0359049,-535.3836187979745,-0.09402597766909,-0.1605318005018568,0.375,0.06520647918205671,76,0.0031342506408691406,1.000272823030967,1.000272823030967,14440,-551.5374761423595,0.49999999999999994
185,1.100792646408081,-537.6016244956091,7.639057079769851,-530.1680185600803,-549.8033283579203,0.5,0.1729846281990233,0.1,0.002427339553833008,0.05375194549560547,0.050239567,0.61317164,-535.6054193677379,-0.08677731920549464,-0.1788609115924584,0.5,0.06537453049721074,87,0.003442525863647461,1.000273771245524,1.000273771245524,14527,-550.2803401377913,0.49999999999999994
186,1.0898120403289795,-530.3568297763725,3.254201336639927,-527.5383850711547,-535.8844337858823,0.375,0.12900627818380409,0.1,0.002505779266357422,0.04874992370605469,0.049600404,1.1607513,-535.0805604086014,-0.12229102810774706,-0.1424259382117154,0.375,0.06475016152973312,63,0.002901792526245117,1.0002722419089316,1.0002722419089316,14590,-549.7784482197166,0.49999999999999994
187,1.1992871761322021,-539.0319900445465,4.246443301070512,-534.5610959034905,-544.8366726820014,0.5,0.15659623329717337,0.1,0.0157773494720459,0.049576759338378906,0.04891411,0.6873734,-535.4757033721959,-0.10654742131575601,-0.18548165607734907,0.5,0.06509965123831052,88,0.003162384033203125,1.0002720962726417,1.0002720962726417,14678,-550.1880886393084,0.49999999999999994
188,1.107856273651123,-534.2105638697104,6.987451257245199,-523.3326038612541,-542.3022185804055,0.5,0.1599121378554308,0.1,0.002386808395385742,0.04888725280761719,0.049855463,0.7281158,-535.3491894219474,-0.1003343195455458,-0.16402574569659187,0.5,0.06435098871448597,83,0.003220796585083008,1.0002734554510724,1.0002734554510724,14761,-550.0001292057709,0.49999999999999994
189,1.1143159866333008,-538.8383033812162,5.12233261033749,-531.2365332354736,-545.648165238761,0.25,0.1477866216137281,0.1,0.0025069713592529297,0.04792451858520508,0.05001875,1.4626487,-535.6981008178742,-0.10300467579931673,-0.18528121182978924,0.25,0.06489510983181013,80,0.0031616687774658203,1.000275222721933,1.000275222721933,14841,-550.0488915165784,0.49999999999999994
190,1.1124005317687988,-536.9886259996165,5.147141261124224,-529.3766942371152,-543.8923861517904,0.375,0.1401138363553621,0.1,0.03073263168334961,0.11889052391052246,0.04940777,1.109411,-535.8271533360485,-0.12747450493292908,-0.17396240676904723,0.375,0.06534403651482562,72,0.0027239322662353516,1.0002724287469758,1.0002724287469758,14913,-547.8957065658266,0.49999999999999994
191,1.1007153987884521,-536.6498915409113,2.9898573227367122,-533.1551505020893,-539.7637483636792,0.5,0.14554018580729572,0.1,0.0023136138916015625,0.04685616493225098,0.04926489,1.2082436,-535.9094271565348,-0.1347855026774986,-0.17433966270695284,0.5,0.06495794224646079,74,0.0026645660400390625,1.0002692443397267,1.0002692443397267,14987,-549.5229822767957,0.49999999999999994
192,1.1034338474273682,-539.6047698310035,7.775271197443265,-528.5548375064097,-548.5635662843204,0.25,0.1485832526776454,0.1,0.0023927688598632812,0.04636716842651367,0.049669236,1.093887,-536.2789614239816,-0.11205076037268576,-0.18759356504549513,0.25,0.06492094166177007,78,0.0028035640716552734,1.0002711456618292,1.0002711456618292,15065,-551.4029278430095,0.49999999999999994
193,1.0996131896972656,-534.20452157906,2.8921190925977522,-529.4644787942306,-537.2940000662321,0.5,0.16361852924579254,0.1,0.0024871826171875,0.046569108963012695,0.049188104,0.6645107,-536.0715174394895,-0.09305202953196927,-0.1632283138603994,0.5,0.06485734559469272,82,0.002893686294555664,1.000273164166262,1.000273164166262,15147,-556.1384896019562,0.49999999999999994
194,1.1091675758361816,-535.3647020848672,2.703514170754813,-531.0444850876573,-538.4082473155511,0.5,0.14771697904120268,0.1,0.03270673751831055,0.39925646781921387,0.049310632,0.6893014,-536.0008359040273,-0.12333305281707019,-0.16666973713610875,0.5,0.06505050810044796,73,0.016449451446533203,1.0002688313086832,1.0002688313086832,15220,-552.3380513544422,0.49999999999999994
195,1.1933929920196533,-536.3751838382353,3.6873242146809035,-530.3267627151099,-540.3187582272366,0.375,0.1688565868500521,0.1,0.002411365509033203,0.0493624210357666,0.050465055,1.2066008,-536.0382706974481,-0.08432540876419375,-0.17406772747935872,0.375,0.06530127381664314,85,0.003050088882446289,1.0002721161322796,1.0002721161322796,15305,-551.2909342128104,0.49999999999999994
196,1.1599102020263672,-545.6968631381176,19.629548314709776,-529.6754233589285,-579.2797902463677,0.5,0.16587068655748388,0.1,0.030656099319458008,0.25382137298583984,0.04984864,1.4873164,-537.004129941515,-0.10461860026495028,-0.21848253221563307,0.5,0.06658464819000857,94,0.0031685829162597656,1.0002711469283314,1.0002711469283314,15399,-550.9641557624357,0.49999999999999994
197,1.097640037536621,-531.4381113745682,5.195864473358442,-524.1839105774,-536.9439183881865,0.375,0.1465022116771045,0.1,0.002383708953857422,0.04758334159851074,0.050494958,0.8699406,-536.4475280848203,-0.08752723924201122,-0.1500447041609292,0.375,0.0657496628600169,73,0.003134012222290039,1.0002733311982128,1.0002733311982128,15472,-551.0658507965001,0.49999999999999994
198,1.3449597358703613,-540.0586165725264,6.187901110445649,-535.7230727424765,-550.7097588404052,0.5,0.1720302496492829,0.1,0.0023598670959472656,0.048166513442993164,0.050981414,0.7269585,-536.808636933591,-0.1002361842141307,-0.1900713780497366,0.5,0.06528369272226794,94,0.0027625560760498047,1.000272944780808,1.000272944780808,15566,-550.8794835770744,0.49999999999999994
199,1.0903711318969727,-537.1644707908196,3.9757893956310197,-534.2913293147213,-544.005837034204,0.5,0.15399138719060104,0.1,0.030432701110839844,0.2531888484954834,0.050086234,0.8289965,-536.8442203193139,-0.11229515609914924,-0.1772611967350201,0.5,0.06409860455017283,77,0.0037212371826171875,1.0002713212587828,1.0002713212587828,15643,-550.8099071073447,0.49999999999999994
200,1.0730292797088623,-535.9664537118872,6.927346936734678,-528.1485396434393,-546.1773228902572,0.25,0.15937735951612136,0.1,0.0024614334106445312,0.04823493957519531,0.049373746,1.0096036,-536.7564436585712,-0.09100716672416159,-0.17238102735753674,0.25,0.06625573820857256,83,0.002783060073852539,1.0002711932483155,1.0002711932483155,15726,-550.0486999227666,0.49999999999999994
201,1.0811421871185303,-536.1564655472145,6.673519606757459,-528.5284957915918,-544.6853636916346,0.375,0.16226339236538978,0.1,0.0026941299438476562,0.0481719970703125,0.049735602,0.78529394,-536.6964458474356,-0.08986621523710989,-0.1732408835531007,0.375,0.06565859755555853,86,0.0031061172485351562,1.0002720873035034,1.0002720873035034,15812,-551.7566566358804,0.49999999999999994
202,1.0790748596191406,-539.8564001221365,10.160530824926216,-527.9162411493909,-552.0716375298181,0.5,0.15283188013765706,0.1,0.0023145675659179688,0.050348758697509766,0.050282653,0.7974676,-537.0124412749058,-0.11683551735220207,-0.1887100140755341,0.5,0.06487480707766698,82,0.0031452178955078125,1.0002716704424914,1.0002716704424914,15894,-550.9555148501158,0.49999999999999994
203,1.0790932178497314,-536.037297012565,6.4083965499239826,-529.1671023407727,-544.223716282218,0.375,0.1564034081133596,0.1,0.0023872852325439453,0.047203779220581055,0.049653046,0.99001926,-536.9149268486717,-0.10514224328695555,-0.17314969779337794,0.375,0.066089719798988,76,0.003108978271484375,1.000272701899239,1.000272701899239,15970,-546.7021320371167,0.49999999999999994
204,1.1595978736877441,-533.0563224849171,6.303009459611282,-523.6506626574352,-540.3576876587666,0.5,0.15550185143252881,0.1,0.002330780029296875,0.04605221748352051,0.049341492,1.1564533,-536.5290664122963,-0.09279513744423894,-0.15866232954125972,0.5,0.06399840452694353,76,0.0027484893798828125,1.0002700675651746,1.0002700675651746,16046,-551.6349317439251,0.49999999999999994
205,1.0841429233551025,-534.1907585851177,5.275163610959363,-525.682379858614,-539.5978490516629,0.25,0.14268422363731162,0.1,0.03057694435119629,0.11031675338745117,0.049050234,1.9034879,-536.2952356295784,-0.09678104793930038,-0.16366274383669108,0.25,0.06425204347791989,75,0.0033533573150634766,1.0002727483902618,1.0002727483902618,16121,-553.2829237014101,0.49999999999999994
206,1.0811350345611572,-539.666164472628,2.6265583170270914,-536.2916839087195,-543.5791631189375,0.375,0.15929869559878268,0.1,0.02907729148864746,0.27092838287353516,0.050285973,0.813662,-536.6323285138834,-0.10915539716836639,-0.18987105918715058,0.375,0.06608972362764876,83,0.0032677650451660156,1.0002699232764423,1.0002699232764423,16204,-553.6074003819922,0.49999999999999994
207,1.0792949199676514,-530.5487919153609,3.1424794399824316,-527.3802365211695,-535.6046261321898,0.5,0.1396970360645895,0.1,0.002325773239135742,0.045578956604003906,0.049672075,1.112636,-536.0239748540312,-0.10741564936246642,-0.14481094372049913,0.5,0.06415469737746976,70,0.003409147262573242,1.0002716861574388,1.0002716861574388,16274,-552.1615457976568,0.49999999999999994
208,1.1116299629211426,-535.550658007544,4.310960888277649,-529.9822314151518,-541.0034382920746,0.375,0.16116756905001817,0.1,0.029984474182128906,0.10360479354858398,0.05005027,0.9020413,-535.9766431693824,-0.09039389748488072,-0.16952317997743052,0.375,0.0639227235070475,80,0.003440380096435547,1.0002731693717548,1.0002731693717548,16354,-551.8746347613958,0.49999999999999994
209,1.0951910018920898,-541.0027627998472,14.46884890749957,-523.4987615183124,-561.3302353492629,0.375,0.1441736379150979,0.1,0.0024344921112060547,0.05016613006591797,0.048490837,1.0834744,-536.479255132429,-0.12072053790251984,-0.1944654129542172,0.375,0.06657706317438711,82,0.0030853748321533203,1.000269506332267,1.000269506332267,16436,-555.3879022855022,0.49999999999999994
210,1.0491719245910645,-539.2176142603273,7.725871784401335,-530.0615411423969,-547.5801221657481,0.25,0.1450466543285626,0.1,0.03056645393371582,0.07110714912414551,0.049631786,1.3989747,-536.7530910452188,-0.1314978233778153,-0.1861030324958179,0.25,0.0649066518610292,68,0.0029976367950439453,1.000271120262592,1.000271120262592,16504,-559.6068272609795,0.49999999999999994
211,1.090144395828247,-539.3356975952125,7.112256635049327,-532.4519227127726,-551.1078968352721,0.25,0.14466642341618044,0.1,0.002407550811767578,0.05219316482543945,0.050124686,1.0729017,-537.0113517002181,-0.11471769147724165,-0.18720918913841855,0.25,0.06418422665137717,73,0.0028862953186035156,1.0002689497017718,1.0002689497017718,16577,-555.242209739721,0.49999999999999994
212,1.0739541053771973,-537.2235952927251,3.3609962391708352,-532.1146802767737,-541.3982915448504,0.5,0.1396655680474861,0.1,0.0308377742767334,0.06107068061828613,0.050279733,1.1533854,-537.0325760594689,-0.11559263501819073,-0.17722349625474235,0.5,0.06392556419363869,74,0.002855539321899414,1.0002701950219401,1.0002701950219401,16651,-557.0110397321249,0.49999999999999994
213,1.1747021675109863,-533.147972398098,2.482418928158762,-530.2610203482157,-537.0505260767019,0.5,0.1476277474654082,0.1,0.0024178028106689453,0.052301883697509766,0.049364742,1.5302683,-536.6441156933317,-0.11313537267988782,-0.15629086723836716,0.5,0.06537017049568628,72,0.0032265186309814453,1.0002725424789662,1.0002725424789662,16723,-554.9634571649852,0.49999999999999994
214,1.0817863941192627,-534.4444712580068,5.955133660454709,-525.6970017872732,-540.6271206625088,0.25,0.1440536174606043,0.1,0.031415700912475586,0.22771501541137695,0.049555145,1.2564824,-536.4241512497993,-0.09772941428387431,-0.16479411664424803,0.25,0.06615775878268224,74,0.003142833709716797,1.0002745357375102,1.0002745357375102,16797,-555.796050466371,0.49999999999999994
215,1.1255347728729248,-534.8983629091083,9.460737832442529,-524.9417102654883,-544.6235175370367,0.375,0.15214846029168305,0.1,0.0023376941680908203,0.0479741096496582,0.049333267,1.7417749,-536.2715724157301,-0.10393056187214843,-0.16594577244487757,0.375,0.06440864060917664,80,0.005526304244995117,1.0002724411007797,1.0002724411007797,16877,-557.6995780295493,0.49999999999999994
216,1.100372552871704,-538.8624353091838,1.4683277862593056,-536.9389780678192,-540.9742046305956,0.375,0.14537986039962134,0.1,0.0033042430877685547,0.04667210578918457,0.0498346,0.9992082,-536.5306587050756,-0.1002212337466235,-0.18684763124817466,0.375,0.0648805692491154,78,0.003375530242919922,1.0002730984700345,1.0002730984700345,16955,-559.1484204908562,0.49999999999999994
217,1.1468045711517334,-538.4399030034028,3.078292512562035,-534.4775193812827,-542.9339556763146,0.375,0.14673384699214417,0.1,0.0026903152465820312,0.04740333557128906,0.04850778,1.2064561,-536.7215831349083,-0.11621406877083545,-0.1823773078669831,0.375,0.06621772552452442,75,0.0025877952575683594,1.0002725392953815,1.0002725392953815,17030,-558.4917323563743,0.49999999999999994
218,1.0834112167358398,-534.2908061929359,2.1762729301515904,-531.6424213244483,-537.5015600420622,0.5,0.1503315027347449,0.1,0.0328364372253418,0.134199857711792,0.049245607,0.8741541,-536.4785054407112,-0.09304145368856309,-0.1641817679764595,0.5,0.06477299376808342,78,0.0026946067810058594,1.0002713914992776,1.0002713914992776,17108,-560.665763630352,0.49999999999999994
219,1.0712463855743408,-536.5552608277776,3.220881600473202,-532.4247438490393,-540.8978595609652,0.5,0.14782869631678913,0.1,0.002414226531982422,0.047429561614990234,0.05029004,0.92263806,-536.4861809794178,-0.10262691863384762,-0.17397962721864502,0.5,0.06505626847992077,78,0.003040790557861328,1.0002717359593356,1.0002717359593356,17186,-560.9204409463937,0.49999999999999994
220,1.0936453342437744,-528.6953527944288,7.846360184705138,-516.0878914028511,-537.6126131103198,0.5,0.1491333003686871,0.1,0.0023543834686279297,0.048038482666015625,0.049655695,0.89711297,-535.7070981609189,-0.0722697776898936,-0.13609816307332845,0.5,0.06471524675261586,82,0.016224145889282227,1.0002758458085512,1.0002758458085512,17268,-558.4253121641565,0.49999999999999994
221,1.0897278785705566,-530.9817011585478,6.43734892127715,-527.1033571919008,-542.1282830005824,0.25,0.14912997123269617,0.1,0.002496957778930664,0.047476768493652344,0.04982986,1.2191874,-535.2345584606818,-0.08759653823873413,-0.1474909579666448,0.25,0.06610362736228331,72,0.003065824508666992,1.0002735601089876,1.0002735601089876,17340,-557.2566836523198,0.49999999999999994
222,1.0898663997650146,-535.424634996849,6.744263800418113,-525.5589138808443,-544.2768692930806,0.375,0.15148812470731537,0.1,0.025182247161865234,0.05068397521972656,0.050248653,1.002097,-535.2535661142986,-0.11305251641070216,-0.16758913632540565,0.375,0.06594180907118166,77,0.0029120445251464844,1.0002726464307805,1.0002726464307805,17417,-558.1084034914708,0.49999999999999994
223,1.1244266033172607,-535.5000280237109,6.825661308510992,-529.6862549577975,-546.6856283487211,0.5,0.15433684216182605,0.1,0.002315521240234375,0.052924156188964844,0.050316602,1.0019245,-535.2782123052398,-0.1044212187824042,-0.16927620577060912,0.5,0.0650228682658484,82,0.003530740737915039,1.0002737321995905,1.0002737321995905,17499,-557.4616235012329,0.49999999999999994
224,1.0812628269195557,-534.4290993076953,8.678772798875837,-521.7359368118413,-545.4843060120722,0.375,0.14399867049692813,0.1,0.0027053356170654297,0.05208778381347656,0.04955149,0.8887633,-535.1933010054854,-0.11559662551393944,-0.16272487322849682,0.375,0.06478714898401915,71,0.003249645233154297,1.0002711252512655,1.0002711252512655,17570,-558.632100525397,0.49999999999999994
225,1.107405662536621,-534.8713868260666,4.00829483313956,-529.0652933936099,-538.7002823332747,0.5,0.15351476731598634,0.1,0.002275705337524414,0.04611682891845703,0.049244117,1.097724,-535.1611095875435,-0.08801587624166737,-0.16702396228005972,0.5,0.06577853172965141,80,0.0025382041931152344,1.000275635140365,1.000275635140365,17650,-559.0079894645215,0.49999999999999994
226,1.0856308937072754,-529.2899237806134,3.5492389628634093,-523.2520932393667,-532.241788120376,0.5,0.14426780732308886,0.1,0.0023069381713867188,0.04815983772277832,0.04946743,1.5475912,-534.5739910068505,-0.11363542404835023,-0.13670782650611707,0.5,0.06474135455354454,69,0.002795696258544922,1.0002720329352477,1.0002720329352477,17719,-553.92294223656,0.49999999999999994
227,1.2182841300964355,-534.2866465018178,4.365342153875489,-527.7209254656499,-539.770044637579,0.375,0.15573302453749252,0.1,0.015031576156616211,0.04776930809020996,0.04976004,0.88513917,-534.5452565563472,-0.08662797472087184,-0.16388949582964923,0.375,0.06692794374469088,82,0.0025556087493896484,1.000275059149223,1.000275059149223,17801,-557.049938364948,0.49999999999999994
228,1.0741710662841797,-539.6674551315164,5.919453415641322,-534.6534519546373,-549.215897394176,0.5,0.1573956966757688,0.1,0.030498981475830078,0.4052128791809082,0.05038035,1.3159914,-535.0574764138642,-0.09920042396576731,-0.1884156127278705,0.5,0.06537142069314004,84,0.0031082630157470703,1.0002721685186762,1.0002721685186762,17885,-562.3400288290387,0.49999999999999994
229,1.0705158710479736,-535.8096816716454,6.165301309504771,-529.2686146079486,-545.8563773533591,0.25,0.13927335627495716,0.1,0.0024263858795166016,0.04778122901916504,0.05033376,0.9061279,-535.1326969396423,-0.103613675984616,-0.1709665053716924,0.25,0.06544405727063196,70,0.003817319869995117,1.0002711456819613,1.0002711456819613,17955,-559.3011595686369,0.49999999999999994
230,1.0327513217926025,-533.7480529311595,3.1406992924574486,-530.7579385026959,-538.9889554516483,0.375,0.15157657408256536,0.1,0.0025794506072998047,0.04911041259765625,0.05026895,0.79638845,-534.994232538794,-0.08946960459199158,-0.16139503152179105,0.375,0.06526417357341412,72,0.0032002925872802734,1.0002722690279224,1.0002722690279224,18027,-556.036556845634,0.49999999999999994
231,1.0689165592193604,-536.6402492387163,4.588674063419139,-532.5022727883452,-543.6233160994851,0.375,0.1561741269718378,0.1,0.03063035011291504,0.17848587036132812,0.05015602,1.0145426,-535.1588342087862,-0.09876990311809614,-0.17459995742925066,0.375,0.06414151744127097,77,0.007355213165283203,1.0002722235532555,1.0002722235532555,18104,-560.3305731448796,0.49999999999999994
232,1.0586509704589844,-534.7487858372275,3.143307112440178,-530.4844029048573,-539.1058641832346,0.375,0.14586893106905346,0.1,0.002653360366821289,0.04722166061401367,0.049574632,1.2154832,-535.1178293716304,-0.09651150894421576,-0.1673208187136681,0.375,0.06436435246932841,72,0.0029959678649902344,1.0002722878557588,1.0002722878557588,18176,-560.8404809608712,0.49999999999999994
233,1.086721420288086,-537.2730152873271,4.400317655713208,-533.2847074096946,-544.5935997249737,0.5,0.1520853933644438,0.1,0.0023941993713378906,0.04979395866394043,0.049679045,1.4923377,-535.3333479632,-0.11502604449638545,-0.17743369666718858,0.5,0.06600284126144818,79,0.0029420852661132812,1.000269867436225,1.000269867436225,18255,-559.2551629722522,0.49999999999999994
234,1.1801660060882568,-547.6378375254549,19.20259914651804,-535.4404475666302,-580.8654880730104,0.375,0.17480727604023952,0.1,0.0024328231811523438,0.049208641052246094,0.05094407,0.89491105,-536.5637969194255,-0.10201243118623657,-0.23011769619498512,0.375,0.06437507333529158,96,0.0028696060180664062,1.0002699362768401,1.0002699362768401,18351,-558.6303627887777,0.49999999999999994
235,1.0872273445129395,-533.1751618284059,6.124109604630228,-526.2081951698307,-542.9828001220668,0.5,0.15628999302575736,0.1,0.0024831295013427734,0.04945731163024902,0.049437564,1.6061628,-536.2249334103235,-0.08161810521445893,-0.15870515665821203,0.5,0.06543557657641899,83,0.003238677978515625,1.000273485911766,1.000273485911766,18434,-558.8962065797589,0.49999999999999994
236,1.1056902408599854,-533.89481893386,8.029359639257454,-520.3823253311297,-541.3941477329674,0.375,0.14738822605389076,0.1,0.03245663642883301,0.12007308006286621,0.050334938,0.8025907,-535.9919219626772,-0.08446971677546929,-0.1618555515696777,0.375,0.06564136619696075,81,0.0027723312377929688,1.0002724695379963,1.0002724695379963,18515,-564.6540764818529,0.49999999999999994
237,1.068542242050171,-536.4801749361332,2.4123444012448454,-534.1392627413404,-539.6760778347797,0.5,0.1440840241491553,0.1,0.002374410629272461,0.04780459403991699,0.049840014,1.1527297,-536.0407472600228,-0.11513706543030439,-0.17384404286209362,0.5,0.06613916806069309,77,0.0030517578125,1.0002684260211254,1.0002684260211254,18592,-557.1667234100577,0.49999999999999994
238,1.0723130702972412,-534.8933849413601,4.243045391662968,-530.973075820772,-541.409544921938,0.5,0.15081130681916322,0.1,0.0024673938751220703,0.04757380485534668,0.05108172,1.0728834,-535.9260110281566,-0.11378627215705622,-0.16584558252802667,0.5,0.06596300929744471,76,0.002786397933959961,1.0002716232910895,1.0002716232910895,18668,-562.9498481301129,0.49999999999999994
239,1.090691328048706,-530.7808273786655,3.3358362157415224,-526.8043126497669,-535.8566047102455,0.5,0.16845123893254668,0.1,0.002444028854370117,0.04763007164001465,0.04944373,0.6830838,-535.4114926632075,-0.07129338200224467,-0.14754551573175886,0.5,0.06454596633284,80,0.016350507736206055,1.000274848134278,1.000274848134278,18748,-554.7190655724897,0.49999999999999994
240,1.0749423503875732,-531.3202721333213,4.386981925443778,-524.4812106778454,-536.1603039611797,0.375,0.15719951782990915,0.1,0.0325620174407959,0.13666248321533203,0.0501734,0.818002,-535.0023706102188,-0.08219636358208249,-0.15008132121654683,0.375,0.0652535696876074,75,0.0030317306518554688,1.0002713987884804,1.0002713987884804,18823,-554.8124198669733,0.49999999999999994
241,1.097135066986084,-531.3246103303425,8.563351853330797,-522.5714863875114,-540.783145515487,0.5,0.16343363650191084,0.1,0.0024437904357910156,0.05373525619506836,0.05029388,0.8335861,-534.6345945822311,-0.09072091415175783,-0.14786367296285122,0.5,0.06490798639789924,78,0.005936622619628906,1.0002726303061793,1.0002726303061793,18901,-559.4292028550468,0.49999999999999994
242,1.0873730182647705,-534.533235378381,2.8502583191306856,-529.6235286524234,-536.6243570987119,0.5,0.15660038092219497,0.1,0.00258636474609375,0.051393985748291016,0.049973976,0.98660415,-534.6244586618461,-0.10432965135374432,-0.1645692556928841,0.5,0.06653556732521852,79,0.003708362579345703,1.0002686873831073,1.0002686873831073,18980,-557.1123498859768,0.49999999999999994
243,1.0984303951263428,-533.4898369209947,5.960367263096216,-523.5771321459127,-539.3976422851474,0.5,0.14826924580053324,0.1,0.0024247169494628906,0.04752540588378906,0.048726752,1.7101233,-534.510996487761,-0.10159353891339681,-0.15768568908403305,0.5,0.06535750891954208,78,0.0033333301544189453,1.000273777823036,1.000273777823036,19058,-560.7640463916173,0.49999999999999994
244,1.0935511589050293,-534.6327786079014,2.4829446672448983,-530.7766719215157,-537.4610529451219,0.5,0.15948557752647202,0.1,0.002498626708984375,0.04851341247558594,0.0495458,0.92347026,-534.523174699775,-0.08947103684833918,-0.16646604074056248,0.5,0.0635648643956355,82,0.005698204040527344,1.0002732022869356,1.0002732022869356,19140,-563.3636652680947,0.49999999999999994
245,1.0584821701049805,-532.5675275361862,1.45705476361836,-530.623029570079,-534.4813246857611,0.5,0.1435491019235359,0.1,0.0023653507232666016,0.04536867141723633,0.04959453,1.0393482,-534.3276099834161,-0.10889308945221766,-0.15501016519650956,0.5,0.06563403605611304,69,0.0035402774810791016,1.0002703564497248,1.0002703564497248,19209,-563.1430353674634,0.49999999999999994
246,1.1172809600830078,-538.4359751671302,7.531798486510979,-528.119628475958,-548.0866996715095,0.375,0.15355048986831107,0.1,0.002434253692626953,0.04704165458679199,0.049248468,0.826549,-534.7384465017875,-0.10941794170059575,-0.18241917565656615,0.375,0.06533397580480377,81,0.003107786178588867,1.0002724375856813,1.0002724375856813,19290,-565.5106111335285,0.16666666666666669
247,1.0858962535858154,-537.4152485881621,3.5017114577912642,-532.425153976271,-542.2191733360993,0.5,0.15808099296618267,0.1,0.0023441314697265625,0.04723954200744629,0.050302405,0.82316333,-535.006126710425,-0.11551764457397065,-0.17710398796722707,0.5,0.065810598760765,73,0.0027532577514648438,1.0002721994473587,1.0002721994473587,19363,-563.7984635123457,0.33333333333333337
248,1.0894982814788818,-529.3487711741388,6.167460382539691,-521.3292823002425,-536.5324068096189,0.375,0.13981363925930035,0.1,0.0023720264434814453,0.048542022705078125,0.04937013,1.5054907,-534.4403911567964,-0.0909901095226531,-0.14048982570523333,0.375,0.06504438950277591,72,0.0029397010803222656,1.0002713844601077,1.0002713844601077,19435,-564.7410504732628,0.49999999999999994
249,1.0882568359375,-536.5821742128119,5.508504840843102,-527.3922630977049,-541.094479425741,0.5,0.14589408998986744,0.1,0.0026788711547851562,0.048522233963012695,0.04936886,2.0409172,-534.654569462398,-0.10186197280342088,-0.17360002865513446,0.5,0.06437515715192242,81,0.0029125213623046875,1.000270526621143,1.000270526621143,19516,-562.6964768149268,0.49999999999999994
250,1.1236019134521484,-537.6302127762879,7.377043511023995,-529.24859598884,-549.3375537752152,0.375,0.17310861916031792,0.1,0.0025436878204345703,0.04908251762390137,0.050134953,0.8829487,-534.952133793787,-0.08111360519027876,-0.1808846817805319,0.375,0.06436342049474084,89,0.0029103755950927734,1.0002722682228828,1.0002722682228828,19605,-562.8654101693215,0.49999999999999994
251,1.0799882411956787,-536.880117775124,5.6331277285456265,-527.6183671426624,-542.7506784607589,0.5,0.16718230872141754,0.1,0.031007051467895508,0.0821232795715332,0.049841065,0.7792135,-535.1449321919207,-0.12506373489167621,-0.17626821884139898,0.5,0.06351255687588248,75,0.002956390380859375,1.0002702310706293,1.0002702310706293,19680,-560.7677899480851,0.49999999999999994
252,1.118062973022461,-531.4081491596402,3.924827473944133,-526.6132395093347,-536.4387761472673,0.5,0.15536337608648532,0.1,0.0024619102478027344,0.0474238395690918,0.049819145,1.3453982,-534.7712538886926,-0.11454896435638162,-0.14733654240523736,0.5,0.06535865311092857,77,0.003215312957763672,1.0002710565424573,1.0002710565424573,19757,-556.5755190510318,0.49999999999999994
253,1.0868544578552246,-531.8596136491412,4.948423581610434,-523.4273759041265,-535.7826571948458,0.5,0.15825221546939905,0.1,0.021884679794311523,0.04893088340759277,0.049985316,1.1464138,-534.4800898647375,-0.10544863095600562,-0.15175051848070528,0.5,0.06549038251309583,70,0.0030527114868164062,1.000271287763464,1.000271287763464,19827,-562.3218614331299,0.49999999999999994
254,1.1515107154846191,-537.917065704779,4.521190825253905,-530.4848478910757,-542.1942684865878,0.375,0.14472268064107896,0.1,0.0023834705352783203,0.04890871047973633,0.050397705,0.96671504,-534.8237874487417,-0.1015754885898471,-0.18135756818262944,0.375,0.06506823199796995,74,0.0034303665161132812,1.0002717894165107,1.0002717894165107,19901,-562.719523930018,0.49999999999999994
255,1.102555751800537,-532.6764486923662,2.974959812226448,-529.2708224373448,-536.0729928993084,0.5,0.16145806540740448,0.1,0.002357006072998047,0.04764056205749512,0.05012682,0.96147174,-534.6090535731041,-0.10502028839669789,-0.15354421155857298,0.5,0.065042529680322,80,0.0029447078704833984,1.000272674260191,1.000272674260191,19981,-560.0517974597575,0.49999999999999994
256,1.1278252601623535,-534.7387055496116,6.208021655314668,-526.8284409745165,-543.9348254707448,0.375,0.16278882442948311,0.1,0.0029442310333251953,0.052979469299316406,0.050241023,1.1015189,-534.6220187707548,-0.09403738872240615,-0.16610066461908063,0.375,0.06644534733656764,85,0.002960205078125,1.000273129111317,1.000273129111317,20066,-566.332404555097,0.49999999999999994
257,1.124274730682373,-531.377499772846,22.672809500403215,-494.5541294442859,-553.192814637495,0.375,0.1605246986860188,0.1,0.002347707748413086,0.04663658142089844,0.050113607,0.8611922,-534.2975668709639,-0.08231943946321915,-0.1476259527089087,0.375,0.06503906346607499,87,0.0056722164154052734,1.0002735207923317,1.0002735207923317,20153,-564.6249827794034,0.49999999999999994
258,1.1383333206176758,-534.0674567239874,1.374097059043637,-533.0671549990603,-536.4366721686874,0.375,0.1353182363956353,0.1,0.030814647674560547,0.08534002304077148,0.04949657,0.93511885,-534.2745558562663,-0.0928760790537511,-0.16318252093196656,0.375,0.06659211738481753,71,0.003197193145751953,1.0002732167570343,1.0002732167570343,20224,-567.7451237129311,0.49999999999999994
259,1.1519477367401123,-532.3118501598623,5.58255982830556,-524.9873405216242,-540.6374729643308,0.5,0.15802869007219617,0.1,0.030580997467041016,0.16075658798217773,0.04972348,0.86714023,-534.0782852866259,-0.09709491081983697,-0.1528018158891532,0.5,0.06339024817908981,78,0.0027794837951660156,1.0002740418412346,1.0002740418412346,20302,-564.3266937978204,0.49999999999999994
260,1.1144218444824219,-536.9913962178741,3.3568524697626194,-532.6862009914679,-540.5956333926267,0.375,0.15900273201746043,0.1,0.024122953414916992,0.0490109920501709,0.04924047,0.7711233,-534.3695963797508,-0.10800264965578152,-0.1764973247579232,0.375,0.06346184703167547,72,0.003004789352416992,1.0002716018120228,1.0002716018120228,20374,-566.0205186468562,0.49999999999999994
261,1.114091157913208,-535.6944545161064,4.289272172464495,-530.882572109633,-542.6303254885227,0.5,0.14869568646795142,0.1,0.002518892288208008,0.04908394813537598,0.050370548,1.1415764,-534.5020821933863,-0.10603610154630472,-0.169785269069876,0.5,0.06466873722443421,78,0.0027947425842285156,1.0002749823151278,1.0002749823151278,20452,-563.2939400031267,0.49999999999999994
262,1.0940892696380615,-532.3556627741261,6.060906670328766,-526.0170328744978,-539.3285425013414,0.5,0.15651871599127382,0.1,0.0024552345275878906,0.048330068588256836,0.05030326,1.1720098,-534.2874402514603,-0.09124941584640198,-0.15315056717616654,0.5,0.06454823002212179,78,0.003434896469116211,1.00027344119139,1.00027344119139,20530,-564.2044629855519,0.49999999999999994
263,1.1061229705810547,-533.3613637352937,6.897567537598573,-525.8034844105398,-542.3281746487795,0.5,0.14903963991335806,0.1,0.002377748489379883,0.05626106262207031,0.049107414,1.0617583,-534.1948325998437,-0.1127240899608149,-0.15807300910632613,0.5,0.06542767777066666,74,0.009112358093261719,1.0002720963402219,1.0002720963402219,20604,-559.2017214902579,0.49999999999999994
264,1.135136604309082,-532.6808867072714,5.866781128499646,-523.3206983899582,-538.680538537317,0.5,0.14493440002532076,0.1,0.0024564266204833984,0.04814958572387695,0.049074546,1.0493828,-534.0434380105864,-0.09517874652501536,-0.1559656359298983,0.5,0.06571232581118827,76,0.0035576820373535156,1.0002740655501312,1.0002740655501312,20680,-565.7511359688614,0.49999999999999994
265,1.1164329051971436,-534.295051652392,3.136118791105105,-529.150688003441,-537.6453695007854,0.5,0.16113112090836604,0.1,0.002399444580078125,0.05378079414367676,0.049868066,0.86252123,-534.068599374767,-0.10508239779268257,-0.16312256600824807,0.5,0.0648177373761918,73,0.003110647201538086,1.0002710800320742,1.0002710800320742,20753,-568.5868098064889,0.49999999999999994
266,2.401669979095459,-536.6932929932882,5.292130178381279,-530.6385367247036,-544.8870307243083,0.5,0.1658520187641263,0.1,0.0025191307067871094,0.04933953285217285,0.049430102,1.1727586,-534.3310687366192,-0.10906267589194961,-0.17448979485354643,0.5,0.0646783544562894,84,0.0032694339752197266,1.000272044120539,1.000272044120539,20837,-566.6496413269161,0.49999999999999994
267,1.0551774501800537,-535.1441551339665,4.7558220952607435,-527.1716434207251,-539.2811300879583,0.5,0.15359888449215206,0.1,0.0027701854705810547,0.05413484573364258,0.050760765,0.92583436,-534.4123773763539,-0.10567151735963905,-0.16779436635124637,0.5,0.06405893783710712,82,0.003213644027709961,1.0002754635590936,1.0002754635590936,20919,-567.0255943761939,0.49999999999999994
268,1.092406988143921,-537.5847250594204,10.678114803850136,-525.3411660953083,-552.0238535718108,0.25,0.14691266765742095,0.1,0.004638195037841797,0.052763938903808594,0.049562607,1.562445,-534.7296121446606,-0.09933230228889421,-0.1804195899256533,0.25,0.06527542327139157,79,0.002835988998413086,1.0002718193759725,1.0002718193759725,20998,-565.8606508864799,0.49999999999999994
269,1.0724382400512695,-536.8460080458203,6.256843666410077,-527.6031018482392,-543.7082799610723,0.375,0.15075896281059772,0.1,0.002391338348388672,0.04627823829650879,0.04951771,0.9973034,-534.9412517347765,-0.09787504189135643,-0.1769154922820415,0.375,0.0660441440738617,78,0.002747774124145508,1.000274208083512,1.000274208083512,21076,-571.5892759265629,0.49999999999999994
270,1.0599322319030762,-532.8329721228309,6.00089415318143,-526.2081878664711,-542.0750275116301,0.5,0.1564717657767964,0.1,0.030494213104248047,0.2936279773712158,0.05014306,0.9773584,-534.730423773582,-0.11504331428170066,-0.1549937466661439,0.5,0.06433749228937866,75,0.002730846405029297,1.0002723749980622,1.0002723749980622,21151,-569.9871785155896,0.49999999999999994
271,1.012052059173584,-537.1656815672718,6.185770751054885,-529.2250325110133,-544.066463011956,0.375,0.14243962642337193,0.1,0.029462337493896484,0.08114814758300781,0.050103292,1.4147882,-534.9739495529509,-0.10309674825544098,-0.17746781048571664,0.375,0.06402772022041808,69,0.0027692317962646484,1.0002721306562217,1.0002721306562217,21220,-570.4716336530513,0.49999999999999994
272,1.09761643409729,-532.4994691144886,10.18854573972591,-518.6247764758328,-545.8501097126465,0.5,0.15580377974947468,0.1,0.03128767013549805,0.06376838684082031,0.049479466,0.6478475,-534.7265015091047,-0.09090405874673366,-0.1549868018785567,0.5,0.06474630360283108,79,0.0026183128356933594,1.0002707778356665,1.0002707778356665,21299,-576.115145048465,0.49999999999999994
273,1.0156285762786865,-537.449983030828,7.813719736065461,-526.1930130992315,-548.112688976421,0.375,0.15734234341343933,0.1,0.002354145050048828,0.04668593406677246,0.050458718,1.1618683,-534.998849661277,-0.11036365209150567,-0.17730322933535836,0.375,0.06535331574684133,87,0.002742290496826172,1.0002732076265293,1.0002732076265293,21386,-578.6751750212804,0.49999999999999994
274,1.0370666980743408,-535.3197079753979,6.859574776470623,-525.9777554059176,-544.1590782335244,0.5,0.15802590505330003,0.1,0.0024831295013427734,0.04709744453430176,0.049307585,0.970979,-535.0309354926891,-0.09349090971258525,-0.16767815799827965,0.5,0.06496640304028892,82,0.0028581619262695312,1.000273226626362,1.000273226626362,21468,-575.7204679241308,0.49999999999999994
275,1.0901846885681152,-533.9830459561615,5.68888111122255,-525.9666205907942,-541.0528734899954,0.5,0.16251943541067781,0.1,0.002407550811767578,0.04701995849609375,0.05043717,0.83188313,-534.9261465390364,-0.08428524003336704,-0.16286207009421264,0.5,0.06500024592148887,85,0.0027146339416503906,1.0002748327608775,1.0002748327608775,21553,-572.8014313174943,0.49999999999999994
276,1.0972325801849365,-534.3308042658313,2.8341762608179373,-530.9497601301189,-538.7967759457671,0.375,0.14344544419735686,0.1,0.0024862289428710938,0.047034263610839844,0.050344925,1.5274097,-534.8666123117159,-0.10165389476823689,-0.1643196876797736,0.375,0.0648089516548687,71,0.015661954879760742,1.000271827844186,1.000271827844186,21624,-565.3648057419354,0.49999999999999994
277,1.0411267280578613,-534.0448165862044,8.988697979585007,-525.5753154085785,-548.0120081025918,0.375,0.16224088608840628,0.1,0.002360820770263672,0.05110931396484375,0.049525924,0.9419396,-534.7844327391648,-0.09706820894154103,-0.161849826852921,0.375,0.062314216149736486,77,0.002829313278198242,1.000271721967587,1.000271721967587,21701,-568.8741183120168,0.49999999999999994
278,1.0112683773040771,-522.4961721547286,11.884672289640891,-504.49813590800443,-537.5446876863696,0.5,0.15329054473969805,0.1,0.0023660659790039062,0.04658937454223633,0.049840983,1.1229508,-533.5556066807212,-0.08174318767921226,-0.10614070229384201,0.5,0.0619702537318904,75,0.002701282501220703,1.000271182487179,1.000271182487179,21776,-567.6782460364669,0.49999999999999994
279,1.0781524181365967,-538.8558260701425,4.545477747130075,-532.8933066667161,-543.9839056282522,0.375,0.16602405298031042,0.1,0.0022797584533691406,0.04581952095031738,0.04955777,1.0096519,-534.0856286196633,-0.11619592200981495,-0.1844600798921729,0.375,0.06659050466979467,79,0.0048105716705322266,1.00027390646612,1.00027390646612,21855,-565.5001970745301,0.49999999999999994
280,1.1808428764343262,-535.6630304425365,2.505931434120897,-533.0427047403775,-539.0173784819438,0.5,0.1482593228545225,0.1,0.0023527145385742188,0.04668712615966797,0.050514534,0.9481871,-534.2433688019506,-0.11467414704044819,-0.17038500079161562,0.5,0.0638680830198195,73,0.017151355743408203,1.000272620935819,1.000272620935819,21928,-571.801765934401,0.49999999999999994
281,1.088916540145874,-533.7115716956877,12.246971652476011,-518.1680672014776,-550.766249571897,0.5,0.15320027998501162,0.1,0.0022666454315185547,0.045760393142700195,0.049537722,0.9767361,-534.1901890913243,-0.12412472481778442,-0.1584696391877367,0.5,0.06256295580350624,79,0.00453639030456543,1.0002723110052572,1.0002723110052572,22007,-566.6415511189817,0.49999999999999994
282,1.1023015975952148,-535.1090790174746,2.7353564053698998,-531.1338412209187,-538.8525758491302,0.375,0.15571606194657625,0.1,0.0023126602172851562,0.0513005256652832,0.049951315,0.95116216,-534.2820780839394,-0.09669948581381259,-0.1674744046600305,0.375,0.06444272813365479,76,0.0051593780517578125,1.0002729883196322,1.0002729883196322,22083,-568.4274927194666,0.49999999999999994
283,1.0711722373962402,-528.7360756900798,2.7270303958693654,-525.8796882144628,-533.1443280592448,0.5,0.13978221611900066,0.1,0.03118443489074707,0.05743718147277832,0.049499772,1.0490682,-533.7274778445534,-0.112517091457622,-0.1345820587877233,0.5,0.06428561767278128,71,0.0026407241821289062,1.0002712047116031,1.0002712047116031,22154,-563.5876317539154,0.49999999999999994
284,1.100060224533081,-542.8977835334149,5.984972599213485,-536.1146007320397,-552.4176279029975,0.375,0.15535389949469153,0.1,0.0055389404296875,0.05219769477844238,0.050607063,1.3166162,-534.6445084134396,-0.11147333287432631,-0.20391006938135156,0.375,0.06309273360490819,88,0.005575895309448242,1.0002746935251794,1.0002746935251794,22242,-564.592048652427,0.49999999999999994
285,1.0678222179412842,-538.0386239434908,3.7063840409801974,-533.2715985929674,-543.6806881514897,0.5,0.15054151574641841,0.1,0.030908823013305664,0.11498236656188965,0.050069023,0.8764121,-534.9839199664447,-0.11289749715794334,-0.18101532404584564,0.5,0.06501637048880934,70,0.0026497840881347656,1.0002718475313574,1.0002718475313574,22312,-563.9438964873798,0.49999999999999994
286,1.1291141510009766,-541.2895415169343,5.901452874528807,-534.6721514779058,-550.5403709393526,0.25,0.13913248956635407,0.1,0.0028645992279052734,0.04898357391357422,0.04899574,1.7914181,-535.6144821214937,-0.09625201186049258,-0.19895490747379158,0.25,0.06406215032982629,80,0.003035306930541992,1.0002744068707168,1.0002744068707168,22392,-565.1797565319993,0.49999999999999994
287,1.123589277267456,-534.492451332365,3.615269228731169,-530.6036420459089,-540.0535562044407,0.5,0.1589921234190316,0.1,0.002359628677368164,0.047406673431396484,0.050683945,1.3396317,-535.5022790425808,-0.09967225470490897,-0.16560821988991548,0.5,0.06489583515269419,79,0.002646207809448242,1.0002737184747683,1.0002737184747683,22471,-567.1162937166292,0.49999999999999994
288,1.1543052196502686,-538.0484546776729,5.52552811959153,-529.7730836359141,-545.0448620724852,0.375,0.1637932482860257,0.1,0.0025300979614257812,0.046677350997924805,0.049922667,0.8825821,-535.75689660609,-0.09764444507618933,-0.18287764918740687,0.375,0.06257445578746398,88,0.0032460689544677734,1.0002740086173232,1.0002740086173232,22559,-569.3623351091769,0.49999999999999994
289,1.1111977100372314,-540.0611328672328,2.0272474285753317,-537.2636946327909,-542.97309789835,0.375,0.14463645455139953,0.1,0.0023369789123535156,0.04609203338623047,0.04983019,3.789085,-536.1873202322042,-0.11550678876421594,-0.19129760087602266,0.375,0.0646237003642052,82,0.002651214599609375,1.0002728048787608,1.0002728048787608,22641,-567.0637007076792,0.49999999999999994
290,1.1253702640533447,-531.0186281057321,4.979674077420058,-525.997418547447,-538.4864484153766,0.5,0.1342687980216997,0.1,0.0023376941680908203,0.046343088150024414,0.05040507,0.9773099,-535.670451019557,-0.11548113120729954,-0.14580390234749424,0.5,0.0653348278133854,72,0.002650022506713867,1.000271810560343,1.000271810560343,22713,-565.9853751982619,0.49999999999999994
291,1.1265325546264648,-532.650279280287,14.16627999827366,-508.5710479234205,-544.4944822907734,0.375,0.14938022916445665,0.1,0.004330158233642578,0.05831336975097656,0.05022953,1.2755563,-535.3684338456301,-0.10565114634333023,-0.15452882682506885,0.375,0.06488923794019281,77,0.0034401416778564453,1.0002732608262968,1.0002732608262968,22790,-568.8635494131837,0.49999999999999994
292,1.3285715579986572,-535.4141883363328,5.593653478330507,-526.5761934723588,-542.1025601482222,0.5,0.15063488427672478,0.1,0.003284931182861328,0.0693216323852539,0.050477166,0.8876838,-535.3730092947004,-0.10457653713073596,-0.16844325490304948,0.5,0.0641357915216373,77,0.006455421447753906,1.0002715757967096,1.0002715757967096,22867,-566.4036022116476,0.49999999999999994
293,1.239459753036499,-534.6260321126917,6.318697492948725,-524.4377672871791,-541.6451120512061,0.5,0.14287021805328212,0.1,0.006955623626708984,0.062165021896362305,0.04965749,1.079845,-535.2983115764996,-0.0976727666048819,-0.1657296223157504,0.5,0.0631806820172541,73,0.017394065856933594,1.0002724523626623,1.0002724523626623,22940,-568.6228100891304,0.49999999999999994
294,1.1333961486816406,-546.3644696643491,8.294991624555433,-533.6098544122923,-556.3058098580378,0.125,0.16880704920987746,0.1,0.002859354019165039,0.05612635612487793,0.04903317,1.3937578,-536.4049273852846,-0.10885396620634279,-0.2217326369240725,0.125,0.06451547007998201,87,0.007932424545288086,1.0002734425243653,1.0002734425243653,23027,-567.9449456182097,0.49999999999999994
295,1.0624477863311768,-540.9794789532698,8.028841972771138,-531.4034834137879,-553.5515085865788,0.25,0.13898843888985474,0.1,0.00237274169921875,0.06575369834899902,0.050020516,1.3706135,-536.8623825420832,-0.10246137305375855,-0.19678164756117206,0.25,0.06438775102493323,79,0.002959012985229492,1.0002751401629846,1.0002751401629846,23106,-571.4584150338117,0.49999999999999994
296,1.0810999870300293,-535.4189597345569,5.811041797883655,-527.979002417256,-544.209342677122,0.375,0.16827947530865095,0.1,0.0027589797973632812,0.048020124435424805,0.049110096,0.9072358,-536.7180402613305,-0.09328666777256289,-0.16870315391169471,0.375,0.06349604930052875,84,0.0027801990509033203,1.0002726628516543,1.0002726628516543,23190,-576.3823959764733,0.49999999999999994
297,1.0320816040039062,-534.287405391631,4.6307365141339405,-528.5603367731575,-540.6275594393436,0.375,0.14775516413667325,0.1,0.0023338794708251953,0.045635223388671875,0.050757706,4.369431,-536.4749767743606,-0.10267885452946467,-0.16339776351738922,0.375,0.06518567420374012,74,0.002534627914428711,1.0002749151269281,1.0002749151269281,23264,-574.8278161250759,0.49999999999999994
298,1.0490484237670898,-538.3261830265853,5.381673103060952,-532.7686160175734,-544.2536477876376,0.375,0.15260597167912565,0.1,0.002464771270751953,0.047135114669799805,0.0502447,1.0618206,-536.660097399583,-0.10870937583942308,-0.18265184330862125,0.375,0.0637184874688904,76,0.002804994583129883,1.0002725530769772,1.0002725530769772,23340,-573.6281540026304,0.49999999999999994
299,1.129913091659546,-535.1845047388304,4.570092720796178,-529.8180310186136,-542.4350909069711,0.5,0.1521578494093844,0.1,0.002317190170288086,0.04590296745300293,0.04985624,1.3806744,-536.5125381335079,-0.11147995770773762,-0.1670663391528279,0.5,0.06381967582589398,77,0.004521846771240234,1.0002717438760833,1.0002717438760833,23417,-570.8876935641587,0.49999999999999994
300,1.1134860515594482,-532.0550206968516,2.5783920311651713,-527.864193201931,-534.5831051457305,0.5,0.1412667793786681,0.1,0.03100109100341797,0.2581064701080322,0.050272867,1.1696827,-536.0667863898423,-0.09836721405720901,-0.15260018216710025,0.5,0.06511877168412517,72,0.004279613494873047,1.000273676700952,1.000273676700952,23489,-566.8860596229814,0.49999999999999994
301,1.4542710781097412,-535.5518371207143,3.0683968273981623,-530.3562651701392,-538.2663912946805,0.5,0.14134685905437883,0.1,0.0023550987243652344,0.04962325096130371,0.050836567,1.283468,-536.0152914629296,-0.10269402620034108,-0.17087539363914112,0.5,0.06538441887577105,75,0.0033731460571289062,1.0002741840168288,1.0002741840168288,23564,-570.2354865300902,0.49999999999999994
302,1.2067084312438965,-543.3067475040181,8.50900784865714,-532.9072795972204,-556.5510922643581,0.375,0.16993662808306156,0.1,0.002396106719970703,0.04713249206542969,0.050031878,0.72548157,-536.7444370670385,-0.11571356525317927,-0.20637371126877432,0.375,0.06592987742953738,86,0.009014368057250977,1.0002728202346476,1.0002728202346476,23650,-570.5303561010425,0.49999999999999994
303,1.1557564735412598,-538.699680157103,8.53119852042139,-530.9592502702602,-552.6154256973294,0.375,0.15627383960022018,0.1,0.002695322036743164,0.04772043228149414,0.04999137,0.8807575,-536.939961376045,-0.10098329231876561,-0.18507846509942508,0.375,0.0648566186787796,86,0.0031380653381347656,1.000274437263251,1.000274437263251,23736,-574.3392227927735,0.49999999999999994
304,1.1407628059387207,-537.7162825747688,7.757919302183651,-526.1875879434575,-547.9561206430138,0.375,0.14984833861385796,0.1,0.0025222301483154297,0.05986595153808594,0.050414298,1.0642415,-537.0175934959174,-0.12458418110424554,-0.17851054774838349,0.375,0.06460168004353359,77,0.0030367374420166016,1.000271970150935,1.000271970150935,23813,-565.6658001230766,0.49999999999999994
305,1.1154968738555908,-534.3923384753433,5.966837020075825,-528.5202475201208,-544.3063861389448,0.5,0.14090771751119813,0.1,0.0023713111877441406,0.04671645164489746,0.050003715,1.1232111,-536.7550679938599,-0.10097059896198998,-0.16337739941707763,0.5,0.06427648709094295,73,0.002863168716430664,1.0002712501741013,1.0002712501741013,23886,-567.9880552352073,0.49999999999999994
306,1.1154406070709229,-536.4684488671176,6.950016876536066,-529.8774823136876,-547.692983040466,0.375,0.149231447860223,0.1,0.002506732940673828,0.045835018157958984,0.049928177,1.2717724,-536.7264060811857,-0.10073327065975038,-0.1752348703770097,0.375,0.0655363281177645,74,0.00539398193359375,1.0002731197029815,1.0002731197029815,23960,-568.0723282200711,0.49999999999999994
307,1.1169180870056152,-539.9250805264808,9.437057395859446,-528.416340903845,-552.2566019130816,0.25,0.16075622125391018,0.1,0.0024690628051757812,0.047074317932128906,0.050410643,0.7148691,-537.0462735257152,-0.09509789237451727,-0.19236949991034288,0.25,0.06379733478844188,82,0.003152608871459961,1.0002733525727039,1.0002733525727039,24042,-573.5374474179625,0.49999999999999994
308,1.122575044631958,-539.0429626774735,7.2859657511643,-531.5559785589,-548.1214582705392,0.375,0.15342983232187385,0.1,0.03001856803894043,0.3692612648010254,0.049427666,1.1369901,-537.245942440891,-0.12016271381432822,-0.18657359108788418,0.375,0.06468038329056161,75,0.0027375221252441406,1.000270896777809,1.000270896777809,24117,-565.0347758104316,0.49999999999999994
309,1.1247413158416748,-527.6232025038424,6.606438551171142,-517.7059992009434,-534.0456722555966,0.5,0.15411465834474244,0.1,0.030792951583862305,0.2139275074005127,0.049673658,1.0240554,-536.2836684471862,-0.10687583032373665,-0.12863454496648294,0.5,0.06337878631096733,73,0.007324934005737305,1.000272069216715,1.000272069216715,24190,-563.0566271944357,0.49999999999999994
310,1.131272792816162,-532.6590705134558,10.822271911683734,-516.7050921363372,-542.7805901724511,0.5,0.16507805832639377,0.1,0.002307891845703125,0.04824566841125488,0.050249092,0.78785956,-535.9212086538132,-0.10297087347748424,-0.15394104838204814,0.5,0.06434839624740679,80,0.0026619434356689453,1.000271153483253,1.000271153483253,24270,-563.5627509349633,0.49999999999999994
311,1.160698413848877,-535.7938639169669,4.8089429741263015,-529.4871981066235,-541.2401481484428,0.375,0.1582061241068235,0.1,0.0023517608642578125,0.046094655990600586,0.04955285,1.0250012,-535.9084741801286,-0.10804584382679022,-0.17125533886103747,0.375,0.06438506202055148,76,0.002498149871826172,1.0002754062831145,1.0002754062831145,24346,-564.5374106154808,0.49999999999999994
312,1.1238560676574707,-537.4130042689056,6.116957766791523,-530.0672176152689,-546.0028193620011,0.375,0.15977051906145723,0.1,0.0022821426391601562,0.04593992233276367,0.049859542,0.84383863,-536.0589271890062,-0.10383282057994399,-0.17818393419313783,0.375,0.06424705254265818,81,0.0042724609375,1.0002758407228305,1.0002758407228305,24427,-563.6183698789778,0.49999999999999994
