iteration,time_sampling,stoc_pol_mean,stoc_pol_std,stoc_pol_max,stoc_pol_min,rollout_success,alpha,delta,time_vpg,time_npg,kl_dist,surr_improvement,running_score,rwd_sparse,rwd_dense,success_percentage,num_samples,time_VF,VF_error_before,VF_error_after,env_samples,eval_score,eval_success
0,0.9610371589660645,4.018685806037784,0.013907994863493906,4.033824552030724,4.004087304845716,0.0,0.07788983661076164,0.1,0.01787257194519043,0.04613494873046875,0.054510124,3.4689596,4.018685806037784,0.0,0.08035649683111676,0.0,53,0.0025649070739746094,1.003731837686752,1.003731837686752,53,3.2733407147865585,0.0
1,0.9862039089202881,4.047769423831163,0.026053596742440944,4.07888656260818,4.008619623497953,0.0,0.11664320565274676,0.1,0.002644777297973633,0.049335479736328125,0.046844408,1.9687299,4.021594167817121,0.0,0.08094004353689514,0.0,97,0.005880594253540039,1.018115624620156,1.018115624620156,150,4.113858182848435,0.0
2,0.9798340797424316,3.039338901015592,1.7549378149296815,4.100819726173456,0.00022866748555516736,0.0,0.10118500999698472,0.1,0.0024695396423339844,0.04773855209350586,0.05192061,3.942596,3.923368641136969,0.0,0.05580481249666301,0.0,78,0.002660512924194336,1.019848812490973,1.019848812490973,228,3.778792889791158,0.0
3,0.8689565658569336,3.2572376430834855,1.3030458510427958,4.022846865179947,1.0003418076256423,0.0,0.08306984816164827,0.1,0.002728700637817383,0.09215402603149414,0.051314242,1.9860814,3.8567555413316206,0.0,0.06015244361209379,0.0,30,0.0026330947875976562,0.9921976537957268,0.9921976537957268,258,3.6134926951825075,0.0
4,1.0112290382385254,4.0618209344386,0.03047965731011967,4.101290604158498,4.017295415847591,0.0,0.11537081622451648,0.1,0.007091522216796875,0.055191755294799805,0.053750075,3.262414,3.8772620806423186,0.0,0.08119289551853362,0.0,101,0.005374908447265625,1.0206812139569397,1.0206812139569397,359,3.5248923007267323,0.0
5,0.9750924110412598,3.8019084664264207,0.46513501180386546,4.151832869228082,3.0011220011427975,0.0,0.10396822648822499,0.1,0.0026502609252929688,0.04754161834716797,0.051816337,2.4581804,3.8697267192207288,0.0,0.07103139057616929,0.0,75,0.002429962158203125,1.0138015743936357,1.0138015743936357,434,3.6054056515187063,0.0
6,1.04544997215271,4.024956233020937,0.019177575039780837,4.055862194323341,4.0035007763455805,0.0,0.11219557338709267,0.1,0.002389192581176758,0.0480647087097168,0.05213142,1.9006308,3.88524967060075,0.0,0.08049368036787559,0.0,86,0.003056764602661133,1.0143731486192127,1.0143731486192127,520,3.5338056671480866,0.0
7,0.9575686454772949,4.009396236268286,0.004355627515646897,4.01665317656721,4.005585612460245,0.0,0.08126733305752737,0.1,0.003028392791748047,0.07284736633300781,0.050366152,7.6953754,3.8976643271675036,0.0,0.07018258368943234,0.0,46,0.002253293991088867,1.0022724485489076,1.0022724485489076,566,3.3481138445571834,0.0
8,1.033097267150879,4.041292038543812,0.042069823447905906,4.108041518018107,4.004048230163255,0.0,0.09624287562833879,0.1,0.00238800048828125,0.04773139953613281,0.047871888,7.6710463,3.9120270983051344,0.0,0.08080277474879975,0.0,81,0.0024175643920898438,1.0166364105033927,1.0166364105033927,647,4.044578070420806,0.0
9,0.9743669033050537,4.032983720864235,0.030896317784570602,4.084074194552975,4.003933248323443,0.0,0.090300283577637,0.1,0.0023355484008789062,0.04625415802001953,0.050598983,3.3530529,3.9241227605610445,0.0,0.08062995887536081,0.0,62,0.0023107528686523438,1.0061583217030707,1.0061583217030707,709,3.692380861236551,0.0
10,1.074568510055542,4.023990437072108,0.01722288113567351,4.053124516429999,4.009568427810972,0.0,0.099184284875141,0.1,0.0022614002227783203,0.0460968017578125,0.048004836,2.9022696,3.9341095282121508,0.0,0.08045770935746532,0.0,66,0.0026640892028808594,1.0104282947924836,1.0104282947924836,775,3.7805219008207605,0.0
11,1.0570518970489502,2.5368227350526835,2.0887756373598063,4.1334888458966565,-0.999907739677341,0.0,0.08909992384628151,0.1,0.00249481201171875,0.04637432098388672,0.05114246,4.167641,3.794380848896204,0.0,0.04073143922645223,0.0,62,0.002300262451171875,1.0194842047380632,1.0194842047380632,837,3.0984495333539317,0.0
12,1.0296962261199951,4.056112679819465,0.013832884316629964,4.071000979733965,4.041110391048489,0.0,0.1279383196122979,0.1,0.002870798110961914,0.050534725189208984,0.04901032,2.1904194,3.8205540319885305,0.0,0.08109770460325282,0.0,131,0.010811567306518555,1.0218831139132794,0.9888830293808637,968,3.7082066698151213,0.0
13,1.0088422298431396,4.016408984965482,0.011898480842681216,4.034966184770562,4.005687151369049,0.0,0.10456083737220112,0.1,0.0024030208587646484,0.04630112648010254,0.050022285,2.3268661,3.840139527286226,0.0,0.07530034890428663,0.0,65,0.0026197433471679688,0.9909228991413424,0.9909228991413424,1033,3.692905173257769,0.0
14,1.0395708084106445,4.03415852934159,0.026230471542379213,4.077422148185398,4.009310692049425,0.0,0.1028249280189424,0.1,0.0027420520782470703,0.05228900909423828,0.04933987,3.5675604,3.8595414274917625,0.0,0.08068328069192526,0.0,90,0.0027489662170410156,0.9922772768903501,0.9922772768903501,1123,4.214579058549398,0.0
15,1.011549472808838,3.025737017409565,1.7467885178764446,4.052592254630856,0.00039914148712605346,0.0,0.08783527431990963,0.1,0.002393484115600586,0.04717397689819336,0.05003221,7.238221,3.776160986483543,0.0,0.055508225297857504,0.0,69,0.002492189407348633,0.987005937710407,0.987005937710407,1192,4.309803148265284,0.0
16,1.0275704860687256,4.024689501296552,0.011165108684023288,4.04312131355021,4.013049909257127,0.0,0.09788260648582128,0.1,0.002386808395385742,0.04744315147399902,0.04967365,2.3385859,3.801013837964844,0.0,0.08053438369192775,0.0,73,0.0024161338806152344,0.9903073629593349,0.9903073629593349,1265,3.5241709814425284,0.0
17,1.0592896938323975,4.0248498956794965,0.01875678519724227,4.056156554202726,4.006637275644301,0.0,0.10687297547915041,0.1,0.0024099349975585938,0.048658132553100586,0.049907725,5.6484046,3.8233974437363094,0.0,0.0754730397878224,0.0,90,0.002777576446533203,0.9890952772324898,0.9890952772324898,1355,3.450950598769094,0.0
18,1.1099522113800049,4.579683960935272,0.9544670833074891,6.232712851068137,4.012764130766927,0.0,0.11980178477184718,0.1,0.0026547908782958984,0.05474972724914551,0.050255608,34.906815,3.8990260954562057,0.0,0.08155500372325675,0.0,130,0.011588335037231445,0.9922482773411646,0.9758647919227088,1485,3.786505575283965,0.0
19,1.0824370384216309,4.082865021639243,0.0825840279944493,4.2245158502957425,4.0173301699644455,0.0,0.115874829112055,0.1,0.0026099681854248047,0.05005216598510742,0.051207848,3.1029568,3.9174099880745095,0.0,0.08163481365329933,0.0,116,0.004617452621459961,0.9643351187039269,0.9643351187039269,1601,3.1049100610629723,0.0
20,1.020660161972046,3.5191434298349256,0.8766945782072714,4.045385254404934,2.000817699842078,0.0,0.08918241433779547,0.1,0.002614736557006836,0.050002098083496094,0.053916473,9.833352,3.877583332250551,0.0,0.06537242252119402,0.0,73,0.002521991729736328,0.9666867898259428,0.9666867898259428,1674,3.7848823246037,0.0
21,1.0954182147979736,3.3108910283120054,1.3352883364709405,4.168895210190941,1.0003377327846412,0.0,0.0969589768593351,0.1,0.0023796558380126953,0.04808473587036133,0.049752757,3.4240234,3.8209141018566966,0.0,0.06121570673944543,0.0,86,0.002452373504638672,0.9637702039479692,0.9637702039479692,1760,3.4494328542938058,0.0
22,1.0587730407714844,3.0280538342922463,1.7483570438526255,4.078919744916592,0.00018527176168126047,0.0,0.09692790602801565,0.1,0.0022993087768554688,0.04671597480773926,0.0503116,4.716088,3.7416280751002517,0.0,0.05555543250414101,0.0,63,0.002341747283935547,0.9698558897185494,0.9698558897185494,1823,3.297044248023114,0.0
23,1.0224909782409668,4.016247723864552,0.017017499998562703,4.044871799860266,4.000522875622681,0.0,0.09969320441656904,0.1,0.002305746078491211,0.04668569564819336,0.05059294,2.1922185,3.769090039976682,0.0,0.07529705640699502,0.0,63,0.0027511119842529297,0.9764799243426482,0.9764799243426482,1886,4.726683608838228,0.0
24,0.9634578227996826,2.5428715131514847,1.6977082855817338,4.157472495981574,0.00019574483478224103,0.0,0.08073771692755169,0.1,0.0022394657135009766,0.07834887504577637,0.051104493,8.907257,3.6464681872941624,0.0,0.0408336497190433,0.0,40,0.002277374267578125,0.9760158823166466,0.9760158823166466,1926,3.8747591335861196,0.0
25,1.0008783340454102,3.5170773626620466,0.8759139609615665,4.0586746704824606,2.0004339549424204,0.0,0.1022672869259697,0.1,0.0024509429931640625,0.046375274658203125,0.047371406,2.091303,3.633529104830951,0.0,0.06533944123154506,0.0,60,0.0025467872619628906,0.973120210256442,0.973120210256442,1986,4.541549690129029,0.0
26,0.9559547901153564,4.017148649746512,0.011877856835397937,4.034616677555995,4.001490368350132,0.0,0.0872434456693647,0.1,0.002417325973510742,0.04553508758544922,0.05005137,3.1284823,3.671891059322507,0.0,0.08032479071691831,0.0,52,0.002647876739501953,0.975998723136988,0.975998723136988,2038,3.6936361101946513,0.0
27,0.9999473094940186,4.0224149662079505,0.017732726007924672,4.051738507635555,4.004351449351409,0.0,0.10689842093943729,0.1,0.002573728561401367,0.0473475456237793,0.051349334,1.9219439,3.7069434500110514,0.0,0.08044470055846283,0.0,81,0.002722024917602539,0.9654915614585796,0.9654915614585796,2119,4.044934419290803,0.0
28,1.0482137203216553,2.032984248036928,2.1524121143029054,4.123923331823413,-0.9998987057864512,0.0,0.09201264504703284,0.1,0.002729654312133789,0.04812788963317871,0.05022075,9.619428,3.5395475298136394,0.0,0.030656511994588798,0.0,69,0.002743959426879883,0.9633538701979961,0.9633538701979961,2188,3.355671232859171,0.0
29,0.9781365394592285,2.7686398547526836,1.3146389015409679,4.069053799881781,1.0038744444660535,0.0,0.08249631410774373,0.1,0.0024061203002929688,0.07213568687438965,0.050038528,3.875293,3.4624567623075437,0.0,0.045359068449162404,0.0,45,0.0027015209197998047,0.9698573243080015,0.9698573243080015,2233,3.878256682539222,0.0
30,1.0187664031982422,2.775999899095452,2.1800600320432024,4.046483074858868,-0.9998938671051794,0.0,0.086001963959867,0.1,0.002489805221557617,0.04708719253540039,0.049887706,5.707835,3.393811075986335,0.0,0.05047533423786073,0.0,62,0.0024557113647460938,0.9759150277227435,0.9759150277227435,2295,4.38482526668975,0.0
31,1.0882439613342285,4.057106341345865,1.472305484337663,6.164307090004839,2.0006353241640475,0.0,0.10652140260573358,0.1,0.002576112747192383,0.051294565200805664,0.05155018,6.827317,3.460140602522288,0.0,0.06613215938364136,0.0,103,0.003187894821166992,0.9850027774722279,0.9850027774722279,2398,4.206080680429968,0.0
32,1.1021449565887451,3.2800005700427803,1.3161580872802492,4.045944821648131,1.000366425512083,0.0,0.1056905041188987,0.1,0.0029299259185791016,0.04969525337219238,0.046216447,8.232517,3.4421265992743373,0.0,0.06059020067259631,0.0,106,0.005280494689941406,0.9604969548343729,0.9604969548343729,2504,3.431049110888315,0.0
33,1.0967514514923096,4.0334129591021854,0.032483804224919574,4.076478782606525,4.0017772884471645,0.0,0.1060540509734625,0.1,0.002888917922973633,0.04911637306213379,0.048833672,3.3608775,3.5012552352571222,0.0,0.08066117742478593,0.0,84,0.0029566287994384766,0.9719881270184375,0.9719881270184375,2588,4.449603825617481,0.0
34,0.9557561874389648,4.009048309532131,0.004793491350849124,4.014943003298804,4.003849388271533,0.0,0.08515008824255432,0.1,0.002250194549560547,0.07931733131408691,0.04960019,3.0653498,3.552034542684623,0.0,0.07518666523878222,0.0,43,0.0020956993103027344,0.9831404442624997,0.9831404442624997,2631,4.529921403724655,0.0
35,1.1426997184753418,4.550620278860889,0.8804553515966088,6.074866649049256,4.003236853606417,0.0,0.10717782338367567,0.1,0.0025606155395507812,0.05121159553527832,0.049026772,11.199609,3.6518931163022494,0.0,0.08101177016743713,0.0,127,0.004094600677490234,0.9768424725528275,0.9768424725528275,2758,3.953506392060637,0.0
36,1.0170507431030273,3.7585292582600114,0.4373125306834873,4.026394479529677,3.0012598690488,0.0,0.0801625006193379,0.1,0.0025606155395507812,0.08727335929870605,0.049164653,3.0509849,3.662556730498026,0.0,0.07017042020866948,0.0,37,0.0023615360260009766,0.9919462680971027,0.9919462680971027,2795,4.203375318019777,0.0
37,1.057206630706787,2.7683252866298544,2.175609845110448,4.040480226616703,-0.9998962572139973,0.0,0.09029530882611062,0.1,0.0025010108947753906,0.045580387115478516,0.049262103,3.047885,3.5731335861112092,0.0,0.050335820563179895,0.0,58,0.0025069713592529297,0.9715434464785816,0.9715434464785816,2853,3.615355160066413,0.0
38,1.1253273487091064,4.5674651259392975,0.9499640275098999,6.212797788435727,4.010554638765461,0.0,0.11236415706459471,0.1,0.002524852752685547,0.051880598068237305,0.049043383,11.376244,3.6725667400940183,0.0,0.0813325455086448,0.0,116,0.0029997825622558594,0.9832935218391009,0.9832935218391009,2969,3.783914647200772,0.0
39,1.082211971282959,4.040183855721831,0.02834950682179514,4.086644907036237,4.013954640063453,0.0,0.0942127120573438,0.1,0.0024967193603515625,0.04659891128540039,0.049331076,3.0465102,3.7093284516567997,0.0,0.08078386644130946,0.0,72,0.0025641918182373047,0.9737575156796431,0.9737575156796431,3041,4.205832478799624,0.0
40,1.1718347072601318,4.54295541558772,0.9055660288673683,6.111372360334835,4.0100258758270195,0.0,0.11197336117686842,0.1,0.002420186996459961,0.04847002029418945,0.05086411,3.3718107,3.792691148049892,0.0,0.08082599459583757,0.0,103,0.0029044151306152344,0.9868040964658074,0.9868040964658074,3144,4.11607884976544,0.0
41,1.1653709411621094,4.064421923368148,0.08971159509442754,4.218322004212266,4.0025911556402125,0.0,0.09983136491359239,0.1,0.002461671829223633,0.05167531967163086,0.050011665,3.3457441,3.8198642255817177,0.0,0.08125565170108395,0.0,79,0.0024788379669189453,0.9785440181787953,0.9785440181787953,3223,4.031045720721237,0.0
42,1.1111805438995361,4.01882849939513,0.012545700443347924,4.035025892342243,4.004291194059409,0.0,0.1102770508417696,0.1,0.0023431777954101562,0.047331809997558594,0.04938027,2.2070189,3.8397606529630592,0.0,0.08037682669421753,0.0,82,0.0026264190673828125,0.9654233060254713,0.9654233060254713,3305,3.2825127932364047,0.0
43,1.3634617328643799,3.2986033251499163,2.618036585647248,6.092071550964601,-0.9999005164825785,0.0,0.10810101396508279,0.1,0.0042612552642822266,0.048163414001464844,0.049675304,5.0877137,3.785644920181745,0.0,0.05095026456077693,0.0,95,0.005303382873535156,0.9873417011471871,0.9873417011471871,3400,4.042887809106074,0.0
44,1.0492346286773682,4.0385669517740155,0.011898998473338028,4.0522080142120025,4.019526730394745,0.0,0.1037150640691676,0.1,0.0026464462280273438,0.05267977714538574,0.049519848,4.1832066,3.810937123340972,0.0,0.08074766248782422,0.0,100,0.0028533935546875,0.9654118528422911,0.9654118528422911,3500,3.7066413846326207,0.0
45,1.0218803882598877,3.015034405970235,1.7406683564850558,4.0465196536846255,0.00024099965767754306,0.0,0.09797654742649839,0.1,0.0024886131286621094,0.04680681228637695,0.049657732,3.064744,3.731346851603899,0.0,0.05529438482443174,0.0,66,0.0026254653930664062,0.9662262854596829,0.9662262854596829,3566,4.040951295540843,0.0
46,1.0240106582641602,2.5065223916438844,1.663908758325887,4.013572900631786,0.0002364431300594383,0.0,0.08050459754574875,0.1,0.0025758743286132812,0.07793664932250977,0.049514998,6.7393956,3.6088644056078976,0.0,0.04011985509949389,0.0,49,0.0025124549865722656,0.9687606457601795,0.9687606457601795,3615,3.526371735765666,0.0
47,0.99330735206604,3.0163660921871513,1.7414279732506928,4.043561916425264,0.00021396472077950257,0.0,0.0754465639128646,0.1,0.0026884078979492188,0.09383988380432129,0.048013784,2.79895,3.549614574265823,0.0,0.050324970845842976,0.0,31,0.0025064945220947266,0.997757513015719,0.997757513015719,3646,3.702694526968775,0.0
48,1.119399070739746,3.522225117467311,0.8784869256204022,4.067032990581429,2.0011796640559316,0.0,0.1044948662837476,0.1,0.0025413036346435547,0.048148393630981445,0.049083386,2.6702085,3.5468756285859717,0.0,0.06545495265383776,0.0,82,0.0028955936431884766,0.9732534130191244,0.9732534130191244,3728,3.625641554495587,0.0
49,1.142199993133545,4.547496454717134,0.8659218166517347,6.046998486786546,4.027531209848561,0.0,0.11811492924038197,0.1,0.0027265548706054688,0.050858497619628906,0.05028567,2.6105344,3.646937711199088,0.0,0.08095662190203434,0.0,124,0.003403902053833008,0.9735153703194981,0.9735153703194981,3852,3.370588648547455,0.0
50,1.0188679695129395,2.762539201891249,1.0950991098679241,4.011392365786355,1.0004408949350088,0.0,0.07443525185184591,0.1,0.0024383068084716797,0.09661173820495605,0.050048944,3.9763384,3.558497860268304,0.0,0.04024992591327796,0.0,27,0.002351045608520508,0.9945517415747405,0.9945517415747405,3879,4.376437554780456,0.0
51,1.0917932987213135,4.027939701208233,0.023620746984142446,4.05591255021004,4.000699467325288,0.0,0.09954059601993932,0.1,0.0027365684509277344,0.049228668212890625,0.050091453,2.4715075,3.605442044362297,0.0,0.07555005889370667,0.0,70,0.0026559829711914062,0.9757383555293404,0.9757383555293404,3949,3.9611030328466246,0.0
52,1.152879238128662,4.150290179743218,0.16545026348705597,4.4148429252795065,4.002378912387398,0.0,0.11053707124955676,0.1,0.0024323463439941406,0.04852724075317383,0.050130334,3.4031625,3.659926857900389,0.0,0.08288730824093728,0.0,99,0.0028684139251708984,0.9721670737219466,0.9721670737219466,4048,3.18656002976598,0.0
53,1.1206154823303223,4.027164765212987,0.017456545688327166,4.054753127064753,4.006723078368346,0.0,0.12208597067834674,0.1,0.002516508102416992,0.051923274993896484,0.0496684,2.1072924,3.696650648631649,0.0,0.08055343711952849,0.0,111,0.003216266632080078,0.9629280560023885,0.9629280560023885,4159,4.5492943606266305,0.0
54,1.0473322868347168,4.013324680943144,0.009857223130065745,4.026839308449404,4.0018715625936565,0.0,0.09308055541653262,0.1,0.002419710159301758,0.0789794921875,0.049608782,1.704327,3.7283180518627983,0.0,0.07525572234913847,0.0,44,0.0026047229766845703,0.9882898872761983,0.9882898872761983,4203,4.288340582319574,0.0
55,1.0651192665100098,2.7617413207367347,2.1717827123669875,4.018596060486372,-0.9998951942238699,0.0,0.08638295535929189,0.1,0.0023450851440429688,0.07418417930603027,0.050313875,4.1540427,3.631660378750192,0.0,0.0502579358646975,0.0,49,0.002412557601928711,0.9730747816270895,0.9730747816270895,4252,3.721483302798987,0.0
56,1.1148438453674316,4.02828586944028,0.023738449392892595,4.064104064732569,4.005020990906547,0.0,0.09473643221289031,0.1,0.004561901092529297,0.047243356704711914,0.04909439,3.618735,3.671322927819201,0.0,0.08055026263144616,0.0,73,0.0026755332946777344,0.9709035359693421,0.9709035359693421,4325,3.963362601631991,0.0
57,1.1205053329467773,4.022338843364089,0.024793503794668235,4.0645643420509785,4.0038183881234515,0.0,0.09223265274382929,0.1,0.0022704601287841797,0.04539203643798828,0.048697457,3.7436254,3.70642451937369,0.0,0.0804637468871553,0.0,58,0.0024292469024658203,0.9779418198964608,0.9779418198964608,4383,3.367918562346094,0.0
58,1.0702142715454102,3.7656116289996997,0.4376484265205437,4.0291364501786635,3.0076844421068247,0.0,0.08062110935281062,0.1,0.0023136138916015625,0.07944488525390625,0.04988917,2.0824175,3.712343230336291,0.0,0.07029122021620525,0.0,40,0.003070354461669922,0.988466833988483,0.988466833988483,4423,3.033021838339876,0.0
59,1.110841989517212,3.5306364782834865,0.4963437679086495,4.037406649132906,3.002639088378539,0.0,0.0894453123091739,0.1,0.0022416114807128906,0.045450448989868164,0.04969647,3.236176,3.6941725551310105,0.0,0.06028549343397123,0.0,52,0.00235748291015625,0.972498739381196,0.972498739381196,4475,3.53351847218044,0.0
60,1.2674479484558105,4.0376767624128345,0.017525527010178055,4.065616408118357,4.017401241112497,0.0,0.10641265214775382,0.1,0.002713918685913086,0.04873824119567871,0.049646836,3.0146363,3.7285229758591933,0.0,0.0807371170517053,0.0,106,0.0029888153076171875,0.9682690123612966,0.9682690123612966,4581,3.87789308474014,0.0
61,1.2871153354644775,3.092549146939336,1.7868187092497574,4.223932782239625,0.00028142494163074794,0.0,0.10067035719540862,0.1,0.002783060073852539,0.050499916076660156,0.04930908,9.84462,3.6649255929672075,0.0,0.05684702762919269,0.0,114,0.003920555114746094,0.9588856496115927,0.9588856496115927,4695,3.2726136907709695,0.0
62,1.1738145351409912,4.537963151733619,0.8994878122064032,6.095712001496977,4.0027249326580945,0.0,0.10627785387597836,0.1,0.0027468204498291016,0.04941868782043457,0.048388183,4.2231126,3.7522293488438487,0.0,0.08080619844026823,0.0,97,0.0025506019592285156,0.9871584089473886,0.9871584089473886,4792,3.2050980477151363,0.0
63,1.1719377040863037,4.300856583444089,1.1052098686917813,6.063478670980565,3.013018520356588,0.0,0.10528456209788584,0.1,0.0026352405548095703,0.04946398735046387,0.04939717,2.1285563,3.8070920723038726,0.0,0.07099088290685915,0.0,96,0.002450704574584961,0.9956681301542154,0.9956681301542154,4888,3.7016625085192647,0.0
64,1.184265375137329,2.8275766079019595,2.2123767517112922,4.277409566330613,-0.9998977469173658,0.0,0.09612073080507028,0.1,0.0026712417602539062,0.04801321029663086,0.050388824,5.750735,3.7091405258636816,0.0,0.051528425068246286,0.0,81,0.0028123855590820312,0.9684828755201856,0.9684828755201856,4969,4.041834965781288,0.0
65,1.1861286163330078,4.031628076231309,0.018028588811995382,4.054913605499856,4.005016262512665,0.0,0.10417901328346645,0.1,0.0026366710662841797,0.050157785415649414,0.049592607,3.8807564,3.7413892809004445,0.0,0.08062052857438627,0.0,115,0.003066539764404297,0.967784669250489,0.967784669250489,5084,3.625800001666503,0.0
66,1.1194775104522705,3.3552878335149217,1.3617019960568617,4.24467625073045,1.0003432817809577,0.0,0.10049313055089405,0.1,0.0034437179565429688,0.04851984977722168,0.049853373,4.070272,3.7027791361618925,0.0,0.062111362869233654,0.0,89,0.0027484893798828125,0.9623227102875603,0.9623227102875603,5173,4.131950336229427,0.0
67,1.1230905055999756,3.0221385339899074,1.743189449554269,4.055623870669245,0.003032673618944548,0.0,0.08935721849375011,0.1,0.0023412704467773438,0.045714378356933594,0.049724948,3.518885,3.634715075944694,0.0,0.05543980592735613,0.0,53,0.0025725364685058594,0.975321030177159,0.975321030177159,5226,2.849069981686952,0.0
68,1.1910498142242432,3.5351592077201324,0.8830524028891057,4.067474721634879,2.006269106156629,0.0,0.10431613635935255,0.1,0.002541065216064453,0.04918551445007324,0.049950626,3.5108573,3.624759489122238,0.0,0.06570130455124518,0.0,96,0.0027513504028320312,0.9668543099997109,0.9668543099997109,5322,3.9600436767898253,0.0
69,1.1911544799804688,4.046320287272231,0.022709547344999373,4.076753419672424,4.0200722232353385,0.0,0.11698865502412853,0.1,0.002618551254272461,0.05434417724609375,0.04940641,2.3450959,3.6669155689372372,0.0,0.08092791318325589,0.0,124,0.00681757926940918,0.9628084591624743,0.9628084591624743,5446,3.2007242393887503,0.0
70,1.1915810108184814,4.127954418916455,0.17312103571872278,4.42683227103271,4.007843040088212,0.0,0.10179966584511803,0.1,0.0026092529296875,0.052567243576049805,0.049436454,4.163851,3.7130194539351593,0.0,0.08253261720320815,0.0,94,0.0026938915252685547,0.9695991196250114,0.9695991196250114,5540,4.031376975667508,0.0
71,1.1642138957977295,3.2905713328073998,1.3207955215696714,4.117772173784567,1.0040342982923949,0.0,0.08644387799782739,0.1,0.002366304397583008,0.04609823226928711,0.048979305,6.069776,3.6707746418223834,0.0,0.06079046706265445,0.0,57,0.0025281906127929688,0.9761480545470816,0.9761480545470816,5597,3.2937094123717725,0.0
72,1.241133213043213,4.572332961916317,0.9402051539882317,6.200500898643323,4.004988857946117,0.0,0.10523464073528735,0.1,0.002508878707885742,0.049401044845581055,0.04992135,3.3463144,3.760930473831777,0.0,0.0814075302324382,0.0,99,0.0026302337646484375,0.9877323828683074,0.9877323828683074,5696,3.5231539274594135,0.0
73,1.1371567249298096,3.764477260754926,0.44117281064048824,4.041653630683693,3.000721697016863,0.0,0.10191269242889611,0.1,0.0024476051330566406,0.04677224159240723,0.049818292,2.642414,3.761285152524092,0.0,0.07028283737568228,0.0,73,0.002721071243286133,0.9675811008333343,0.9675811008333343,5769,4.038660146687778,0.0
74,1.239100694656372,4.614616736838976,1.0354481761857686,6.407994958409644,4.002874432727728,0.0,0.1062435151729926,0.1,0.0024123191833496094,0.04938936233520508,0.049110863,4.164686,3.8466183109555807,0.0,0.07728786080815028,0.0,89,0.0024967193603515625,0.9986575745855234,0.9986575745855234,5858,3.946543283506628,0.0
75,1.1709342002868652,3.035485259802489,1.0353975683272432,4.106492202981828,2.00039289939362,0.0,0.10257931663519168,0.1,0.0023729801177978516,0.04683184623718262,0.0478677,3.9292495,3.7655050058402715,0.0,0.05064856176803324,0.0,71,0.0024025440216064453,0.9609470275908437,0.9609470275908437,5929,3.991582833153831,0.0
76,1.138981580734253,4.009508397178355,0.004109829497258086,4.013561117083107,4.002655978738682,0.0,0.09842165374256523,0.1,0.002267599105834961,0.04797530174255371,0.050266534,7.8471866,3.78990534497408,0.0,0.08018109122046735,0.0,59,0.0026123523712158203,0.973369184341379,0.973369184341379,5988,3.8679404586986394,0.0
77,1.7269682884216309,3.534505581154807,0.8844629604790223,4.079221649276059,2.003267333170892,0.0,0.09974929514503553,0.1,0.0023386478424072266,0.04789137840270996,0.049247876,13.10168,3.764365368592153,0.0,0.06570212243511016,0.0,78,0.004747152328491211,0.9669450533988039,0.9669450533988039,6066,3.6983691945649695,0.0
78,1.0572516918182373,2.759851401094678,1.6466236456201724,4.03327771760726,0.0002526884807163565,0.0,0.07996161699668078,0.1,0.0024347305297851562,0.08227944374084473,0.050735705,2.295799,3.6639139718424056,0.0,0.04518711726185722,0.0,33,0.002343893051147461,0.9859993114259233,0.9859993114259233,6099,3.2746854955398237,0.0
79,1.1551196575164795,4.040067763295774,0.04779024694763004,4.119752870359512,4.000771744589846,0.0,0.10250816217184539,0.1,0.0026235580444335938,0.04965949058532715,0.05009947,2.33006,3.7015293509877427,0.0,0.07572115482958963,0.0,70,0.0025908946990966797,0.9708111234898777,0.9708111234898777,6169,4.1412597481495785,0.0
80,1.202956199645996,2.772946291964987,2.178331392197732,4.047284810809563,-0.9999028198246689,0.0,0.0941309357341692,0.1,0.0028104782104492188,0.04879593849182129,0.049647626,4.821345,3.6086710450854675,0.0,0.045424329127296964,0.0,63,0.002337217330932617,0.9679711254371033,0.9679711254371033,6232,3.9872997481111363,0.0
81,1.0670170783996582,3.0059730832748564,1.7353655764692797,4.014543747729237,0.00024049738794951203,0.0,0.08021291485362156,0.1,0.002415895462036133,0.08342719078063965,0.048981603,2.6313117,3.5484012489044066,0.0,0.0551282444593365,0.0,33,0.0025823116302490234,0.9933590136746504,0.9933590136746504,6265,3.86462966349425,0.0
82,1.0847477912902832,2.5032732533896347,1.5029460662627354,4.01039069602487,1.000284875023016,0.0,0.06936190650608619,0.1,0.002830028533935547,0.10278701782226562,0.04981235,6.7116766,3.4438884493529294,0.0,0.03505804354514962,0.0,25,0.002457141876220703,0.9935814562231364,0.9935814562231364,6290,4.219581082120604,0.0
83,1.1372764110565186,4.029808434293328,0.017482919278580405,4.055598207507328,4.006773470396281,0.0,0.09376702400302271,0.1,0.002557516098022461,0.04526472091674805,0.050111353,2.4029539,3.5024804478469695,0.0,0.08060753410254243,0.0,52,0.002531766891479492,0.9793626439019469,0.9793626439019469,6342,3.286827516905536,0.0
84,1.2484674453735352,4.5770423604970425,0.8763268640806681,6.092786564906548,4.007696771918462,0.0,0.1253009872039632,0.1,0.002920389175415039,0.05239391326904297,0.050324924,5.939973,3.609936639111977,0.0,0.08151742551972382,0.0,154,0.009569644927978516,0.974043932566858,0.9534136978422125,6496,4.032908951421558,0.0
85,1.1869580745697021,1.2650148333362097,1.9415717581218725,4.059367030641065,-0.9998960339710234,0.0,0.07970555450308953,0.1,0.0023937225341796875,0.07780265808105469,0.051272936,27.978445,3.3754444585344,0.0,0.010292664449968226,0.0,40,0.014836311340332031,0.9450640181177238,0.9450640181177238,6536,3.280360725168547,0.0
86,1.2444937229156494,4.0483999169683615,0.04836534159155565,4.129012324378328,4.00102754851984,0.0,0.09895946870582957,0.1,0.002512216567993164,0.04722738265991211,0.04981094,2.7101374,3.4427400043777965,0.0,0.08096160245450053,0.0,81,0.002610445022583008,0.9552163659013103,0.9552163659013103,6617,3.6774738554604163,0.0
87,1.1614940166473389,3.0066443235737705,1.7357520966841586,4.0150299991338745,0.0002446390295198775,0.0,0.088490142575643,0.1,0.002427339553833008,0.0764455795288086,0.04968577,5.8101463,3.399130436297394,0.0,0.055133979927408816,0.0,46,0.0024526119232177734,0.9638846630254405,0.9638846630254405,6663,3.4517416410770383,0.0
88,1.2735636234283447,4.574384870514093,0.8636694321761322,6.06907512660141,4.02829083651867,0.0,0.1195667696823657,0.1,0.002837657928466797,0.05318617820739746,0.04747175,2.2665856,3.516655879719064,0.0,0.08144473195583127,0.0,157,0.009608268737792969,0.9468911726244738,0.9227956180958322,6820,2.681140147886041,0.0
89,1.2887828350067139,4.574393781544217,0.8840416262324877,6.104422007156309,4.033578958564088,0.0,0.1231031568546935,0.1,0.0038154125213623047,0.0507197380065918,0.050037466,2.6670604,3.622429669901579,0.0,0.0814506337108177,0.0,154,0.009521484375,0.9349544719306703,0.9122837820862479,6974,3.6828908693215436,0.0
90,1.2587502002716064,4.149575617824581,0.14101473883541657,4.363363426298185,4.003806871081789,0.0,0.11257598812898581,0.1,0.002593994140625,0.04902529716491699,0.04873467,6.309052,3.6751442646938792,0.0,0.08275678931858645,0.0,111,0.002738475799560547,0.8804507533976474,0.8804507533976474,7085,3.356920735427788,0.0
91,1.2393505573272705,3.2890319288452234,1.321445514631639,4.073313514338555,1.0003340959832598,0.0,0.10198096953399749,0.1,0.0025064945220947266,0.047034263610839844,0.050162245,3.044219,3.636533031109014,0.0,0.06075826325689351,0.0,82,0.002420663833618164,0.8810271618697474,0.8810271618697474,7167,3.6343462804628683,0.0
92,1.214045524597168,2.768550966248856,2.175770123508752,4.048303652892995,-0.9998987402264401,0.0,0.09779654321546116,0.1,0.0024728775024414062,0.04540252685546875,0.049718745,2.7147932,3.5497348246229983,0.0,0.05036110568137768,0.0,60,0.002444028854370117,0.9030724517607022,0.9030724517607022,7227,3.3689799876928226,0.0
93,1.1547935009002686,4.023200523093657,0.015031943292616276,4.046840630957064,4.005574151514593,0.0,0.10407756933172474,0.1,0.002725362777709961,0.04864144325256348,0.05058413,2.741833,3.5970813944700644,0.0,0.0804616596581692,0.0,75,0.0025064945220947266,0.9027747962630108,0.9027747962630108,7302,3.745962486220009,0.0
94,1.1707744598388672,2.822447456501384,2.2086971198328222,4.2443217398768445,-0.9999103129734286,0.0,0.10627901013963592,0.1,0.0028095245361328125,0.04891633987426758,0.048700873,2.8019414,3.5196180006731965,0.0,0.051405494851362823,0.0,85,0.0027158260345458984,0.8696187825109822,0.8696187825109822,7387,3.4444044908348146,0.0
95,1.2600126266479492,4.050572999709292,0.018823804310828467,4.082243664994058,4.034068234732585,0.0,0.12635699460925248,0.1,0.003078460693359375,0.0519108772277832,0.05006042,2.7047856,3.572713500576806,0.0,0.08100487834008185,0.0,148,0.01001596450805664,0.8641092501474437,0.8225362277571635,7535,3.9387751608370536,0.0
96,1.1311547756195068,2.781988784847559,2.183809779220223,4.104807265591939,-0.9998931508639008,0.0,0.07632977994025078,0.1,0.0025091171264648438,0.08342766761779785,0.048940614,3.0549242,3.4936410290038813,0.0,0.05063480255692837,0.0,36,0.0025568008422851562,0.9641020577513069,0.9641020577513069,7571,4.022805786137539,0.0
97,1.22222900390625,2.804226551371584,2.196756215766012,4.144420283550042,-0.9998956158084868,0.0,0.10200645321818018,0.1,0.0027251243591308594,0.049082040786743164,0.049719658,4.962054,3.4246995812406515,0.0,0.051079256517917004,0.0,94,0.002564668655395508,0.8327053164539499,0.8327053164539499,7665,3.020228599235567,0.0
98,1.1886672973632812,3.0250131973172696,1.744368876757361,4.0628449802355755,0.003903142738302723,0.0,0.09359125421367126,0.1,0.0024390220642089844,0.04651021957397461,0.04843389,3.0482583,3.3847309428483134,0.0,0.0554735230721939,0.0,56,0.0029392242431640625,0.8772038841529621,0.8772038841529621,7721,3.188063462474106,0.0
99,1.1872236728668213,4.019858327904708,0.01523141209605378,4.044108171716058,4.003900133986819,0.0,0.09432393612464715,0.1,0.0024950504302978516,0.05192756652832031,0.050162625,3.3143978,3.4482436813539534,0.0,0.08037997157798385,0.0,69,0.0026123523712158203,0.8815140895126186,0.8815140895126186,7790,3.6428867396452342,0.0
100,1.1449036598205566,3.3010514536146665,0.5149996546680361,4.19305466461943,3.0025274314810835,0.0,0.08190996697115122,0.1,0.0024809837341308594,0.07816076278686523,0.04862719,2.2833998,3.433524458580025,0.0,0.05102619115279261,0.0,40,0.0024809837341308594,0.923800163428935,0.923800163428935,7830,4.301810224906885,0.0
101,1.163717269897461,2.0042558624291695,2.003981257993457,4.011494020389658,0.00024433511767019134,0.0,0.08441663344388108,0.1,0.002306699752807617,0.09652519226074219,0.049641676,2.0663164,3.2905975989649394,0.0,0.03008466033627671,0.0,29,0.0025529861450195312,0.9289017573721005,0.9289017573721005,7859,3.291335158756359,0.0
102,1.2363874912261963,4.021695563304714,0.00554806345466928,4.031233244677329,4.0176475605097455,0.0,0.11388110849533284,0.1,0.00244903564453125,0.04790043830871582,0.049539436,2.2067535,3.363707395398917,0.0,0.0804058957052303,0.0,89,0.002691030502319336,0.8570665754350203,0.8570665754350203,7948,3.196821186683654,0.0
103,1.1962535381317139,3.5202776268720823,0.8767059994373138,4.028971618762423,2.0017873299043645,0.0,0.10252750559479275,0.1,0.0024139881134033203,0.0466763973236084,0.04953666,3.5643501,3.3793644185462335,0.0,0.06538935441555506,0.0,72,0.0026073455810546875,0.857289661616422,0.857289661616422,8020,3.334313169324267,0.0
104,1.1913487911224365,4.020228342230122,0.011951929630906855,4.039222546715013,4.008540529915071,0.0,0.10017486556137876,0.1,0.002360820770263672,0.04905247688293457,0.0507043,3.1556013,3.4434508109146225,0.0,0.07539909253094763,0.0,70,0.0027108192443847656,0.881657713750146,0.881657713750146,8090,3.377941001803098,0.0
105,1.242910385131836,4.025077298472321,0.020015400466614184,4.055549426945471,4.006548428107164,0.0,0.11024504612281213,0.1,0.002448558807373047,0.04842329025268555,0.04929643,3.439556,3.5016134596703923,0.0,0.0805073928088356,0.0,93,0.002632617950439453,0.8402493575908329,0.8402493575908329,8183,4.296445408135856,0.0
106,1.3101413249969482,4.047789248679333,0.012927782755317172,4.0680295468681535,4.0329156677997515,0.0,0.11718753004403216,0.1,0.002473592758178711,0.04953575134277344,0.049741924,2.8461215,3.5562310385712865,0.0,0.08089663435266516,0.0,121,0.0030760765075683594,0.8362635675391734,0.8362635675391734,8304,3.129034620673263,0.0
107,1.2445542812347412,4.062013939408068,0.07729985347077936,4.195409599544762,4.008467283817459,0.0,0.10252878526701657,0.1,0.0032591819763183594,0.048082590103149414,0.04980556,2.3105745,3.6068093286549647,0.0,0.08130099694968528,0.0,75,0.002743959426879883,0.8768849091657965,0.8768849091657965,8379,3.53502011640702,0.0
108,1.165844202041626,2.2554694266980713,2.0506853116514727,4.017946680013688,-0.9998933237293783,0.0,0.08576838603533143,0.1,0.0023429393768310547,0.07843589782714844,0.049478196,6.053697,3.4716753384592756,0.0,0.035114132309100765,0.0,46,0.002362966537475586,0.8753017946674079,0.8753017946674079,8425,3.20040011976257,0.0
109,1.2118585109710693,4.006446682633507,0.0005984782974524796,4.00705447968331,4.005778457807942,0.0,0.09172550001152804,0.1,0.0030574798583984375,0.047202348709106445,0.050190747,3.053643,3.5251524728766985,0.0,0.08017204358862876,0.0,51,0.0024564266204833984,0.9299520649058863,0.9299520649058863,8476,3.7807958206084518,0.0
110,1.1917667388916016,4.036669621706698,0.029714982813193205,4.0824007236650415,4.01008032464512,0.0,0.101213757673024,0.1,0.002641439437866211,0.048642873764038086,0.049335565,3.021633,3.576304187759699,0.0,0.080626778433301,0.0,74,0.002712726593017578,0.8727704527176057,0.8727704527176057,8550,4.028373266456794,0.0
111,1.1836662292480469,3.7616253352811952,0.4395355306648979,4.0297961163793845,3.0004828067024327,0.0,0.08520842589891453,0.1,0.0025892257690429688,0.07877659797668457,0.050101746,2.6833386,3.5948363025118484,0.0,0.0702401673586692,0.0,41,0.0024309158325195312,0.9593545063332378,0.9593545063332378,8591,3.559191683732484,0.0
112,1.2374696731567383,3.52795008497682,0.8814257122131308,4.061438457231491,2.0015155570779326,0.0,0.10466784673464201,0.1,0.002749204635620117,0.0503849983215332,0.050172176,3.9059048,3.588147680758346,0.0,0.06556122051686836,0.0,96,0.0029392242431640625,0.8262489833874673,0.8262489833874673,8687,3.665472243135906,0.0
113,1.153613805770874,2.01201578093748,2.132471455804262,4.028051593556663,-0.9998875488265713,0.0,0.07569208071995671,0.1,0.0024111270904541016,0.09403443336486816,0.049795464,4.5466375,3.4305344907762594,0.0,0.03022457910261804,0.0,29,0.0044400691986083984,0.9338590701183669,0.9338590701183669,8716,3.706966544500601,0.0
114,1.293135404586792,4.025339645439857,0.016618720464360276,4.045983828961936,4.003288028806278,0.0,0.10280110025326716,0.1,0.002691507339477539,0.04924345016479492,0.050105806,5.367921,3.490015006242619,0.0,0.08050226897232521,0.0,94,0.0026912689208984375,0.861443050544418,0.861443050544418,8810,3.7099680179299894,0.0
115,1.1557660102844238,4.020632013305491,0.029550938309070872,4.071643810653127,4.001499268098634,0.0,0.08552591516227363,0.1,0.0026607513427734375,0.0739595890045166,0.04903923,2.9322486,3.543076706948906,0.0,0.0804335282080825,0.0,45,0.0025970935821533203,0.9711116709184222,0.9711116709184222,8855,3.4517475113126803,0.0
116,1.2212109565734863,3.771742601826112,0.4442888672730439,4.068821574343393,3.0034663634936933,0.0,0.10091950631198113,0.1,0.0024194717407226562,0.05254387855529785,0.049021795,2.5126312,3.5659432964366267,0.0,0.07041093360059282,0.0,66,0.002667665481567383,0.8754641274724245,0.8754641274724245,8921,4.136652345070016,0.0
117,1.264124870300293,4.0420945638943735,0.04630264344450502,4.12189158880125,4.008485161201004,0.0,0.11285160105546217,0.1,0.0025177001953125,0.049544572830200195,0.049772233,2.3008702,3.6135584231824014,0.0,0.08081878281301806,0.0,95,0.0025436878204345703,0.8437764734152571,0.8437764734152571,9016,3.632737670686248,0.0
118,1.2007615566253662,3.0189144067459255,1.742858087816978,4.0373893066440445,0.00022779671394346224,0.0,0.09835108282189262,0.1,0.002382993698120117,0.04588770866394043,0.05011734,3.4877217,3.554094021538754,0.0,0.05536944822236152,0.0,59,0.0025048255920410156,0.8719691841566282,0.8719691841566282,9075,2.9503074949155472,0.0
119,1.2394988536834717,3.8616044540346026,0.5186990135860678,4.39288852059692,3.0020658156316964,0.0,0.10733454249108733,0.1,0.0024280548095703125,0.047425270080566406,0.049269687,2.209999,3.5848450647883388,0.0,0.06722210425210945,0.0,79,0.002321958541870117,0.8620950583216855,0.8620950583216855,9154,4.214486041450725,0.0
120,1.2200052738189697,2.759922250667822,2.1707388592878223,4.018343360869652,-0.9999020089804886,0.0,0.08866129856314953,0.1,0.0023546218872070312,0.07925057411193848,0.048156306,2.665184,3.502352783376287,0.0,0.05017730812790668,0.0,44,0.002360105514526367,0.9118741142283916,0.9118741142283916,9198,4.048348690402631,0.0
121,1.267397403717041,2.7859544650599846,1.6642244732494171,4.069854192954891,0.0017041635879835315,0.0,0.09967193626671278,0.1,0.0041010379791259766,0.04877448081970215,0.048841756,7.626901,3.430712951544657,0.0,0.04570875045622822,0.0,74,0.0024826526641845703,0.8366610061581157,0.8366610061581157,9272,3.6233093720485887,0.0
122,1.3214194774627686,4.038317415331591,0.01819608136112501,4.056636662735855,4.009768786870308,0.0,0.11773636749508953,0.1,0.005860090255737305,0.048682451248168945,0.04951859,2.3357177,3.4914733979233508,0.0,0.08076140449280517,0.0,105,0.005350828170776367,0.8346664798563508,0.8346664798563508,9377,4.308486516581007,0.0
123,1.2316615581512451,3.0328449993761972,1.7513131525001377,4.1066010624131835,0.00021903851083249215,0.0,0.09042325969638798,0.1,0.0026335716247558594,0.07702183723449707,0.04970054,2.251904,3.4456105580686356,0.0,0.05562640829184902,0.0,47,0.002403736114501953,0.9019438514055185,0.9019438514055185,9424,3.860725510408777,0.0
124,1.2676868438720703,2.7709265647440464,2.1770925264377903,4.038798431643949,-0.99988961780932,0.0,0.09127771022056351,0.1,0.0024116039276123047,0.04604387283325195,0.049208786,2.3327658,3.3781421587361766,0.0,0.05043024250656644,0.0,56,0.002428293228149414,0.8953252842507056,0.8953252842507056,9480,4.762014742755329,0.0
125,1.216423749923706,4.0292973459032,0.02609370778511045,4.074227878259412,4.010714741551744,0.0,0.12006700630713975,0.1,0.002915620803833008,0.05224180221557617,0.049390778,4.747227,3.443257677452879,0.0,0.08052646129140739,0.0,125,0.0033822059631347656,0.8226463090946606,0.8226463090946606,9605,3.3806598690941136,0.0
126,1.2538015842437744,4.022577143185451,0.013851688202878439,4.03850821947402,4.0016481837635585,0.0,0.10749987022274392,0.1,0.0028777122497558594,0.04880881309509277,0.049818512,2.357198,3.5011896240261366,0.0,0.08042395061826718,0.0,71,0.0024912357330322266,0.8876924393950479,0.8876924393950479,9676,3.9660683826999743,0.0
127,1.310044288635254,4.021897815620761,0.014720437087737716,4.039276473475881,4.004520853481956,0.0,0.11075806158835487,0.1,0.0027878284454345703,0.05149722099304199,0.0490229,2.4561477,3.553260443185599,0.0,0.08048554998875562,0.0,102,0.0047452449798583984,0.842662892011811,0.842662892011811,9778,3.870004756213302,0.0
128,1.2958989143371582,4.033341219330692,0.02179554355142524,4.069548459354492,4.011903001044185,0.0,0.10902539754504961,0.1,0.0028209686279296875,0.04944157600402832,0.049425635,2.2859511,3.601268520800109,0.0,0.07564375865147138,0.0,90,0.002708911895751953,0.8464723877199211,0.8464723877199211,9868,4.043934271164679,0.0
129,1.2868642807006836,2.7753420686937083,2.179693037806746,4.059045305523959,-0.9998984054174007,0.0,0.08936832532394737,0.1,0.002517223358154297,0.0477294921875,0.049309935,3.6560528,3.518675875589469,0.0,0.05050102623100278,0.0,50,0.0023581981658935547,0.8985797097499489,0.8985797097499489,9918,4.194302100118722,0.0
130,1.3075108528137207,4.042265320430693,0.0312613173280021,4.089947251757066,4.002751260998018,0.0,0.10522407277072199,0.1,0.0028007030487060547,0.05235171318054199,0.048198096,6.646127,3.5710348200735913,0.0,0.08082688488211853,0.0,95,0.00281524658203125,0.840562846309854,0.840562846309854,10013,3.857383248207894,0.0
131,1.2134194374084473,4.046140920361163,0.04322083984786805,4.12081969143178,4.0172881298797405,0.0,0.09888765702741532,0.1,0.002593994140625,0.047955989837646484,0.049764026,2.6162288,3.6185454301023485,0.0,0.08096774755012821,0.0,68,0.002634763717651367,0.897582091490466,0.897582091490466,10081,3.938567861776338,0.0
132,1.28214430809021,4.04216676086912,0.04612788267231167,4.121445767377019,4.0071364773551865,0.0,0.11005267962531076,0.1,0.0025663375854492188,0.04951190948486328,0.04955145,2.211113,3.660907563179026,0.0,0.08084594671187745,0.0,91,0.003148794174194336,0.8571040971645665,0.8571040971645665,10172,4.220197480429291,0.0
133,1.2513296604156494,3.0129183428829434,1.7394482672937608,4.036767623110563,0.00017838337166531382,0.0,0.08412151130061128,0.1,0.002638101577758789,0.099395751953125,0.050437067,1.7723697,3.596108641149418,0.0,0.05021249196507444,0.0,31,0.0026161670684814453,0.9737328214960946,0.9737328214960946,10203,3.620105837715503,0.0
134,1.1791810989379883,3.762886130519925,0.43210799806415867,4.02012031379067,3.014507771559322,0.0,0.08705381770182817,0.1,0.0028667449951171875,0.08443164825439453,0.05032439,1.513844,3.6127863900864687,0.0,0.06526158658596734,0.0,36,0.002740144729614258,1.0088452665355485,1.0088452665355485,10239,3.7747969515103947,0.0
135,1.230804443359375,3.781212065947534,0.45064885171840463,4.053316927224744,3.0008155415840565,0.0,0.10099350142227555,0.1,0.0025963783264160156,0.047797441482543945,0.049022537,2.895135,3.6296289576725753,0.0,0.07060693732473108,0.0,70,0.002744913101196289,0.8636021310008628,0.8636021310008628,10309,3.9760675883049643,0.0
136,1.230168342590332,4.017904078915155,0.010607750485867116,4.033218515692985,4.003655025443869,0.0,0.11411058907023697,0.1,0.0025784969329833984,0.04927635192871094,0.049524277,3.2029293,3.6684564697968334,0.0,0.08034006239197897,0.0,92,0.0027229785919189453,0.8532254486504243,0.8532254486504243,10401,4.364317101301397,0.0
137,1.3335800170898438,4.521840018063931,0.8820256530647671,6.049432951103877,4.002635042879115,0.0,0.10867265473685407,0.1,0.002561330795288086,0.04947066307067871,0.051196586,4.936512,3.7537948246235433,0.0,0.07544066948400845,0.0,98,0.002956867218017578,0.9671273697873167,0.9671273697873167,10499,3.6144642866511583,0.0
138,1.3018760681152344,3.0471103151410555,1.7594812609503832,4.117145841940554,0.0004450355416476537,0.0,0.09403762062920408,0.1,0.002416372299194336,0.05552172660827637,0.04970572,3.9755924,3.683126373675295,0.0,0.050870181392866275,0.0,72,0.002626657485961914,0.8484205774876826,0.8484205774876826,10571,3.9683684335237968,0.0
139,1.369157314300537,1.794075148642725,2.73674492733914,6.1419900703592525,-0.9998913186770699,0.0,0.09471630067848866,0.1,0.0025339126586914062,0.04647064208984375,0.049762774,10.737419,3.494221251172038,0.0,0.01088680211021351,0.0,57,0.0024657249450683594,1.1332252804427059,1.1332252804427059,10628,4.52759744644529,0.0
140,1.3100194931030273,4.293810754375732,1.1448405227877319,6.144621631121448,3.0059115496830113,0.0,0.10148945156684723,0.1,0.002465486526489258,0.04819130897521973,0.05000751,3.573293,3.5741802014924073,0.0,0.07080180225060623,0.0,86,0.00254058837890625,1.0077292730710645,1.0077292730710645,10714,4.108597548070965,0.0
141,1.2912821769714355,2.7634081155156123,2.1728086267025786,4.045319016997975,-0.9998938911424797,0.0,0.07972046610631904,0.1,0.0023894309997558594,0.08422231674194336,0.049315635,2.9434032,3.493102992894728,0.0,0.05022924474251116,0.0,38,0.0024929046630859375,0.943771409681217,0.943771409681217,10752,3.099451955009485,0.0
142,1.4421334266662598,3.7805506584317006,0.4507302543573908,4.084741914459876,3.0012919687380752,0.0,0.0986747414711984,0.1,0.002437591552734375,0.04634428024291992,0.05034868,4.3693047,3.521847759448425,0.0,0.07060451422972144,0.0,61,0.0025000572204589844,0.8889970212479583,0.8889970212479583,10813,3.442638819701258,0.0
143,1.2635011672973633,3.5397952260364467,0.8891133744368359,4.091874790800343,2.0007424970928946,0.0,0.10414191791726185,0.1,0.0027446746826171875,0.04956984519958496,0.049059838,8.778312,3.5236425061072274,0.0,0.06579449397738583,0.0,93,0.002849102020263672,0.8321155192079465,0.8321155192079465,10906,2.7797982974960127,0.0
144,1.2361984252929688,3.0220210991386764,1.7447428411078558,4.049085495768937,0.0001936053196895937,0.0,0.09189738975239066,0.1,0.0026030540466308594,0.047202348709106445,0.04915998,3.5319977,3.4734803654103725,0.0,0.050437024436840894,0.0,62,0.002502918243408203,0.8811176189664797,0.8811176189664797,10968,3.1929643791640605,0.0
145,1.3376142978668213,4.039999395620895,0.02397021958800181,4.067333009863457,4.004384847743465,0.0,0.12067959922515001,0.1,0.0029108524322509766,0.05170726776123047,0.050068505,2.6562762,3.530132268431425,0.0,0.08079379177558015,0.0,136,0.011633157730102539,0.8172088659336146,0.7687988058924055,11104,3.7047786978805135,0.0
146,1.3088245391845703,4.024817603125912,0.02410689557775193,4.058098584979675,4.001276173781989,0.0,0.09422590142562165,0.1,0.0025746822357177734,0.04816102981567383,0.04893083,3.324174,3.5796008019008743,0.0,0.07549078293235958,0.0,75,0.0028228759765625,0.8509635766483753,0.8509635766483753,11179,3.4502774629671946,0.0
147,1.395578145980835,4.527660824743558,0.8802773173359957,6.052232405570341,4.0067743634572945,0.0,0.12108971177399182,0.1,0.002673625946044922,0.05072164535522461,0.049482953,2.6096687,3.6744068041851428,0.0,0.08055268537652137,0.0,117,0.003089427947998047,0.9168772966870302,0.9168772966870302,11296,3.9689480605878593,0.0
148,1.227381706237793,4.02113090074829,0.02186465640473715,4.058596007987768,4.00460290074273,0.0,0.10365746669072981,0.1,0.0025582313537597656,0.04745316505432129,0.049915496,1.9119755,3.7090792138414574,0.0,0.0804163534110669,0.0,70,0.002481222152709961,0.8568586442943505,0.8568586442943505,11366,3.026942539607726,0.0
149,1.368898868560791,4.0471410078947585,0.0505914922088941,4.134649582589808,4.013679642525936,0.0,0.10801583799281833,0.1,0.0025107860565185547,0.048836469650268555,0.050298646,2.2289371,3.7428853932467874,0.0,0.0809305082427105,0.0,77,0.0027146339416503906,0.8556789396457003,0.8556789396457003,11443,2.8691729355701043,0.0
150,1.2724342346191406,3.511303404496356,0.872278307330677,4.033507975744422,2.0006057498076957,0.0,0.09656107563233637,0.1,0.002360105514526367,0.049173831939697266,0.049838465,2.2173984,3.7197271943717443,0.0,0.06521499438256965,0.0,60,0.0024871826171875,0.8553787790059707,0.8553787790059707,11503,4.367918095060434,0.0
151,1.346355676651001,3.02082811572755,1.743832960061787,4.058257446053864,0.0006247429287120632,0.0,0.09799208174674996,0.1,0.0023932456970214844,0.04693722724914551,0.05006966,3.4858813,3.649837286507325,0.0,0.05041561613938192,0.0,73,0.0026199817657470703,0.812459311905131,0.812459311905131,11576,3.521064193497832,0.0
152,1.2969284057617188,1.7618076163865413,2.289132718194786,4.029920727234929,-0.9998978847538833,0.0,0.08097030637695,0.1,0.0026357173919677734,0.08240842819213867,0.049649835,3.792805,3.461034319495247,0.0,0.025227315322541303,0.0,38,0.002203226089477539,0.8622218548894517,0.8622218548894517,11614,3.948552456949909,0.0
153,1.3196361064910889,4.0425941668328464,0.026606425306616478,4.080444684523945,4.0083215183849665,0.0,0.11834406686637268,0.1,0.0028984546661376953,0.050462961196899414,0.049922418,2.1133657,3.5191903042290074,0.0,0.08086368100062696,0.0,111,0.003613710403442383,0.7989360320478074,0.7989360320478074,11725,4.215367546994679,0.0
154,1.2751736640930176,1.7759339511616319,2.3032022845608284,4.086202926492387,-0.9998919787927978,0.0,0.09064596957830183,0.1,0.002438068389892578,0.07609963417053223,0.05029512,2.4336731,3.34486466892227,0.0,0.025541631835184268,0.0,44,0.003284931182861328,0.8414006653685936,0.8414006653685936,11769,3.9853801840163094,0.0
155,1.2509522438049316,4.05236567412399,0.017795469863523383,4.072161902206085,4.028016084930051,0.0,0.11234760055051576,0.1,0.0027379989624023438,0.04814910888671875,0.04942886,2.3294783,3.4156147694424424,0.0,0.08103285673974922,0.0,85,0.0025482177734375,0.819573324758625,0.819573324758625,11854,3.5505198031236085,0.0
156,1.306983470916748,4.025770561708079,0.02243393586988614,4.060122586214194,4.003974227537517,0.0,0.09695633867505207,0.1,0.002380847930908203,0.046926259994506836,0.05126571,2.735932,3.476630348669006,0.0,0.0804929430650797,0.0,67,0.002654552459716797,0.876832495670991,0.876832495670991,11921,4.050195509257728,0.0
157,1.262174129486084,4.008875448339168,0.008042585252822355,4.022560099663421,4.003033434015521,0.0,0.09796662870594401,0.1,0.002480030059814453,0.04632115364074707,0.050804358,2.2907677,3.529854858636022,0.0,0.08015388089144823,0.0,56,0.002413511276245117,0.8933522907808319,0.8933522907808319,11977,3.4665798955334997,0.0
158,1.2549467086791992,3.5157080890601886,0.873521773903524,4.025440977550344,2.0027411689598367,0.0,0.09632504341028926,0.1,0.0023403167724609375,0.04659128189086914,0.049349703,2.532496,3.5284401816784388,0.0,0.06530866729958694,0.0,67,0.0023162364959716797,0.8249650364307323,0.8249650364307323,12044,3.1405854434184293,0.0
159,1.224640130996704,4.020251506382584,0.025597363237740926,4.064133409630178,4.002216718319673,0.0,0.10572713247880271,0.1,0.0026433467864990234,0.047252655029296875,0.05030338,1.8886317,3.5776213141488533,0.0,0.08039280640860673,0.0,58,0.0026350021362304688,0.8898968922588871,0.8898968922588871,12102,3.3737612412426485,0.0
160,1.25860595703125,2.7633953976112045,2.172756593593041,4.02744642720447,-0.9999021782290929,0.0,0.09354080129852872,0.1,0.003467559814453125,0.04667162895202637,0.050057672,3.5060017,3.4961987224950883,0.0,0.05027159160789864,0.0,52,0.0024938583374023438,0.8697517646593153,0.8697517646593153,12154,3.790211833129025,0.0
161,1.2305281162261963,3.767102144044723,0.43855116558938095,4.0339995379763,3.0076727737879136,0.0,0.10115482586712683,0.1,0.002520322799682617,0.04675722122192383,0.04997242,2.0128932,3.523289064650052,0.0,0.07032721256181308,0.0,62,0.0024955272674560547,0.8418372217034124,0.8418372217034124,12216,4.000024961573273,0.0
162,1.2147674560546875,2.761978727342221,2.171937564790198,4.0250958879380025,-0.9998979430109576,0.0,0.09462312619236335,0.1,0.0025708675384521484,0.046654462814331055,0.048543774,8.726981,3.447158030919269,0.0,0.05023801898436934,0.0,62,0.0024704933166503906,0.8220886998407522,0.8220886998407522,12278,4.151894250903696,0.0
163,1.3461463451385498,4.055619083224563,0.011229111372044532,4.074368865056602,4.044851667002562,0.0,0.12166631851902034,0.1,0.0026772022247314453,0.050612688064575195,0.049399517,2.026251,3.5080041361497987,0.0,0.0811089521917628,0.0,116,0.0030181407928466797,0.7911337151663341,0.7911337151663341,12394,3.202772843626617,0.0
164,1.292874813079834,4.026793831355364,0.024565895091250487,4.068482094749319,4.005012598843488,0.0,0.11003525609078944,0.1,0.0027005672454833984,0.04756927490234375,0.050376397,1.5657284,3.5598831056703553,0.0,0.08052732403259455,0.0,66,0.0027627944946289062,0.876753583852349,0.876753583852349,12460,3.1316360856892427,0.0
165,1.3225955963134766,4.0615234636637245,0.049025312022301704,4.1420743450265896,4.020026012154989,0.0,0.10534377339031481,0.1,0.0027866363525390625,0.0485689640045166,0.04970403,2.2175643,3.610047141469692,0.0,0.08119582482760124,0.0,83,0.002727985382080078,0.8323860382959195,0.8323860382959195,12543,4.381854438601947,0.0
166,1.3782291412353516,4.051446112534792,0.04130171539661038,4.1185874909205875,4.012875347312475,0.0,0.10062210766140235,0.1,0.0027709007263183594,0.05122518539428711,0.04903103,4.086885,3.6541870385762025,0.0,0.08100255513892834,0.0,110,0.002933979034423828,0.8081413437576124,0.8081413437576124,12653,3.3678017799461277,0.0
167,1.395878553390503,4.067410602433357,0.07617608717731636,4.199260040185448,4.019986970454369,0.0,0.12036732903660256,0.1,0.002979278564453125,0.05162167549133301,0.049214557,2.2630925,3.695509394961918,0.0,0.0813475527516406,0.0,126,0.005845069885253906,0.7806390890218378,0.7806390890218378,12779,4.02840460422822,0.0
168,1.3292033672332764,4.0379248445870095,0.025677751788580803,4.077350750250722,4.014697992856808,0.0,0.11565433341635299,0.1,0.0028035640716552734,0.05042266845703125,0.04976775,2.437417,3.7297509399244273,0.0,0.08075185887189572,0.0,104,0.004024505615234375,0.798805603575455,0.798805603575455,12883,3.809168917802199,0.0
169,1.3498737812042236,4.016291218928361,0.010586361793134847,4.028884192717363,4.001825337183435,0.0,0.09577128107842968,0.1,0.0024902820587158203,0.046221256256103516,0.049860496,1.9409778,3.758404967824821,0.0,0.08032149868690015,0.0,56,0.002584218978881836,0.9003602956363529,0.9003602956363529,12939,4.048753387111879,0.0
170,1.4618878364562988,4.022913341869374,1.4314380493383965,6.049119412243419,2.000571867235207,0.0,0.11281943904605389,0.1,0.0025527477264404297,0.04967784881591797,0.05044262,6.1627297,3.7848558052292764,0.0,0.06543552275686952,0.0,102,0.0033502578735351562,0.9453144862132565,0.9453144862132565,13041,3.229367292395293,0.0
171,1.3225576877593994,4.006740121306243,0.005498659125247691,4.013194591182092,4.0012652406482525,0.0,0.09160536937127205,0.1,0.0024347305297851562,0.07401347160339355,0.049927767,2.1621573,3.8070442368369735,0.0,0.07013832288488382,0.0,48,0.0022780895233154297,0.9322351720995499,0.9322351720995499,13089,4.720648063798898,0.0
172,1.3075401782989502,2.5122202482233655,1.6659100566902365,4.032069662117854,0.00020419129252968737,0.0,0.08401123645952775,0.1,0.0023162364959716797,0.10146164894104004,0.049511448,2.621659,3.6775618379756128,0.0,0.04026267542549447,0.0,32,0.00203704833984375,0.9272617037899253,0.9272617037899253,13121,4.24862975686032,0.0
173,1.332350254058838,4.033991384228203,0.011673233979277718,4.048462601811188,4.016599661407946,0.0,0.11266726748266513,0.1,0.00638890266418457,0.051796913146972656,0.0493692,2.5115774,3.713204792600872,0.0,0.08067108912659698,0.0,106,0.003231048583984375,0.7953075934836707,0.7953075934836707,13227,4.035738776624024,0.0
174,1.2909111976623535,3.022027731886321,1.7447124044126567,4.0442952960069025,0.00021804427342519972,0.0,0.09511321707023214,0.1,0.0026531219482421875,0.04743075370788574,0.049694825,2.5092432,3.6440870865294173,0.0,0.055414537830681586,0.0,55,0.002538442611694336,0.8502658805801817,0.8502658805801817,13282,3.4463593635556626,0.0
175,1.2834136486053467,2.7626245227565596,2.172298782320111,4.024073769033537,-0.9998991613356429,0.0,0.08744615809508362,0.1,0.0024971961975097656,0.07956767082214355,0.051160604,2.5862384,3.5559408301521316,0.0,0.050240342464584496,0.0,41,0.002643108367919922,0.9208211936309606,0.9208211936309606,13323,3.7941107400649035,0.0
176,1.2710316181182861,4.027799896271668,0.02148291277784286,4.06033740863562,4.0026290646748155,0.0,0.09371861000352832,0.1,0.002777099609375,0.04809999465942383,0.050842248,2.4085717,3.603126736764086,0.0,0.08053096403482415,0.0,66,0.0023598670959472656,0.8790696980991092,0.8790696980991092,13389,3.4458084406771596,0.0
177,1.2897868156433105,2.7722802036997485,2.178058066543494,4.076638363779366,-0.9998973651677125,0.0,0.09508110749935947,0.1,0.0026521682739257812,0.04696464538574219,0.049720712,2.4588926,3.5200420834576525,0.0,0.05043953226254352,0.0,62,0.002561807632446289,0.856139958712744,0.856139958712744,13451,3.3569943253651378,0.0
178,1.2112772464752197,2.2552973962417298,2.049259326072462,4.007487677410383,-0.9999027115587138,0.0,0.07781496502429176,0.1,0.0022923946380615234,0.10273885726928711,0.049649395,3.4155245,3.3935676147360603,0.0,0.035102240526640176,0.0,26,0.002223491668701172,0.9762127263567638,0.9762127263567638,13477,4.375511164843858,0.0
179,1.3746376037597656,4.160036913428973,0.26328088905416197,4.616035587749286,4.005144711592396,0.0,0.10213810130720685,0.1,0.002735614776611328,0.04775810241699219,0.049782652,1.9693761,3.470214544605352,0.0,0.07798492690739281,0.0,70,0.0024132728576660156,0.8997291556954864,0.8997291556954864,13547,3.6195630484838404,0.0
180,1.218095302581787,3.2524513121491077,0.830474860387949,4.005282586660568,2.000972960870638,0.0,0.07903833503934891,0.1,0.0023643970489501953,0.0976254940032959,0.05012112,1.5324061,3.4484382213597273,0.0,0.05504300927306104,0.0,29,0.002610921859741211,1.0238001383946551,1.0238001383946551,13576,3.438228081019464,0.0
181,1.3384802341461182,2.787034555807937,2.186403643590412,4.059198347563509,-0.9998971794901363,0.0,0.10780964583035041,0.1,0.0027053356170654297,0.049330949783325195,0.0489082,3.2010899,3.3822978548045484,0.0,0.05073225922572405,0.0,87,0.0016748905181884766,0.7772984954348641,0.7772984954348641,13663,3.9628091750885015,0.0
182,1.321519374847412,2.7707532350711865,2.176997738918973,4.039172515879883,-0.999897514199281,0.0,0.09147248059083742,0.1,0.0025413036346435547,0.046124935150146484,0.050198305,3.6780593,3.3211433928312126,0.0,0.05045764728590596,0.0,55,0.0025463104248046875,0.8542439672278079,0.8542439672278079,13718,3.5354924896388145,0.0
183,1.2779340744018555,4.01591148285337,0.010208623901664712,4.03347319260587,4.008802510203759,0.0,0.09598467179693498,0.1,0.002450704574584961,0.04712033271789551,0.05007992,2.4130914,3.3906202018334284,0.0,0.08036194743792101,0.0,61,0.0029230117797851562,0.8668792187691075,0.8668792187691075,13779,3.1950656115600986,0.0
184,1.348576545715332,4.016003682252603,0.00891884917255942,4.030354075319153,4.005859092583369,0.0,0.10170167297861901,0.1,0.0025069713592529297,0.051361799240112305,0.050674822,2.13472,3.453158549875346,0.0,0.08031317763261138,0.0,73,0.0029859542846679688,0.8420956621663082,0.8420956621663082,13852,3.6061131740584416,0.0
185,1.333343505859375,4.040151541370243,0.03829815053888694,4.096771739879566,4.004403487060397,0.0,0.10786753108784618,0.1,0.002536296844482422,0.046881675720214844,0.04992948,2.1245804,3.5118578490248358,0.0,0.08080850940139295,0.0,65,0.002409696578979492,0.870937220431581,0.870937220431581,13917,3.2706442486173297,0.0
186,1.3496971130371094,2.758406137124299,2.169862979663301,4.019644961895388,-0.9998942712418533,0.0,0.08648795176270221,0.1,0.0023708343505859375,0.08215045928955078,0.05007392,2.4584694,3.436512677834782,0.0,0.05015522263442498,0.0,37,0.0024428367614746094,0.934742382367991,0.934742382367991,13954,3.1875306721386694,0.0
187,1.4118528366088867,3.7826696880173034,1.8047792134773404,6.054007068390017,1.000723923124106,0.0,0.11405682614127308,0.1,0.002538919448852539,0.05047011375427246,0.04949658,2.5664756,3.4711283788530345,0.0,0.06065550144634718,0.0,95,0.0028269290924072266,0.9632051979390044,0.9632051979390044,14049,2.518463342777515,0.0
188,1.4423012733459473,4.596262908995421,0.9044724143233065,6.162076886900524,4.03199634256434,0.0,0.1341406822895661,0.1,0.0036802291870117188,0.054369449615478516,0.049500804,1.9327686,3.583641831867273,0.0,0.08178509817426441,0.0,157,0.009414434432983398,0.8659491668267065,0.8413964501323323,14206,3.521064915751381,0.0
189,1.313340425491333,3.5067602506426407,0.8695202568382107,4.022555288390197,2.000778365502789,0.0,0.09037554570774896,0.1,0.003165006637573242,0.04718375205993652,0.049810156,2.9051685,3.57595367374481,0.0,0.055140183042942596,0.0,59,0.0024793148040771484,0.8721350151293605,0.8721350151293605,14265,3.700724679749227,0.0
190,1.3381898403167725,4.020630213377545,0.009539291731116247,4.033546655542066,4.006828566086658,0.0,0.10079121455470175,0.1,0.002621889114379883,0.055312156677246094,0.048797585,2.9252787,3.6204213277080832,0.0,0.08044300485010415,0.0,84,0.002674102783203125,0.7924215757901966,0.7924215757901966,14349,3.6078473411687018,0.0
191,1.2801027297973633,3.5289602579761583,0.8829842713839096,4.10357330062916,2.0011619988615967,0.0,0.09056943877908731,0.1,0.0025217533111572266,0.07679986953735352,0.04957269,1.8624676,3.611275220734891,0.0,0.0605780124428873,0.0,45,0.002566814422607422,0.8833517357096804,0.8833517357096804,14394,2.6067523445420284,0.0
192,1.3592150211334229,4.014556228529835,0.009563004236272385,4.029646538475136,4.004232246750138,0.0,0.10749953257277003,0.1,0.002672433853149414,0.050261735916137695,0.04980385,2.018266,3.6516033215143855,0.0,0.08029058684110973,0.0,82,0.003556966781616211,0.8055265078630288,0.8055265078630288,14476,3.6930547584238975,0.0
193,1.3743665218353271,4.0383230363388005,0.04884358232738684,4.122444994073032,4.0026974731985305,0.0,0.10992217914228082,0.1,0.0026445388793945312,0.049843788146972656,0.049712244,5.6582193,3.6902752929968274,0.0,0.08075715462967598,0.0,80,0.0025794506072998047,0.8086695663559621,0.8086695663559621,14556,3.2708123533522735,0.0
194,1.3617260456085205,3.5087198701973925,0.8708860653210155,4.023247631524429,2.0003604896343186,0.0,0.09879016779245227,0.1,0.002500772476196289,0.04743599891662598,0.0499826,2.4672282,3.672119750716884,0.0,0.06516819269870747,0.0,60,0.002744913101196289,0.8235710502970355,0.8235710502970355,14616,3.598056815093399,0.0
195,1.283949613571167,4.015339408702285,0.00992076943741057,4.027927669791541,4.001441055833761,0.0,0.0994236002756186,0.1,0.0025365352630615234,0.04722881317138672,0.04986421,1.6268651,3.706441716515424,0.0,0.07524269639567928,0.0,58,0.0025467872619628906,0.8950239763002198,0.8950239763002198,14674,3.7751560368123283,0.0
196,1.4217324256896973,4.034321926661967,0.015727539934356206,4.051480282299643,4.0094839564659,0.0,0.11699075085075901,0.1,0.002739429473876953,0.05154776573181152,0.049255904,2.4724646,3.7392297375300787,0.0,0.08068606331069175,0.0,121,0.0031447410583496094,0.7266265932924822,0.7266265932924822,14795,3.6137623377530486,0.0
197,1.351046085357666,3.010408256348195,1.737936800832329,4.019759404440095,0.00022013072273896483,0.0,0.09830195458566555,0.1,0.002898693084716797,0.05187487602233887,0.049439922,2.5133004,3.6663475894118904,0.0,0.05523503656286214,0.0,59,0.0026369094848632812,0.8024689894538009,0.8024689894538009,14854,4.021377755594382,0.0
198,1.3394668102264404,3.521388215264931,0.878138664755039,4.0510138127134,2.0006203232308737,0.0,0.10670793481656533,0.1,0.002486705780029297,0.047121286392211914,0.050194185,1.9876276,3.6518516519971946,0.0,0.06544067010180525,0.0,72,0.002638101577758789,0.79886661969962,0.79886661969962,14926,3.1000960207809722,0.0
199,1.3536343574523926,4.032778355696156,0.027962100277749063,4.078919787285498,4.0092516648483265,0.0,0.10562255842607501,0.1,0.002406597137451172,0.04918956756591797,0.04871816,1.9874588,3.689944322367091,0.0,0.07563524740808569,0.0,76,0.0024292469024658203,0.8178597098530259,0.8178597098530259,15002,3.1160444697162837,0.0
200,1.3673863410949707,2.2749628559902635,1.8095473535751996,4.075129442742103,0.00021312970689280064,0.0,0.10267868363030071,0.1,0.0023963451385498047,0.046770572662353516,0.04939858,3.5984242,3.548446175729408,0.0,0.03548958422373586,0.0,73,0.0026361942291259766,0.713552276326806,0.713552276326806,15075,2.9446614660005856,0.0
201,1.2558696269989014,4.0099542956992025,0.0057915080752118904,4.016682791390372,4.002926305973541,0.0,0.0915598668263921,0.1,0.0024385452270507812,0.08587932586669922,0.049116176,1.6236283,3.594596987726388,0.0,0.08018583544745177,0.0,37,0.007866621017456055,1.0154476175158094,1.0154476175158094,15112,3.8789787886569056,0.0
202,1.369560718536377,2.0206588953110516,2.140603890400929,4.042934680051246,-0.9999022879894546,0.0,0.09567930075047454,0.1,0.0028476715087890625,0.048088788986206055,0.048918065,3.1038103,3.4372031784848547,0.0,0.030401229830705968,0.0,58,0.0025773048400878906,0.7441114010770026,0.7441114010770026,15170,3.623171423001816,0.0
203,1.314704418182373,2.771304382201748,2.177347283893956,4.042445341462196,-0.9998884737164668,0.0,0.10727118260995117,0.1,0.0026886463165283203,0.047960758209228516,0.050338767,2.0602434,3.370613298856544,0.0,0.05042403414775068,0.0,70,0.002304553985595703,0.7537966754462764,0.7537966754462764,15240,3.5254021793410306,0.0
204,1.3740057945251465,3.7644963677546706,0.44068701016693795,4.027367915298051,3.0012637038091228,0.0,0.10886378679865986,0.1,0.0026650428771972656,0.04949760437011719,0.049888633,2.5152636,3.410001605746357,0.0,0.07028751893569349,0.0,83,0.002690553665161133,0.7548771257780801,0.7548771257780801,15323,3.9444278026216915,0.0
205,1.3088946342468262,4.012922859570733,0.00884938159599721,4.027012178257262,4.002909451683899,0.0,0.09828153261063617,0.1,0.0027463436126708984,0.049388885498046875,0.0490446,2.7855587,3.4702937311287947,0.0,0.080253522870244,0.0,76,0.0026979446411132812,0.8095398320047373,0.8095398320047373,15399,3.779182381951975,0.0
206,1.3546013832092285,3.271701099363958,1.3114329380358543,4.059475086187978,1.0004695328063251,0.0,0.08602040543110215,0.1,0.0026950836181640625,0.07872366905212402,0.05015099,2.102892,3.450434467952311,0.0,0.06043146902777402,0.0,40,0.0020525455474853516,0.9177637421716623,0.9177637421716623,15439,3.9422292757178865,0.0
207,1.4017305374145508,4.025233165982169,0.01884975060136448,4.048774485217236,4.002806926909297,0.0,0.10857972386966974,0.1,0.0026390552520751953,0.048644065856933594,0.051015932,2.519739,3.507914337755297,0.0,0.08050153641136129,0.0,84,0.0025849342346191406,0.7798076869937004,0.7798076869937004,15523,3.966345155417075,0.0
208,1.2716238498687744,3.2703345304779274,1.3107297256331063,4.06293242853268,1.0004064466289293,0.0,0.09000300602713776,0.1,0.0024404525756835938,0.07937169075012207,0.050623793,2.322099,3.48415635702756,0.0,0.05540279722230451,0.0,43,0.002428293228149414,0.8745089634172009,0.8745089634172009,15566,3.7354687562967164,0.0
209,1.3720455169677734,4.02166752274493,0.025178083341647887,4.064011457797633,4.001554270734873,0.0,0.10258873169296658,0.1,0.002594470977783203,0.047185659408569336,0.04938036,1.684212,3.5379074735992972,0.0,0.08043028147902673,0.0,64,0.002546072006225586,0.8355452344954111,0.8355452344954111,15630,3.0376896606369583,0.0
210,1.3675384521484375,4.010380602877977,0.004642627560112499,4.0184193570081925,4.007602708176239,0.0,0.10467129159760215,0.1,0.0025894641876220703,0.048969268798828125,0.050875265,2.6315498,3.5851547865271653,0.0,0.08019365091048065,0.0,72,0.002761363983154297,0.8085189761925601,0.8085189761925601,15702,4.4021095332007425,0.0
211,1.4356637001037598,3.5326727666208413,2.2147448993188656,6.120279552886171,0.00021375580561544538,0.0,0.10527336156605843,0.1,0.0025827884674072266,0.04880094528198242,0.050886214,3.9921362,3.579906584536533,0.0,0.055652340652640894,0.0,71,0.0024080276489257812,1.1555512282671343,1.1555512282671343,15773,3.5552459649307977,0.0
212,1.4044654369354248,3.2773135589623026,2.609711396815879,6.081358856938638,-0.9998892429358179,0.0,0.10141017431163528,0.1,0.0026803016662597656,0.05258536338806152,0.0484958,2.9313796,3.54964728197911,0.0,0.05054253798710608,0.0,78,0.0025300979614257812,1.0818653881368936,1.0818653881368936,15851,3.958372121055977,0.0
213,1.2762293815612793,4.006382249355781,0.0032315737683301636,4.011153975424105,4.002831195068046,0.0,0.09074551936910437,0.1,0.002489328384399414,0.08494710922241211,0.049944323,2.3240054,3.595320778716777,0.0,0.08012972452847256,0.0,48,0.0023505687713623047,0.9117492781738498,0.9117492781738498,15899,4.749201166303853,0.0
214,1.3428599834442139,2.7633037703270906,2.172703926468928,4.031661901195153,-0.9998965425290638,0.0,0.10116883568595686,0.1,0.0026869773864746094,0.05270743370056152,0.050465956,9.068927,3.5121190778778084,0.0,0.05026636599247067,0.0,68,0.002686738967895508,0.7726497780638316,0.7726497780638316,15967,3.841564563749822,0.0
215,1.3058514595031738,4.0279265076200605,0.023961473419289094,4.056843401696078,4.003474034150008,0.0,0.10504213414271274,0.1,0.0027201175689697266,0.050708770751953125,0.049988747,2.2880092,3.563699820852034,0.0,0.0806053429007077,0.0,80,0.0024766921997070312,0.7956784830225127,0.7956784830225127,16047,3.951986824206816,0.0
216,1.3265342712402344,4.011211263607577,0.006838577449400936,4.020295935322793,4.004217564752463,0.0,0.10063719003416985,0.1,0.0024497509002685547,0.04590296745300293,0.05021531,1.6385285,3.6084509651275885,0.0,0.08021672120925942,0.0,51,0.002727985382080078,0.8920340809503353,0.8920340809503353,16098,3.9698284268643103,0.0
217,1.3920419216156006,4.030640789539701,0.021919264756200672,4.057090987567635,4.002129776552791,0.0,0.10548932616329369,0.1,0.0025327205657958984,0.047307491302490234,0.049191784,2.5425897,3.6506699475687996,0.0,0.08060044061110572,0.0,67,0.0028357505798339844,0.831498687647076,0.831498687647076,16165,3.1999194914508124,0.0
218,1.3038482666015625,4.0307772827141655,0.037521943628690255,4.094519785197276,4.001952726764762,0.0,0.08735735551576175,0.1,0.002729654312133789,0.07836270332336426,0.049723126,1.838966,3.688680681083336,0.0,0.08060886086476822,0.0,41,0.0025756359100341797,0.967641499399534,0.967641499399534,16206,4.560646090174427,0.0
219,1.3770971298217773,3.7668050801971718,0.4418133149169556,4.028984099255046,3.001692123547672,0.0,0.09455547124590971,0.1,0.002638101577758789,0.046718597412109375,0.04983356,2.4677117,3.69649312099472,0.0,0.07030971813733931,0.0,50,0.0031120777130126953,0.8708920710953015,0.8708920710953015,16256,3.7966997022919458,0.0
220,1.355217695236206,3.938518356572289,0.6114398045766389,4.716919729674761,3.0020900768860908,0.0,0.10668280458751916,0.1,0.0025861263275146484,0.04909038543701172,0.05002653,1.6949757,3.720695644552477,0.0,0.07336305842866715,0.0,68,0.0026967525482177734,0.8342341314152825,0.8342341314152825,16324,3.106490214041724,0.0
221,1.279648780822754,2.251882810156861,2.0477533699507355,4.004510403447975,-0.9998969427877353,0.0,0.07638293867502842,0.1,0.0024437904357910156,0.10983490943908691,0.04910147,4.2171645,3.573814361112915,0.0,0.03504133924740234,0.0,24,0.002760648727416992,0.9886160801032621,0.9886160801032621,16348,3.208862072669405,0.0
222,1.371767520904541,4.042731267838565,0.0320447786611832,4.089787989407833,4.000626713729824,0.0,0.12069512296812814,0.1,0.0028035640716552734,0.05116581916809082,0.04989162,2.1504438,3.6207060517854806,0.0,0.07584738791978632,0.0,117,0.004148006439208984,0.7307536218310495,0.7307536218310495,16465,4.463724670703313,0.0
223,1.338961124420166,3.536670272606647,0.8868874232589845,4.073143597552626,2.001072197476123,0.0,0.10720036785283091,0.1,0.002645730972290039,0.04853487014770508,0.050401516,2.1192636,3.6123024738675973,0.0,0.06571071849780534,0.0,73,0.0026214122772216797,0.7779413443804778,0.7779413443804778,16538,3.2687675055394467,0.0
224,1.5031721591949463,4.289650601580247,1.135483339742,6.120559823198708,3.0024136169706823,0.0,0.11924130827323101,0.1,0.002666950225830078,0.05043148994445801,0.049139097,12.020668,3.6800372866388624,0.0,0.07079600074867011,0.0,114,0.004485130310058594,0.9093668501882626,0.9093668501882626,16652,3.3578991454659093,0.0
225,1.4193382263183594,5.318506653564584,2.228668308867955,9.178578549106309,4.0066922305131545,0.0,0.12976615316748732,0.1,0.0027930736541748047,0.05062246322631836,0.050034292,1.07767,3.8438842233314348,0.0,0.09127515888669295,0.0,124,0.0031147003173828125,1.0909478862710311,1.0909478862710311,16776,3.9393751837550064,0.0
226,1.3880641460418701,4.0207432821168005,0.0176793086381167,4.049271605314844,4.000853987248438,0.0,0.1098399330633044,0.1,0.0026814937591552734,0.04861569404602051,0.049545333,3.3208115,3.861570129209971,0.0,0.08040316799998551,0.0,89,0.0023717880249023438,0.7589698082721821,0.7589698082721821,16865,4.017837738643512,0.0
227,1.3288600444793701,1.8067508622675177,2.334364586991777,4.202367141193928,-0.9998913193003205,0.0,0.0733977879713788,0.1,0.0015366077423095703,0.028637409210205078,0.050013874,3.0531464,3.656088202515726,0.0,0.02618070649532471,0.0,22,0.005658149719238281,1.0183734069858261,1.0183734069858261,16887,3.347373044102337,0.0
228,1.455404281616211,4.0312915529749755,0.01741865637767328,4.049316458147832,4.00278875617417,0.0,0.11796094100019157,0.1,0.002789020538330078,0.05086255073547363,0.05104845,3.9273236,3.6936085375616514,0.0,0.08062482731172649,0.0,123,0.0045833587646484375,0.7280550347284048,0.7280550347284048,17010,3.777814542972481,0.0
229,1.4541230201721191,4.0263444229478065,0.018662046829639536,4.049197039130815,4.002268734746427,0.0,0.10233713825217174,0.1,0.0025832653045654297,0.049193382263183594,0.050381027,4.92393,3.726882126100267,0.0,0.07553857804080505,0.0,92,0.0027306079864501953,0.7845888020901914,0.7845888020901914,17102,2.9339902634836683,0.0
230,1.2887558937072754,2.504515909944538,2.0646310800486622,4.010226739701531,-0.9998972863869726,0.0,0.08320077992971664,0.1,0.0027494430541992188,0.08084750175476074,0.050246507,2.3355832,3.604645504484694,0.0,0.04009884693554297,0.0,33,0.00220489501953125,0.9141492302029152,0.9141492302029152,17135,4.020455156142064,0.0
231,1.4362573623657227,4.03538550660745,0.017356452954826296,4.060368296920125,4.0116795878405185,0.0,0.12088903214445904,0.1,0.0030031204223632812,0.0513761043548584,0.050557137,1.8919126,3.64771950469697,0.0,0.08066061261678217,0.0,102,0.004974365234375,0.7453949719567682,0.7453949719567682,17237,4.137320929197588,0.0
232,1.3286559581756592,2.7795126697683195,1.6607025448508732,4.088454137572743,0.002066641713110995,0.0,0.09767347757067012,0.1,0.002721071243286133,0.048421621322631836,0.05012688,2.7279017,3.560898821204105,0.0,0.04554813348449516,0.0,64,0.0025081634521484375,0.7579109474857755,0.7579109474857755,17301,3.2264970954336083,0.0
233,1.4193410873413086,4.028376137579094,0.021608634099962557,4.060743434110788,4.002390388804302,0.0,0.11553582642956553,0.1,0.002716541290283203,0.04977917671203613,0.047714315,2.325584,3.607646552841604,0.0,0.08056252977708464,0.0,86,0.002524852752685547,0.7801285754534084,0.7801285754534084,17387,3.5328379505004395,0.0
234,1.3423480987548828,4.011394064476382,0.007744692896668205,4.023509974018326,4.002502081087598,0.0,0.10134558762833543,0.1,0.0027086734771728516,0.04918503761291504,0.049577836,2.6710083,3.648021304005082,0.0,0.08021820754057567,0.0,76,0.0025510787963867188,0.8003211169406399,0.8003211169406399,17463,3.6990591236093913,0.0
235,1.364243507385254,2.753725923612882,2.16715221915201,4.006754028744168,-0.9998911624210813,0.0,0.07768814872090543,0.1,0.002404928207397461,0.08908772468566895,0.04966196,2.172284,3.558591765965862,0.0,0.050073591314423696,0.0,28,0.0028150081634521484,1.0251434236436496,1.0251434236436496,17491,3.9744182333855598,0.0
236,1.427574872970581,3.5500133525305038,0.8950749475912287,4.120770408506353,2.000929579596372,0.0,0.12068236070573518,0.1,0.0028536319732666016,0.0505833625793457,0.049698204,1.9490591,3.5577339246223265,0.0,0.066003183550543,0.0,100,0.0027806758880615234,0.7267678598550341,0.7267678598550341,17591,4.396716197685721,0.0
237,1.3729732036590576,3.781876000681897,0.43671910062773656,4.0405725995840935,3.0255405783001708,0.0,0.10251309845643476,0.1,0.002788543701171875,0.04848599433898926,0.049258556,2.2051582,3.5801481322282838,0.0,0.07062402085414639,0.0,78,0.0025167465209960938,0.7608959398202917,0.7608959398202917,17669,4.389722564165596,0.0
238,1.405850887298584,4.037919310803011,0.039519480778837775,4.102472349053692,4.005502664996824,0.0,0.11251865454106114,0.1,0.002613544464111328,0.05019187927246094,0.05067438,3.84712,3.6259252500857566,0.0,0.08070976335380653,0.0,107,0.0038673877716064453,0.7611157352869782,0.7611157352869782,17776,3.8837663779076226,0.0
239,1.4249796867370605,4.04288795612774,0.03628982368112771,4.101394736004846,4.003301551558928,0.0,0.12060345877278202,0.1,0.0027713775634765625,0.05007052421569824,0.050905876,3.625936,3.667621520689955,0.0,0.08085267752954069,0.0,113,0.0030612945556640625,0.7530882964286675,0.7530882964286675,17889,4.056136273498933,0.0
240,1.3849155902862549,3.278429768731961,1.3152897644007953,4.059028411576266,1.0003927088120104,0.0,0.1195703888130671,0.1,0.002607107162475586,0.05100131034851074,0.0510546,2.1630769,3.6287023454941556,0.0,0.06058326477322052,0.0,88,0.0026013851165771484,0.7270336012800372,0.7270336012800372,17977,3.150652830780865,0.0
241,1.4930219650268555,3.3537995356011363,1.346997426922717,4.342375839043665,1.0318850705694909,0.0,0.12000319943825326,0.1,0.0025835037231445312,0.049745798110961914,0.050771333,3.4211135,3.6012120645048538,0.0,0.06207262625252173,0.0,102,0.006049394607543945,0.7108573585520684,0.7108573585520684,18079,3.619208517764181,0.0
242,1.4161500930786133,2.783149528720463,2.1844402586942873,4.102946319365391,-0.9998982663807043,0.0,0.09721387170836103,0.1,0.0024862289428710938,0.04714632034301758,0.048639942,3.8794856,3.5194058109264144,0.0,0.05065469134925576,0.0,66,0.0024747848510742188,0.7751529583931477,0.7751529583931477,18145,3.1312043108741725,0.0
243,1.3818862438201904,3.5207418947944227,0.8777317672259487,4.050602366840354,2.0007735403776445,0.0,0.09197585538796876,0.1,0.0024008750915527344,0.07776236534118652,0.05050174,2.453025,3.5195394193132152,0.0,0.060409656675603995,0.0,46,0.002519845962524414,0.9056465649747341,0.9056465649747341,18191,3.9883242031259964,0.0
244,1.4038655757904053,3.7977366445516925,0.4615290014456348,4.135894905079514,3.002489909802735,0.0,0.10724036509543473,0.1,0.002840757369995117,0.04871106147766113,0.050794933,3.3,3.547359141837063,0.0,0.07089753261265691,0.0,85,0.002455472946166992,0.7622941468545509,0.7622941468545509,18276,3.1403673098899105,0.0
245,1.3507328033447266,2.796350875572763,1.3426581109476465,4.112052759641008,1.0007096678165162,0.0,0.09412774625688335,0.1,0.0024459362030029297,0.04677128791809082,0.049815867,3.2448542,3.472258315210633,0.0,0.04591512421757549,0.0,54,0.0024552345275878906,0.7560598544228315,0.7560598544228315,18330,3.784372488325115,0.0
246,1.3832473754882812,2.757873472514317,2.1695581274655997,4.020789880038093,-0.9998954238929263,0.0,0.10530729129914744,0.1,0.006819725036621094,0.04867720603942871,0.049730707,2.4598875,3.4008198309410016,0.0,0.050169188173121965,0.0,68,0.0025148391723632812,0.7573969193568109,0.7573969193568109,18398,3.2047299539862717,0.0
247,1.4670805931091309,4.072907261949906,0.04849479161976966,4.135667728890525,4.001718959287951,0.0,0.13736997323619504,0.1,0.0027778148651123047,0.051865339279174805,0.050296478,1.5189629,3.468028574041892,0.0,0.08146320742390922,0.0,128,0.009483814239501953,0.7185815209833204,0.6627650962971146,18526,3.520805152207808,0.0
248,1.5141472816467285,4.041172995684797,0.05376858855652523,4.133582719506979,4.004664458305776,0.0,0.10736258507116814,0.1,0.0026619434356689453,0.04976701736450195,0.04882146,2.6625366,3.5253430162061825,0.0,0.0808196049850417,0.0,92,0.0023355484008789062,0.7321561961742168,0.7321561961742168,18618,4.408594788304135,0.0
249,1.4224247932434082,3.5293554681588635,0.8826686200591709,4.045259284995688,2.0005755168083548,0.0,0.10193681170734294,0.1,0.002544879913330078,0.04901432991027832,0.04977018,4.74666,3.5257442614014507,0.0,0.06554366687589294,0.0,88,0.002561330795288086,0.6643327131216201,0.6643327131216201,18706,4.291142785841957,0.0
250,1.3719654083251953,0.25389402917010667,2.1716267592190874,4.01526191121162,-0.9998983486665798,0.0,0.07832551524740172,0.1,0.0013842582702636719,0.027209758758544922,0.050080888,3.3047647,3.198559238178316,0.0,-0.00992264335394935,0.0,15,0.00472712516784668,0.8625974737148338,0.8625974737148338,18721,3.7946257139055763,0.0
251,1.4671761989593506,4.558061649749375,0.8996427038568047,6.11536179098283,4.006670522351781,0.0,0.13285062485805302,0.1,0.0030202865600585938,0.05051016807556152,0.05003379,1.7353094,3.334509479335422,0.0,0.07613360030219707,0.0,126,0.00289154052734375,0.869483427296837,0.869483427296837,18847,4.03221027969289,0.0
252,1.5066194534301758,4.56661428689026,0.9341114182392711,6.184370533916095,4.0125257929331095,0.0,0.12548694990395104,0.1,0.002733469009399414,0.050258636474609375,0.050421864,1.3922014,3.457719960090906,0.0,0.08132559263519958,0.0,105,0.004543304443359375,0.9759545370171469,0.9759545370171469,18952,3.6925011745856158,0.0
253,1.307373046875,3.2769348067661124,1.3145376713659866,4.088843101693822,1.000803649787609,0.0,0.08667917664532221,0.1,0.002653360366821289,0.08924674987792969,0.049323354,1.8906229,3.439641444758427,0.0,0.06053720609193848,0.0,36,0.002483367919921875,0.9267043626714888,0.9267043626714888,18988,4.119407080736968,0.0
254,1.4289863109588623,4.028127531298017,0.022157565671082423,4.064596011141115,4.007821482636806,0.0,0.10942405622532944,0.1,0.0027441978454589844,0.04974508285522461,0.049807463,2.908825,3.498490053412386,0.0,0.07552628090969188,0.0,96,0.0027322769165039062,0.7255022372563525,0.7255022372563525,19084,3.770801505355964,0.0
255,1.4040606021881104,3.7889357446295318,0.45641583904674027,4.1039268405352525,3.000637265786467,0.0,0.11093045006500503,0.1,0.002640247344970703,0.048250675201416016,0.049815524,1.7118548,3.527534622534101,0.0,0.07077084980694867,0.0,75,0.0025246143341064453,0.7498515609737891,0.7498515609737891,19159,4.0284869076914935,0.0
256,1.4424090385437012,3.7850280643959144,1.8233495103683075,6.117800406867365,1.0003510297711966,0.0,0.10446709169523577,0.1,0.002539396286010742,0.04903697967529297,0.05016645,4.5331407,3.553283966720282,0.0,0.060662644839448485,0.0,83,0.002329587936401367,1.0897922739550336,1.0897922739550336,19242,3.2925444825212438,0.0
257,1.4468810558319092,4.032985133273893,0.022942462664643334,4.0673502341592895,4.010176466301345,0.0,0.10961717770735786,0.1,0.0025386810302734375,0.04854154586791992,0.049115773,2.6469615,3.6012540833756432,0.0,0.08066949165958429,0.0,87,0.002507448196411133,0.7377606512776662,0.7377606512776662,19329,3.544779606224249,0.0
258,1.3215701580047607,3.7565486309345486,0.4361500495210044,4.012328435692294,3.0011266455907104,0.0,0.09912008046674427,0.1,0.0025200843811035156,0.07596802711486816,0.04918462,2.0835745,3.616783538131534,0.0,0.07013210020583939,0.0,48,0.002668142318725586,0.8552528368415953,0.8552528368415953,19377,4.014137198674031,0.0
259,1.4659888744354248,4.022154240265905,0.00870263863760753,4.030895474196335,4.009491691576336,0.0,0.11591344504701685,0.1,0.002508878707885742,0.04906892776489258,0.049175754,2.099171,3.657320608344971,0.0,0.08041527673542131,0.0,88,0.0025720596313476562,0.7290807568445355,0.7290807568445355,19465,3.787986602360622,0.0
260,1.4303207397460938,2.7731186808020034,2.1785294211639754,4.074895021853406,-0.9999040939856889,0.0,0.09367935256519735,0.1,0.002514362335205078,0.0465998649597168,0.049675032,4.919715,3.5689004155906745,0.0,0.04543598498403939,0.0,53,0.0030128955841064453,0.7840587272350761,0.7840587272350761,19518,4.031395961574407,0.0
261,1.4436500072479248,3.5310681074345633,0.8843537112073934,4.104330227283157,2.0008153525224905,0.0,0.1063742336154963,0.1,0.0025053024291992188,0.04779767990112305,0.049102027,2.595173,3.5651171847750636,0.0,0.06553453566927889,0.0,77,0.002456188201904297,0.7190425420196528,0.7190425420196528,19595,3.4337850985492078,0.0
262,1.4462409019470215,3.0082650191408336,1.2308496783325695,4.0274174568433345,1.0008001290041486,0.0,0.09007928672182379,0.1,0.002483367919921875,0.07686114311218262,0.04990192,2.6225955,3.509431968211641,0.0,0.05016592541785149,0.0,47,0.0024881362915039062,0.7843054082817988,0.7843054082817988,19642,3.6057143246124634,0.0
263,1.3498351573944092,4.017528272831612,0.00884950269129761,4.029754263753287,4.005030468500127,0.0,0.1103071761946447,0.1,0.0025398731231689453,0.04841899871826172,0.05052905,1.8313394,3.560241598673638,0.0,0.080284695563317,0.0,76,0.002642393112182617,0.7702953927669036,0.7702953927669036,19718,3.9746493028967564,0.0
264,1.4572203159332275,3.7615584471735097,0.4370269800203398,4.034951746091878,3.00493947113472,0.0,0.10428632984617414,0.1,0.002505779266357422,0.047728776931762695,0.049593236,1.7980605,3.5803732835236253,0.0,0.07021792473537423,0.0,65,0.002672910690307617,0.7996336395842272,0.7996336395842272,19783,3.4444291212948372,0.0
265,1.3587126731872559,4.017316829997898,0.007759195365568316,4.030323097208924,4.010787476008882,0.0,0.11379872358779118,0.1,0.0024950504302978516,0.048445701599121094,0.050838444,2.032742,3.6240676381710526,0.0,0.08034078906893397,0.0,77,0.0025560855865478516,0.7451949069255871,0.7451949069255871,19860,4.055259849671823,0.0
266,1.4139370918273926,4.535198941465687,0.9180696272832395,6.125326246909383,4.001214782399363,0.0,0.09892756182097194,0.1,0.0025458335876464844,0.05074667930603027,0.050345264,2.5389264,3.7151807685005163,0.0,0.08069119062053084,0.0,82,0.002603292465209961,1.1153141770477957,1.1153141770477957,19942,3.598212863791193,0.0
267,1.3035926818847656,3.5082551438811977,0.8701094505334793,4.013419615951565,2.0011872595246203,0.0,0.10022476887954226,0.1,0.0024378299713134766,0.07637214660644531,0.050039228,2.0168033,3.694488206038584,0.0,0.06515837494691097,0.0,45,0.0025582313537597656,0.8650430422132057,0.8650430422132057,19987,3.440822770344164,0.0
268,1.4643988609313965,4.585552148117564,0.8673553859908744,6.076624789986009,4.001170406161607,0.0,0.11703934145436354,0.1,0.0026748180389404297,0.05114483833312988,0.04982633,3.0244174,3.783594600246482,0.0,0.0817081113130342,0.0,121,0.00431060791015625,0.9156372803387668,0.9156372803387668,20108,3.8754837678708096,0.0
269,1.338789701461792,3.0059104094433353,1.735335830027936,4.016402469137949,0.00023574406644844004,0.0,0.09618197627916676,0.1,0.0024330615997314453,0.07891273498535156,0.05101772,1.9102422,3.7058261811661675,0.0,0.055103472862175984,0.0,41,0.002313375473022461,0.8662246492380882,0.8662246492380882,20149,2.526001625283125,0.0
270,1.4119348526000977,4.0151556312808365,0.018077489239514414,4.046265477275979,4.001444897428072,0.0,0.10311051304725584,0.1,0.004456996917724609,0.04907846450805664,0.04965952,1.4981953,3.7367591261776343,0.0,0.0802671032935688,0.0,55,0.002458810806274414,0.8617287677447151,0.8617287677447151,20204,3.7653017535740783,0.0
271,1.3887794017791748,2.010393162952821,2.009963109146459,4.027732608964457,0.00020081611415712075,0.0,0.09750713523944161,0.1,0.0023987293243408203,0.046030521392822266,0.048989676,3.0829072,3.564122529855153,0.0,0.030204466376972727,0.0,50,0.0025963783264160156,0.6849496683864329,0.6849496683864329,20254,3.5947704682632664,0.0
272,1.4547548294067383,3.5618465822173304,0.904052598265152,4.195230892429101,2.00057851791942,0.0,0.12862185246930993,0.1,0.002543210983276367,0.048986196517944336,0.050843284,1.8847688,3.5638949350913705,0.0,0.06620640847893453,0.0,95,0.002731800079345703,0.6858359978558074,0.6858359978558074,20349,3.7594897976576003,0.0
273,1.4484202861785889,3.0312569748588905,1.7500496706189212,4.056821275623925,0.00019534237707263813,0.0,0.1013000587172553,0.1,0.0026116371154785156,0.04901528358459473,0.049663547,5.0416355,3.5106311390681224,0.0,0.055646788733817044,0.0,86,0.0026121139526367188,0.642805939341387,0.642805939341387,20435,3.690407376428485,0.0
274,1.3930606842041016,3.7679090796467287,0.44228941283749407,4.027430608088162,3.0018902216115597,0.0,0.1030136620144788,0.1,0.0025022029876708984,0.04791116714477539,0.049793508,1.9426606,3.536358933125983,0.0,0.0703524380797953,0.0,57,0.002515077590942383,0.797530616584391,0.797530616584391,20492,2.927519368363539,0.0
275,1.4944179058074951,3.533157485314928,0.8852627524034778,4.079218249598312,2.0003989809632734,0.0,0.11569492603865303,0.1,0.0025348663330078125,0.04983854293823242,0.05033958,2.429572,3.536038788344878,0.0,0.06555228806718216,0.0,95,0.0032842159271240234,0.6641837843181904,0.6641837843181904,20587,3.0949517109413587,0.0
276,1.442145586013794,1.7593735876134093,2.286724040217422,4.026688673549334,-0.9998978534051937,0.0,0.095090142460217,0.1,0.002468109130859375,0.07998180389404297,0.050375894,3.34278,3.358372268271731,0.0,0.02520141491577513,0.0,48,0.0024650096893310547,0.7123379593466207,0.7123379593466207,20635,2.0905591351007424,0.0
277,1.5707731246948242,4.60518539822644,1.0247439545361325,6.380069583902889,4.008809710290386,0.0,0.11528694459524481,0.1,0.002794027328491211,0.048921823501586914,0.049715918,1.5377991,3.483053581267202,0.0,0.0820628503385664,0.0,92,0.0024993419647216797,1.059042349995148,1.059042349995148,20727,3.3055498861293118,0.0
278,1.4680209159851074,4.569419099958692,0.9299320385236342,6.178901540575752,4.002759989407024,0.0,0.11415250299373364,0.1,0.002679586410522461,0.05157065391540527,0.050167803,1.9361362,3.591690133136351,0.0,0.08136537358990105,0.0,98,0.0034728050231933594,1.0245048648639339,1.0245048648639339,20825,4.024396686831646,0.0
279,1.3823423385620117,2.758921198665868,1.6445156046738754,4.01369464440285,0.00021971664134690094,0.0,0.08961162135058767,0.1,0.002483367919921875,0.08312058448791504,0.049838074,2.6224055,3.5084132396893026,0.0,0.04517701242616326,0.0,36,0.002443075180053711,0.8707091414249435,0.8707091414249435,20861,3.288062618172013,0.0
280,1.4157869815826416,3.5186899881104514,0.8765099277200645,4.0404800270913235,2.000739172122672,0.0,0.09470291243358915,0.1,0.002613544464111328,0.07323312759399414,0.050342795,2.061513,3.5094409145314174,0.0,0.06537109711343145,0.0,49,0.002952098846435547,0.8438601470418023,0.8438601470418023,20910,4.014446683863446,0.0
281,1.4728219509124756,4.0185618863682615,0.015179548384196027,4.034515241244175,4.001107139945015,0.0,0.11045085529702864,0.1,0.0026407241821289062,0.04931998252868652,0.049368836,1.7091606,3.560353011715102,0.0,0.0802886213063172,0.0,77,0.0026445388793945312,0.7471432404233326,0.7471432404233326,20987,3.2620402341629524,0.0
282,1.4437847137451172,3.608034123584376,0.9385655470121628,4.3798660923903805,2.001922449932814,0.0,0.11015722283270812,0.1,0.0029561519622802734,0.04776597023010254,0.050325908,2.196512,3.5651211229020294,0.0,0.06682109466767758,0.0,80,0.002588033676147461,0.706456779949471,0.706456779949471,21067,4.0440009223942,0.0
283,1.4532272815704346,3.2841719131191454,1.3185588571227522,4.087399709433249,1.0008111013985106,0.0,0.11631657252012495,0.1,0.0025577545166015625,0.04882240295410156,0.050335202,2.0362391,3.5370262019237413,0.0,0.060655072228288684,0.0,91,0.0024428367614746094,0.6762006684260299,0.6762006684260299,21158,3.5391388827326438,0.0
284,1.440577745437622,4.047664405515218,0.017707067438840218,4.072860019389984,4.0228896272416215,0.0,0.11787544396355268,0.1,0.0026063919067382812,0.04940366744995117,0.049636148,2.0621634,3.588090022282889,0.0,0.08093645279058512,0.0,100,0.002585887908935547,0.6832939272610075,0.6832939272610075,21258,3.6289812182611505,0.0
285,1.4259002208709717,4.016885835312034,0.015112408503488639,4.0344686006297685,4.001789222407746,0.0,0.10117063793505149,0.1,0.002449512481689453,0.046334266662597656,0.050364617,1.4393333,3.6309696035858035,0.0,0.07533628869978268,0.0,53,0.002418041229248047,0.8638494343009866,0.8638494343009866,21311,4.055379707544844,0.0
286,1.3826384544372559,3.5114912028974046,0.8719785574893065,4.021369868554567,2.0012122044875653,0.0,0.10325304861057621,0.1,0.002595186233520508,0.0492396354675293,0.049529336,3.3039842,3.6190217635169635,0.0,0.06522199242433677,0.0,89,0.002474546432495117,0.6594365535204464,0.6594365535204464,21400,4.257264650771592,0.0
287,1.3357181549072266,2.7733263767358634,2.1784854515783687,4.044367772791892,-0.9998930544569344,0.0,0.09211930938629938,0.1,0.0024983882904052734,0.04598546028137207,0.04994666,2.9147837,3.5344522248388537,0.0,0.050428413029584174,0.0,52,0.002620697021484375,0.7747888155199641,0.7747888155199641,21452,3.7332822897221294,0.0
288,1.4618730545043945,4.065590998235454,0.06293455108918805,4.17377516493843,4.016935478843375,0.0,0.12097408872475131,0.1,0.0026209354400634766,0.049543142318725586,0.05009255,1.8980082,3.587566102178514,0.0,0.0812838909760809,0.0,99,0.002651691436767578,0.6991004820168324,0.6991004820168324,21551,3.7078893340814063,0.0
289,1.463273048400879,4.609736961992656,1.0000806752917564,6.34187421361113,4.021202351661591,0.0,0.11723774940009278,0.1,0.002660989761352539,0.05115103721618652,0.0500324,3.2327332,3.689783188159928,0.0,0.08218233963194764,0.0,125,0.0036115646362304688,0.8820500297351838,0.8820500297351838,21676,3.3561743485338567,0.0
290,1.380500316619873,3.27050240038976,0.8471686876069667,4.078551998991216,2.000879179429555,0.0,0.08758045259457092,0.1,0.002482891082763672,0.07343268394470215,0.049711943,2.7407877,3.6478551093829115,0.0,0.0504070243987824,0.0,46,0.0024271011352539062,0.8232803827478655,0.8232803827478655,21722,3.592523037086307,0.0
291,1.4184694290161133,4.161741409545831,0.22270898606495496,4.546270596191133,4.018230552960356,0.0,0.11327054202419573,0.1,0.002861499786376953,0.04860424995422363,0.048890512,1.8502892,3.6992437393992033,0.0,0.08273746776262488,0.0,79,0.0024538040161132812,0.765098544920638,0.765098544920638,21801,3.454893207032477,0.0
292,1.5424413681030273,2.7925755783030244,2.190310965169816,4.148859584169573,-0.9998921119615911,0.0,0.10939747017204415,0.1,0.002605915069580078,0.04823803901672363,0.049733154,2.0017035,3.6085769232895855,0.0,0.05076348386036429,0.0,75,0.002671957015991211,0.7070952820387987,0.7070952820387987,21876,3.54992096056975,0.0
293,1.394242525100708,2.7718452598251533,2.177619709714581,4.034593522929237,-0.9998979639147154,0.0,0.10215090737051363,0.1,0.0026204586029052734,0.04790019989013672,0.050672136,3.2952557,3.5249037569431425,0.0,0.05041389900364565,0.0,70,0.0024161338806152344,0.7184395409469387,0.7184395409469387,21946,3.805315449895632,0.0
294,1.4092371463775635,3.7610646515472483,0.4391814578288739,4.022291465081175,3.0004583783167282,0.0,0.10716837878462919,0.1,0.002627134323120117,0.04743027687072754,0.049187608,1.8135303,3.5485198464035532,0.0,0.07024447370610115,0.0,64,0.002454996109008789,0.7682904015805453,0.7682904015805453,22010,3.712147244548691,0.0
295,1.508056402206421,4.643427045039738,0.9736074024369887,6.324902666874076,4.013370281645896,0.0,0.11400151418507835,0.1,0.002673625946044922,0.05074810981750488,0.04876723,1.8583457,3.658010566267172,0.0,0.08284722022317532,0.0,117,0.00443267822265625,0.9677830325201995,0.9677830325201995,22127,3.606307414513657,0.0
296,1.4843790531158447,4.1264388641837035,0.08851148351537313,4.2589808042749,4.0107549333859644,0.0,0.12525897358998442,0.1,0.0027282238006591797,0.05133962631225586,0.049080227,2.2372653,3.7048533960588252,0.0,0.0824823104423699,0.0,119,0.0029342174530029297,0.6837007659299811,0.6837007659299811,22246,3.896132135068358,0.0
297,1.403174638748169,4.0074450461053015,0.004130944195097034,4.011323847947952,4.000719649585093,0.0,0.094276209037827,0.1,0.0025742053985595703,0.0518796443939209,0.049338527,2.1710894,3.735112561063473,0.0,0.08016970406928062,0.0,53,0.0024704933166503906,0.8749993140474541,0.8749993140474541,22299,3.7276845514944825,0.0
298,1.4525339603424072,3.5787946083785314,0.9055828115753091,4.276058694393695,2.02172024273668,0.0,0.10046617702573217,0.1,0.0024597644805908203,0.047225236892700195,0.049402878,2.4491253,3.719480765794979,0.0,0.0665271611401896,0.0,70,0.00264739990234375,0.7823841368056459,0.7823841368056459,22369,3.875636729707836,0.0
299,1.439211368560791,4.1915597568881395,0.17841695189291504,4.453972265046396,4.015843169727492,0.0,0.12461304598896575,0.1,0.0025773048400878906,0.04992508888244629,0.049387157,2.663489,3.766688664904295,0.0,0.08336182093038316,0.0,117,0.00545048713684082,0.6974208100314087,0.6974208100314087,22486,4.2981435539044694,0.0
300,1.3748557567596436,4.014197542069219,0.017646442912586484,4.044477310875796,4.000813038898932,0.0,0.09742386105395619,0.1,0.0033731460571289062,0.04660773277282715,0.050210364,1.4319137,3.7914395526207874,0.0,0.07527445863329384,0.0,51,0.0024619102478027344,0.8840264019098617,0.8840264019098617,22537,4.58445448987073,0.0
301,1.4174680709838867,4.038466769400413,0.02977322403357906,4.088777908037952,4.011627974777557,0.0,0.11359884624400286,0.1,0.0026428699493408203,0.04876518249511719,0.052374978,2.08737,3.81614227429875,0.0,0.08076544836515342,0.0,84,0.002611398696899414,0.7297988793488874,0.7297988793488874,22621,4.137166862097806,0.0
302,1.3694639205932617,4.00812793120858,0.006833583778176081,4.01954793234998,4.001762581932447,0.0,0.09917989773439458,0.1,0.0024852752685546875,0.04714632034301758,0.049711082,1.695326,3.8353408399897333,0.0,0.0801532385039051,0.0,51,0.0024976730346679688,0.8713684345539305,0.8713684345539305,22672,4.010568795404004,0.0
303,1.364509105682373,2.760293397574785,1.1005228030072176,4.037503060886415,1.0004951572486995,0.0,0.08124342456428665,0.1,0.0024509429931640625,0.09246420860290527,0.050274204,4.7580233,3.7278360957482386,0.0,0.04019917940699093,0.0,29,0.0037994384765625,0.9520070390026868,0.9520070390026868,22701,3.689216631306939,0.0
304,1.3256688117980957,1.5036386241955917,2.5035363841349842,4.007215650521021,-0.9998998912546377,0.0,0.07774130365291794,0.1,0.002291440963745117,0.10879802703857422,0.04981143,2.792802,3.5054163485929744,0.0,0.02012172411053919,0.0,25,0.0023190975189208984,0.9382856057242094,0.9382856057242094,22726,4.173193164275161,0.0
305,1.493621826171875,4.586274382752496,0.910589665904977,6.160726771722561,4.006340190696267,0.0,0.11839400396957106,0.1,0.002762317657470703,0.05408310890197754,0.050422873,1.9802523,3.6135021520089268,0.0,0.08168178199772284,0.0,130,0.009027957916259766,0.8752342268647089,0.8676825090098517,22856,3.4734170149128083,0.0
306,1.3853394985198975,1.509353327383434,1.6680432473854976,4.029752933020938,0.0002534156447617786,0.0,0.079089553333177,0.1,0.002254009246826172,0.11325216293334961,0.050289836,4.872258,3.403087269546378,0.0,0.015183898268577363,0.0,26,0.0041027069091796875,0.7666802937988083,0.7666802937988083,22882,3.342396284068908,0.0
307,1.4513204097747803,3.663695498631073,0.9904748615386364,4.614656359505364,2.0006034309087024,0.0,0.1111271177214466,0.1,0.002480745315551758,0.048796653747558594,0.050046016,1.5167327,3.4291480924548474,0.0,0.06809243709851638,0.0,62,0.0028471946716308594,0.7907921842951375,0.7907921842951375,22944,3.4150114547831003,0.0
308,1.493704080581665,4.089525157740535,0.13691770827237312,4.3259391900366175,4.00115784270713,0.0,0.10831858655473672,0.1,0.002460479736328125,0.047457218170166016,0.049837112,1.6259607,3.495185798983416,0.0,0.07168811227804688,0.0,70,0.0026023387908935547,0.7758013025569277,0.7758013025569277,23014,3.7100637272787806,0.0
309,1.4621329307556152,4.017259254401974,0.017119324695508045,4.0464122446903925,4.002917078283755,0.0,0.10575486985858859,0.1,0.002458333969116211,0.047011375427246094,0.050158497,1.987876,3.547393144525272,0.0,0.08033572971413058,0.0,67,0.002347707748413086,0.7669981561222008,0.7669981561222008,23081,4.0466212211815185,0.0
310,1.427398920059204,4.048605211663838,0.03218878216197412,4.082413357601665,4.0091906646077256,0.0,0.11071789530784662,0.1,0.0027272701263427734,0.04816174507141113,0.049777318,1.9958469,3.5975143512391288,0.0,0.08088932141989835,0.0,83,0.00244140625,0.7188152322768778,0.7188152322768778,23164,2.942953432930871,0.0
311,1.4296238422393799,3.7250731423342383,1.013863892032563,4.574382762236665,2.0006654465283598,0.0,0.11938455153715259,0.1,0.002565145492553711,0.05067873001098633,0.051131178,2.716602,3.61027023034864,0.0,0.06943211223366683,0.0,92,0.00238800048828125,0.70083230412489,0.70083230412489,23256,3.180605529022081,0.0
312,1.5264461040496826,2.2695241238681274,2.062725040638048,4.070078230568481,-0.9998915622803226,0.0,0.10393215873644965,0.1,0.0025560855865478516,0.04693889617919922,0.049088877,3.9942424,3.476195619700589,0.0,0.03538859365677976,0.0,61,0.0024318695068359375,0.6833436859788863,0.6833436859788863,23317,4.203885587192803,0.0
313,1.4363925457000732,3.892194919717381,0.5450901993207161,4.48294879155494,3.0018889951531778,0.0,0.11496171007948304,0.1,0.002603292465209961,0.051831722259521484,0.049785823,1.8779186,3.5177955497022686,0.0,0.07276523083905376,0.0,89,0.0026171207427978516,0.6963597967993038,0.6963597967993038,23406,3.5845939953869994,0.0
314,1.5297050476074219,4.02839536594455,0.018715099597395177,4.048888269400482,4.006638205792928,0.0,0.11235309490559674,0.1,0.002652406692504883,0.05027651786804199,0.04877477,1.9679463,3.5688555313264967,0.0,0.08052938794531023,0.0,92,0.002652883529663086,0.6764142081822341,0.6764142081822341,23498,3.819789533664647,0.0
315,1.5226008892059326,4.418588681523459,0.7004588201191316,5.631787726743703,4.006032502492597,0.0,0.1244546119203373,0.1,0.0026128292083740234,0.049727678298950195,0.048584074,1.6989151,3.653828846346193,0.0,0.08827475552497019,0.0,111,0.004460573196411133,0.7652962671243876,0.7652962671243876,23609,4.1437629225494526,0.0
316,1.5341641902923584,4.056760464283675,0.030473720075312426,4.087647047013523,4.008020289224303,0.0,0.11522987194990854,0.1,0.0026679039001464844,0.04792666435241699,0.0508101,3.5558107,3.6941220081399413,0.0,0.08101617253852111,0.0,88,0.002675771713256836,0.6974729353451452,0.6974729353451452,23697,4.0735967963945825,0.0
317,1.551123857498169,4.1341856965519925,0.15571154573903165,4.397383907336409,4.018663413762119,0.0,0.11887960127266683,0.1,0.0027816295623779297,0.05054950714111328,0.05063739,2.5120692,3.7381283769811464,0.0,0.08255265821957398,0.0,127,0.002975940704345703,0.6348695358374022,0.6348695358374022,23824,4.109611511050664,0.0
318,1.5832126140594482,4.640641441061837,0.9759041133482862,6.323871786410109,4.002440190485297,0.0,0.12824810952686685,0.1,0.002716064453125,0.04956769943237305,0.050859384,1.6572603,3.828379683389216,0.0,0.08270591655197411,0.0,106,0.006169557571411133,0.9792448712260129,0.9792448712260129,23930,3.9438294692766136,0.0
319,1.5971331596374512,4.037665602564331,2.4796390856978303,6.084383720585181,0.0003690813280847749,0.0,0.11087299315160043,0.1,0.002798318862915039,0.05028581619262695,0.04912729,3.9719474,3.849308275306728,0.0,0.05574200618607546,0.0,109,0.005874156951904297,1.4146822173374467,1.4146822173374467,24039,4.100560339940935,0.0
320,1.4332258701324463,4.01426683161692,0.008155048772006547,4.024405694891484,4.0021159262316415,0.0,0.11251040229478045,0.1,0.002541065216064453,0.04739546775817871,0.050338544,1.5973039,3.865804130937747,0.0,0.0752862237134078,0.0,64,0.002615213394165039,0.7611848034079397,0.7611848034079397,24103,4.111881073482201,0.0
321,1.4989206790924072,4.553218943642073,0.8735877624448924,6.0657677375181365,4.025274765132321,0.0,0.13784700124586582,0.1,0.003004312515258789,0.05534243583679199,0.04972566,1.4650289,3.9345456122081797,0.0,0.08093700002537682,0.0,133,0.00919342041015625,0.8142307975743486,0.8020975983308112,24236,4.314555365653635,0.0
322,1.5353448390960693,4.017793463118598,0.015931479454378616,4.0447256356387475,4.003234751508019,0.0,0.10917747742691357,0.1,0.0025873184204101562,0.04809212684631348,0.049136594,1.8024619,3.9428703972992216,0.0,0.07535572940871393,0.0,72,0.002632617950439453,0.7052261929951841,0.7052261929951841,24308,3.500500560569138,0.0
323,1.5275218486785889,4.084341846220196,0.04493448027616881,4.1368099795841395,4.0266393449906746,0.0,0.12545835299626618,0.1,0.002650737762451172,0.05071210861206055,0.05050302,1.7947168,3.957017542191319,0.0,0.08161734104272825,0.0,110,0.005389213562011719,0.5987673718267332,0.5987673718267332,24418,3.8398964129632494,0.0
324,1.4897303581237793,4.039481752608294,0.04865923543015415,4.120512030179039,4.001336333165687,0.0,0.10300800680698961,0.1,0.0026764869689941406,0.04755806922912598,0.050238095,5.5000944,3.9652639632330167,0.0,0.08076380865784931,0.0,75,0.0026221275329589844,0.7182935010228217,0.7182935010228217,24493,3.0218747683060756,0.0
325,1.4222557544708252,3.7715158959517767,0.445138744694725,4.053151877150505,3.000968184635983,0.0,0.11161310211671065,0.1,0.002476930618286133,0.04659605026245117,0.05039293,1.6918839,3.945889156504893,0.0,0.07042842536169455,0.0,62,0.002431631088256836,0.7172437286561372,0.7172437286561372,24555,3.5460089539438617,0.0
326,1.448502540588379,4.016513068708034,0.010292191574305843,4.030459328136242,4.001831067191882,0.0,0.10803259614914253,0.1,0.0026111602783203125,0.04738974571228027,0.049305808,1.9267001,3.952951547725207,0.0,0.08032105461513418,0.0,68,0.0023543834686279297,0.7452860964498104,0.7452860964498104,24623,3.742462275788902,0.0
327,1.5387685298919678,4.525945782051935,0.8868075621453487,6.061875070468885,4.000758916418611,0.0,0.11198523230605756,0.1,0.0025124549865722656,0.04789924621582031,0.051224627,1.9810512,4.01025097115788,0.0,0.07551621158753523,0.0,80,0.0026111602783203125,1.1742138168366192,1.1742138168366192,24703,4.62797726204492,0.0
328,1.485466718673706,4.051275919307152,0.0537446222274719,4.140935449286606,4.005634868010709,0.0,0.12402534989779047,0.1,0.0024955272674560547,0.04839801788330078,0.05021033,1.8555816,4.014353465972808,0.0,0.08102489049443978,0.0,86,0.002476930618286133,0.6658498594557103,0.6658498594557103,24789,4.102115450532989,0.0
329,1.5016071796417236,4.0704603979931395,0.09085067893592155,4.2234703242341824,4.0012673899615,0.0,0.11963043769075067,0.1,0.002603292465209961,0.04915642738342285,0.04957272,1.9914411,4.019964159174841,0.0,0.07640174784039512,0.0,96,0.0024127960205078125,0.6379877708912911,0.6379877708912911,24885,4.142016206649438,0.0
330,1.5132160186767578,3.7810264043303423,2.3094604325054124,6.152936163590886,0.0015227276265594725,0.0,0.11834610992746651,0.1,0.002830028533935547,0.05100822448730469,0.049193244,2.2884245,3.9960703836903915,0.0,0.060161416291722836,0.0,104,0.0031442642211914062,1.0985792447770966,1.0985792447770966,24989,3.9451395863763232,0.0
331,1.5295765399932861,4.618401935810727,0.8777875131877573,6.128389307199518,4.027336497506622,0.0,0.12255387490578687,0.1,0.002918243408203125,0.051970481872558594,0.048728015,1.5903649,4.058303538902425,0.0,0.0822019796990618,0.0,114,0.0032634735107421875,0.900555430803802,0.900555430803802,25103,4.326782910128128,0.0
332,1.4994244575500488,4.58935123769828,1.0043135052072827,6.328866819170751,4.006861131923955,0.0,0.12063426095966416,0.1,0.002888202667236328,0.04946255683898926,0.048986662,2.3622472,4.111408308782011,0.0,0.08165681337240165,0.0,84,0.002527475357055664,1.1724644157703177,1.1724644157703177,25187,3.782054309399788,0.0
333,1.5552101135253906,4.582173169808858,0.8635453950422508,6.070571474235727,4.002441281059315,0.0,0.11781321399860553,0.1,0.002778768539428711,0.05298662185668945,0.049042437,2.2194636,4.1584847948846955,0.0,0.08165040505772228,0.0,124,0.0031213760375976562,0.8620191805599299,0.8620191805599299,25311,3.6584234517477987,0.0
334,1.4852344989776611,4.028526754477706,0.028109768410516458,4.073890272530158,4.004714895478396,0.0,0.11881795178123751,0.1,0.002758026123046875,0.050409555435180664,0.05011925,1.2853891,4.1454889908439965,0.0,0.08055914396993916,0.0,80,0.0026137828826904297,0.6861540216228061,0.6861540216228061,25391,3.5244842016941043,0.0
335,1.4789910316467285,3.287109894415962,2.1893982016052753,6.049364575910406,0.00022594042541967951,0.0,0.10698232157746168,0.1,0.0026624202728271484,0.049578189849853516,0.05021554,1.9163022,4.059651081201193,0.0,0.0456832748594268,0.0,79,0.0025703907012939453,1.0943947626386659,1.0943947626386659,25470,3.60655923452098,0.0
336,1.5178742408752441,4.0587721309023825,0.07718485793489799,4.1920768555532355,4.008345301234485,0.0,0.11437922517460913,0.1,0.0027418136596679688,0.04965472221374512,0.049505237,2.1576853,4.059563186171312,0.0,0.0811712909645516,0.0,87,0.002948284149169922,0.6458614500698974,0.6458614500698974,25557,3.9620333776155774,0.0
337,1.568368673324585,3.7920280441252237,0.4555888187582745,4.089519397472953,3.004141024612084,0.0,0.11042703887163427,0.1,0.0026557445526123047,0.05014491081237793,0.04926401,2.4116077,4.032809671966703,0.0,0.07081513691062494,0.0,84,0.002811431884765625,0.6371349743085168,0.6371349743085168,25641,3.8263764032301992,0.0
338,1.5481641292572021,3.0092276768420874,1.7371415722998682,4.027872605300532,0.0004564226697645335,0.0,0.10403894435914912,0.1,0.002596139907836914,0.04915499687194824,0.04988133,1.954301,3.9304514724542416,0.0,0.055214882352119514,0.0,71,0.002602815628051758,0.6640325813195184,0.6640325813195184,25712,7.505329174323271,0.0
339,1.442521333694458,3.7736148943444987,0.44677353012369125,4.073495232537569,3.0011109362758948,0.0,0.10354030435181491,0.1,0.002459287643432617,0.04744720458984375,0.050311405,1.4734211,3.9147678146432674,0.0,0.070467961802338,0.0,53,0.002683401107788086,0.7791824758714803,0.7791824758714803,25765,3.8883096915072737,0.0
340,1.485349416732788,4.1048875276444505,0.1282446880257736,4.326568939687016,4.018920806978507,0.0,0.12653186087839458,0.1,0.0026013851165771484,0.05054879188537598,0.04942029,1.542917,3.933779785943386,0.0,0.08209509171223137,0.0,97,0.0074999332427978516,0.6320517968116403,0.6320517968116403,25862,3.5338217543815937,0.0
341,1.4853184223175049,4.011167315536504,0.004723401920568994,4.016716453582309,4.003671477362559,0.0,0.10772326660097938,0.1,0.0025205612182617188,0.04732561111450195,0.05036362,2.0361078,3.941518538902698,0.0,0.08020050300967625,0.0,67,0.002637147903442383,0.7298535981899421,0.7298535981899421,25929,4.043616751129798,0.0
342,1.4312784671783447,4.003177793684455,0.0013679546483107326,4.005252294367811,4.001655907028503,0.0,0.09396552740470118,0.1,0.0028634071350097656,0.08039164543151855,0.049693454,1.556119,3.947684464380874,0.0,0.08006654044364192,0.0,35,0.002313375473022461,1.033956612998353,1.033956612998353,25964,4.044104232166903,0.0
343,1.5438768863677979,3.785624555310344,0.42705548405196403,4.0703639030135665,3.0471625036151404,0.0,0.10132798185696709,0.1,0.002438783645629883,0.04703927040100098,0.049961116,2.9576793,3.931478473473821,0.0,0.07071451249472195,0.0,64,0.0024132728576660156,0.7203375777222123,0.7203375777222123,26028,3.2247686649285527,0.0
344,1.4080660343170166,4.012426187370046,0.008286760676055044,4.021643218957899,4.001196978154848,0.0,0.09794907206632891,0.1,0.0029532909393310547,0.04696512222290039,0.04976421,2.1923325,3.9395732448634435,0.0,0.07524321692749622,0.0,55,0.002412557601928711,0.8333893837580459,0.8333893837580459,26083,4.214574892853417,0.0
345,1.4617815017700195,4.019587378746214,0.012532891642886564,4.038283959532307,4.003080953793631,0.0,0.09946156303136908,0.1,0.00243377685546875,0.07419848442077637,0.050303787,1.5155597,3.9475746582517206,0.0,0.0803858939309499,0.0,48,0.002285003662109375,0.8978336121965214,0.8978336121965214,26131,4.075662318507121,0.0
346,1.459623098373413,3.764844482552741,0.44102279257290944,4.035639279211576,3.00119031948823,0.0,0.10545525937410558,0.1,0.0024819374084472656,0.04722404479980469,0.049433887,1.70498,3.929301640681823,0.0,0.07029256297940575,0.0,59,0.002329111099243164,0.7646022398344269,0.7646022398344269,26190,3.525320560873029,0.0
347,1.4646384716033936,4.0283921067882655,0.019827158922294624,4.057666603034698,4.006880228435119,0.0,0.11232369174363575,0.1,0.0023627281188964844,0.04752635955810547,0.049708128,1.2753309,3.939210687292467,0.0,0.08058630163486558,0.0,56,0.0023567676544189453,0.8238503897526671,0.8238503897526671,26246,4.089498100666922,0.0
348,1.4541974067687988,3.0314411597887645,1.2507468363148972,4.118390335938206,1.0004160577977785,0.0,0.08885731813921596,0.1,0.004242897033691406,0.08253026008605957,0.049319055,2.186352,3.848433734542097,0.0,0.05053801946441065,0.0,35,0.0025801658630371094,0.9115098763197752,0.9115098763197752,26281,2.76732589452015,0.0
349,1.5098376274108887,3.5229219800185128,0.8791152040582463,4.05685749026686,2.0006255548921397,0.0,0.09524307726690756,0.1,0.0024116039276123047,0.04712367057800293,0.049869232,2.9349747,3.8158825590897383,0.0,0.060435712474058156,0.0,56,0.0023565292358398438,0.7586104354399495,0.7586104354399495,26337,3.92990468805926,0.0
350,1.4653654098510742,3.0138382989160464,1.7399544701559908,4.040081538389153,0.00023680167153150578,0.0,0.10412337970486026,0.1,0.0023984909057617188,0.04674386978149414,0.05052636,1.9837104,3.735678133072369,0.0,0.05528236952128987,0.0,57,0.0025501251220703125,0.6861821013442938,0.6861821013442938,26394,4.569250259826725,0.0
351,1.6395573616027832,3.77198575093567,0.4450442823341602,4.044238112573325,3.0016699700660165,0.0,0.10543935345284801,0.1,0.0024137496948242188,0.0479426383972168,0.053864233,3.0351357,3.7393088948586994,0.0,0.0704350331260746,0.0,79,0.0024111270904541016,0.6472827303837585,0.6472827303837585,26473,3.9431726108174288,0.0
352,1.8308565616607666,4.530632812951875,0.9046814919373248,6.0975701092150745,4.003194145769214,0.0,0.10836653550230994,0.1,0.002485513687133789,0.047925472259521484,0.04951378,2.7079878,3.8184412866680173,0.0,0.08050556569143466,0.0,86,0.002371549606323242,1.1448367454095154,1.1448367454095154,26559,3.6680208419271434,0.0
353,1.3914315700531006,4.014163419898377,0.008221381306070346,4.021125489247543,4.000707493041403,0.0,0.11394298122616789,0.1,0.0028409957885742188,0.048688650131225586,0.0506424,1.1883031,3.838013499991053,0.0,0.07527014529304749,0.0,59,0.0031785964965820312,0.7684713394815275,0.7684713394815275,26618,4.283463164707061,0.0
354,1.4337069988250732,4.012952434330733,0.006875565096831909,4.023430202251171,4.004274464825989,0.0,0.10740611994576119,0.1,0.003482818603515625,0.047972917556762695,0.050109364,1.5046351,3.8555073934250212,0.0,0.08026110277343995,0.0,57,0.002454042434692383,0.7853854229443571,0.7853854229443571,26675,4.306093816867244,0.0
355,1.495199203491211,3.420972029629911,1.4244754458519353,4.6790597192153776,1.0005865630926547,0.0,0.09315003964201954,0.1,0.002597808837890625,0.04785442352294922,0.049437363,2.3487644,3.8120538570455103,0.0,0.05807171857777332,0.0,56,0.0024328231811523438,0.8537056474509351,0.8537056474509351,26731,3.449693290795681,0.0
356,1.5188367366790771,4.107498567623247,0.09366999260713485,4.268745973315298,4.039347259790176,0.0,0.11806800079398698,0.1,0.002638101577758789,0.049358367919921875,0.050180297,2.3755155,3.841598328103284,0.0,0.08198559074034434,0.0,86,0.002504110336303711,0.7112483395412557,0.7112483395412557,26817,4.144332539100379,0.0
357,1.4781756401062012,4.021953164370869,0.013331434883998978,4.0402451054252815,4.004812893322958,0.0,0.11537696027306561,0.1,0.002784252166748047,0.050124168395996094,0.049947824,2.3991432,3.859633811730043,0.0,0.08041247861987956,0.0,88,0.0024929046630859375,0.6575759249664721,0.6575759249664721,26905,3.513765797616603,0.0
358,1.4702677726745605,4.037303530726421,0.025410859221281615,4.077717835849834,4.010911203190763,0.0,0.10600996881646087,0.1,0.0026412010192871094,0.05054426193237305,0.050686102,2.0001483,3.877400783629681,0.0,0.08071595962175018,0.0,67,0.002564668655395508,0.7444529405275125,0.7444529405275125,26972,3.712507113320738,0.0
359,1.4782135486602783,4.034819708426161,0.021560472357218915,4.065439892495581,4.011753382034444,0.0,0.1168836454076004,0.1,0.0026001930236816406,0.05032515525817871,0.050486453,2.084616,3.893142676109329,0.0,0.0806873360393535,0.0,89,0.0024809837341308594,0.6305107942215197,0.6305107942215197,27061,3.4187166901831127,0.0
360,1.4552743434906006,4.014848483180495,0.009240192734994145,4.030413437450147,4.007078577179489,0.0,0.11970186184190694,0.1,0.0026574134826660156,0.05546879768371582,0.04972229,1.9282221,3.905313256816446,0.0,0.08029774803098355,0.0,83,0.002859830856323242,0.658826268025303,0.658826268025303,27144,3.6166244813862227,0.0
361,1.5767161846160889,4.54648815731899,0.8931138602713745,6.093225091370578,4.015404051722964,0.0,0.11041916768147393,0.1,0.0027577877044677734,0.0518341064453125,0.050156955,2.9553797,3.9694307468667005,0.0,0.08079531937650164,0.0,111,0.004862070083618164,0.9009921759900217,0.9009921759900217,27255,4.080640124541793,0.0
362,1.4670257568359375,4.015542952923285,0.010025690401241103,4.027889624306155,4.002551857334596,0.0,0.10086427683764342,0.1,0.00278472900390625,0.051851749420166016,0.049510866,1.7902285,3.974041967472359,0.0,0.07530580266771841,0.0,59,0.0026552677154541016,0.7717722466697371,0.7717722466697371,27314,3.820530776905349,0.0
363,1.4819161891937256,4.008413366596489,0.0015437932891234343,4.010802045643008,4.006510851192999,0.0,0.10594748974593357,0.1,0.0025277137756347656,0.04735112190246582,0.05007299,1.924018,3.977479107384772,0.0,0.08019188987272392,0.0,65,0.0063283443450927734,0.7584834998265017,0.7584834998265017,27379,4.14715782582561,0.0
364,1.5246398448944092,4.179794567614335,0.2552072927287713,4.621584319207744,4.025511366748489,0.0,0.12778404276557578,0.1,0.0026786327362060547,0.05089592933654785,0.049702045,2.062005,3.9977106534077285,0.0,0.08319806693124544,0.0,116,0.00535273551940918,0.5916361096004784,0.5916361096004784,27495,3.202581658394243,0.0
365,1.516493797302246,3.8165282012141044,0.47931585395813747,4.2322677008736145,3.0006793535796614,0.0,0.10102303494959176,0.1,0.0024755001068115234,0.04694342613220215,0.050234184,2.2625616,3.979592408188366,0.0,0.06631495125637385,0.0,60,0.002447843551635742,0.7818984768063456,0.7818984768063456,27555,3.1461172365472034,0.0
366,1.5033318996429443,4.040592033330306,0.042328579394197596,4.11262995175238,4.005108981516697,0.0,0.10771368304419052,0.1,0.002553224563598633,0.04906201362609863,0.049336042,2.5073915,3.98569237070256,0.0,0.08078380143966829,0.0,79,0.0026366710662841797,0.7070195071339208,0.7070195071339208,27634,3.8202787424543856,0.0
