iteration,time_sampling,stoc_pol_mean,stoc_pol_std,stoc_pol_max,stoc_pol_min,rollout_success,alpha,delta,time_vpg,time_npg,kl_dist,surr_improvement,running_score,rwd_sparse,rwd_dense,success_percentage,num_samples,time_VF,VF_error_before,VF_error_after,env_samples,eval_score,eval_success
0,1.184084415435791,-248.248577504866,35.385593902882405,-212.8682350403575,-285.14019431904535,0.0,0.1116474150891504,0.1,0.0595245361328125,0.41843628883361816,0.051195215,2.1681297,-248.248577504866,-0.08843956276847646,-2.784199919449452,0.0,94,0.01708531379699707,0.9990832767997718,0.9990832767997718,94,-305.38265616694576,0.0
1,0.9594707489013672,-243.76156226464542,41.125002197322466,-201.7610671639912,-302.570850849075,0.0,0.16148217498487644,0.1,0.030040264129638672,0.42643213272094727,0.048847113,1.0016184,-247.79987598084398,-0.09231866537243644,-2.7089759530476774,0.0,93,0.016678333282470703,0.9990982779614852,0.9990982779614852,187,-328.3055278635291,0.0
2,1.0378658771514893,-255.3899056959196,31.025546058256896,-211.27427860645423,-295.5522863657726,0.0,0.1509093244709075,0.1,0.03097844123840332,0.11122322082519531,0.05041809,1.7492837,-248.55887895235153,-0.09330751633964296,-2.873479244182568,0.0,96,0.002960681915283203,0.9991344218747487,0.9991344218747487,283,-344.16101864352544,0.0
3,1.0306670665740967,-234.93180236935672,33.20389052716819,-181.4881082656662,-269.76756647897207,0.0,0.134832649109605,0.1,0.002351045608520508,0.04658055305480957,0.04995457,1.8537825,-247.19617129405205,-0.08789239659131394,-2.6101406324191694,0.0,92,0.0029091835021972656,0.9990210065797206,0.9990210065797206,375,-311.0937364272914,0.0
4,1.024202823638916,-262.7635674252958,48.11790143669738,-202.8319517129933,-333.54324145561674,0.0,0.14070460043516228,0.1,0.0023093223571777344,0.0465700626373291,0.05423893,1.113651,-248.7529109071764,-0.09969347351738041,-2.9759610764339612,0.0,90,0.0026085376739501953,0.9991393926599538,0.9991393926599538,465,-294.0984810836991,0.0
5,1.0407614707946777,-253.70036899601044,44.50545193782155,-192.73901523919596,-305.16649916311616,0.0,0.14706570020154158,0.1,0.0023300647735595703,0.04694080352783203,0.04963846,1.0844275,-249.24765671605982,-0.09645375096417219,-2.852853353605868,0.0,93,0.0026810169219970703,0.9991134144138419,0.9991134144138419,558,-301.7730387008604,0.0
6,1.0330228805541992,-228.5407257900614,38.882331912227926,-175.3130834967096,-278.813845074894,0.0,0.14037454805042693,0.1,0.005086183547973633,0.04712963104248047,0.05054067,1.1927174,-247.17696362345998,-0.09452866708482113,-2.523428129611225,0.0,83,0.003396272659301758,0.9990277621675628,0.9990277621675628,641,-321.5836284487381,0.0
7,1.0331871509552002,-249.97231591269917,3.1308992006070637,-245.765478482849,-253.45116496731194,0.0,0.14732045606672087,0.1,0.0023651123046875,0.046239614486694336,0.048807446,1.0641632,-247.4564988523839,-0.10315200207161773,-2.8169236293840054,0.0,82,0.002408742904663086,0.9990540580870954,0.9990540580870954,723,-324.7438044762213,0.0
8,1.044935703277588,-252.86461418732338,34.8214233883561,-216.65052460363555,-303.0227580802258,0.0,0.14655729130937775,0.1,0.0023088455200195312,0.05181264877319336,0.05181958,1.3773353,-247.99731038587785,-0.09521705970693413,-2.8383216782453347,0.0,91,0.00327301025390625,0.9990937774870834,0.9990937774870834,814,-331.43519681178475,0.0
9,1.0495800971984863,-234.36853752375248,31.67147091428616,-182.46167505750464,-268.35356287866455,0.0,0.14855231554396378,0.1,0.03050088882446289,0.415668249130249,0.049251344,1.8047308,-246.6344330996653,-0.09465157884195002,-2.606550815757954,0.0,87,0.0088653564453125,0.9990472323581229,0.9990472323581229,901,-321.7874430410695,0.0
10,1.0369491577148438,-219.6130358124285,26.017982623665162,-188.8704542565821,-255.4455850143026,0.0,0.13550586051029398,0.1,0.0022995471954345703,0.049247026443481445,0.049120106,1.9726608,-243.9322933709416,-0.09128565203887036,-2.410022511338271,0.0,85,0.003082752227783203,0.9990121839440477,0.9990121839440477,986,-325.4098618163213,0.0
11,1.0479590892791748,-257.495456439548,26.151142938926764,-221.13918082045035,-295.0491890333591,0.0,0.14863919496163125,0.1,0.0027344226837158203,0.04651784896850586,0.050232176,1.6716679,-245.28860967780224,-0.09888223987983802,-2.8908674961839944,0.0,89,0.002554655075073242,0.9991085891023839,0.9991085891023839,1075,-307.6614105546641,0.0
12,1.0572178363800049,-250.67493980428424,30.02960767591932,-211.65518129314887,-290.80617904887214,0.0,0.14715464521921418,0.1,0.002380847930908203,0.04700422286987305,0.048516158,1.4510659,-245.82724269045045,-0.09421541863729364,-2.795353777005804,0.0,91,0.0027310848236083984,0.9990890443340218,0.9990890443340218,1166,-302.7160062078011,0.0
13,1.0566318035125732,-235.62729961173042,12.091633630958887,-220.55350078615822,-248.19014505842952,0.0,0.14395947536510384,0.1,0.002318859100341797,0.04631853103637695,0.04916638,1.8192745,-244.80724838257845,-0.09196370586835498,-2.6177714334519435,0.0,88,0.002969026565551758,0.999036099825469,0.999036099825469,1254,-304.3563339497457,0.0
14,1.0625481605529785,-244.53630535058034,29.720347382117403,-204.77434123347956,-282.10268197077227,0.0,0.13432479626705213,0.1,0.0024192333221435547,0.04642462730407715,0.048540615,2.4317324,-244.78015407937866,-0.09520432059157927,-2.721798586621816,0.0,89,0.0027151107788085938,0.9990853015714178,0.9990853015714178,1343,-301.1114550940826,0.0
15,1.007016658782959,-229.07011375466254,28.527693463932454,-202.64247339916287,-275.80322512895543,0.0,0.15247663821073612,0.1,0.0024144649505615234,0.04703569412231445,0.05034993,1.4372758,-243.20915004690704,-0.09784557297590672,-2.5211068333370523,0.0,84,0.0029587745666503906,0.999059584400826,0.999059584400826,1427,-299.9978412660022,0.0
16,1.0081753730773926,-276.03226258111874,34.53402740683406,-245.91533664658004,-334.75250754771776,0.0,0.13974556953984532,0.1,0.0024454593658447266,0.048018693923950195,0.0493426,1.4408319,-246.4914613003282,-0.10540606249577886,-3.142463167224213,0.0,89,0.003019094467163086,0.9991646459141055,0.9991646459141055,1516,-304.44857531716264,0.0
17,1.0281634330749512,-247.34052355710276,21.53119895207987,-227.8311899346085,-281.9166576922455,0.0,0.1487685443453826,0.1,0.0023789405822753906,0.047914981842041016,0.049568716,1.5652009,-246.57636752600567,-0.0938955302999855,-2.753995701645474,0.0,88,0.0028400421142578125,0.9990683361658004,0.9990683361658004,1604,-348.27934131717933,0.0
18,1.0023634433746338,-263.08902404669067,17.052118167157445,-236.76810488464218,-284.1741462157367,0.0,0.146330553552276,0.1,0.002307415008544922,0.046453237533569336,0.050712932,2.0530312,-248.2276331780742,-0.1013490963428378,-2.9737020135269217,0.0,88,0.0033757686614990234,0.9991176663222859,0.9991176663222859,1692,-324.90628979262453,0.0
19,0.9995419979095459,-241.06314132353293,21.41474573788812,-215.64376180043138,-270.2093338121336,0.0,0.14191490159383024,0.1,0.0023245811462402344,0.04602932929992676,0.050786473,1.687766,-247.5111839926201,-0.0965779445472019,-2.6762183382476388,0.0,84,0.003166675567626953,0.9990585936103495,0.9990585936103495,1776,-350.8191578348448,0.0
20,1.0244057178497314,-261.7758010675765,10.496377240196852,-244.34596538763424,-270.28181732938805,0.0,0.14256820630464304,0.1,0.002474546432495117,0.07084321975708008,0.049289905,1.7351393,-248.93764570011575,-0.09625345553022498,-2.951272899019334,0.0,92,0.003229379653930664,0.9991061578245913,0.9991061578245913,1868,-324.54077676785505,0.0
21,1.0358777046203613,-238.00658219178638,36.662571902916774,-178.7706063649015,-270.9597935023021,0.0,0.13455252934516057,0.1,0.0032188892364501953,0.04623985290527344,0.048175827,2.9650338,-247.84453934928283,-0.09401378386972106,-2.647344559279132,0.0,88,0.003239154815673828,0.9990540966545584,0.9990540966545584,1956,-306.6598418294831,0.0
22,1.0610253810882568,-279.7480585698867,7.58940712541313,-266.8990212324816,-286.6211943420226,0.0,0.1497700067047968,0.1,0.0022614002227783203,0.04644465446472168,0.04948694,1.6982431,-251.0348912713432,-0.10113046412188395,-3.1871434784372057,0.0,95,0.002695798873901367,0.9991509961464234,0.9991509961464234,2051,-328.48219919823833,0.0
23,1.0311827659606934,-235.28350932894497,18.052542985577208,-204.60481921760717,-249.6045025209092,0.0,0.15171603295335992,0.1,0.002300262451171875,0.046361446380615234,0.050096035,1.695822,-249.45975307710341,-0.08559548591132303,-2.6012224620644004,0.0,92,0.002646923065185547,0.9990162132864319,0.9990162132864319,2143,-332.2958440340645,0.0
24,1.0338282585144043,-208.6244224551834,35.79751222167386,-180.6465596363731,-269.0028016822102,0.0,0.14447520417095597,0.1,0.0022890567779541016,0.04649925231933594,0.049627524,1.0441593,-245.3762200149114,-0.08810515098297228,-2.266442816665619,0.0,84,0.0026950836181640625,0.9989689452954341,0.9989689452954341,2227,-299.7194606544961,0.0
25,1.0286626815795898,-237.30795551575613,19.178026334009346,-208.56945049567506,-262.3253846612348,0.0,0.1476914798658586,0.1,0.002282857894897461,0.047077178955078125,0.050068956,2.3886824,-244.5693935649959,-0.09937992241638173,-2.6356546099009845,0.0,82,0.0026979446411132812,0.9990531939751537,0.9990531939751537,2309,-348.10377874899336,0.0
26,1.0355195999145508,-232.94192744191446,54.94604511982669,-173.48403223965857,-288.50761257373136,0.0,0.13307014326638367,0.1,0.002283811569213867,0.04570889472961426,0.05041291,1.584724,-243.40664695268777,-0.09943024364034242,-2.5695692493501117,0.0,83,0.002596616744995117,0.9990675942917174,0.9990675942917174,2392,-304.477024113955,0.0
27,1.1066136360168457,-262.33893764664055,20.241750322558776,-238.76947063143334,-294.12105697897925,0.0,0.14103182854246885,0.1,0.0023458003997802734,0.05224776268005371,0.05031456,1.8967993,-245.29987602208305,-0.09927396012043091,-2.9545628845576775,0.0,90,0.002713441848754883,0.9991371665134735,0.9991371665134735,2482,-321.7455719076663,0.0
28,1.0485081672668457,-251.30423132907316,17.638875055330484,-224.53246967089163,-270.3857714977947,0.0,0.1473192211467525,0.1,0.0023031234741210938,0.04683709144592285,0.050086748,1.2237471,-245.90031155278206,-0.10196483829738089,-2.8190817633761887,0.0,84,0.0026760101318359375,0.999082481731416,0.999082481731416,2566,-296.63571707032247,0.0
29,1.0484273433685303,-226.75648008758913,15.878669955278353,-199.72879201026387,-240.04721849845706,0.0,0.14535441005935648,0.1,0.0022881031036376953,0.04655647277832031,0.049227364,1.3375663,-243.98592840626276,-0.0927311269806477,-2.4989298081468796,0.0,84,0.0027234554290771484,0.9990075861726476,0.9990075861726476,2650,-304.56227458093616,0.0
30,1.0128540992736816,-278.0461407100556,31.25761741000901,-228.62067708568563,-306.87740104964286,0.0,0.15628400429839992,0.1,0.0024907588958740234,0.052204132080078125,0.04886735,0.9912698,-247.39194963664207,-0.10473068701866713,-3.1598486819582985,0.0,93,0.003221750259399414,0.9991666020695981,0.9991666020695981,2743,-297.78544210563916,0.0
31,1.093529462814331,-253.2565335467939,33.587094790673355,-198.32756629374722,-283.8859488279951,0.0,0.12912896247230726,0.1,0.0025424957275390625,0.04794931411743164,0.04929097,2.217413,-247.97840802765725,-0.101631085643964,-2.856045149491928,0.0,84,0.0028734207153320312,0.9990975266336979,0.9990975266336979,2827,-306.4996780258673,0.0
32,1.0032823085784912,-213.4959296417814,26.492720542572307,-186.48577099547816,-254.69275007242913,0.0,0.14182764268324494,0.1,0.0024204254150390625,0.04594564437866211,0.050679713,1.4399006,-244.53016018906965,-0.08329220843270768,-2.3253260152678745,0.0,85,0.0029747486114501953,0.9989423801102688,0.9989423801102688,2912,-311.2598017311124,0.0
33,1.0171575546264648,-289.1279826756993,47.90464094628363,-249.16473800053635,-367.585836877765,0.0,0.14859692527580967,0.1,0.0023043155670166016,0.046235084533691406,0.050861824,1.2093362,-248.98994243773262,-0.10277362737005363,-3.3049973066717353,0.0,96,0.0028846263885498047,0.9992183719012686,0.9992183719012686,3008,-321.8103293089719,0.0
34,1.0108819007873535,-233.49361491992187,32.87880212511025,-205.5134146234496,-286.8103519166076,0.0,0.14579063613275173,0.1,0.002299070358276367,0.04685378074645996,0.049900927,1.659334,-247.44030968595158,-0.09066761637802578,-2.5890717801603507,0.0,89,0.0028192996978759766,0.9990629431262894,0.9990629431262894,3097,-332.4138472281557,0.0
35,1.0030817985534668,-220.31962625264973,18.704905030679836,-203.38381918097696,-251.96262736368033,0.0,0.14148351152904715,0.1,0.002329587936401367,0.046074867248535156,0.050709505,1.6908451,-244.7282413426214,-0.09042277623347794,-2.388332560513864,0.0,85,0.002950906753540039,0.9990172433852191,0.9990172433852191,3182,-321.53759125820557,0.0
36,1.0026280879974365,-220.87428472841555,10.812276417684009,-202.40558573740662,-229.9065541283096,0.0,0.14014679626566062,0.1,0.002415180206298828,0.046804189682006836,0.0507178,1.721592,-242.34284568120083,-0.09184943465974227,-2.406934769645793,0.0,81,0.003665924072265625,0.9989952971848761,0.9989952971848761,3263,-327.6496727119766,0.0
37,1.0369555950164795,-240.76249689883997,27.705697016310857,-199.64417582791413,-277.2930533436971,0.0,0.14683654543761926,0.1,0.002664327621459961,0.04575753211975098,0.05057491,1.2388014,-242.18481080296476,-0.09715363683551595,-2.6679890413006544,0.0,85,0.00299835205078125,0.999056265220486,0.999056265220486,3348,-304.53452666523486,0.0
38,1.014462947845459,-229.12988641682844,26.102599626641204,-191.89899294004093,-265.51584468247455,0.0,0.1348526991974984,0.1,0.0022406578063964844,0.04987192153930664,0.048886746,2.0176897,-240.87931836435115,-0.09230114824295507,-2.522567432535868,0.0,84,0.0025703907012939453,0.9990090250484861,0.9990090250484861,3432,-326.2421993788536,0.0
39,1.0169236660003662,-224.84907303729597,25.153418666069182,-199.69159777298097,-265.025052522962,0.0,0.14792550820524744,0.1,0.0022690296173095703,0.045967817306518555,0.050937664,1.223059,-239.27629383164566,-0.0947560595215815,-2.4669406084099696,0.0,82,0.0025870800018310547,0.9990137201894963,0.9990137201894963,3514,-305.03820852811515,0.0
40,1.0357189178466797,-239.29517133326752,11.873938670042923,-227.0157386745411,-253.1453991045291,0.0,0.1409661789061734,0.1,0.002235889434814453,0.04931640625,0.04928678,1.3829069,-239.27818158180784,-0.0955998143057041,-2.6779907533692944,0.0,84,0.0037720203399658203,0.9990196311616696,0.9990196311616696,3598,-321.9202258271641,0.0
41,1.0447895526885986,-248.57639873426174,23.733960869367234,-217.3240973523133,-274.03919615948007,0.0,0.14617426905774433,0.1,0.002281665802001953,0.04595017433166504,0.049806472,1.4109944,-240.20800329705324,-0.09844249776786841,-2.7862478975825846,0.0,85,0.002876758575439453,0.999078364858392,0.999078364858392,3683,-390.311875982653,0.0
42,1.0730245113372803,-287.90863617725546,66.48216752346275,-224.40692771378477,-399.08608734633737,0.0,0.14560933264774495,0.1,0.0022881031036376953,0.046498775482177734,0.050307535,1.3831995,-244.97806658507346,-0.10661551714401127,-3.307043526198821,0.0,92,0.0025179386138916016,0.9992370702906394,0.9992370702906394,3775,-402.7351990906739,0.0
43,0.989720344543457,-253.20721903084674,15.788046585784585,-229.9267437745972,-273.0978337563082,0.0,0.14625088684376455,0.1,0.0024461746215820312,0.04689455032348633,0.049022373,1.3557155,-245.80098182965082,-0.10390851871343994,-2.8504309563498547,0.0,84,0.0025284290313720703,0.9990989194227631,0.9990989194227631,3859,-382.81661427817,0.0
44,0.9949188232421875,-239.02312203965715,9.913069767975255,-227.05847766290532,-253.7296189672707,0.0,0.14680130809909323,0.1,0.0024552345275878906,0.04742240905761719,0.04962961,1.4667997,-245.12319585065146,-0.0977473512234337,-2.6635802564984816,0.0,84,0.0029523372650146484,0.9990545073073441,0.9990545073073441,3943,-373.75054288700994,0.0
45,0.9902527332305908,-253.64035884362667,11.439603387391877,-238.45657852792894,-265.00313537159,0.0,0.14803446653603325,0.1,0.0023796558380126953,0.047269582748413086,0.050024234,1.7752386,-245.97491214994898,-0.10351422532600418,-2.8600076061253827,0.0,83,0.0019371509552001953,0.9990782752374399,0.9990782752374399,4026,-393.97626302763797,0.0
46,0.9877510070800781,-250.51813511160265,3.8540960820581267,-245.48546897185528,-255.14816034463715,0.0,0.12793099583983222,0.1,0.0024328231811523438,0.04656815528869629,0.05069903,3.1905107,-246.42923444611435,-0.10393809707247706,-2.8000726470410084,0.0,82,0.011588811874389648,0.9990945787482585,0.9990945787482585,4108,-386.65962710955506,0.0
47,1.0078270435333252,-237.58040145218996,12.628058248441253,-223.27256995955278,-250.40542278530944,0.0,0.1493695570879581,0.1,0.0023183822631835938,0.049907684326171875,0.049571957,1.782172,-245.5443511467219,-0.09403023490317863,-2.6223198602213134,0.0,87,0.005222797393798828,0.9990568518561594,0.9990568518561594,4195,-396.14304693704236,0.0
48,1.0230751037597656,-244.90761763841567,31.086823427001985,-198.68005811113673,-279.90262507715954,0.0,0.1488635504527018,0.1,0.002355337142944336,0.046245574951171875,0.05048287,1.4211684,-245.4806777958913,-0.09783323271501565,-2.7262885485221156,0.0,89,0.003149747848510742,0.9991129158173657,0.9991129158173657,4284,-421.4478308160142,0.0
49,1.0262362957000732,-226.3544659148839,10.214553332771137,-209.76367662602846,-236.005084405942,0.0,0.16026475726946754,0.1,0.0022399425506591797,0.05039095878601074,0.050642077,1.2225776,-243.56805660779054,-0.08560116604548552,-2.4819784352172714,0.0,89,0.0030274391174316406,0.9989978942807309,0.9989978942807309,4373,-432.8149113407801,0.0
50,1.06557297706604,-253.2793956147141,18.054554866478494,-240.04100819885556,-284.38373450278834,0.0,0.162816689118007,0.1,0.0023636817932128906,0.04748106002807617,0.049093306,1.2656547,-244.53919050848287,-0.09642660531706167,-2.846825027732235,0.0,94,0.0028243064880371094,0.9991177510646885,0.9991177510646885,4467,-367.2413337088726,0.0
51,1.0506067276000977,-251.74545361840018,13.064887961053989,-240.91547375362444,-273.77964117121576,0.0,0.13765029360305453,0.1,0.0026209354400634766,0.04558205604553223,0.048889425,2.2975314,-245.25981681947462,-0.09607306068212701,-2.815842372524196,0.0,88,0.006131410598754883,0.999072227559723,0.999072227559723,4555,-347.83555616048466,0.0
52,1.0397863388061523,-242.73964266393176,18.68595610572853,-219.00986426694308,-270.6944801742399,0.0,0.14527761281461615,0.1,0.030906200408935547,0.13308024406433105,0.048479747,1.378648,-245.00779940392033,-0.10082872317548403,-2.7229406986812608,0.0,81,0.0024852752685546875,0.9990449548361069,0.9990449548361069,4636,-342.8485378027821,0.0
53,1.073227882385254,-246.11082954056997,26.461994331148574,-222.46605342195795,-290.982080459575,0.0,0.15434208386270237,0.1,0.002333402633666992,0.04698324203491211,0.048808936,1.3927845,-245.1181024175853,-0.09474967701023938,-2.7446754239694227,0.0,90,0.0028755664825439453,0.9990823230098067,0.9990823230098067,4726,-318.38456147195376,0.0
54,1.0497429370880127,-248.8020637424994,9.231070870161387,-241.75616431887937,-264.6820354619928,0.0,0.1566877590230003,0.1,0.0023529529571533203,0.04681515693664551,0.049518462,1.018995,-245.48649855007673,-0.09865267706907821,-2.775126288161086,0.0,85,0.0027697086334228516,0.9990628241411241,0.9990628241411241,4811,-318.4744689418772,0.0
55,1.0509159564971924,-241.98207647944224,18.146768854181623,-224.81643701044567,-272.4148858032468,0.0,0.13640517267823957,0.1,0.0023546218872070312,0.04585599899291992,0.048470184,1.9309747,-245.13605634301328,-0.09290347866560539,-2.6981171100802817,0.0,90,0.0028297901153564453,0.9990749818888008,0.9990749818888008,4901,-332.1563768154527,0.0
56,1.057469367980957,-240.7550927676982,6.833889963502201,-232.22668336056438,-248.7156050111571,0.0,0.14500230863422187,0.1,0.002244710922241211,0.049506425857543945,0.049439803,1.5228161,-244.6979599854818,-0.09988072148236787,-2.6855339915224756,0.0,82,0.0024785995483398438,0.9990521808113688,0.9990521808113688,4983,-345.3206411232862,0.0
57,1.0403215885162354,-262.5937282169431,57.36396813477504,-206.54978242127922,-358.3844788103704,0.0,0.14756075744236508,0.1,0.0028505325317382812,0.049741506576538086,0.04907663,1.6350615,-246.48753680862794,-0.0960194005545913,-2.966914553061012,0.0,94,0.0027208328247070312,0.9991776257106553,0.9991776257106553,5077,-346.18838997390344,0.0
58,1.014756441116333,-265.93095464108944,30.993259215703937,-227.87057503703028,-300.3157304204555,0.0,0.13900308764774758,0.1,0.0024175643920898438,0.04694652557373047,0.04975442,1.7250819,-248.4318785918741,-0.10198671336199042,-2.9946287872382165,0.0,92,0.002790212631225586,0.9991475438003967,0.9991475438003967,5169,-353.73367465195355,0.0
59,1.0412092208862305,-264.6731317944151,14.499494782144964,-239.75238684094901,-275.52529958002765,0.0,0.14888951213034923,0.1,0.0024836063385009766,0.04638171195983887,0.0490751,1.2706202,-250.0560039121282,-0.10394025754572164,-2.992457507119472,0.0,88,0.006376504898071289,0.9991342040471731,0.9991342040471731,5257,-430.9683424424413,0.0
60,1.0376248359680176,-249.29896573057192,31.571302944528355,-212.85347432600392,-297.71456195295735,0.0,0.149087558108644,0.1,0.0022568702697753906,0.08140039443969727,0.051639035,1.0120245,-249.98030009397257,-0.09665845330543091,-2.789506013632762,0.0,88,0.003322601318359375,0.9990859908337218,0.9990859908337218,5345,-385.28024353525865,0.0
61,1.0253522396087646,-234.9743316707857,20.458353175194375,-208.14158431975076,-256.6802949387528,0.0,0.13534672579866885,0.1,0.0023469924926757812,0.04695844650268555,0.0499853,1.7212325,-248.47970325165392,-0.09200655305420576,-2.583626871098839,0.0,85,0.0028319358825683594,0.9990350607209818,0.9990350607209818,5430,-385.4214582490435,0.0
62,1.0388472080230713,-242.26876182687883,15.49545155131457,-223.73816260153433,-266.0464785263329,0.0,0.15924443375319988,0.1,0.0023543834686279297,0.04727339744567871,0.049399,1.1840706,-247.8586091091764,-0.09324016654013964,-2.6870624429243124,0.0,89,0.0028357505798339844,0.9990690761718898,0.9990690761718898,5519,-330.48545536805835,0.0
63,1.049245834350586,-260.93665236393076,48.90412871481495,-190.8372906351096,-328.9152399253077,0.0,0.16668326683241738,0.1,0.002265453338623047,0.046543121337890625,0.05090873,1.1187929,-249.16641343465182,-0.09607082037014521,-2.9557986080613188,0.0,95,0.00267791748046875,0.9991363741975599,0.9991363741975599,5614,-299.4613660809229,0.0
64,1.0769248008728027,-258.91685760367477,28.087767756225404,-234.05437421561604,-304.73655806597515,0.0,0.14680210009454098,0.1,0.002302885055541992,0.04880547523498535,0.049530476,1.3926116,-250.1414578515541,-0.09516241726868511,-2.925519754368984,0.0,92,0.002687692642211914,0.9991088383610184,0.9991088383610184,5706,-344.1708964164944,0.0
65,1.0681047439575195,-224.18528265301444,18.239700673560392,-196.95934106415717,-246.7437811635797,0.0,0.1325470060782283,0.1,0.0022382736206054688,0.045831918716430664,0.049883768,1.9528365,-247.54584033170016,-0.0911752877983634,-2.46990892817153,0.0,83,0.0027849674224853516,0.9989910519715002,0.9989910519715002,5789,-345.2697471781011,0.0
66,1.0710902214050293,-240.72586108786192,30.325155044049627,-212.65175368846,-288.16522964958517,0.0,0.14175892663288162,0.1,0.0025157928466796875,0.04628396034240723,0.049988184,1.3484643,-246.86384240731635,-0.09460155232091051,-2.684278611774489,0.0,85,0.0030035972595214844,0.9990540549930949,0.9990540549930949,5874,-318.3740719923663,0.0
67,1.0782036781311035,-236.87698591307606,5.976430297362667,-231.4567463114571,-246.95535578897915,0.0,0.15238745688713512,0.1,0.002307415008544922,0.04610419273376465,0.05149538,1.4713712,-245.86515675789235,-0.09033818333872606,-2.6247193189560614,0.0,90,0.0032117366790771484,0.9990419695069093,0.9990419695069093,5964,-334.188661057327,0.0
68,1.0780904293060303,-243.21642736520658,11.195736597748407,-224.24701207290292,-253.29895115966752,0.0,0.15152897036482113,0.1,0.0022461414337158203,0.046048879623413086,0.04993249,1.4305705,-245.60028381862378,-0.09600656394932251,-2.7022527076066565,0.0,87,0.002866029739379883,0.9990743522913275,0.9990743522913275,6051,-324.8737953639066,0.0
69,1.0904345512390137,-244.88157435601045,20.68325300909761,-209.59329965283916,-261.1030392330529,0.0,0.15015459353393545,0.1,0.002277374267578125,0.050672292709350586,0.048886076,1.4171325,-245.52841287236245,-0.0905556101196803,-2.736273712610008,0.0,92,0.002913236618041992,0.9990427020568049,0.9990427020568049,6143,-318.9205022233682,0.0
70,1.1564393043518066,-263.6814266466936,27.554178342039478,-216.22464456270563,-284.1736650521459,0.0,0.15783583728934847,0.1,0.0025179386138916016,0.05049943923950195,0.050896402,1.3044552,-247.34371424979557,-0.09043856233948147,-2.9702391685284693,0.0,102,0.011919260025024414,0.9991608150126936,0.9991608150126936,6245,-312.6360202926498,0.0
71,1.0646286010742188,-230.02438863177986,29.131360909085178,-193.66760248749625,-275.0144986779877,0.0,0.15279384154236297,0.1,0.03150653839111328,0.17719578742980957,0.05085396,1.3189297,-245.611781687994,-0.08773342630554662,-2.5487550461043305,0.0,91,0.0032775402069091797,0.9990425230505727,0.9990425230505727,6336,-328.4732190770305,0.0
72,1.0272746086120605,-248.3037540870256,20.723377165682404,-224.90360522918883,-271.47687054145644,0.0,0.13714796926359368,0.1,0.002367734909057617,0.046189069747924805,0.049395893,1.9818211,-245.8809789278972,-0.1039710043389582,-2.780631103012129,0.0,82,0.0029850006103515625,0.9990842277897771,0.9990842277897771,6418,-316.82723973931724,0.0
73,1.0464417934417725,-241.83778620875108,10.418067462651903,-226.08859897096545,-253.99232164728187,0.0,0.1425963338005832,0.1,0.0026297569274902344,0.046233415603637695,0.049211383,1.6525973,-245.4766596559826,-0.10023942098544489,-2.7015396188611533,0.0,81,0.002958059310913086,0.9990429260759492,0.9990429260759492,6499,-298.5445930124368,0.0
74,1.0597081184387207,-285.6879858933355,66.42207917270619,-232.21997243739224,-398.09327310992296,0.0,0.16701727609832134,0.1,0.0024662017822265625,0.05089974403381348,0.050120622,0.96392477,-249.49779227971788,-0.0995823957892541,-3.275641134893016,0.0,99,0.0033762454986572266,0.9992362262515561,0.9992362262515561,6598,-333.9186463849272,0.0
75,1.0757040977478027,-268.06167784597795,23.40809476887838,-241.60756425668828,-299.4840787244324,0.0,0.15325683982452126,0.1,0.0024628639221191406,0.047820329666137695,0.05011894,1.6825737,-251.3541808363439,-0.09999011207162885,-3.0471051914727934,0.0,95,0.005143165588378906,0.9991675794446494,0.9991675794446494,6693,-310.5662344789088,0.0
76,1.0702967643737793,-272.04405967631885,42.77777554283096,-216.48791979531302,-316.64227429327804,0.0,0.14767718029441412,0.1,0.0023546218872070312,0.051843881607055664,0.04875058,1.5869812,-253.42316872034138,-0.09188348597255355,-3.1037635097297214,0.0,102,0.016231060028076172,0.9991585555822147,0.9991585555822147,6795,-300.4012527929993,25.0
77,1.0529277324676514,-238.8904067782222,19.44147899183879,-218.7820657094921,-261.1417971448181,0.0,0.14445676572689958,0.1,0.002357959747314453,0.047281742095947266,0.04989146,1.4967291,-251.96989252612946,-0.0936005147282844,-2.6621581233364506,0.0,86,0.002627849578857422,0.9990444702585128,0.9990444702585128,6881,-264.3107896474913,25.0
78,1.280107021331787,-390.0829154854108,261.94783925601064,-228.50810457137135,-843.495822307683,0.0,0.18576554797383357,0.1,0.0025763511657714844,0.051619768142700195,0.04983778,0.64874315,-265.7811948220576,-0.10082434095618202,-4.767552581449681,0.0,138,0.031156301498413086,0.9996145746831623,0.9994251712320096,7019,-284.6476119223518,33.333333333333336
79,1.1380279064178467,-237.13235023494764,22.94581551012239,-207.08947175005977,-271.3079805090706,0.0,0.13573712402587573,0.1,0.0024347305297851562,0.04686856269836426,0.049484685,1.7871815,-262.9163103633466,-0.0907090544149261,-2.6260638997003025,0.0,89,0.015981197357177734,0.9985865159348593,0.9985865159348593,7108,-266.61375894332866,16.666666666666668
80,1.0900378227233887,-231.08431223130845,14.377506741585897,-216.95402240650813,-255.10158348733788,0.0,0.15103458404411998,0.1,0.0023043155670166016,0.0520176887512207,0.050646253,1.7154725,-259.7331105501428,-0.08864150767333065,-2.5610985482270068,0.0,89,0.005102396011352539,0.9985507372052015,0.9985507372052015,7197,-266.300147146536,16.666666666666668
81,1.0866360664367676,-198.8355840910096,24.849585712123233,-177.43360637344125,-240.52708820173876,0.0,0.14230883076301495,0.1,0.0026328563690185547,0.04661393165588379,0.049460378,1.3509804,-253.64335790422948,-0.0842741723472247,-2.1243030104026692,0.0,85,0.002674102783203125,0.9984309915239934,0.9984309915239934,7282,-298.157039583755,8.333333333333334
82,1.174980640411377,-309.2445533222065,110.35716395036884,-221.90183789527265,-498.45973876017314,0.0,0.18436341670503645,0.1,0.0027382373809814453,0.047684431076049805,0.048442982,0.90878904,-259.2034774460272,-0.09451687332099151,-3.575542901725975,0.0,114,0.014999628067016602,0.9990402343416978,0.9990402343416978,7396,-234.73769311425335,8.333333333333334
83,1.118603229522705,-229.58003824207978,27.025201737717875,-194.6623238524981,-263.2704801708205,0.0,0.1543065506860124,0.1,0.002382993698120117,0.04821944236755371,0.0496126,1.2468991,-256.24113352563245,-0.0814851344229883,-2.530876389729797,0.0,98,0.0027914047241210938,0.9985917300534366,0.9985917300534366,7494,-281.31392736701554,16.666666666666668
84,1.0716936588287354,-245.34017388595993,21.149787737895686,-211.64026781941067,-266.61789756023654,0.0,0.15392238460641314,0.1,0.010107278823852539,0.05194091796875,0.049595855,1.4918633,-255.15103756166522,-0.09053969063462382,-2.7477300972421035,0.0,91,0.0030052661895751953,0.9986205930301526,0.9986205930301526,7585,-279.4425712261699,8.333333333333334
85,1.132368564605713,-309.25133544871437,86.61357785842156,-212.1250576050023,-446.23394166667293,0.0,0.17887770717952475,0.1,0.0025653839111328125,0.05751824378967285,0.049585477,1.008154,-260.56106735037014,-0.09659353530420786,-3.5934875926224357,0.0,113,0.023916959762573242,0.9989941862469425,0.9989941862469425,7698,-286.96011673738707,0.0
86,1.0640225410461426,-272.8852502986265,32.30537874226539,-222.9455698919605,-301.8340647149879,0.0,0.14335892266174427,0.1,0.03216409683227539,0.1243596076965332,0.050518155,1.7011781,-261.79348564519574,-0.10668006103602405,-3.1213045956891126,0.0,89,0.002809286117553711,0.9987161462859321,0.9987161462859321,7787,-302.32838173496424,8.333333333333334
87,1.273923635482788,-438.88738606415126,260.51830152909304,-282.9547035448074,-890.0699187113013,0.0,0.21524870747631403,0.1,0.002557992935180664,0.05289316177368164,0.05018758,0.5557133,-279.5028756870913,-0.09649385719156908,-5.390936388881774,0.0,163,0.03474068641662598,0.9994175233943744,0.9992170240890604,7950,-209.51339326643213,25.0
88,1.1189515590667725,-274.3296221048991,55.81800258081709,-188.03047252539236,-336.5021264316044,0.0,0.1666316732073036,0.1,0.05051851272583008,0.07279634475708008,0.049919352,1.3419983,-278.98555032887214,-0.08958050561262652,-3.1204211524723573,0.0,107,0.013885498046875,0.9984136206981851,0.9984136206981851,8057,-240.70005995024394,0.0
89,1.0859568119049072,-229.3698948002897,29.672480990850616,-181.87561025394885,-256.68330809996587,0.0,0.14139331837871888,0.1,0.003390789031982422,0.053055763244628906,0.050424654,1.6150974,-274.0239847760139,-0.08775154681889608,-2.533438521238679,0.0,91,0.00323486328125,0.9980780870631786,0.9980780870631786,8148,-217.25915193411262,8.333333333333334
90,1.1597177982330322,-295.13769380136597,99.45917217216947,-219.16227526657175,-462.81770553649045,0.0,0.16981499847160403,0.1,0.0023217201232910156,0.04701495170593262,0.05041438,0.7474447,-276.1353556785491,-0.10070355010116898,-3.396999024730385,0.0,100,0.0028853416442871094,0.9986419442277273,0.9986419442277273,8248,-219.85963652373746,8.333333333333334
91,1.1135964393615723,-252.95677557870053,37.302453335859134,-207.7791746110745,-304.2178042477715,0.0,0.1486001875459535,0.1,0.00235748291015625,0.04667329788208008,0.049023416,1.4240775,-273.8174976685643,-0.0924809901214718,-2.843328196359418,0.0,95,0.0029594898223876953,0.9982432265194112,0.9982432265194112,8343,-215.82171103865156,8.333333333333334
92,1.1078557968139648,-262.2898982048822,39.19997391380732,-223.38111290312727,-326.7450205737315,0.0,0.1510110227998581,0.1,0.0022897720336914062,0.05217456817626953,0.050196104,1.3541611,-272.6647377221961,-0.09909944152523548,-2.96606637205011,0.0,93,0.0033686161041259766,0.9983231967645491,0.9983231967645491,8436,-200.98084285356728,0.0
93,1.1130101680755615,-214.96905863485904,8.057693389506227,-202.1027151918007,-224.35031982171907,0.0,0.14335114719320902,0.1,0.0023517608642578125,0.04692482948303223,0.05046091,1.9094403,-266.8951698134624,-0.08500645688651458,-2.338901143518825,0.0,86,0.00270843505859375,0.9979372138744189,0.9979372138744189,8522,-293.10576002752697,0.0
94,1.1180567741394043,-253.57293318544677,25.737894853332662,-219.29614589419933,-291.55779336300196,0.0,0.13931506672644453,0.1,0.0023081302642822266,0.06818318367004395,0.049629476,2.222595,-265.5629461506609,-0.1006423240730147,-2.8506043327703554,0.0,86,0.003266572952270508,0.9982412721730655,0.9982412721730655,8608,-279.1036529828223,0.0
95,1.1117782592773438,-227.03534611250228,7.668254845951044,-219.32776045790845,-237.28172995159673,0.0,0.14912539304638803,0.1,0.0166473388671875,0.05360698699951172,0.04985906,1.5251282,-261.710186146845,-0.08750382101793638,-2.506183076389566,0.0,88,0.003029346466064453,0.9980359577883294,0.9980359577883294,8696,-257.87771152582303,0.0
96,1.1430556774139404,-276.0484850921066,88.03977805834735,-192.35292006439101,-415.32487884616717,0.0,0.16592732681942285,0.1,0.002389669418334961,0.04750847816467285,0.049591806,0.64833623,-263.1440160413712,-0.09532811513805217,-3.145247587350993,0.0,98,0.0027251243591308594,0.9984903325798079,0.9984903325798079,8794,-217.296690431879,8.333333333333334
97,1.165611743927002,-250.75410638140215,47.851231287109094,-221.51508495686312,-333.6057744120066,0.0,0.15615105547478486,0.1,0.002336263656616211,0.04646944999694824,0.05047746,0.8302265,-261.9050250753743,-0.088811776452503,-2.810171467892138,0.0,97,0.0026340484619140625,0.9983038583385043,0.9983038583385043,8891,-241.13523755475032,0.0
98,1.2479043006896973,-450.54739099532515,318.3504548915109,-234.18150117318947,-1000.8011782665225,0.0,0.20392828532951643,0.1,0.002542257308959961,0.04879879951477051,0.050279617,0.4672445,-280.7692616673694,-0.10728063552685299,-5.48535853572211,0.0,141,0.08737897872924805,0.999314906667022,0.9991287980175617,9032,-281.2552652600186,0.0
99,1.1489264965057373,-364.8564184552412,182.48773117112134,-254.37830321857564,-680.8242197560381,0.0,0.1828389021466453,0.1,0.04871654510498047,0.3407127857208252,0.049664624,0.6150842,-289.1779773461566,-0.10399469675622675,-4.323762701234053,0.0,122,0.015947818756103516,0.9987537381837699,0.9987537381837699,9154,-207.68143185905046,0.0
100,1.1150281429290771,-278.74453857447077,79.21974427059706,-210.98650584401454,-413.1758419396642,0.0,0.15191495611133018,0.1,0.04964756965637207,0.08971858024597168,0.04985818,1.5873328,-288.134633468988,-0.09331761949287812,-3.1779782558100442,0.0,104,0.013917207717895508,0.9980913803584445,0.9980913803584445,9258,-236.29718428623553,0.0
101,1.0753591060638428,-252.43301924478982,23.937038863301346,-225.7705097925025,-289.22397483253746,0.0,0.1416517837332679,0.1,0.006080150604248047,0.048868417739868164,0.048916314,1.368576,-284.5644720465682,-0.09489188633465757,-2.8361633499682113,0.0,92,0.0029783248901367188,0.9977442612991904,0.9977442612991904,9350,-279.9193604939728,0.0
102,1.1056077480316162,-275.2450157196177,89.63070592632576,-197.7600900153761,-427.78336329459205,0.0,0.15464684296624034,0.1,0.002518177032470703,0.048956871032714844,0.04918613,0.9452211,-283.63252641387317,-0.09284940807820449,-3.1381496553097974,0.0,101,0.015737056732177734,0.998159486683108,0.998159486683108,9451,-254.4294604300593,16.666666666666668
103,1.101719856262207,-258.86102584078634,28.825294854097503,-212.43635548586315,-289.39718118661,0.0,0.1440408331526425,0.1,0.002588510513305664,0.048477888107299805,0.049806803,2.1286356,-281.1553763565645,-0.09712023028659413,-2.9097196384281734,0.0,92,0.0031173229217529297,0.9978165312356435,0.9978165312356435,9543,-264.2441539699678,0.0
104,1.1067936420440674,-270.42962665907504,38.1145097580604,-231.32920613320033,-323.4573447881679,0.0,0.15210905839421782,0.1,0.002440929412841797,0.047800540924072266,0.050292518,1.2281451,-280.08280138681556,-0.10365817850025683,-3.0685606229841897,0.0,89,0.0036993026733398438,0.9978956403026283,0.9978956403026283,9632,-268.7363003528553,8.333333333333334
105,1.109351634979248,-230.5158773550578,25.88993156166699,-193.96135374736812,-265.6040578964384,0.0,0.13456705133092972,0.1,0.0024318695068359375,0.05270838737487793,0.04931611,1.8063992,-275.12610898363977,-0.09037113582991053,-2.535205859332699,0.0,91,0.0032978057861328125,0.9976607664169899,0.9976607664169899,9723,-286.16637247431,0.0
106,1.1206517219543457,-221.362282272786,23.427973961694498,-198.44367979003215,-254.06301179102718,0.0,0.163467847704058,0.1,0.030044078826904297,0.047618865966796875,0.049117647,1.0976677,-269.7497263125544,-0.086365929326979,-2.429515491735708,0.0,87,0.0030364990234375,0.9974605750241872,0.9974605750241872,9810,-278.92961278979516,0.0
107,1.1410481929779053,-279.8454265314375,47.854619259703185,-238.04254399132958,-361.2125799788384,0.0,0.1496333008286393,0.1,0.002692699432373047,0.047200679779052734,0.050010398,1.8186111,-270.7592963344427,-0.09770612910436197,-3.2023466732337056,0.0,100,0.0028028488159179688,0.9980469104868509,0.9980469104868509,9910,-295.146387092816,0.0
108,1.146303415298462,-263.65111409677473,40.135893782759716,-200.7297473402192,-310.19865774918895,0.0,0.166779629557907,0.1,0.0023148059844970703,0.05211925506591797,0.049430884,0.9639538,-270.0484781106759,-0.09330746944419102,-2.9777180382275685,0.0,99,0.002755403518676758,0.9978351311440727,0.9978351311440727,10009,-286.32304315345647,0.0
109,1.1303114891052246,-258.3977370342042,8.905976738480463,-249.20360035590872,-273.05615608664436,0.0,0.15578191752298912,0.1,0.002360820770263672,0.04585075378417969,0.049957253,1.2807454,-268.8834040030287,-0.09756428503735529,-2.896656980986179,0.0,90,0.0028755664825439453,0.9978023880701502,0.9978023880701502,10099,-319.0791814477866,0.0
110,1.1225597858428955,-240.50649167772585,20.575906418495784,-206.30730953718228,-259.70588229427506,0.0,0.14847637211696704,0.1,0.0022497177124023438,0.05389738082885742,0.04974787,1.440342,-266.0457127704984,-0.09172627563002628,-2.6744846948766914,0.0,88,0.00812387466430664,0.9976502190057341,0.9976502190057341,10187,-262.66399310192395,8.333333333333334
111,1.1204230785369873,-245.5671204591397,12.644576924237379,-226.2691107875474,-260.89269047792584,0.0,0.14573773704966225,0.1,0.0023717880249023438,0.04563307762145996,0.049287308,1.508485,-263.99785353936255,-0.10084554937871892,-2.735270753255116,0.0,84,0.0026998519897460938,0.99773085260745,0.99773085260745,10271,-265.196406387834,16.666666666666668
112,1.136228322982788,-207.67003525506667,38.02936080506098,-170.0553366991961,-269.057048419588,0.0,0.15059534347089332,0.1,0.030434608459472656,0.06336331367492676,0.050378565,1.2917004,-258.36507171093297,-0.08040611105393917,-2.252839350964763,0.0,92,0.0033731460571289062,0.9974298728017069,0.9974298728017069,10363,-280.78968835589774,0.0
113,1.1334941387176514,-230.3088733140517,22.16276214867976,-198.394855852649,-253.11481169811313,0.0,0.14650101970947127,0.1,0.002357006072998047,0.04777717590332031,0.049505915,2.648181,-255.55945187124485,-0.08925613140843218,-2.5252956748427553,0.0,91,0.006903886795043945,0.9976315762083454,0.9976315762083454,10454,-329.84511842216085,0.0
114,1.2189319133758545,-277.73961357386116,12.622213799022957,-261.97398149053885,-290.39222762038554,0.0,0.16900737239714816,0.1,0.0023200511932373047,0.047736406326293945,0.04947664,1.0702116,-257.7774680415065,-0.090954556624379,-3.1694380788222705,0.0,105,0.013349771499633789,0.9978613551258609,0.9978613551258609,10559,-317.351105771758,0.0
115,1.2835803031921387,-231.66094496116864,14.291906438721748,-213.31507244355743,-253.15997531026417,0.0,0.1591825237802732,0.1,0.0023326873779296875,0.047606468200683594,0.050521966,0.9735593,-255.16581573347273,-0.08344365895493708,-2.5495856245931314,0.0,95,0.002760648727416992,0.9976031006491651,0.9976031006491651,10654,-333.6354371648101,0.0
116,1.0817453861236572,-288.58656322002275,16.33747991450044,-261.2970461825091,-302.32325952237017,0.0,0.17125441188095128,0.1,0.002641439437866211,0.05638551712036133,0.049929086,0.891257,-258.5078904821277,-0.09730796909126563,-3.310405618067406,0.0,104,0.013197660446166992,0.9979407315095579,0.9979407315095579,10758,-327.1794280836894,0.0
117,1.157261610031128,-256.08130834195975,47.49372480541401,-192.4983967097175,-317.1048485349295,0.0,0.145775507790612,0.1,0.0025343894958496094,0.048999786376953125,0.049308665,1.483604,-258.26523226811094,-0.09098189437880336,-2.879980104542125,0.0,94,0.002852916717529297,0.9978348562148076,0.9978348562148076,10852,-294.6011405266518,8.333333333333334
118,1.0891697406768799,-243.46775104580266,35.98900156222777,-187.16921359501757,-287.41199310869035,0.0,0.14594538076093183,0.1,0.002460479736328125,0.04773354530334473,0.050171893,2.0741656,-256.7854841458801,-0.09105672633139875,-2.7262695462836684,0.0,94,0.002798318862915039,0.9976876012145837,0.9976876012145837,10946,-251.20992856066243,0.0
119,1.0832982063293457,-216.6552008749688,35.00270932479496,-189.22316304093698,-274.8658293928334,0.0,0.14116204872383073,0.1,0.0024149417877197266,0.04726910591125488,0.049813792,1.3677411,-252.77245581878898,-0.0888648894363086,-2.362437795270642,0.0,86,0.0027599334716796875,0.9975635507881871,0.9975635507881871,11032,-266.90282573691337,0.0
120,1.0918457508087158,-223.2918692835775,18.960921543268952,-199.7939080255517,-248.27279063483994,0.0,0.1567585842846102,0.1,0.002554178237915039,0.04883265495300293,0.04972176,1.6077962,-249.82439716526784,-0.08196041844693837,-2.440667350075396,0.0,96,0.0030105113983154297,0.997564201499128,0.997564201499128,11128,-269.3770436651412,0.0
121,1.1116764545440674,-253.49279168983415,23.375970606062566,-221.06340323648257,-277.6236587562935,0.0,0.17173686881616548,0.1,0.0023796558380126953,0.0533299446105957,0.049380537,1.2402291,-250.19123661772448,-0.08856259811676916,-2.848313293223903,0.0,99,0.002871274948120117,0.9977658569868574,0.9977658569868574,11227,-262.5479432172617,0.0
122,1.105539083480835,-236.72356657613412,43.14776884726744,-169.12449282371773,-286.67402144102664,0.0,0.15638397326182218,0.1,0.0025103092193603516,0.05181097984313965,0.049519427,1.3832743,-248.84446961356545,-0.08347902976485529,-2.6350983509076165,0.0,97,0.002844095230102539,0.9976632185402057,0.9976632185402057,11324,-292.92107664080504,0.0
123,1.0827910900115967,-216.97373054662617,12.157146396949184,-205.56897591632548,-235.10027796433542,0.0,0.14863517070553656,0.1,0.0075528621673583984,0.04674243927001953,0.05080341,2.9145436,-245.65739570687154,-0.08554494212054747,-2.354625984182158,0.0,84,0.0028045177459716797,0.9974004572220737,0.9974004572220737,11408,-278.7423899323804,0.0
124,1.22886061668396,-319.4081918114067,155.5238259116551,-208.09529549459444,-587.0215944744365,0.0,0.1774965361491717,0.1,0.0025055408477783203,0.052052974700927734,0.049699675,0.77773595,-253.03247531732507,-0.09004555141281101,-3.7211776736934947,0.0,124,0.013792753219604492,0.9986038973421393,0.9986038973421393,11532,-275.78788865844416,0.0
125,1.1250402927398682,-255.96000062684766,18.018733079579107,-241.9887363492171,-286.37385510152933,0.0,0.15174279968362975,0.1,0.0023736953735351562,0.0470883846282959,0.049921148,1.3094528,-253.32522784827734,-0.09209154632129028,-2.8854276902424196,0.0,95,0.0023889541625976562,0.9977181820363001,0.9977181820363001,11627,-279.11999714546533,0.0
126,1.1579170227050781,-238.40582584102663,41.311824889647035,-195.54295616229456,-299.682239298748,0.0,0.16062047053307854,0.1,0.0024077892303466797,0.04719829559326172,0.049664993,1.5909818,-251.83328764755228,-0.08638051036938876,-2.6461816066207695,0.0,95,0.002858877182006836,0.9977391398726562,0.9977391398726562,11722,-269.43223574158696,0.0
127,1.1615798473358154,-258.3843830014859,15.598788028617948,-234.10509328138767,-277.6261782986853,0.0,0.15435157813542227,0.1,0.0023598670959472656,0.047202348709106445,0.050119456,2.0158973,-252.48839718294565,-0.08820400743922527,-2.906223816873252,0.0,102,0.016632795333862305,0.9977911233478373,0.9977911233478373,11824,-260.1108723420859,0.0
128,1.1611604690551758,-228.65564162570234,31.58471062409875,-174.42365306300607,-251.6535396507211,0.0,0.16352787851137568,0.1,0.029974699020385742,0.2982180118560791,0.05003769,1.1395227,-250.1051216272213,-0.084928759745402,-2.523194816879892,0.0,95,0.0023238658905029297,0.9975841485005535,0.9975841485005535,11919,-267.75895626009765,0.0
129,1.194861650466919,-259.4604739278817,25.76644125236164,-232.59336010672388,-301.7837665177742,0.0,0.1541923012539386,0.1,0.0025010108947753906,0.04856085777282715,0.05051584,1.9975542,-251.04065685728733,-0.09063444428183366,-2.9221055926116635,0.0,100,0.0029659271240234375,0.9978657393653649,0.9978657393653649,12019,-260.3882580528147,0.0
130,1.2197222709655762,-244.94604963476627,29.662535082078993,-202.28645257090858,-285.74132756339793,0.0,0.15762183662805287,0.1,0.023273468017578125,0.04572892189025879,0.050990593,1.1730283,-250.43119613503524,-0.0939983539266149,-2.734415165455439,0.0,90,0.00267791748046875,0.997668925511828,0.997668925511828,12109,-267.94801340942985,0.0
131,1.171172857284546,-225.45965337918514,37.024089916052766,-163.3590529548668,-254.9690706913788,0.0,0.14037423809329908,0.1,0.01795220375061035,0.047548770904541016,0.050722126,2.2946029,-247.93404185945025,-0.08732013032968416,-2.4556565115185123,0.0,89,0.0028505325317382812,0.997582605894114,0.997582605894114,12198,-277.3005424126356,0.0
132,1.2250418663024902,-290.9951185992677,39.82217266625698,-246.5833064933767,-348.9629805110789,0.0,0.16040142264324786,0.1,0.002410411834716797,0.054328203201293945,0.05016353,1.3324691,-252.240149533432,-0.10038948612001658,-3.342874650614202,0.0,104,0.01380610466003418,0.9981360932273206,0.9981360932273206,12302,-266.0949515313552,0.0
133,1.1205360889434814,-251.6950353795636,26.01585737262089,-223.18786167506545,-285.3198575128872,0.0,0.12884844184183106,0.1,0.0025191307067871094,0.04893827438354492,0.04928698,2.4493115,-252.18563811804518,-0.09162332929688372,-2.8275778267521794,0.0,94,0.0027344226837158203,0.9976776674445228,0.9976776674445228,12396,-265.30981640080597,0.0
134,1.149087905883789,-267.3928584693795,45.34033449203735,-209.76593164882215,-336.8982896499202,0.0,0.15584377762871807,0.1,0.002600431442260742,0.04865598678588867,0.04978418,3.7386415,-253.70636015317862,-0.0918698935806493,-3.012901136319249,0.0,104,0.013193845748901367,0.9979785980916498,0.9979785980916498,12500,-269.47807288626484,0.0
135,1.152597188949585,-237.06324145319053,38.09514655944808,-198.50335669509963,-297.7372895830742,0.0,0.148363196710315,0.1,0.002506732940673828,0.04881024360656738,0.049513984,1.1522216,-252.0420482831798,-0.09202883362854503,-2.625468563096662,0.0,92,0.0031402111053466797,0.9976862186494381,0.9976862186494381,12592,-274.28714252912124,0.0
136,1.1618094444274902,-254.95894617088345,4.714622440300457,-250.17958645705795,-261.0943209526829,0.0,0.1619100278598304,0.1,0.002519845962524414,0.04882693290710449,0.049403977,1.267297,-252.33373807195017,-0.09741939860430597,-2.8737001696853604,0.0,92,0.002844572067260742,0.9977045903407353,0.9977045903407353,12684,-281.93572053682124,0.0
137,1.1348304748535156,-239.88320857976618,22.22360147317331,-215.76541466971344,-274.7227044023458,0.0,0.1505809490328254,0.1,0.0025277137756347656,0.05299735069274902,0.049479086,1.4306288,-251.08868512273176,-0.08913114711360998,-2.656817473963615,0.0,90,0.0027565956115722656,0.9976603240558634,0.9976603240558634,12774,-274.77712440888234,0.0
138,1.1130101680755615,-243.3060952349269,46.248701436210624,-210.07651031324932,-322.36214933838346,0.0,0.14629064048206072,0.1,0.0025446414947509766,0.055023193359375,0.04906493,1.4159261,-250.31042613395127,-0.0932029872469981,-2.7227327867903792,0.0,88,0.0029904842376708984,0.9977389187056463,0.9977389187056463,12862,-294.88425488194645,0.0
139,1.1397144794464111,-238.64626168849156,51.103074116137485,-161.98387916039692,-301.7419411427413,0.0,0.143072356462051,0.1,0.0024421215057373047,0.052172183990478516,0.04934864,2.066502,-249.1440096894053,-0.08649645418121803,-2.659324928229091,0.0,97,0.004277229309082031,0.9977045237813854,0.9977045237813854,12959,-290.1538992203392,0.0
140,1.224231243133545,-242.7739751438773,20.783394079850677,-222.38046107374572,-275.80345382808497,0.0,0.15014698265812176,0.1,0.0023365020751953125,0.04690384864807129,0.04983487,5.443495,-248.5070062348525,-0.09252583392986057,-2.6982821658197635,0.0,90,0.0030918121337890625,0.9976725851045415,0.9976725851045415,13049,-277.29146223071143,0.0
141,1.3454468250274658,-360.4915515779396,152.51925104372003,-227.33645829552503,-618.6814855613928,0.0,0.20877281264200792,0.1,0.0026357173919677734,0.0533747673034668,0.04901894,0.7120773,-259.7054607691612,-0.0928813195727025,-4.361694123410983,0.0,150,0.08405423164367676,0.9985901356485373,0.998278517870001,13199,-282.71557395946473,0.0
142,1.1597113609313965,-238.43599234401518,8.933966763813947,-223.99319705946917,-248.1670361342271,0.0,0.14585729974672137,0.1,0.014777421951293945,0.046843528747558594,0.050746743,2.1410258,-257.5785139266466,-0.08721922925271916,-2.647088133002043,0.0,92,0.0027892589569091797,0.9970310984746086,0.9970310984746086,13291,-303.4332396408536,0.0
143,1.187502384185791,-234.61352907228564,37.29822846869784,-202.5977429301198,-295.05630562270284,0.0,0.17526025855995583,0.1,0.0023851394653320312,0.04735088348388672,0.04983042,0.9165495,-255.28201544121052,-0.08144210928761872,-2.603379636098726,0.0,101,0.013591766357421875,0.9971548370691353,0.9971548370691353,13392,-305.4918597410214,0.0
144,1.1451716423034668,-228.19585164359378,27.507496977117995,-186.76547115477953,-259.2160156157112,0.0,0.16037807905214818,0.1,0.002454042434692383,0.046468496322631836,0.050510075,1.2061121,-252.57339906144884,-0.08349051641547717,-2.5200513304773686,0.0,92,0.003243684768676758,0.9970119480453196,0.9970119480453196,13484,-292.4052772639456,0.0
145,1.170607328414917,-240.00740641825382,34.35526129725736,-191.76142810761874,-274.58301846696514,0.0,0.17231532454623913,0.1,0.002735137939453125,0.046443939208984375,0.050583944,0.9895935,-251.31679979712933,-0.08622892189307307,-2.677718387548259,0.0,95,0.0029392242431640625,0.9971239398901325,0.9971239398901325,13579,-286.65188907799444,0.0
146,1.300853967666626,-379.92979868058035,241.774759832905,-223.04348668784297,-798.2444160156845,0.0,0.18448475591514046,0.1,0.0671091079711914,0.09231758117675781,0.049755957,0.62202734,-264.1780996854744,-0.09610626024241449,-4.5360943245496195,0.0,134,0.08695387840270996,0.9986751643571425,0.9984177384150629,13713,-300.3130317046121,0.0
147,1.1935405731201172,-270.3167227840987,25.792001377601608,-241.31589309592684,-304.7474949861834,0.0,0.1587093460057714,0.1,0.02906179428100586,0.05707836151123047,0.050229825,1.092909,-264.79196199533686,-0.08960566862465931,-3.057161269127682,0.0,105,0.013584136962890625,0.9968343782658892,0.9968343782658892,13818,-290.04648369993674,0.0
148,1.3573389053344727,-339.9806877560363,204.04527918181873,-196.3189901253088,-691.7970953543847,0.0,0.18815550249854268,0.1,0.0717005729675293,0.10654783248901367,0.05019527,0.6219401,-272.3108345714068,-0.08710289560307073,-4.002077583557853,0.0,133,0.08776021003723145,0.9981873002140516,0.9978542283443854,13951,-291.4045481417522,0.0
149,1.1886796951293945,-234.74618863374644,25.785377866315248,-205.50720500747184,-276.2304214794869,0.0,0.13487759011325315,0.1,0.0022597312927246094,0.04755592346191406,0.05030863,2.5956843,-268.5543699776408,-0.09209977564304452,-2.5872633729970236,0.0,88,0.0027725696563720703,0.9960400689050228,0.9960400689050228,14039,-288.6428479634012,0.0
150,1.1800384521484375,-217.9948110732662,23.000388896501114,-193.01009996125634,-254.12692859326327,0.0,0.16006082568333724,0.1,0.002734661102294922,0.04676628112792969,0.050273933,1.0971005,-263.49841408720334,-0.08668108011365225,-2.382771710654323,0.0,86,0.002762317657470703,0.9956124639656722,0.9956124639656722,14125,-281.0351959169101,0.0
151,1.1169922351837158,-229.0522197124518,17.43235453611905,-202.81524584963907,-249.62803574848837,0.0,0.15458654644076222,0.1,0.0025255680084228516,0.04822492599487305,0.050411493,1.3962007,-260.0537946497282,-0.0891959646372787,-2.5241514260547113,0.0,89,0.0031087398529052734,0.995772318841274,0.995772318841274,14214,-290.15445296060915,0.0
152,1.1074910163879395,-250.4659497851286,46.5672005053655,-193.74713693208372,-323.43753343908986,0.0,0.14853320938247924,0.1,0.002514362335205078,0.04915261268615723,0.050067764,1.2285619,-259.0950101632683,-0.09669010899732072,-2.8056073304607585,0.0,89,0.003107786178588867,0.996072459016925,0.996072459016925,14303,-263.31213293351476,0.0
153,1.1600844860076904,-288.48875078677634,73.80686366106632,-224.29807106847417,-405.74445279299516,0.0,0.16763275721827375,0.1,0.0026094913482666016,0.05007457733154297,0.050025754,1.1797796,-262.0343842256191,-0.09127853445001281,-3.299903499172454,0.0,109,0.01308441162109375,0.9968036288340706,0.9968036288340706,14412,-270.88875312208376,0.0
154,1.13014817237854,-265.1139651058946,15.40492277308679,-244.64053036225937,-287.1006088876317,0.0,0.15783235939403198,0.1,0.02931046485900879,0.06015920639038086,0.048925642,1.6753507,-262.3423423136466,-0.09149248054157931,-3.0026782752018373,0.0,102,0.01325678825378418,0.9962982317258229,0.9962982317258229,14514,-266.30694370201746,0.0
155,1.1518926620483398,-251.9960034915904,19.84931311567389,-218.41217870302842,-269.84203085993283,0.0,0.1638682349629475,0.1,0.031224489212036133,0.4190492630004883,0.050428864,1.3096167,-261.307708431441,-0.09319567092699378,-2.818343550538875,0.0,97,0.002899169921875,0.9962352428522525,0.9962352428522525,14611,-261.18298796935215,0.0
156,1.151928186416626,-267.1258677545932,34.532775440659115,-241.01555828681984,-325.27634786374426,0.0,0.18056945322034995,0.1,0.0023949146270751953,0.046990394592285156,0.05099103,0.9155194,-261.8895243637562,-0.09645585000160582,-3.0428638473803664,0.0,95,0.002924203872680664,0.9963143951774803,0.9963143951774803,14706,-262.1534081740845,0.0
157,1.1456010341644287,-242.360188298632,19.777709443158333,-214.80552395597522,-269.51176313630054,0.0,0.15751722144696895,0.1,0.030755281448364258,0.05887746810913086,0.049815536,1.6375337,-259.9365907572438,-0.09005019945833163,-2.702784632109375,0.0,93,0.016706466674804688,0.9959484188566973,0.9959484188566973,14799,-264.6900238918227,0.0
158,1.1538312435150146,-268.1514685058895,9.875250137943244,-252.89303578641136,-278.3823236685727,0.0,0.15298133141593928,0.1,0.0023779869079589844,0.04705524444580078,0.049520575,1.6474496,-260.75807853210836,-0.09367368890715863,-3.0472600233028526,0.0,100,0.002859830856323242,0.9962931464140596,0.9962931464140596,14899,-277.6558393251673,0.0
159,1.1654620170593262,-274.4803264770054,24.561403084761583,-244.52449266479985,-299.316824932624,0.0,0.16740417585423914,0.1,0.002495288848876953,0.04862356185913086,0.049385983,1.2472365,-262.1303033265981,-0.09042161554682039,-3.1101669412796067,0.0,104,0.013574361801147461,0.9963223335731272,0.9963223335731272,15003,-273.2825194746503,0.0
160,1.2142963409423828,-269.26073159443297,32.080988786293354,-233.39464846708478,-311.3331989673198,0.0,0.17777667262476007,0.1,0.0023920536041259766,0.04806399345397949,0.050397616,0.7890462,-262.8433461533816,-0.09045833196804792,-3.055298946761912,0.0,107,0.013146638870239258,0.9963720419347205,0.9963720419347205,15110,-259.5576225200559,0.0
161,1.2350959777832031,-260.4537785809264,102.95960197739582,-175.81481616715612,-436.2056402279445,0.0,0.16820090349701503,0.1,0.0024061203002929688,0.048056840896606445,0.049647514,0.58426857,-262.60438939613607,-0.08170728660223334,-2.933299622597836,0.0,109,0.014822006225585938,0.9967004724957714,0.9967004724957714,15219,-264.02449657993003,0.0
162,1.2735304832458496,-264.03213824346443,54.668810760116585,-217.9021430079609,-355.0942648519117,0.0,0.17149309312555186,0.1,0.0024063587188720703,0.047467708587646484,0.04981804,1.0862727,-262.7471642808689,-0.08384187405825526,-2.981740622484069,0.0,108,0.012974023818969727,0.9964435549375534,0.9964435549375534,15327,-266.0497497998354,0.0
163,1.1836483478546143,-230.4340506950162,32.30811339378053,-197.28340267795238,-263.7651139180591,0.0,0.15342172110545274,0.1,0.002355813980102539,0.047209978103637695,0.04950135,1.4016452,-259.5158529222836,-0.08501610089925854,-2.5340681711867665,0.0,93,0.002620220184326172,0.9958185982248177,0.9958185982248177,15420,-262.3133669910747,0.0
164,1.1333551406860352,-276.5979372276163,30.470154082054385,-224.59011465287497,-301.17536717734447,0.0,0.1615861293137531,0.1,0.0028192996978759766,0.0499272346496582,0.04938689,1.2379123,-261.2240613528169,-0.09833318677516036,-3.1473145574539476,0.0,96,0.006291627883911133,0.9963902044876598,0.9963902044876598,15516,-253.9792453724276,0.0
165,1.1478965282440186,-264.62820579230595,31.801701300354463,-211.008607940644,-294.25263765550295,0.0,0.163989453311389,0.1,0.0025615692138671875,0.05234193801879883,0.050446033,1.1092635,-261.5644757967658,-0.09609336478485488,-2.9827561232011055,0.0,93,0.0030117034912109375,0.99622880561134,0.99622880561134,15609,-251.34203769868384,0.0
166,1.1713535785675049,-250.54843194834274,38.044118206881706,-188.5526422221434,-291.8564652230472,0.0,0.1553953231859841,0.1,0.031081199645996094,0.049219608306884766,0.049767837,1.0443624,-260.4628714119235,-0.09412414361058297,-2.794721484686454,0.0,93,0.0028705596923828125,0.9960526296693824,0.9960526296693824,15702,-249.69568363408771,0.0
167,1.189634084701538,-280.1928244107785,54.75483776137876,-210.04956989882407,-341.91524527881694,0.0,0.1739876271086085,0.1,0.0025930404663085938,0.05010271072387695,0.05010967,0.7974235,-262.435866711809,-0.08973556010707034,-3.196101478368627,0.0,108,0.013294696807861328,0.9965591583523553,0.9965591583523553,15810,-250.2319610226476,0.0
168,1.1831715106964111,-263.823011563295,40.52978968174781,-222.95619426211607,-317.1239903384725,0.0,0.17050634766284237,0.1,0.002680063247680664,0.04944348335266113,0.050118998,0.82529753,-262.5745811969576,-0.09159681219772803,-2.9768709571791305,0.0,103,0.013738632202148438,0.9964475681969109,0.9964475681969109,15913,-239.8673373847439,0.0
169,1.1987965106964111,-234.80603621319096,22.28503839670362,-211.3275354568329,-261.66447272066586,0.0,0.15178490223698388,0.1,0.0025680065155029297,0.04861259460449219,0.04931835,2.076746,-259.79772669858096,-0.08102612350688825,-2.5938579545731044,0.0,98,0.002689361572265625,0.9958202654696224,0.9958202654696224,16011,-247.87219241457194,0.0
170,1.2055938243865967,-230.5176501627991,40.53651133092839,-162.6799763116458,-267.79258849979755,0.0,0.14522935953573776,0.1,0.002516031265258789,0.049021244049072266,0.049257267,1.647201,-256.8697190450028,-0.08408361353529153,-2.5458597630559385,0.0,94,0.0028581619262695312,0.9958189344511894,0.9958189344511894,16105,-242.57537420083077,0.0
171,1.1893253326416016,-223.66895789059592,21.882887712097457,-201.64518858703318,-247.65093499491888,0.0,0.16512232321712514,0.1,0.0024874210357666016,0.05425095558166504,0.050182734,1.2397436,-253.5496429295621,-0.08276677980596629,-2.454675886742171,0.0,90,0.0026738643646240234,0.9955351109165482,0.9955351109165482,16195,-235.16433493294645,0.0
172,1.2021729946136475,-250.07728085826426,16.575677100343682,-221.60269646223844,-262.56454823375446,0.0,0.16417037529147324,0.1,0.0025272369384765625,0.04776358604431152,0.049340513,1.3971368,-253.20240672243233,-0.09145702179574834,-2.7954440066601385,0.0,92,0.01649165153503418,0.9959993541145028,0.9959993541145028,16287,-235.23237792489218,0.0
173,1.1930785179138184,-230.93728699850078,33.49140558645681,-173.38088416815117,-253.92389610030813,0.0,0.14711549651805908,0.1,0.0028777122497558594,0.04736924171447754,0.050096083,1.7678936,-250.9758947500392,-0.08848219132133611,-2.5462989111459438,0.0,89,0.0028228759765625,0.995748031683971,0.995748031683971,16376,-234.03352376858868,0.0
174,1.207850694656372,-264.7441258530646,48.00029162190525,-228.75144563210355,-347.3764610567715,0.0,0.16157627245201367,0.1,0.0027959346771240234,0.04812979698181152,0.049842555,1.2735537,-252.35271786034173,-0.09451608581445689,-2.9893938666178634,0.0,95,0.0028917789459228516,0.9963610236184076,0.9963610236184076,16471,-238.3427937545043,8.333333333333334
175,1.19321870803833,-197.46540985957577,20.37502494380964,-176.40944400058459,-224.56820786443802,0.0,0.14565079736757358,0.1,0.0024073123931884766,0.04753589630126953,0.049722888,1.5747707,-246.86398706026515,-0.07659233626766772,-2.1091114399228017,0.0,89,0.0031447410583496094,0.9952263206457168,0.9952263206457168,16560,-236.27736866256964,0.0
176,1.2140629291534424,-239.40232816134784,41.58317011302118,-175.58456380817978,-290.9308874196156,0.0,0.15590120323705828,0.1,0.002404451370239258,0.047392845153808594,0.05073989,0.9370707,-246.11782117037342,-0.08812180669085945,-2.6519968031092125,0.0,91,0.0027115345001220703,0.9959525690987315,0.9959525690987315,16651,-241.00291620812962,0.0
177,1.2054634094238281,-238.17629690503392,53.280887692681354,-178.76465156369923,-316.3180597766323,0.0,0.1533576945669758,0.1,0.0023949146270751953,0.04690909385681152,0.049917735,1.1972022,-245.32366874383948,-0.08995779744493447,-2.639373601320832,0.0,93,0.0028128623962402344,0.9960636928279336,0.9960636928279336,16744,-240.50744128639295,0.0
178,1.2124416828155518,-251.18079584356258,41.80058583033852,-208.22415561844815,-298.50279099536147,0.0,0.15863897632632315,0.1,0.0024499893188476562,0.04795980453491211,0.05041205,1.6969057,-245.9093814538118,-0.08897238295580032,-2.7985873946951694,0.0,97,0.0028378963470458984,0.996121648850124,0.996121648850124,16841,-233.2336250609408,0.0
179,1.2204360961914062,-232.14172769784653,18.504484842566846,-201.32285778361927,-250.47526028009764,0.0,0.16588751037627078,0.1,0.002328157424926758,0.05146670341491699,0.050326068,1.2370154,-244.53261607821526,-0.08298416770472838,-2.560793875504669,0.0,95,0.0026199817657470703,0.9958305290118178,0.9958305290118178,16936,-239.29940089347494,0.0
180,1.2143547534942627,-214.83220858407242,39.00234508784213,-156.50173587076512,-257.898740464737,25.0,0.14885205298309293,0.1,0.002765655517578125,0.05184435844421387,0.050262764,1.5066354,-241.56257532880096,-0.08640990049218399,-2.3260613315546412,25.0,87,0.0030813217163085938,0.9957390130208343,0.9957390130208343,17023,-231.80626282699882,8.333333333333334
181,1.2354257106781006,-241.62080961559985,27.16204480672796,-211.69068853199857,-285.7356739751335,0.0,0.15926223877959406,0.1,0.0023970603942871094,0.047609806060791016,0.050095614,1.0939144,-241.56839875748085,-0.08681593580208685,-2.6841941976879298,0.0,94,0.0026268959045410156,0.9959068201689005,0.9959068201689005,17117,-231.78465014407985,8.333333333333334
182,1.2297513484954834,-219.42823078038305,22.927894390982203,-186.08588749590382,-241.6119415740955,0.0,0.16663834181449524,0.1,0.0023283958435058594,0.04980635643005371,0.050429985,0.95033824,-239.35438195977108,-0.08218994218263528,-2.3930243137332425,0.0,91,0.0027997493743896484,0.9955923731847139,0.9955923731847139,17208,-238.4217974917534,0.0
183,1.1538987159729004,-236.10238125328192,26.584534022610384,-190.21678063739208,-253.82873452652672,0.0,0.1530861675063947,0.1,0.002676725387573242,0.04818916320800781,0.04994588,1.351023,-239.02918188912219,-0.09260636081675762,-2.6106953777938378,0.0,87,0.003134012222290039,0.9959032174028473,0.9959032174028473,17295,-232.6656618090682,8.333333333333334
184,1.2865259647369385,-245.71212096464433,17.212288972741284,-226.61068630394732,-263.9365000414204,0.0,0.16864979336254282,0.1,0.0025482177734375,0.05628824234008789,0.05029726,1.0969542,-239.69747579667438,-0.09263900956618518,-2.7529344925873604,0.0,94,0.01628398895263672,0.9961210811582676,0.9961210811582676,17389,-231.53278461396653,0.0
185,1.2358338832855225,-227.50588767421908,54.16068238399655,-187.39767197385478,-320.8212786977333,0.0,0.1509909030511057,0.1,0.0026590824127197266,0.04998946189880371,0.048618007,1.6478326,-238.47831698442886,-0.07979276057488023,-2.5134494815649298,0.0,102,0.013330459594726562,0.99600927526932,0.99600927526932,17491,-232.9985521648464,0.0
186,1.1857445240020752,-230.17585864503545,11.58732441831123,-217.96387452302253,-247.6951385338267,0.0,0.1516980936831495,0.1,0.01652979850769043,0.054741859436035156,0.049610905,1.4050038,-237.6480711504895,-0.08908331692410149,-2.534506295755842,0.0,89,0.003306150436401367,0.9958396101026888,0.9958396101026888,17580,-234.02526501424381,0.0
187,1.2799816131591797,-236.2725728614944,30.777356377001166,-212.32425914109623,-289.0830903440534,0.0,0.1611247577412026,0.1,0.002545595169067383,0.04749321937561035,0.049502686,1.1895227,-237.51052132159,-0.08732876062022896,-2.600823720665489,0.0,94,0.0028798580169677734,0.9960673729228193,0.9960673729228193,17674,-230.90783069476996,0.0
188,1.2511582374572754,-226.14019499422463,15.280866523118597,-203.90828234141497,-241.22835625995424,0.0,0.14957729816625123,0.1,0.0023958683013916016,0.05041217803955078,0.0495921,1.5989529,-236.37348868885346,-0.08741485823878345,-2.499910515207038,0.0,88,0.002450704574584961,0.9956023212411335,0.9956023212411335,17762,-240.8426845183878,0.0
189,1.2601380348205566,-262.09408974942215,24.837255169034194,-232.75232110714185,-301.52413599798314,0.0,0.16019851826788528,0.1,0.0024771690368652344,0.05086183547973633,0.050127584,1.0977778,-238.94554879491034,-0.10058357559952025,-2.9529532051903558,0.0,90,0.0027303695678710938,0.9962201171028557,0.9962201171028557,17852,-245.89922258757213,0.0
190,1.2505722045898438,-261.05600716156,30.30881910498686,-227.07472978209935,-295.62014528505364,0.0,0.1794784329231286,0.1,0.0048062801361083984,0.04904580116271973,0.04997862,0.9627524,-241.1565946315753,-0.08806112981511507,-2.9511721368728487,0.0,102,0.013868570327758789,0.9961667484099352,0.9961667484099352,17954,-243.09090915272543,0.0
191,1.2423787117004395,-192.18889442509862,23.952183201477933,-162.82593940698632,-226.4787208390676,0.0,0.1745861418987541,0.1,0.030433177947998047,0.05766773223876953,0.049215212,0.9123985,-236.25982461092764,-0.07363362333910432,-2.038915984684248,0.0,99,0.0048999786376953125,0.9953772172888743,0.9953772172888743,18053,-255.2944821517077,0.0
192,1.2444627285003662,-261.0390298210912,25.450299562850866,-236.91011914125943,-301.63720863092806,0.0,0.168069109960012,0.1,0.002336263656616211,0.049283504486083984,0.050156914,1.0306278,-238.73774513194402,-0.09898917771742471,-2.936831543209403,0.0,89,0.0030100345611572266,0.9962115224996261,0.9962115224996261,18142,-267.5658104022447,0.0
193,1.2589848041534424,-235.19796916760714,34.442622562459185,-198.11488882490397,-290.2758065862904,0.0,0.1640692164928299,0.1,0.002759218215942383,0.047176361083984375,0.0493786,1.0670133,-238.38376753551034,-0.08775615943395146,-2.603603197763164,0.0,93,0.002717733383178711,0.995989240783176,0.995989240783176,18235,-260.6807310011945,0.0
194,1.280813455581665,-240.2062271975885,20.157755250144202,-213.80072418592715,-267.3372790462599,0.0,0.1653241518226383,0.1,0.002393484115600586,0.04870319366455078,0.049125943,1.0500507,-238.56601350171817,-0.08073798684336793,-2.678960082701917,0.0,102,0.0044918060302734375,0.9958258279843887,0.9958258279843887,18337,-273.1766536509946,0.0
195,1.2608296871185303,-250.03184927750277,18.739511371381152,-222.50585151796338,-269.8171591584336,0.0,0.19164587122116752,0.1,0.002285003662109375,0.04663586616516113,0.04982379,0.8276122,-239.71259707929664,-0.09271934722025002,-2.796837909231492,0.0,91,0.002582550048828125,0.996043616675343,0.996043616675343,18428,-262.47848906995046,0.0
196,1.2678894996643066,-233.02334983028192,27.06407295080583,-199.8704010703185,-275.3091461650246,0.0,0.1614265896599371,0.1,0.002377033233642578,0.048111677169799805,0.04922745,1.1977148,-239.0436723543952,-0.09149455602448187,-2.5706747703573383,0.0,87,0.0028171539306640625,0.9958548954385547,0.9958548954385547,18515,-266.62288379935666,0.0
197,1.2235345840454102,-249.7233702534145,40.66124292636651,-209.97819589242116,-309.66294448517397,0.0,0.16483682451482473,0.1,0.002714395523071289,0.04873538017272949,0.04912232,0.9192897,-240.11164214429715,-0.09098956014548029,-2.8025496818411284,0.0,94,0.0031273365020751953,0.9961673245605116,0.9961673245605116,18609,-255.11762557971986,0.0
198,1.2403898239135742,-257.2674024000679,55.95599542126902,-216.87787033742404,-353.0157033739715,0.0,0.17355077807167502,0.1,0.0025866031646728516,0.05396914482116699,0.050184954,1.0578414,-241.82721816987424,-0.08753271464138435,-2.895157809191187,0.0,102,0.015707731246948242,0.9963533680834321,0.9963533680834321,18711,-263.9084327444867,0.0
199,1.2815883159637451,-269.61484378386547,32.50123349670896,-213.68259914261495,-292.9149287050235,0.0,0.17347842624162607,0.1,0.002635955810546875,0.06486272811889648,0.049760148,1.155623,-244.60598073127338,-0.09582217530070758,-3.0396284303426566,0.0,98,0.0027616024017333984,0.9963933123601708,0.9963933123601708,18809,-261.6080837198742,0.0
200,1.2017667293548584,-227.71906887327086,31.725180171171807,-186.06563160240458,-273.2637215474666,0.0,0.14702673609003894,0.1,0.0026106834411621094,0.04926657676696777,0.05077546,1.3730271,-242.91728954547312,-0.09211674201895231,-2.5117441348682035,0.0,84,0.0029120445251464844,0.9958031434676746,0.9958031434676746,18893,-271.26340877580265,0.0
201,1.2370188236236572,-248.1624663188097,32.526471763196454,-207.98986321969778,-294.328107692274,0.0,0.1702202936341995,0.1,0.0025513172149658203,0.05191826820373535,0.049705368,1.4882848,-243.4418072228068,-0.08553644961692564,-2.7747229320143765,0.0,97,0.0032596588134765625,0.9960613939176111,0.9960613939176111,18990,-271.842860808638,0.0
202,1.239100456237793,-214.5563589990112,23.25962248447201,-190.38471625067592,-245.6261700430428,0.0,0.1675093979183347,0.1,0.0025222301483154297,0.04749131202697754,0.050057232,0.9333165,-240.55326240042726,-0.08463375028902714,-2.335705003211495,0.0,86,0.003344297409057617,0.9955536705687178,0.9955536705687178,19076,-267.89124592883246,0.0
203,1.2699415683746338,-249.92657512814134,53.3304515476242,-181.26408819020713,-309.27793938181213,0.0,0.1852235001205972,0.1,0.0025300979614257812,0.048302650451660156,0.05051274,0.6718435,-241.49059367319867,-0.08377813464737412,-2.7914801005445247,0.0,101,0.018344402313232422,0.996246355410503,0.996246355410503,19177,-271.14146062156277,0.0
204,1.2560012340545654,-212.71044872536729,15.592310499175648,-198.35239676300353,-235.8959295858848,0.0,0.15477208512749693,0.1,0.0025055408477783203,0.048929691314697266,0.049022444,1.5329278,-238.61257917841553,-0.0821285375794294,-2.308508871542193,0.0,93,0.0035893917083740234,0.9956134593135182,0.9956134593135182,19270,-280.29907733745455,0.0
205,1.2483723163604736,-232.88221389765903,23.397713696029804,-205.23849575080402,-269.7071911635496,0.0,0.14517548582891707,0.1,0.0023491382598876953,0.04793977737426758,0.04885783,1.6289942,-238.03954265033988,-0.08857384570852381,-2.5673009356986918,0.0,91,0.0018680095672607422,0.9958268781629,0.9958268781629,19361,-287.0058622013701,0.0
206,1.2779090404510498,-204.14917812624617,23.937712328661245,-175.62941007348473,-233.79023007841488,0.0,0.1587299326378933,0.1,0.0023279190063476562,0.05034160614013672,0.048942577,2.0279083,-234.65050619793053,-0.08022435333476917,-2.1893856756614523,0.0,91,0.0027108192443847656,0.9956210733085524,0.9956210733085524,19452,-280.2221721954905,0.0
207,1.2434637546539307,-231.4832634687524,14.960737080086213,-220.1485597858639,-257.0426897467421,0.0,0.15700003855730285,0.1,0.002423524856567383,0.047638893127441406,0.049605414,1.9711227,-234.33378192501272,-0.0903330271694954,-2.561183995138369,0.0,86,0.0030896663665771484,0.9957287737065945,0.9957287737065945,19538,-278.0085733426049,0.0
208,1.2578635215759277,-218.913518120901,27.177185689724627,-194.84252543992795,-263.08978717900527,0.0,0.15502543031814833,0.1,0.0022857189178466797,0.04620242118835449,0.05135625,1.4903798,-232.79175554460156,-0.08261604772621778,-2.3820053703916937,0.0,90,0.0026845932006835938,0.9956397832873563,0.9956397832873563,19628,-266.8017728108276,0.0
209,1.2582411766052246,-240.81589630795776,27.153715625443134,-199.4745048967226,-273.03132853091665,0.0,0.16119286680118597,0.1,0.0023522377014160156,0.04689288139343262,0.04995717,1.3640293,-233.59416962093718,-0.08397081196900522,-2.6804387928408158,0.0,97,0.0026731491088867188,0.9959300259323818,0.9959300259323818,19725,-260.4078874567717,8.333333333333334
210,1.2988405227661133,-258.94378150393504,24.186889957413257,-227.7544937653422,-285.6979748561076,0.0,0.17401407246620926,0.1,0.002545595169067383,0.047220706939697266,0.04909107,1.0562538,-236.12913080923698,-0.09002422490683626,-2.9177942521774747,0.0,98,0.0029888153076171875,0.9961767211414948,0.9961767211414948,19823,-256.0394668730774,8.333333333333334
211,1.2730567455291748,-224.07343867287275,32.27866320880897,-169.19307210334827,-249.33613850537392,0.0,0.14634016893318633,0.1,0.0023164749145507812,0.05348324775695801,0.050081998,1.2598059,-234.92356159560055,-0.0898771484005979,-2.460548910195835,0.0,87,0.003313302993774414,0.9958393615810891,0.9958393615810891,19910,-257.68008726417924,8.333333333333334
212,1.3280675411224365,-268.0704419336944,74.30148918834541,-218.20691492069133,-396.46844948797354,0.0,0.1651138923859355,0.1,0.002427816390991211,0.04872441291809082,0.05045242,0.948856,-238.23824962940995,-0.08257206900956292,-3.0371528426521763,0.0,112,0.007249116897583008,0.9966225985194429,0.9966225985194429,20022,-258.4793128599561,8.333333333333334
213,1.519463300704956,-339.29873182675,181.52820438372132,-211.1535416924366,-651.9638073784218,0.0,0.20179352599565267,0.1,0.002611398696899414,0.05160880088806152,0.048335355,1.4841166,-248.34429784914397,-0.08810361469104167,-4.096864530508295,0.0,144,0.027551889419555664,0.9976989023493236,0.9973009802600404,20166,-254.2170283732678,0.0
214,1.3050296306610107,-238.74540338347867,40.043219485489395,-180.99721785225418,-292.8781667837813,0.0,0.17494862115456336,0.1,0.002403736114501953,0.04818296432495117,0.049881693,0.8761783,-247.38440840257744,-0.08476479502201929,-2.652928414808171,0.0,97,0.0029489994049072266,0.9952747669349911,0.9952747669349911,20263,-263.30100316846773,0.0
215,1.3214552402496338,-283.3079207654047,56.11818574371009,-189.94824391260886,-339.29993258957785,0.0,0.18656077496493456,0.1,0.0027544498443603516,0.05139517784118652,0.049651723,0.79808664,-250.97675963886016,-0.09122192776667233,-3.2303866691230043,0.0,111,0.006232023239135742,0.9960149488896308,0.9960149488896308,20374,-255.7617720476617,0.0
216,1.2991926670074463,-262.2386264106023,14.991477596219593,-246.247932264744,-281.7783923296185,0.0,0.1798755075757622,0.1,0.0024187564849853516,0.049683332443237305,0.04996471,1.2106819,-252.10294631603438,-0.08426739454196105,-2.950158574412527,0.0,109,0.009405374526977539,0.9955575299866701,0.9955575299866701,20483,-247.28471459201447,8.333333333333334
217,1.280317783355713,-237.6613974829594,38.61481067189141,-194.32138701415647,-289.70729705420064,0.0,0.16425480857033567,0.1,0.002313375473022461,0.04746222496032715,0.04947369,0.8294831,-250.6587914327269,-0.08250769270393982,-2.643634070717019,0.0,99,0.0028083324432373047,0.9952125160283858,0.9952125160283858,20582,-250.5757904148933,8.333333333333334
218,1.2920308113098145,-234.3637495518543,6.82230444942642,-224.72857287161384,-242.4693961080514,0.0,0.16454790983115047,0.1,0.0024302005767822266,0.051192283630371094,0.05003294,1.3424957,-249.02928724463965,-0.08452001317058593,-2.5979798444856397,0.0,93,0.002677440643310547,0.9950218213676336,0.9950218213676336,20675,-264.0350490386074,0.0
219,1.2956140041351318,-246.8462742346996,21.34457790501826,-211.1335952468648,-266.6545816744499,0.0,0.18283633737065327,0.1,0.0024237632751464844,0.0492403507232666,0.049960606,0.84797925,-248.81098594364568,-0.0837379415069357,-2.7442985138000675,0.0,103,0.003168821334838867,0.9953103854255363,0.9953103854255363,20778,-266.0365018493283,0.0
220,1.302689552307129,-231.23892435021614,15.659512368510425,-206.98184464773587,-250.67282738517173,0.0,0.15574097653465552,0.1,0.0023927688598632812,0.04643750190734863,0.050786432,1.2128929,-247.05377978430272,-0.0868752854156309,-2.5516850249156997,0.0,89,0.0028290748596191406,0.9949637245695767,0.9949637245695767,20867,-274.366398749076,0.0
221,1.3142497539520264,-246.70448398767678,43.376799035197294,-184.93407287049504,-306.5664016096588,0.0,0.18343979196293397,0.1,0.0024182796478271484,0.04830169677734375,0.049984403,0.8328173,-247.01885020464013,-0.07901640698424889,-2.7469294566607765,0.0,106,0.015930652618408203,0.9954735544554149,0.9954735544554149,20973,-267.6759336971133,0.0
222,1.439263105392456,-355.0540762584938,184.21761866055286,-238.0923065279599,-673.8196299431798,0.0,0.2076521816932597,0.1,0.002595186233520508,0.05031132698059082,0.05068075,0.478358,-257.8223728100255,-0.09455212249495702,-4.19277311637764,0.0,129,0.029478788375854492,0.9974629891530346,0.9970474523622329,21102,-259.565671392835,0.0
223,1.292527198791504,-224.26309264083952,26.084198692959404,-184.43045598812807,-248.93355361898784,0.0,0.16588276523640338,0.1,0.002465963363647461,0.047629356384277344,0.0494602,1.3005992,-254.46644479310692,-0.07920060404853235,-2.456717798706854,0.0,95,0.0027320384979248047,0.9940194867867744,0.9940194867867744,21197,-259.92625808054976,0.0
224,1.368823766708374,-291.294988943328,93.34269458653073,-216.00068476778344,-451.28178264850715,0.0,0.2003037300419897,0.1,0.002440929412841797,0.04865527153015137,0.0504796,0.57980376,-258.14929920812904,-0.08553301801088742,-3.3536900063466084,0.0,118,0.012974977493286133,0.9958358197073751,0.9958358197073751,21315,-262.31287237865564,0.0
225,1.2996206283569336,-251.36882991413324,15.815913251230262,-235.2818340819344,-275.54770298891276,0.0,0.16193497326249998,0.1,0.0024700164794921875,0.04802441596984863,0.04853598,1.7348421,-257.4712522787295,-0.08888334126122993,-2.8037807261322336,0.0,97,0.00267791748046875,0.9947822682796685,0.9947822682796685,21412,-275.1749227471263,0.0
226,1.3003971576690674,-248.5130767472918,15.372596074104704,-231.9673438789011,-272.56032491965414,0.0,0.1699900188046073,0.1,0.0030193328857421875,0.052054405212402344,0.04931927,0.9666055,-256.5754347255857,-0.08471095660852053,-2.7693947677412867,0.0,103,0.013664722442626953,0.9947108771837344,0.9947108771837344,21515,-280.2029434039472,0.0
227,1.313732624053955,-240.13199687445746,32.26783196992311,-201.0812927119855,-287.6436468169772,0.0,0.1893491010960875,0.1,0.0024793148040771484,0.05144858360290527,0.04958376,0.81983155,-254.93109094047287,-0.07790276365990986,-2.6632684543293426,0.0,106,0.014898300170898438,0.9945793874534679,0.9945793874534679,21621,-272.5014044805711,0.0
228,1.3271336555480957,-220.19864821631248,20.715963571258825,-193.71980093047944,-251.18364823102874,0.0,0.17504620045217986,0.1,0.002376079559326172,0.05171656608581543,0.050090935,1.1228508,-251.45784666805685,-0.07613456741673927,-2.4002507358763525,0.0,99,0.002948760986328125,0.9941307743177688,0.9941307743177688,21720,-262.58470935858446,0.0
229,1.3111143112182617,-238.878311867683,24.053781215390625,-221.75963067937977,-280.2199635289953,0.0,0.15628677104128652,0.1,0.0023720264434814453,0.05191850662231445,0.04988443,1.3623804,-250.19989318801947,-0.08146628504136348,-2.6558195314976416,0.0,98,0.0029935836791992188,0.994415218873395,0.994415218873395,21818,-267.7473347758957,0.0
230,1.2374012470245361,-212.58616994635315,24.675753964645082,-187.471277780235,-240.69094045860896,0.0,0.15856019308576202,0.1,0.0028028488159179688,0.0531458854675293,0.050672825,1.0986078,-246.43852086385283,-0.08067728670998167,-2.3136376332299755,0.0,95,0.002969980239868164,0.9941110699534539,0.9941110699534539,21913,-274.6760729150716,0.0
231,1.2899599075317383,-310.97725740199303,78.99876683647506,-232.54302752646606,-439.4775345067158,0.0,0.20242969079258588,0.1,0.002782106399536133,0.051609039306640625,0.050038278,0.46379957,-252.89239451766687,-0.08725812113920811,-3.6101660899468433,0.0,122,0.0130462646484375,0.995787203240689,0.995787203240689,22035,-274.288199508344,0.0
232,1.256223201751709,-246.43117391379764,37.60250812072671,-187.77965667985606,-291.8877427265809,0.0,0.16178333823141508,0.1,0.0026493072509765625,0.0482940673828125,0.050008215,1.0323087,-252.24627245727996,-0.08907767316968558,-2.7569328028499682,0.0,94,0.0028951168060302734,0.9946566685305117,0.9946566685305117,22129,-292.0459326795297,0.0
233,1.3010234832763672,-209.85400048674654,32.5444677202192,-173.3669625518957,-258.34801767925495,0.0,0.1689733720415325,0.1,0.002597808837890625,0.049445152282714844,0.05032261,0.9998645,-248.00704526022662,-0.07227499604827045,-2.269701428403452,0.0,106,0.013468027114868164,0.9940921276404645,0.9940921276404645,22235,-306.32270706226296,0.0
234,1.2869536876678467,-254.82864391116445,58.95773403512936,-167.57162666258506,-329.27727865593283,0.0,0.18732315173011777,0.1,0.0026688575744628906,0.06146693229675293,0.04992884,0.92207575,-248.6892051253204,-0.08180314070595734,-2.851544708040963,0.0,112,0.01372075080871582,0.9950110273036015,0.9950110273036015,22347,-288.19154225975547,0.0
235,1.2792975902557373,-219.79598650806497,40.33197008095395,-157.15363526330094,-269.7238677202331,0.0,0.15308709130145148,0.1,0.0025870800018310547,0.048038482666015625,0.04975791,1.5694654,-245.79988326359486,-0.08010885088950585,-2.4039703296859978,0.0,95,0.0029709339141845703,0.9941927614577921,0.9941927614577921,22442,-296.2909608674361,0.0
236,1.306471586227417,-225.99330322854644,33.18997993799313,-189.97837237855936,-261.0703972291506,0.0,0.18265788447896064,0.1,0.0026345252990722656,0.05071616172790527,0.04967113,0.93714595,-243.81922526009004,-0.07360825666542986,-2.486097605628161,0.0,108,0.015880346298217773,0.9941919432120592,0.9941919432120592,22550,-305.8006245927087,0.0
237,1.2887403964996338,-225.4709665199952,51.55152515252116,-155.30450072021418,-299.2221529532457,0.0,0.1514231432715078,0.1,0.0025730133056640625,0.04944968223571777,0.05016225,0.7931207,-241.98439938608055,-0.08626788983368004,-2.472281574179112,0.0,94,0.01417684555053711,0.9942447709244474,0.9942447709244474,22644,-313.89646307577914,0.0
238,1.3878934383392334,-219.1448316892754,7.036543909844202,-213.10236440889238,-231.10556364486115,0.0,0.16265389592067347,0.1,0.0025453567504882812,0.049432992935180664,0.04946902,1.581398,-239.70044261640004,-0.07144133597426307,-2.3990202999708026,0.0,106,0.013517379760742188,0.9938371186370701,0.9938371186370701,22750,-305.06376288023074,0.0
239,1.3047292232513428,-264.69376026074974,10.724016680852495,-253.69327844395565,-277.0660876756449,0.0,0.17976839934247488,0.1,0.002516031265258789,0.048650503158569336,0.049237236,2.3263104,-242.199774380835,-0.0842426432743579,-2.9845757430153625,0.0,107,0.01320028305053711,0.9948402670484114,0.9948402670484114,22857,-333.6988807250969,0.0
240,1.3545269966125488,-232.940671078535,25.551026786492525,-193.01121833468824,-258.0034511996123,0.0,0.1735525602966191,0.1,0.006279706954956055,0.04957699775695801,0.049897235,1.3742448,-241.273864050605,-0.07529622158473762,-2.568519810646256,0.0,106,0.008093118667602539,0.9942718830621505,0.9942718830621505,22963,-336.59603593574667,0.0
241,1.3509252071380615,-204.17015597602935,33.30286817475758,-158.82545951808655,-244.60812030264293,0.0,0.17981458241213255,0.1,0.0025539398193359375,0.05063176155090332,0.049920164,0.93696976,-237.56349324314743,-0.07042788913975075,-2.203821823700377,0.0,106,0.013393163681030273,0.9936648933340928,0.9936648933340928,23069,-338.4097026899621,0.0
242,1.3261654376983643,-247.6406119773451,30.301043514742254,-217.73215386744351,-294.0305469675393,0.0,0.1795712439662612,0.1,0.0024347305297851562,0.049138784408569336,0.05032163,1.2870564,-238.57120511656723,-0.0742786071663064,-2.752257298837958,0.0,116,0.008360862731933594,0.9945695459739535,0.9945695459739535,23185,-327.7501493863109,0.0
243,1.3515775203704834,-270.2747283961795,51.6828255394107,-202.92140062151572,-347.89110764645284,0.0,0.1739410395238484,0.1,0.0024993419647216797,0.04979372024536133,0.05002412,0.90370405,-241.74155744452847,-0.0845221515272798,-3.0828328693367175,0.0,109,0.0047016143798828125,0.9951609903814737,0.9951609903814737,23294,-309.2827936302872,0.0
244,1.3207919597625732,-197.12559323362328,22.706062105556402,-159.63413267805512,-217.41890259227588,0.0,0.1639473537741702,0.1,0.029885053634643555,0.047178030014038086,0.049394995,1.4024106,-237.27996102343798,-0.07418180026773996,-2.083532080993165,0.0,101,0.006781578063964844,0.9940873239766715,0.9940873239766715,23395,-326.121742855661,0.0
245,1.3238234519958496,-243.7969972905031,57.76190228040757,-168.75572153237613,-329.72169700481663,0.0,0.15967404564599513,0.1,0.002465963363647461,0.049811601638793945,0.050261926,0.991676,-237.9316646501445,-0.08478739636997817,-2.725275789835856,0.0,101,0.008753061294555664,0.9947652207802561,0.9947652207802561,23496,-337.64948611783035,0.0
246,1.340139627456665,-256.88549077049544,60.2543417002773,-190.0566970663225,-354.6559582323841,0.0,0.16146246595458108,0.1,0.0025665760040283203,0.0485377311706543,0.049122892,0.86385083,-239.8270472621796,-0.07998924369041807,-2.8795678073988777,0.0,117,0.013762712478637695,0.9949296208300855,0.9949296208300855,23613,-316.43351744694775,0.0
247,1.3728892803192139,-253.93201309019628,14.913213943764397,-236.47261517804162,-275.3549354911306,0.0,0.16957701407084774,0.1,0.0037288665771484375,0.05537247657775879,0.04959114,1.1545063,-241.2375438449813,-0.08310873771271597,-2.8532123809497594,0.0,111,0.02534008026123047,0.9949251804134781,0.9949251804134781,23724,-319.86985443541136,0.0
248,1.257749319076538,-246.39615532960735,15.532589066647063,-221.8507564018745,-264.85831314285156,0.0,0.15652378087838,0.1,0.0305020809173584,0.08081579208374023,0.049085546,1.6421609,-241.75340499344392,-0.08337325793476053,-2.7454343406969857,0.0,100,0.003102540969848633,0.9944880989754062,0.9944880989754062,23824,-331.0745770060166,0.0
249,1.3037726879119873,-225.52684595484777,18.203023233841524,-196.03398618262136,-245.464481244564,0.0,0.16218735167450815,0.1,0.002813577651977539,0.051317453384399414,0.048067074,1.2007997,-240.1307490895843,-0.0755825027813652,-2.475496914559101,0.0,104,0.01190638542175293,0.9943268487240402,0.9943268487240402,23928,-329.1056858188994,0.0
250,1.298485517501831,-245.79548057036033,38.718163841065,-194.03736372708892,-299.49495329107185,0.0,0.16137596112781105,0.1,0.0026793479919433594,0.049674034118652344,0.0496352,1.043568,-240.6972222376619,-0.08980733988686954,-2.7405158120850057,0.0,96,0.0029892921447753906,0.9946679645084259,0.9946679645084259,24024,-325.65886582198607,0.0
251,1.3308122158050537,-230.76925115354572,41.39535880558666,-167.52414612130457,-273.3509954335338,0.0,0.17466941112742315,0.1,0.0025768280029296875,0.050324440002441406,0.049383033,0.9159977,-239.7044251292503,-0.07541313359534052,-2.55246155910048,0.0,106,0.004953861236572266,0.9943940162245545,0.9943940162245545,24130,-320.6761915900025,0.0
252,1.3009068965911865,-225.54085904550848,24.727268740284345,-186.66791665202217,-254.57683957462706,0.0,0.18228882667515234,0.1,0.002645730972290039,0.050208330154418945,0.049512826,1.1573973,-238.28806852087612,-0.07513956608977587,-2.47865263107239,0.0,102,0.004822969436645508,0.9939717942539816,0.9939717942539816,24232,-306.28907524507275,0.0
253,1.350921869277954,-247.39246840472603,33.40111476374609,-196.98724428548311,-282.1923446036325,0.0,0.1741687404623179,0.1,0.0028595924377441406,0.05068612098693848,0.04975941,1.5521065,-239.1985085092611,-0.07969652359127093,-2.7514644422709464,0.0,106,0.0047495365142822266,0.9946076112611812,0.9946076112611812,24338,-316.3207643230765,0.0
254,1.3328380584716797,-255.07369026949183,81.12392933789009,-201.42271547205218,-395.14271044496377,0.0,0.15790431707282995,0.1,0.002688169479370117,0.05115389823913574,0.048951916,0.6857594,-240.78602668528418,-0.08449227715458052,-2.8648908063802185,0.0,102,0.013581991195678711,0.9953196415713434,0.9953196415713434,24440,-326.8152276496067,0.0
255,1.3136096000671387,-234.597587079481,30.20215728534269,-190.91054186913647,-272.6021475542343,0.0,0.14539830285270197,0.1,0.030478477478027344,0.056784868240356445,0.049374864,1.6451561,-240.16718272470388,-0.08815402780299655,-2.5980471255978994,0.0,88,0.002978801727294922,0.9943595089684314,0.9943595089684314,24528,-324.3140826277363,0.0
256,1.347778558731079,-220.07011222655922,20.746346242889775,-199.49728363379103,-251.76105793622273,0.0,0.1810857981797848,0.1,0.002710580825805664,0.050438642501831055,0.051133085,1.0249554,-238.15747567488944,-0.07598058360827277,-2.3980899931199358,0.0,100,0.009307861328125,0.9939939322441216,0.9939939322441216,24628,-315.1826615738068,0.0
257,1.3595468997955322,-270.35861464077755,51.80924381071331,-203.48251035948851,-321.2834919446597,0.0,0.1739648275907626,0.1,0.0026950836181640625,0.05081486701965332,0.04913575,0.8969567,-241.37758957147827,-0.09313228889780342,-3.0683418249248184,0.0,98,0.002866983413696289,0.9951672834680507,0.9951672834680507,24726,-326.7042939465336,0.0
258,1.3361103534698486,-251.2397926045274,8.74871695571735,-236.09318789357218,-256.6816788165011,0.0,0.14983775037351724,0.1,0.0026209354400634766,0.05248522758483887,0.05019819,1.160406,-242.36380987478321,-0.09484137360627282,-2.8175276442393224,0.0,91,0.0035326480865478516,0.9945759923090024,0.9945759923090024,24817,-323.85865010107506,0.0
259,1.3196864128112793,-209.37570864480995,19.339515471036375,-192.04217047651144,-241.33367535151933,0.0,0.16814475986451685,0.1,0.0028252601623535156,0.05010533332824707,0.048111547,1.1886958,-239.06499975178588,-0.07486332236444425,-2.2731640800030903,0.0,97,0.002874612808227539,0.9939031325255379,0.9939031325255379,24914,-320.46307144040344,0.0
260,1.3235063552856445,-228.5754551087346,22.0227501615901,-201.40696000950325,-259.3583930194265,0.0,0.17775184895213197,0.1,0.002725839614868164,0.05363726615905762,0.049986746,0.9628865,-238.01604528748075,-0.08314823098645166,-2.510515269855918,0.0,94,0.0036706924438476562,0.9943432551590888,0.9943432551590888,25008,-320.1650494973402,0.0
261,1.360081672668457,-240.204814471164,55.217829497239265,-163.62801101921258,-319.7483577393205,0.0,0.16826098192634895,0.1,0.0027229785919189453,0.05029797554016113,0.049690194,0.9735494,-238.23492220584907,-0.08163469518062284,-2.676991262823247,0.0,102,0.014147520065307617,0.9946577201541879,0.9946577201541879,25110,-322.59370730062614,0.0
262,1.3358864784240723,-241.78363100190236,43.14824302048333,-178.258464711094,-300.0266122924585,0.0,0.16206655611460993,0.1,0.002565622329711914,0.050035953521728516,0.049079858,1.251983,-238.5897930854544,-0.08013467612938413,-2.689844830208547,0.0,104,0.015903949737548828,0.9944641476336165,0.9944641476336165,25214,-331.23032433191753,0.0
263,1.3485157489776611,-270.17333875514606,12.37465986586225,-256.25909651459915,-284.05629610187503,0.0,0.17822720137602818,0.1,0.0026481151580810547,0.05098867416381836,0.049761415,1.1451362,-241.7481476524236,-0.08908368678737626,-3.057682434734472,0.0,104,0.013550519943237305,0.9949624711177815,0.9949624711177815,25318,-321.1250717498643,0.0
264,1.393404483795166,-257.9134185714454,36.51059144526424,-232.71929974017945,-320.94069837990327,0.0,0.1844046288732202,0.1,0.00266265869140625,0.05165600776672363,0.04970766,1.3574786,-243.36467474432578,-0.08237856067713656,-2.8986904346606783,0.0,106,0.013536930084228516,0.9947355640122966,0.9947355640122966,25424,-327.5294056949265,0.0
265,1.3716933727264404,-282.41499491242996,54.40755747962401,-239.61565554303593,-375.83288511132935,0.0,0.19598344559897815,0.1,0.002947092056274414,0.06279277801513672,0.04941277,0.85936457,-247.2697067611362,-0.07604227515643082,-3.234307439015272,0.0,127,0.013234853744506836,0.9952643460763643,0.9952643460763643,25551,-310.1674155904896,0.0
266,1.3592712879180908,-233.64322458803457,50.2411272878611,-184.8664119745911,-316.3694315003464,0.0,0.17335612988302143,0.1,0.0025675296783447266,0.049996137619018555,0.04969518,0.7035137,-245.90705854382605,-0.0758178241823305,-2.5982781373680357,0.0,104,0.012325525283813477,0.9945269491649856,0.9945269491649856,25655,-318.67478943088605,0.0
267,1.3373260498046875,-206.96728012511772,22.588529894116466,-168.6229774152423,-225.7097912147505,0.0,0.1649216918670051,0.1,0.0026733875274658203,0.05125093460083008,0.04951273,1.1192547,-242.01308070195523,-0.07619108893201156,-2.224507094652672,0.0,92,0.002727508544921875,0.9937965232849763,0.9937965232849763,25747,-318.8678348782693,0.0
268,1.338388204574585,-233.72139374882204,20.355962573809943,-210.28862197578158,-262.3664464068455,0.0,0.17266439158201505,0.1,0.002520322799682617,0.04869794845581055,0.05034029,1.0133401,-241.18391200664192,-0.08264405223955754,-2.5932947091528793,0.0,96,0.0028324127197265625,0.9943134052460443,0.9943134052460443,25843,-316.9594112038413,0.0
269,1.3374688625335693,-220.2043115113854,42.816302833917995,-164.1749809481208,-283.35482585706524,0.0,0.16576939487782605,0.1,0.0025877952575683594,0.05156087875366211,0.04916962,1.0892217,-239.0859519571163,-0.07625914319122101,-2.41811009036858,0.0,102,0.01302790641784668,0.9941285096383496,0.9941285096383496,25945,-328.109159631967,0.0
270,1.383044958114624,-282.1357234570779,68.38076422382252,-210.38897136343013,-393.84820328787396,0.0,0.20404157908587178,0.1,0.002696990966796875,0.052121639251708984,0.04939358,0.7571876,-243.39092910711247,-0.07837300052370669,-3.2133738679468506,0.0,123,0.012803792953491211,0.9953963238333062,0.9953963238333062,26068,-323.4874501620463,0.0
271,1.3516738414764404,-233.90830307440123,31.601319504512855,-193.5874338575772,-269.9426092270191,0.0,0.16553502189380367,0.1,0.002743244171142578,0.05188608169555664,0.048806533,1.4911027,-242.44266650384137,-0.07135116518255694,-2.6068479960009823,0.0,114,0.008774995803833008,0.9943830816228739,0.9943830816228739,26182,-321.1335754439081,0.0
272,1.3517372608184814,-259.1041226879118,22.58010176591565,-235.31392758218368,-295.034194357968,0.0,0.18191159059515377,0.1,0.002555370330810547,0.06014752388000488,0.050024554,1.3853395,-244.10881212224842,-0.07325027797118269,-2.923302311369274,0.0,121,0.013823986053466797,0.9945347010922395,0.9945347010922395,26303,-331.52384471726054,0.0
273,1.4088940620422363,-261.0108371873266,22.66732582833189,-234.29290324221625,-295.8858249936176,0.0,0.17594904943300912,0.1,0.0026183128356933594,0.05339980125427246,0.04958985,0.853675,-245.79901462875625,-0.0837935004018025,-2.93683182085481,0.0,110,0.011570930480957031,0.9946786397378051,0.9946786397378051,26413,-323.4357388651236,0.0
274,1.359114408493042,-228.21388654153262,58.41730437127096,-152.60816106809742,-316.812348425807,0.0,0.15964786998039648,0.1,0.0026793479919433594,0.0498046875,0.050288063,1.4455984,-244.04050182003388,-0.07811339769012196,-2.5133096993973725,0.0,103,0.015332698822021484,0.9945249757863074,0.9945249757863074,26516,-326.09864540443203,0.0
275,1.3755402565002441,-215.74378989643213,7.691543788778249,-202.59256722964324,-222.12764128147296,0.0,0.1740523896920919,0.1,0.002604961395263672,0.04953122138977051,0.048965544,0.92988515,-241.21083062767372,-0.06735200570731946,-2.3525198021976417,0.0,113,0.013601303100585938,0.9937489576118743,0.9937489576118743,26629,-338.9315364674735,0.0
276,1.3419814109802246,-232.8565884412919,8.534255940906588,-219.187001999663,-240.18528197611352,0.0,0.16482077734784029,0.1,0.02503037452697754,0.05259990692138672,0.05020746,1.2784148,-240.37540640903555,-0.07283661249092854,-2.5667873405234607,0.0,106,0.013244152069091797,0.9941200670137474,0.9941200670137474,26735,-337.0523067021681,0.0
277,1.4145667552947998,-280.31921121506747,90.97085840989298,-222.79788272552435,-437.63129657108266,0.0,0.1809077446689777,0.1,0.0028471946716308594,0.055039405822753906,0.050511453,0.7320063,-244.36978688963873,-0.07726866539809253,-3.191372087650229,0.0,122,0.035294294357299805,0.9955272419240255,0.9955272419240255,26857,-313.9929991516097,0.0
278,1.33797025680542,-235.68545261723037,35.910023703163894,-190.81397767559082,-290.72173298671237,0.0,0.1679117835274874,0.1,0.031017780303955078,0.0522158145904541,0.04989769,1.1133125,-243.5013534623979,-0.07789063335978501,-2.6033667017874778,0.0,104,0.013294458389282227,0.9943342606826003,0.9943342606826003,26961,-303.52660012259486,0.0
279,1.3108859062194824,-220.05045642740575,34.386582459212825,-169.84360887336575,-262.70700484314517,0.0,0.16221315311279255,0.1,0.0029115676879882812,0.04899477958679199,0.049954243,1.1705852,-241.1562637588987,-0.07464768589067121,-2.408740328551586,0.0,102,0.013518333435058594,0.9942247624560233,0.9942247624560233,27063,-322.698245595419,0.0
280,1.3383839130401611,-255.51105244497123,38.86738817942377,-200.82971660809085,-304.22409908832356,0.0,0.1659229322115417,0.1,0.0025649070739746094,0.050742149353027344,0.0487888,1.5159353,-242.59174262750594,-0.08367297457232889,-2.876428495823868,0.0,106,0.01379537582397461,0.9947014156519519,0.9947014156519519,27169,-317.34399183460505,0.0
281,1.4292106628417969,-247.9477765416539,64.79021673422301,-186.086110258935,-352.35981696972465,0.0,0.16862100905283053,0.1,0.002590179443359375,0.05000138282775879,0.049395777,0.6719027,-243.12734601892075,-0.08236667381729784,-2.7677213696437155,0.0,109,0.016560077667236328,0.9950849498914831,0.9950849498914831,27278,-306.18106346062353,0.0
282,1.394012212753296,-233.59152052964808,21.76357958389958,-203.81634054661956,-260.3464372251732,0.0,0.1828988407891942,0.1,0.003598928451538086,0.05024385452270508,0.04989906,1.1735988,-242.1737634699935,-0.07226585523695318,-2.579294715789085,0.0,109,0.013549566268920898,0.9942078135631968,0.9942078135631968,27387,-321.66296396902004,0.0
283,1.378037452697754,-215.23866506781184,36.90339860251811,-153.73825587750588,-248.5484314755191,0.0,0.1649942024059154,0.1,0.002587556838989258,0.050630807876586914,0.049726672,1.0277836,-239.48025362977535,-0.07490097667829673,-2.3399236921125506,0.0,104,0.013436317443847656,0.9942256571645032,0.9942256571645032,27491,-320.5400926166795,0.0
284,1.355398178100586,-213.96832370755314,22.62229628310005,-176.42042022506857,-237.04089635427445,0.0,0.170241963914311,0.1,0.0026273727416992188,0.05271172523498535,0.049878407,1.242974,-236.92906063755314,-0.07447164125393232,-2.317800920539289,0.0,102,0.013726472854614258,0.9938654624764135,0.9938654624764135,27593,-327.78603497109066,0.0
285,1.3150553703308105,-213.4328549888989,10.803834987675042,-195.17901087572193,-221.95153788367838,0.0,0.15673651967932845,0.1,0.0024454593658447266,0.04816126823425293,0.049011767,1.6686481,-234.5794400726877,-0.07894082511884422,-2.3044033008642004,0.0,98,0.0026671886444091797,0.99419445592889,0.99419445592889,27691,-334.3713632277127,0.0
286,1.3545775413513184,-278.34974327139514,41.878316925049525,-237.5887704098478,-347.8925709647935,0.0,0.19556962182359977,0.1,0.007054328918457031,0.05305004119873047,0.05038106,1.0084603,-238.95647039255846,-0.07980343904035724,-3.1744263318040904,0.0,121,0.015144824981689453,0.9950702943519671,0.9950702943519671,27812,-330.72049003892465,0.0
287,1.3661057949066162,-221.78334670578238,38.01579549685313,-176.45097543174825,-279.197865789896,0.0,0.16900324638691716,0.1,0.0025832653045654297,0.04952836036682129,0.05040276,1.115152,-237.23915802388086,-0.07213495081629781,-2.4176646883634136,0.0,109,0.013406515121459961,0.994174025754696,0.994174025754696,27921,-316.42081155523266,0.0
288,1.3505089282989502,-240.13112856477028,19.778941752079394,-219.49764145703506,-270.0645762516053,0.0,0.19403851473362693,0.1,0.0026242733001708984,0.05428743362426758,0.049677763,0.7482423,-237.5283550779698,-0.07544058056906319,-2.660479673470181,0.0,109,0.014421701431274414,0.9941906446597354,0.9941906446597354,28030,-302.75511490192673,0.0
289,1.3324518203735352,-199.46755662276706,38.50470108303637,-134.36990764048574,-232.67024060826162,25.0,0.16888320659582784,0.1,0.05038857460021973,0.07650947570800781,0.05030642,0.84389573,-233.7222752324495,-0.06592293575825871,-2.120756235523443,25.0,111,0.014005899429321289,0.9936617960245254,0.9936617960245254,28141,-297.78906482709846,0.0
290,1.3361701965332031,-232.77885075804704,50.9666901192114,-175.34157485176806,-307.4108883511493,0.0,0.1700159890210649,0.1,0.027709484100341797,0.05031585693359375,0.050041128,0.8544065,-233.62793278500925,-0.07731621321529836,-2.5641003749661975,0.0,108,0.014921903610229492,0.9942393116467079,0.9942393116467079,28249,-286.65426777373585,0.0
291,1.3564951419830322,-228.8176656990206,26.249048701835115,-203.0636873190014,-262.18011477633746,0.0,0.16967352482465686,0.1,0.04416465759277344,0.04955768585205078,0.049090784,1.5322506,-233.14690607641037,-0.07308912782059729,-2.526947347937787,0.0,104,0.016400575637817383,0.9940282773853065,0.9940282773853065,28353,-290.4512227709183,0.0
292,1.4314789772033691,-254.4429457723205,28.83176833973671,-221.39652735309602,-299.66638711591054,0.0,0.18233294783589576,0.1,0.0026464462280273438,0.06471133232116699,0.04926489,0.8713537,-235.2765100460014,-0.07924890464437685,-2.8488055586783383,0.0,109,0.015688657760620117,0.9946965700220125,0.9946965700220125,28462,-281.985114807919,0.0
293,1.3364465236663818,-255.20125138852615,26.55439824529393,-213.8256596248888,-283.4523813623272,0.0,0.16669235447959024,0.1,0.0041806697845458984,0.05012845993041992,0.050688386,1.0538502,-237.26898418025388,-0.0887862035671598,-2.8756142160508644,0.0,101,0.01210165023803711,0.994609126189419,0.994609126189419,28563,-292.5330962458138,0.0
294,1.3410060405731201,-219.8706613612334,45.09514482692375,-170.93436996931155,-282.6113083958943,0.0,0.18007744777932796,0.1,0.033641815185546875,0.0509188175201416,0.04993675,0.8941682,-235.52915189835184,-0.07151785944877735,-2.393783344566871,0.0,112,0.01439809799194336,0.9941976221135329,0.9941976221135329,28675,-297.2003104223828,0.0
295,1.345837116241455,-238.31866702175978,13.549951241030229,-218.34425953097485,-256.58445811978095,0.0,0.1706007552391752,0.1,0.0025794506072998047,0.050608158111572266,0.050010167,1.1776849,-235.80810341069264,-0.07328921602633859,-2.6465731054286428,0.0,110,0.006471872329711914,0.9941808888723985,0.9941808888723985,28785,-289.95627171908234,0.0
296,1.359802484512329,-262.99105102513477,36.61109716505045,-222.61301123925074,-317.5812869107899,0.0,0.19028402420455132,0.1,0.002574443817138672,0.050559282302856445,0.049114548,0.9811858,-238.52639817213685,-0.07661849818692841,-2.977333644732635,0.0,118,0.015533447265625,0.9947631293020398,0.9947631293020398,28903,-293.3647194578399,0.0
297,1.3196310997009277,-231.45837743959356,16.31630823453446,-203.33341343946094,-242.95159826660588,0.0,0.15452785113503856,0.1,0.002561330795288086,0.05153369903564453,0.04977042,2.3209746,-237.81959609888253,-0.08024049866528776,-2.552651470672484,0.0,96,0.003016233444213867,0.9940677382082084,0.9940677382082084,28999,-289.6968911241427,0.0
298,1.3404250144958496,-240.4492272086417,28.817955735113866,-192.30914507960506,-265.3670744729262,0.0,0.152790320729231,0.1,0.0025267601013183594,0.0483248233795166,0.049316112,1.2072115,-238.08255920985846,-0.08644333578227006,-2.663308876480856,0.0,96,0.0027856826782226562,0.9943362344426919,0.9943362344426919,29095,-295.7424448567953,0.0
299,1.3564093112945557,-252.9298375604367,16.417340142425996,-224.6164704158474,-264.28850305596023,0.0,0.16097280454497062,0.1,0.002679109573364258,0.053938865661621094,0.04993292,1.2316449,-239.5672870449163,-0.08295938948831161,-2.8382411725397074,0.0,104,0.014601707458496094,0.9945512590883177,0.9945512590883177,29199,-306.5336069522607,0.0
300,1.3455097675323486,-258.8688637253527,18.057385896054566,-237.77827207863947,-277.37340364114795,0.0,0.16815326114423848,0.1,0.002841472625732422,0.04988408088684082,0.05028101,1.4205872,-241.49744471295992,-0.08964566736555904,-2.9273138229918874,0.0,100,0.0029036998748779297,0.9947171787582219,0.9947171787582219,29299,-300.7610696355143,0.0
301,1.3340377807617188,-220.5076510107267,41.09877424139743,-186.77090904180002,-289.80532866498726,0.0,0.1741563971807724,0.1,0.0053806304931640625,0.05071139335632324,0.049661163,0.7940219,-239.3984653427366,-0.07619753705335215,-2.4142770324797365,0.0,104,0.01331472396850586,0.9940311837503579,0.9940311837503579,29403,-315.85287110140985,0.0
302,1.3663055896759033,-230.75957806093524,42.2001834332163,-187.53659936230238,-290.7410340765076,0.0,0.17889738128728647,0.1,0.002801179885864258,0.052420854568481445,0.05020649,0.8490263,-238.53457661455647,-0.06897301861328695,-2.5418003291811813,0.0,125,0.004439353942871094,0.9943345464030664,0.9943345464030664,29528,-315.1981502032611,0.0
303,1.3465230464935303,-215.23706501736484,35.328899419488046,-172.83220583949833,-264.2010696116307,0.0,0.1710290323046854,0.1,0.002590179443359375,0.05648303031921387,0.04974532,0.9585651,-236.2048254548373,-0.07310736256470364,-2.3486937432641724,0.0,102,0.013293266296386719,0.9938948619638881,0.9938948619638881,29630,-316.52573694798383,0.0
304,1.354140281677246,-199.83894045299152,27.51744271904186,-155.80968243744422,-231.68618842906096,0.0,0.17246957598450352,0.1,0.002669811248779297,0.058615684509277344,0.05013973,1.2963055,-232.56823695465272,-0.06785454430722167,-2.144366656700883,0.0,107,0.013670921325683594,0.9937003100854866,0.9937003100854866,29737,-299.81564342391795,0.0
305,1.3644435405731201,-232.7213725021072,21.810862444224846,-204.6446062827591,-259.6966036907668,0.0,0.17697602960837336,0.1,0.03573727607727051,0.05190253257751465,0.049942266,0.88369185,-232.58355050939815,-0.07327254239094738,-2.5748455555168954,0.0,115,0.012467622756958008,0.9941834585098808,0.9941834585098808,29852,-296.96442416617566,0.0
306,1.3688976764678955,-260.85339866616346,14.999397110624592,-238.9168907724639,-280.1732162421874,0.0,0.18164678888871186,0.1,0.04905056953430176,0.33852362632751465,0.04961427,1.1318617,-235.4105353250747,-0.07803981487262317,-2.9446516278117993,0.0,115,0.013497114181518555,0.9946580966435691,0.9946580966435691,29967,-289.7293007727607,0.0
307,1.342036247253418,-233.53960930672108,16.45776809046381,-213.37247246047102,-249.93975726834705,0.0,0.16089112517476375,0.1,0.03324413299560547,0.12193441390991211,0.04917984,1.3666846,-235.22344272323934,-0.08014228664997415,-2.584109585153262,0.0,97,0.00296783447265625,0.9941106209319363,0.9941106209319363,30064,-304.45505305716364,0.0
308,1.3687772750854492,-219.09240822599537,37.06442164608918,-160.12838036450432,-261.5610322281142,0.0,0.17671272477927696,0.1,0.0031075477600097656,0.049588918685913086,0.049885504,1.1881642,-233.61033927351497,-0.0695449922060658,-2.378748310079871,0.0,113,0.012812376022338867,0.9940205674276538,0.9940205674276538,30177,-294.3301907543303,0.0
309,1.3831472396850586,-210.63124510639454,34.5791198408132,-181.28744328158726,-269.03104418966467,0.0,0.17802125894489515,0.1,0.002620220184326172,0.050368547439575195,0.04908287,1.1680198,-231.31242985680294,-0.06713514095485353,-2.2739001106809242,0.0,110,0.015733957290649414,0.9937732469990779,0.9937732469990779,30287,-301.8384687731853,0.0
310,1.3671116828918457,-228.18349095382183,27.363449048950752,-196.44013833433053,-269.73052794533896,0.0,0.16593962486413658,0.1,0.0026481151580810547,0.050595760345458984,0.04920256,1.1722491,-230.99953596650482,-0.07750716806545088,-2.4893552202948905,0.0,104,0.013656377792358398,0.9943287876676156,0.9943287876676156,30391,-293.8448678044576,0.0
311,1.3645076751708984,-235.72875513325783,29.6344849416345,-215.3991245312637,-286.5782430437435,0.0,0.17833237454585477,0.1,0.05662941932678223,0.10689544677734375,0.049583443,1.1526476,-231.47245788318014,-0.07699085416891668,-2.6081308776523775,0.0,106,0.015494108200073242,0.9943691131162181,0.9943691131162181,30497,-299.30718157307,0.0
312,1.385160207748413,-215.64544201448376,25.821747719096788,-175.1207932609679,-245.96306825361017,0.0,0.17892677829403897,0.1,0.0026395320892333984,0.051058292388916016,0.050291546,2.3291972,-229.8897562963105,-0.06800833857215169,-2.3431893935172563,0.0,108,0.010953664779663086,0.9936748494264782,0.9936748494264782,30605,-304.6689489032478,0.0
313,1.3966484069824219,-203.59195344479713,42.92279619679006,-145.52200354841327,-257.3856950227538,0.0,0.1744103966337545,0.1,0.002549409866333008,0.06896543502807617,0.049464922,1.1336429,-227.25997601115915,-0.06767168831629562,-2.1773331809847103,0.0,109,0.011424779891967773,0.9937970041177573,0.9937970041177573,30714,-311.8360097760578,0.0
314,1.4449856281280518,-252.86364618299348,42.40351372227901,-202.98897692665457,-316.76640482446334,0.0,0.18108036186072402,0.1,0.002618551254272461,0.04881787300109863,0.050297625,0.77853477,-229.8203430283426,-0.08389956143808762,-2.828606253241294,0.0,103,0.009052038192749023,0.994725062045764,0.994725062045764,30817,-307.4746707873871,0.0
315,1.4249560832977295,-208.6819711565946,28.049308446554743,-163.99946714444863,-241.4969324697734,0.0,0.1724231641799489,0.1,0.01905679702758789,0.047455549240112305,0.04913879,1.1636288,-227.7065058411678,-0.06801522857234679,-2.2487131115283603,0.0,107,0.013670921325683594,0.9937224166194464,0.9937224166194464,30924,-297.5835162160111,0.0
316,1.5712857246398926,-247.4524305716261,22.883292369081726,-222.51071272436974,-283.22268532475385,0.0,0.1706523632798093,0.1,0.002542257308959961,0.04845571517944336,0.04988087,1.3933715,-229.68109831421364,-0.07341176005657095,-2.771068213070639,0.0,118,0.013525962829589844,0.9945745813108801,0.9945745813108801,31042,-301.3636847925546,0.0
317,1.4334063529968262,-232.14687631909217,41.852889863879824,-195.84348918723077,-299.1816775525509,0.0,0.18534610635879656,0.1,0.005766868591308594,0.047635555267333984,0.050258484,0.8550936,-229.92767611470148,-0.08011706092739884,-2.5562854353532596,0.0,104,0.012287616729736328,0.9945145034602906,0.9945145034602906,31146,-306.3182183614489,0.0
318,1.3557162284851074,-231.33559523243537,9.259738520395782,-218.08727050089033,-242.64291295439114,0.0,0.17323699846272259,0.1,0.0495448112487793,0.8369290828704834,0.049652483,1.3049548,-230.06846802647487,-0.0740334921249082,-2.545111610073243,0.0,107,0.022507905960083008,0.9941074545776362,0.9941074545776362,31253,-300.17903824592184,0.0
319,1.411025047302246,-217.78976348316337,24.19828095763074,-179.68094184908608,-245.11894754199557,0.0,0.17438732938105728,0.1,0.023123979568481445,0.050991058349609375,0.04986996,1.0205761,-228.84059757214374,-0.07353275731248095,-2.369380358924933,0.0,102,0.011013269424438477,0.9939019564245672,0.9939019564245672,31355,-300.10016620074924,0.0
320,1.3936560153961182,-208.14099705250698,39.24589901455283,-174.7501138434581,-272.70937537298295,0.0,0.16726510632581795,0.1,0.0026013851165771484,0.04927206039428711,0.049953848,0.87970114,-226.77063752018006,-0.07533380085030492,-2.2484151467319933,0.0,98,0.0028018951416015625,0.9940151240410963,0.9940151240410963,31453,-313.89691453182684,0.0
321,1.3952064514160156,-225.4969545405179,31.744978484008193,-176.97017901719272,-265.32937506772294,0.0,0.18468837753443618,0.1,0.0025184154510498047,0.049088478088378906,0.049783062,0.99815184,-226.64326922221386,-0.07252877907389131,-2.457183583076939,0.0,109,0.013695955276489258,0.994194885705531,0.994194885705531,31562,-300.8008820061043,0.0
322,1.3855469226837158,-250.20572788596337,23.48845423643519,-220.54206478817102,-286.3296258755387,0.0,0.16687267518790372,0.1,0.004554271697998047,0.04929161071777344,0.049588285,1.4599336,-228.9995150885888,-0.085688471801724,-2.7993236936526413,0.0,98,0.0031173229217529297,0.9945703636319938,0.9945703636319938,31660,-306.6488663000101,0.0
323,1.444040060043335,-200.5783563357154,39.82923741615493,-158.8220285973656,-265.9860751393415,0.0,0.18191060029521197,0.1,0.0025720596313476562,0.049655914306640625,0.050676882,0.7668276,-226.15739921330146,-0.06941894151436281,-2.139336525461011,0.0,106,0.011176824569702148,0.9938037705512891,0.9938037705512891,31766,-304.9364659257564,0.0
324,1.386716365814209,-245.889970014355,18.423784955119366,-232.19656553957282,-277.52622471567497,0.0,0.15615999775764006,0.1,0.0026667118072509766,0.05014300346374512,0.05030251,0.99865323,-228.13065629340682,-0.08948816667324794,-2.730852105589815,0.0,94,0.003022432327270508,0.9945530715246355,0.9945530715246355,31860,-303.5476715936777,0.0
325,1.4615743160247803,-232.93595754729975,25.394678884638303,-200.65485212656284,-264.8770433115444,0.0,0.1854940746247412,0.1,0.002538442611694336,0.04925704002380371,0.049313173,1.1366343,-228.6111864187961,-0.07426107729872863,-2.568204166018539,0.0,106,0.013930797576904297,0.9942958430610354,0.9942958430610354,31966,-306.8736339546169,0.0
326,1.423276424407959,-263.295362930078,38.37217577464713,-210.33919854999843,-316.04349904390386,0.0,0.1894063351752021,0.1,0.051729440689086914,0.07136750221252441,0.049369793,0.9754035,-232.0796040699243,-0.07695871234217275,-2.975201777814029,0.0,120,0.013373851776123047,0.9948909559535514,0.9948909559535514,32086,-304.9712916167776,0.0
327,1.4124140739440918,-259.6837724636976,25.98440482108394,-234.1827301559711,-299.00504346410213,0.0,0.15896856593409875,0.1,0.002802133560180664,0.05110788345336914,0.050388854,1.5255202,-234.84002090930164,-0.08567793145910901,-2.913120794515663,0.0,103,0.011981487274169922,0.9948965020952286,0.9948965020952286,32189,-303.7223976078255,0.0
328,1.4397454261779785,-224.17960422718983,31.04881642666842,-178.9458125079615,-254.72708553953944,0.0,0.173814582744021,0.1,0.002651214599609375,0.05260586738586426,0.04992564,1.3298529,-233.77397924109047,-0.0727151728051538,-2.457139632246615,0.0,113,0.015558004379272461,0.9942966017540364,0.9942966017540364,32302,-317.969806324157,0.0
329,1.4768390655517578,-257.9560209760226,21.424427754226237,-234.78084954804467,-292.5748704319307,0.0,0.17111228740483075,0.1,0.0025491714477539062,0.05434083938598633,0.049707323,1.5506426,-236.1921834145837,-0.0841168985330516,-2.89691631902059,0.0,107,0.00822758674621582,0.9947291841888112,0.9947291841888112,32409,-314.53419915706615,0.0
330,1.4302570819854736,-217.69835463957241,35.55216638179238,-181.33666175543445,-267.919267117392,0.0,0.17520753758580546,0.1,0.002526998519897461,0.052559614181518555,0.049800597,1.102813,-234.34280053708255,-0.07301642975564882,-2.364165985530573,0.0,104,0.006829261779785156,0.9939877809835912,0.9939877809835912,32513,-305.911936616794,0.0
331,1.4105877876281738,-219.41922261174403,25.218172285868068,-176.42632118746553,-240.05048137659054,0.0,0.15371650361580871,0.1,0.0054132938385009766,0.047626495361328125,0.049560174,1.3195462,-232.8504427445487,-0.07595060905720259,-2.389225236790217,0.0,97,0.0027680397033691406,0.9939374445917483,0.9939374445917483,32610,-303.59552881651825,0.0
332,1.4817585945129395,-257.1627696224902,33.04136769214404,-209.825390653533,-303.2388138471892,0.0,0.20180257775456847,0.1,0.0024030208587646484,0.049353837966918945,0.049778085,0.76946765,-235.28167543234287,-0.07642057427025707,-2.8960302218776834,0.0,115,0.013353586196899414,0.9945224448659674,0.9945224448659674,32725,-313.6062009589993,0.0
333,1.459566593170166,-233.69472679059163,35.687601310653456,-180.95151428122352,-279.45210152399306,0.0,0.1933946552714813,0.1,0.0025267601013183594,0.05501890182495117,0.04965079,0.8586619,-235.12298056816775,-0.06846002517797217,-2.593525479447287,0.0,119,0.013275861740112305,0.9942243218612747,0.9942243218612747,32844,-309.1260688403764,0.0
334,1.4235484600067139,-244.15522018398647,43.063298169643986,-178.8217072814756,-299.8342474023716,0.0,0.16075039757813023,0.1,0.002404928207397461,0.048449039459228516,0.05003847,2.2037413,-236.02620452974963,-0.07856269212397826,-2.724491975767253,0.0,108,0.011834144592285156,0.9945399445657581,0.9945399445657581,32952,-308.3169808387665,0.0
335,1.4256243705749512,-220.56052873153308,21.443791123577878,-186.84643322187932,-242.1736751493468,0.0,0.15051609502285346,0.1,0.00240325927734375,0.051877498626708984,0.050281074,2.8620226,-234.479636949928,-0.07486116710592505,-2.4128234601250482,0.0,103,0.012152671813964844,0.9940801397654293,0.9940801397654293,33055,-302.0816224791358,0.0
336,1.3954787254333496,-194.1144701656959,23.166506405720863,-163.94852166622115,-228.8824091996659,0.0,0.15663034883402813,0.1,0.0036792755126953125,0.05185866355895996,0.049481407,1.1450295,-230.44312027150477,-0.06910747123672327,-2.0473042566463735,0.0,102,0.013805866241455078,0.9936065456812642,0.9936065456812642,33157,-283.26373812453454,0.0
337,1.4203319549560547,-248.0817640611091,59.61786905377892,-178.32768732337232,-331.9668728031345,0.0,0.19320406519485092,0.1,0.0028586387634277344,0.05597877502441406,0.049498837,0.85655236,-232.2069846504652,-0.06877807136464863,-2.7752083718405425,0.0,126,0.007227182388305664,0.994663843919822,0.994663843919822,33283,-284.16254804817805,0.0
338,1.428095817565918,-238.1979888445578,23.77832155598181,-200.36634782273603,-261.3654684130613,0.0,0.17421750318390505,0.1,0.0026123523712158203,0.04985451698303223,0.049716346,0.9858991,-232.80608506987446,-0.08225411142028069,-2.6535087690142762,0.0,104,0.012066841125488281,0.9944533706451076,0.9944533706451076,33387,-282.9968228947526,0.0
339,1.418604850769043,-214.75005867361688,10.394497946709023,-199.24404992907836,-224.55694576632817,0.0,0.1644843087244273,0.1,0.004378795623779297,0.054369449615478516,0.050602566,2.5956388,-231.0004824302487,-0.07252711753409644,-2.3400991860754847,0.0,100,0.0027551651000976562,0.9937014625590691,0.9937014625590691,33487,-286.35607191577344,0.0
340,1.390864610671997,-234.65277982877546,25.978375693447287,-203.09364914875286,-275.1190000374704,0.0,0.18686489963275787,0.1,0.002558469772338867,0.051407575607299805,0.0487165,0.7939506,-231.36571217010138,-0.07569065262386243,-2.5988795945464664,0.0,108,0.013763666152954102,0.9943343702024005,0.9943343702024005,33595,-295.26320418913184,0.0
341,1.4041836261749268,-231.90880865548672,43.072614315587984,-172.6480004533687,-276.38373826431143,0.0,0.1695634187630809,0.1,0.05479168891906738,0.1252727508544922,0.049468745,1.1601925,-231.42002181863992,-0.07919714125530325,-2.5560602022384886,0.0,103,0.012006521224975586,0.9944396862327686,0.9944396862327686,33698,-287.61998162691253,0.0
342,1.418426513671875,-233.82908889040405,57.55957574206854,-170.7662725263937,-327.5485468266429,0.0,0.19091627470423148,0.1,0.0035953521728515625,0.05176234245300293,0.049452964,0.97923326,-231.66092852581633,-0.07103184754569397,-2.592523095025932,0.0,118,0.01365971565246582,0.9943690212525611,0.9943690212525611,33816,-285.9017422343295,0.0
343,1.426830768585205,-226.31550651853155,18.932765899826073,-195.15505551639563,-243.41760427601886,0.0,0.1642855366876204,0.1,0.0028409957885742188,0.05155634880065918,0.04946942,1.5123789,-231.12638632508785,-0.07261762730210412,-2.4798345286877437,0.0,112,0.014835119247436523,0.9941576579426653,0.9941576579426653,33928,-281.3064707589329,0.0
