iteration,time_sampling,stoc_pol_mean,stoc_pol_std,stoc_pol_max,stoc_pol_min,rollout_success,alpha,delta,time_vpg,time_npg,kl_dist,surr_improvement,running_score,rwd_sparse,rwd_dense,success_percentage,num_samples,time_VF,VF_error_before,VF_error_after,env_samples,eval_score,eval_success
0,1.176485300064087,-11.274211012781999,5.483965549748663,-4.994217752965093,-17.25067830829494,0.0,0.09704876859207541,0.1,0.04000067710876465,0.0536503791809082,0.25276828,1.3280625,-11.274211012781999,0.11276094910754073,1.1021920741723337,0.0,96,0.00446319580078125,0.992571174538938,0.992571174538938,96,36.445449664652976,0.0
1,1.0678727626800537,-9.11825926389621,4.980834304585146,-2.9529343602362514,-15.722629272562118,0.0,0.14677650627205902,0.1,0.0025467872619628906,0.0525360107421875,0.05097237,1.0838779,-11.05861583789342,0.2061970792547816,1.145052472177873,0.0,93,0.003117799758911133,0.9915743085838247,0.9915743085838247,189,32.9618363981218,0.0
2,1.063232660293579,-16.547446928097138,8.10604907763452,-10.809286699723444,-30.383060130018634,0.0,0.13614153719017258,0.1,0.0025742053985595703,0.051779747009277344,0.036182795,0.465518,-11.607498946913793,-0.14700853308815595,1.0054676671163447,0.0,89,0.003045797348022461,0.9947055759344994,0.9947055759344994,278,28.402709266378366,0.0
3,1.0669190883636475,-7.621685680840686,35.38163932200481,53.279801292601626,-34.19805322662153,0.0,0.15303120615001403,0.1,0.010447978973388672,0.05524134635925293,0.04806096,2.964797,-11.208917620306483,-0.18860690730218793,1.1835899608400915,0.0,98,0.003891468048095703,0.997299349831822,0.997299349831822,376,7.509997939310058,0.0
4,1.120786428451538,96.63400203859433,122.231226580949,246.18704190095247,-25.30497773594912,0.0,0.13865075053872608,0.1,0.0024225711822509766,0.05107307434082031,0.07381051,2.5013134,-0.4246256544164009,-0.017292963154127455,3.267121690979349,0.0,91,0.0029039382934570312,1.000011895139532,1.000011895139532,467,2.175009004316387,0.0
5,1.1046054363250732,-23.072080784070145,4.428713521185146,-17.53342196075443,-27.932746975309534,0.0,0.1435394621617632,0.1,0.0025529861450195312,0.0550234317779541,0.04544845,0.81232935,-2.6893711673817755,-0.38558276406480485,0.8818902549151216,0.0,93,0.0031099319458007812,0.995411358936679,0.995411358936679,560,5.155919391118821,0.0
6,1.117326021194458,-10.206808887282731,4.821595179080109,-6.964024337755111,-18.534698343952755,0.0,0.14071589231338247,0.1,0.002984285354614258,0.05921602249145508,0.04256475,0.6320031,-3.441114939371871,0.15160399731883634,1.1283455414952726,0.0,87,0.0033452510833740234,0.9922394571448644,0.9922394571448644,647,2.3919951466670413,0.0
7,1.104337453842163,-16.581410768726887,10.470651938845599,0.0965740512811486,-27.409353163414742,0.0,0.1389409263404185,0.1,0.0024261474609375,0.05036354064941406,0.056418296,0.7587597,-4.755144522307373,-0.19619805038656274,1.0051987059102356,0.0,86,0.0027997493743896484,0.9947062680014699,0.9947062680014699,733,4.3406583126649565,0.0
8,1.1139307022094727,-19.94857749848368,8.427200406570753,-7.994358624066598,-28.91585673980021,0.0,0.13659359350661823,0.1,0.0023584365844726562,0.05569911003112793,0.04311139,0.60771716,-6.274487819925004,-0.3264777913757584,0.9395425512664384,0.0,83,0.0029959678649902344,0.995112958247269,0.995112958247269,816,4.262754846534239,0.0
9,1.1046528816223145,-14.377357637304478,20.411237814024943,19.71997316537971,-31.107831585890032,0.0,0.13435229840570742,0.1,0.0025093555450439453,0.0519258975982666,0.052198555,1.5248338,-7.0847748016629515,-0.22578695045042005,1.051548211824913,0.0,93,0.0030798912048339844,0.9956960174773953,0.9956960174773953,909,4.252766327234352,0.0
10,1.1387965679168701,16.002251702488785,33.47013118331915,64.75880568331385,-26.71387498328176,0.0,0.15728499949429503,0.1,0.0025501251220703125,0.05045366287231445,0.04755454,3.2053185,-4.776072151247778,0.20186596135390503,1.6500927272027635,0.0,89,0.002732992172241211,0.9962693814972706,0.9962693814972706,998,-2.359598229830153,0.0
11,1.1509814262390137,-9.118708071317425,7.227006616289497,-0.5709831881436394,-19.891031835274198,0.0,0.149896174086588,0.1,0.002485513687133789,0.058577537536621094,0.045407906,0.7053614,-5.210335743254743,0.1692867009181147,1.1477034325291466,0.0,80,0.0032930374145507812,0.9921758877748241,0.9921758877748241,1078,1.4877269670373368,0.0
12,1.1483395099639893,47.12952504830724,116.9999480927366,249.32065712610438,-31.601158500859334,0.0,0.14690386112975612,0.1,0.002448558807373047,0.052234649658203125,0.050319687,9.243044,0.023650335901455044,-0.09124385200287352,2.278836362171503,0.0,89,0.002936124801635742,0.9996211445967133,0.9996211445967133,1167,31.145078694330525,0.0
13,1.1561708450317383,-16.866173809456605,8.671912213997478,-5.977312785419937,-30.14499022044368,0.0,0.14320357623887817,0.1,0.002410888671875,0.05725383758544922,0.04301081,0.5991645,-1.665332078634351,-0.17041180208356566,0.9970800831677535,0.0,81,0.0031540393829345703,0.9945106025163379,0.9945106025163379,1248,27.87108337054426,0.0
14,1.190204381942749,-9.00282043144859,22.402678464501253,29.522220171759383,-24.34975949578321,0.0,0.14948994314686917,0.1,0.0030205249786376953,0.053905487060546875,0.04764078,3.3701758,-2.3990809139157747,-0.05319094607511837,1.156738160702788,0.0,98,0.0034105777740478516,0.9951340124114328,0.9951340124114328,1346,37.292436320258105,0.0
15,1.148472547531128,0.6674615300472588,29.9507658115831,52.298992285194736,-19.51756674863645,0.0,0.11658390333573727,0.1,0.002537250518798828,0.05135154724121094,0.045937147,4.585653,-2.0924266695194715,0.030501702030355418,1.3460248634571932,0.0,76,0.0055921077728271484,0.9969621858155405,0.9969621858155405,1422,29.339018976185205,0.0
16,1.0854382514953613,-12.80234521812454,12.441149538038177,1.9332647827217135,-25.907526026269586,0.0,0.1416935183807888,0.1,0.0027790069580078125,0.052695512771606445,0.04151368,0.584708,-3.1634185243799786,-0.026950641176776785,1.0778237719056327,0.0,81,0.003363370895385742,0.9950209778514544,0.9950209778514544,1503,18.60990219757329,0.0
17,1.1171519756317139,72.22259066492792,114.45341451762322,266.1620015471484,-13.575332166095677,0.0,0.15099407931890493,0.1,0.0025908946990966797,0.05228757858276367,0.043392643,2.1208365,4.375182394550812,0.40016490559549533,2.767734700226362,0.0,96,0.0033330917358398438,1.0001321809307844,1.0001321809307844,1599,23.594620890160154,0.0
18,1.0656445026397705,-6.339156015792524,4.012075079392043,-3.4414204554430485,-13.232794971813846,0.0,0.14286713107117377,0.1,0.002533435821533203,0.052649497985839844,0.043158114,0.71313286,3.3037485535164786,0.30704124962281587,1.201350733974994,0.0,77,0.003178119659423828,0.9891400515530954,0.9891400515530954,1676,34.015180722657675,0.0
19,1.0754239559173584,-3.48077495367588,10.271316070531556,13.324411929741125,-13.765505867557593,0.0,0.13874105880372486,0.1,0.002969026565551758,0.052675724029541016,0.042830992,2.757071,2.6252962027972426,0.19930216404479412,1.2625896294992653,0.0,82,0.0029070377349853516,0.9913243663618351,0.9913243663618351,1758,31.715347019871853,0.0
20,1.092149019241333,46.04841229144199,83.90593341048547,191.31047757340787,-4.541275797198673,0.0,0.15387716696932724,0.1,0.0026094913482666016,0.05244183540344238,0.035720684,1.9560106,6.9676078116617175,0.5339219338496302,2.242107559701722,0.0,82,0.0034737586975097656,1.000076151597995,1.000076151597995,1840,29.216943691735903,0.0
21,1.045792579650879,42.07664003600287,110.93659989976989,233.77080278496626,-34.14206680284204,0.0,0.1584342680024257,0.1,0.002558469772338867,0.05316734313964844,0.043685064,1.7845834,10.478511034095833,-0.024573920696090327,2.17569931265,0.0,91,0.004393577575683594,0.9995081644319518,0.9995081644319518,1931,23.620525875530102,0.0
22,1.0424978733062744,-23.085062607036413,2.266730832750581,-20.426881773033806,-26.593974688475893,0.0,0.141450193499613,0.1,0.0025758743286132812,0.052144527435302734,0.046714753,0.77503043,7.122153669982609,-0.5011460159031291,0.8801816569702301,0.0,81,0.002979755401611328,0.9953312960375558,0.9953312960375558,2012,20.562767090170084,0.0
23,1.1093828678131104,-16.250190566930918,8.519481121400435,-3.206272866286638,-25.063849491745877,0.0,0.14595165136686375,0.1,0.0025033950805664062,0.05157613754272461,0.046608496,0.65196264,4.784919246291256,-0.16829526477283008,1.0132648225050676,0.0,84,0.003207683563232422,0.9941058184547097,0.9941058184547097,2096,14.034126418377923,0.0
24,1.0662963390350342,6.456216368128782,27.22325258087541,50.57617093164923,-23.918497015942258,0.0,0.11675061458680384,0.1,0.003032207489013672,0.0520634651184082,0.05079965,7.28713,4.952048958475009,0.29732646311250566,1.4561910034926218,0.0,84,0.0034933090209960938,0.9974123921937695,0.9974123921937695,2180,24.35483150446127,0.0
25,1.0552036762237549,80.34218906199347,152.38123522837017,344.1419336235918,-15.259370702344311,25.0,0.14147584143656836,0.1,0.0026733875274658203,0.04900360107421875,0.03682732,1.4740176,12.491062968826856,0.3852676450749126,2.934156780419805,25.0,79,0.003095388412475586,1.0001917181886228,1.0001917181886228,2259,23.839184134524817,0.0
26,1.1163413524627686,-20.160047012751345,5.517099618788651,-14.068806463046169,-26.826796775653577,0.0,0.13970831462687516,0.1,0.00258636474609375,0.04995298385620117,0.060763214,0.63560635,9.225951970669037,-0.31597044267993235,0.9383955964883189,0.0,85,0.008105993270874023,0.9946664248832425,0.9946664248832425,2344,12.815709764745966,0.0
27,1.1258304119110107,16.9510733803981,19.639135584178472,42.31925629945663,-3.46936308085088,0.0,0.15485059363213752,0.1,0.002555370330810547,0.04999041557312012,0.04658906,2.0867863,9.998464111641944,0.5607267873900984,1.660644650400085,0.0,87,0.003922939300537109,0.9972300274321584,0.9972300274321584,2431,-0.97708686995454,0.0
28,1.1221952438354492,-1.544639420881843,19.737988271481377,31.82712948061628,-19.056217597716664,0.0,0.14387071450607222,0.1,0.002849102020263672,0.050429344177246094,0.04406637,2.6550918,8.844153758389565,0.1810509056932155,1.2998928724899392,0.0,82,0.003278970718383789,0.9937905075720099,0.9937905075720099,2513,1.3614751350686538,0.0
29,1.1526460647583008,-7.851784906762631,22.188546626990195,29.80684372323752,-26.404880672629528,0.0,0.143909560038973,0.1,0.0024607181549072266,0.050482749938964844,0.05373968,2.6130204,7.174559891874345,-0.14236663109509534,1.1786779976228754,0.0,79,0.005182743072509766,0.995055062502581,0.995055062502581,2592,24.11701833161871,0.0
30,1.1730103492736816,2.0657622173877748,38.7749882709864,67.98964519965725,-26.257359345639212,0.0,0.13490260602973236,0.1,0.007216215133666992,0.052451133728027344,0.05647712,20.375858,6.663680124425689,-0.11928935044006242,1.3793335732944443,0.0,77,0.005838632583618164,0.9964807984475021,0.9964807984475021,2669,32.320452294880845,0.0
31,1.169726848602295,-9.111367224691906,3.673618568030203,-3.6921662535782094,-13.774352844062667,0.0,0.1453160071913521,0.1,0.0024967193603515625,0.05036282539367676,0.048613477,0.7557001,5.0861753895139294,0.16291796902476852,1.1499422262222523,0.0,79,0.0031561851501464844,0.9910022932758688,0.9910022932758688,2748,8.027602771806578,0.0
32,1.1969261169433594,37.05932515296135,101.61909342351922,212.99523575287083,-26.343118298451206,0.0,0.15782379219067674,0.1,0.002580404281616211,0.05312705039978027,0.051496748,2.7188125,8.283490365858672,-0.10611217365794992,2.075526822979196,0.0,85,0.003509044647216797,0.9994720362940002,0.9994720362940002,2833,13.842923421159844,0.0
33,1.105299711227417,-9.148054103144933,10.8818614183398,0.0588196271174759,-27.68823964022153,0.0,0.16261002792405407,0.1,0.0032706260681152344,0.05326557159423828,0.056138143,0.6529834,6.540335918958311,0.2065407612066713,1.145269719250648,0.0,91,0.002858877182006836,0.9943207370205854,0.9943207370205854,2924,8.386564210549238,0.0
34,1.0794873237609863,85.773804122253,145.87471467286394,334.7804522588767,-26.855442972223123,25.0,0.1344154472571115,0.1,0.0026330947875976562,0.05353522300720215,0.0413626,3.5686316,14.46368273928778,0.25975002443912926,3.0445613529678197,25.0,88,0.0030241012573242188,1.000175217028585,1.000175217028585,3012,34.354602164921594,0.0
35,1.0787620544433594,71.76021923951642,139.05291455537395,312.60443119940135,-9.509636653712468,25.0,0.10541532093712931,0.1,0.0025217533111572266,0.05200362205505371,0.03370686,1.6126027,20.193336389310645,0.32201105254107465,2.762623743498451,25.0,88,0.002936840057373047,1.000128483944474,1.000128483944474,3100,38.755410580307746,0.0
36,1.0936665534973145,43.430246980643645,89.89290367640041,198.94891140031254,-14.190676976727246,0.0,0.14594888656746638,0.1,0.002476215362548828,0.049582481384277344,0.05635367,8.785687,22.517027448443947,0.30053848335994693,2.200140008482063,0.0,86,0.0031423568725585938,0.9996340027069784,0.9996340027069784,3186,30.25076438032381,0.0
37,1.098754644393921,1.2892772490038906,32.31655299843623,55.45187344924287,-25.120129835739082,0.0,0.1323444566879569,0.1,0.0025360584259033203,0.05138587951660156,0.04456167,3.0867052,20.394252428499943,0.09231895823670053,1.3567920856186975,0.0,89,0.005406618118286133,0.9970743973400127,0.9970743973400127,3275,47.60172699206498,0.0
38,1.0518813133239746,-6.911714645821229,20.820064901356453,28.835640902150494,-22.298963148649094,0.0,0.1527326022062837,0.1,0.002477407455444336,0.051043033599853516,0.058480747,2.3157246,17.663655721067826,-0.07016744242734549,1.197681981723652,0.0,85,0.0029883384704589844,0.9948773894214769,0.9948773894214769,3360,24.748364154305076,0.0
39,1.1005809307098389,49.11771438179796,114.25360147881366,246.20972837702246,-33.345004993169034,0.0,0.14311406685123138,0.1,0.002454519271850586,0.05883145332336426,0.052879483,2.552612,20.80906158714084,0.12396914710176243,2.3127103526039434,0.0,84,0.0029141902923583984,1.0001324600090893,1.0001324600090893,3444,21.57113614633585,0.0
40,1.1212332248687744,48.77949466029486,116.9524335707555,251.2363001031461,-24.450894941617634,0.0,0.1386465628681681,0.1,0.0025925636291503906,0.05123090744018555,0.052094854,14.892798,23.606104894456244,-0.061044959711615686,2.3091637187430885,0.0,83,0.003930091857910156,0.9998917156038715,0.9998917156038715,3527,5.844058616281806,0.0
41,1.1792242527008057,-2.064598879597707,18.81259233921179,28.092207991111792,-18.919305995512865,0.0,0.14771829315584092,0.1,0.0024721622467041016,0.05046272277832031,0.040385604,1.683902,21.03903451705085,0.14419725961411342,1.28875122800793,0.0,83,0.0031168460845947266,0.9944238534065966,0.9944238534065966,3610,5.041794098330717,0.0
42,1.1564881801605225,-19.144510391164378,4.596362998050105,-12.843871182752057,-24.64440759978982,0.0,0.16443424199841508,0.1,0.002439737319946289,0.055296897888183594,0.050477568,0.6433378,17.02068002622933,-0.2729469663924814,0.9574638920704287,0.0,88,0.0030739307403564453,0.994595506228286,0.994595506228286,3698,19.614335786374593,0.0
43,1.2042224407196045,-5.643910268475441,24.02239579789314,34.418276306235725,-26.097752437370957,0.0,0.1558030854259414,0.1,0.002822399139404297,0.06067371368408203,0.05856658,0.8494146,14.754220996758853,-0.024826178485320996,1.2195407226148558,0.0,87,0.003168344497680664,0.9957144261516375,0.9957144261516375,3785,7.270678357377046,0.0
44,1.194626808166504,-17.616106371257533,6.846331141645356,-7.994480164431741,-25.043701596610678,0.0,0.15807376009926827,0.1,0.0024275779724121094,0.05090785026550293,0.051893786,0.5720374,11.517188259957214,-0.2001792312715304,0.9850333765892654,0.0,84,0.004766225814819336,0.9946614419242925,0.9946614419242925,3869,16.59358021261418,0.0
45,1.178398609161377,-6.952483965281639,15.867678972785974,19.3966981834092,-22.49636078439831,0.0,0.15862634198990277,0.1,0.0024919509887695312,0.05011892318725586,0.053019024,3.0883076,9.670221037433329,0.050124458592921146,1.1893449961599232,0.0,80,0.0030775070190429688,0.9936901304092508,0.9936901304092508,3949,34.02313808116542,0.0
46,1.105846643447876,-15.83277322375999,7.730214788151209,-5.971030365079133,-24.44879786081954,0.0,0.15233178637164063,0.1,0.0026404857635498047,0.05398750305175781,0.047767896,0.6490093,7.119921611313998,-0.1276115876565712,1.0202515027646029,0.0,82,0.0031359195709228516,0.9942281782335187,0.9942281782335187,4031,29.913162515387523,0.0
47,1.0618655681610107,-13.355741967442903,9.62867519328713,-3.546540469933258,-24.64633520497836,0.0,0.1595840156155338,0.1,0.0030901432037353516,0.054627418518066406,0.050873667,0.66627866,5.0723552534383085,0.001422283793531376,1.0676183332262144,0.0,80,0.003383636474609375,0.9946347321164618,0.9946347321164618,4111,27.633778293853155,0.0
48,1.0803968906402588,-13.079271323003084,9.483324439331437,-0.2447057374640229,-22.752373841046754,0.0,0.1644646838215713,0.1,0.002576112747192383,0.05347919464111328,0.04818486,0.686496,3.2571925957941694,-0.05397258057828705,1.071777441525877,0.0,74,0.003107786178588867,0.993948237977154,0.993948237977154,4185,27.206115845645062,0.0
49,1.13340163230896,5.1503228679024025,20.47582194968826,39.585679163146004,-14.152340987815302,0.0,0.13347103936540103,0.1,0.002568960189819336,0.06251096725463867,0.036684554,3.271676,3.4465056230049926,0.34282210139578806,1.4305715907995504,0.0,90,0.0031731128692626953,0.9946559810537463,0.9946559810537463,4275,30.308119240733514,0.0
50,1.102853775024414,-6.470441407869409,4.793143569369996,-1.1711859014485286,-13.818210437002264,0.0,0.17299922369120282,0.1,0.002500772476196289,0.05173540115356445,0.047355272,0.6629854,2.4548109199175525,0.3126909840502249,1.1989034293518932,0.0,87,0.0030143260955810547,0.9897767200268628,0.9897767200268628,4362,26.433056626316585,0.0
51,1.1067590713500977,-18.75782225868532,9.100676383065881,-3.470722073818056,-26.787632915663053,0.0,0.158519625069599,0.1,0.002552032470703125,0.05073046684265137,0.048061278,0.7094659,0.3335476020572652,-0.2503044120104488,0.9620102361628062,0.0,82,0.002791166305541992,0.9954072600248047,0.9954072600248047,4444,30.359760981545644,0.0
52,1.1282565593719482,-20.112849599376986,10.84894161486366,-1.9591253139639568,-30.296502828927785,0.0,0.17550559087534576,0.1,0.0026617050170898438,0.05107545852661133,0.058243155,0.66453457,-1.7110921180861598,-0.27739600583957874,0.9374181108385805,0.0,88,0.003095865249633789,0.9950129250883141,0.9950129250883141,4532,23.893822569798317,0.0
53,1.1354107856750488,35.31903664205152,90.91950706097128,192.4678946252243,-23.101736696961954,0.0,0.15929386247490612,0.1,0.0025043487548828125,0.051532745361328125,0.047209222,5.511534,1.9919207579276086,0.05484019362856647,2.037965174700813,0.0,95,0.0028438568115234375,0.9992610008283834,0.9992610008283834,4627,0.3693241877471327,0.0
54,1.1348316669464111,5.7187947356875615,41.37349931572905,76.7914281583397,-25.31992096914429,0.0,0.1511774685292639,0.1,0.0024073123931884766,0.05107927322387695,0.043296754,1.6629816,2.364608155703604,0.003539493117811446,1.4453023143589752,0.0,85,0.0028984546661376953,0.9984889717617156,0.9984889717617156,4712,-0.06828657938263986,0.0
55,1.1423840522766113,-11.914506270539345,3.845145307599165,-7.541828355749622,-17.98344806824224,0.0,0.14702966869120343,0.1,0.0024619102478027344,0.06427192687988281,0.058977876,0.6962783,0.9366967130793091,0.04035611730260166,1.0973567046529509,0.0,79,0.0038924217224121094,0.9926106496715142,0.9926106496715142,4791,-1.353964869173356,0.0
56,1.1305291652679443,20.383697054752215,60.93613077419703,125.66293130726935,-21.663673448936603,0.0,0.1339479596493452,0.1,0.0025358200073242188,0.05137944221496582,0.051256303,16.096111,2.8813967472465998,0.02224056990877704,1.744127389319515,0.0,75,0.0030412673950195312,0.9984020140649441,0.9984020140649441,4866,-3.8312898553003953,0.0
57,1.1789884567260742,-7.2760634079381035,25.05817344804271,32.53173051524679,-34.39972694751534,0.0,0.15010064022265754,0.1,0.002535104751586914,0.05212736129760742,0.05036794,6.1537004,1.8656507317281297,0.016259850630705078,1.1869798340779871,0.0,93,0.003024578094482422,0.9960415692514064,0.9960415692514064,4959,-1.7752811379013131,0.0
58,1.169276475906372,-11.748693651869143,2.6364847429782703,-9.571919834158999,-16.258152634391507,0.0,0.1906603535567999,0.1,0.002887725830078125,0.05471014976501465,0.046251822,0.5101088,0.5042162933684022,0.05379473580910514,1.0988218011774356,0.0,83,0.0031557083129882812,0.9923362649886395,0.9923362649886395,5042,-2.5266835167539363,0.0
59,1.1723237037658691,-7.476743526942013,16.107896823367202,15.73927618315426,-28.84284069730788,0.0,0.16060334685050467,0.1,0.002500772476196289,0.04999899864196777,0.046234664,0.7972936,-0.2938796886626393,0.033904122570708475,1.18338238032,0.0,76,0.002765178680419922,0.9948248197789753,0.9948248197789753,5118,23.142485870714125,0.0
60,1.1877284049987793,-19.891280947276847,12.739051914859546,1.1621321835124991,-32.63207913880878,0.0,0.16436208579025674,0.1,0.0025916099548339844,0.05446648597717285,0.05039122,0.8976906,-2.2536198145240602,-0.2542080875054878,0.9403003500104813,0.0,92,0.0030362606048583984,0.9957189081790824,0.9957189081790824,5210,7.6559564186645135,0.0
61,1.1859853267669678,4.3236407768150755,21.609820790666728,41.697681043380655,-10.051000595146004,0.0,0.18282427271355764,0.1,0.002384662628173828,0.06200408935546875,0.045779947,2.340158,-1.5958937553901467,0.3448503994683333,1.4155338268445266,0.0,81,0.007839679718017578,0.9957146439098873,0.9957146439098873,5291,-0.9133206628036995,0.0
62,1.2062063217163086,74.92429161293944,89.52125998428704,192.1592857548004,-17.62800183587779,0.0,0.1385822322996345,0.1,0.0024559497833251953,0.06016969680786133,0.047028996,12.151757,6.056124781442813,0.38770607799951134,2.8260241729916182,0.0,80,0.004284381866455078,0.9999565768980901,0.9999565768980901,5371,-0.20679155282288986,0.0
63,1.2235443592071533,-17.435940483647656,10.751587831422922,-1.2623533125712658,-27.722296642483002,0.0,0.1828702419321864,0.1,0.0023877620697021484,0.051905155181884766,0.05161649,0.5896383,3.7069182549337665,-0.18541654787627393,0.9899379311511891,0.0,83,0.0027937889099121094,0.995379733631186,0.995379733631186,5454,-1.2655064151913107,0.0
64,1.2144742012023926,-17.74798740628102,11.31929468815129,-6.516216044257527,-31.199039903526067,0.0,0.16676020543630254,0.1,0.0023992061614990234,0.05135321617126465,0.051786028,0.50359035,1.5614276888122878,-0.23344722047523964,0.9801910817360033,0.0,77,0.003220796585083008,0.9952252474549232,0.9952252474549232,5531,-1.1743515150867807,0.0
65,1.1080987453460693,62.854024232802686,117.1799271872894,264.5797115285393,-20.23906621516767,0.0,0.1399190130655733,0.1,0.005175590515136719,0.05313372611999512,0.048271395,6.7294445,7.690687343211328,0.2766945807700861,2.587782063608513,0.0,79,0.002984762191772461,1.0000043986054232,1.0000043986054232,5610,-1.2937719234761897,0.0
66,1.1102969646453857,118.08931253314249,228.54303820486268,513.7503935841299,-22.414009418027064,25.0,0.17793299840524937,0.1,0.0025053024291992188,0.05653119087219238,0.05655215,1.4262943,18.730549862204445,0.20911025088530333,3.6887120030078377,25.0,80,0.0027618408203125,1.0001307988951378,1.0001307988951378,5690,-1.8992908096156782,0.0
67,1.130784034729004,-18.367357121021932,3.7547398353559007,-14.184488890905385,-23.88775805062511,0.0,0.1739818573306145,0.1,0.0028595924377441406,0.07091689109802246,0.049014732,0.47717398,15.020759163881806,-0.21058960099569812,0.9707556076267703,0.0,90,0.0032711029052734375,0.9943591437898386,0.9943591437898386,5780,-2.3837051818693067,0.0
68,1.1305391788482666,50.0774511429714,100.00496162482888,223.0849659531236,-14.8381465925903,0.0,0.14499460428256755,0.1,0.002521514892578125,0.055612802505493164,0.053655718,14.301848,18.526428361790764,0.35938394950286623,2.3264785329777644,0.0,82,0.002932310104370117,1.0000373046348823,1.0000373046348823,5862,-2.339979584628598,0.0
69,1.1320924758911133,-18.890611378717896,3.437392265042949,-13.33566154584403,-22.67741957311769,0.0,0.1663184907787407,0.1,0.0024709701538085938,0.04956865310668945,0.05541293,0.6566786,14.784724387739898,-0.33815850280997806,0.9625628320266161,0.0,74,0.005607128143310547,0.9947949148420979,0.9947949148420979,5936,-2.563176502115319,0.0
70,1.1237146854400635,-2.464797902723612,19.861878592421103,30.82092345067508,-20.55006699977069,0.0,0.1694101502463382,0.1,0.0024793148040771484,0.06625938415527344,0.051515713,1.6773688,13.059772158693548,0.14186959134214916,1.2819111732921409,0.0,82,0.0030214786529541016,0.9949391241175928,0.9949391241175928,6018,-2.897692862958652,0.0
71,1.1191082000732422,-15.628548672593428,2.15255537700885,-13.786672850159734,-19.1334613896008,0.0,0.1776192283965322,0.1,0.0028951168060302734,0.04940986633300781,0.048171006,0.73943347,10.19094007556485,-0.15989548959362965,1.022633818208575,0.0,77,0.0039031505584716797,0.9930213938517054,0.9930213938517054,6095,-2.5240024425497696,0.0
72,1.2114062309265137,88.80601396121125,176.65931374410243,394.7517480447252,-16.846593132122223,25.0,0.15100739391944015,0.1,0.002437591552734375,0.049932241439819336,0.04008287,1.7843215,18.052447464129493,0.16302849678770406,3.104976030596086,25.0,77,0.002785205841064453,1.0001175044976458,1.0001175044976458,6172,-2.5213874726564245,0.0
73,1.1141963005065918,-11.841589293235078,7.0082583252048005,-4.233119530808207,-21.982926903279704,0.0,0.1679514040939992,0.1,0.0024149417877197266,0.05027508735656738,0.060315114,0.6129008,15.063043788393037,0.07120212830594712,1.0949597882980584,0.0,82,0.0030775070190429688,0.9940800100983691,0.9940800100983691,6254,-1.8842525372504373,0.0
74,1.1414330005645752,23.264691661504685,60.311544855053334,127.1739460290251,-21.196279328809027,0.0,0.12468673817074599,0.1,0.0052165985107421875,0.055828094482421875,0.048161477,25.036247,15.883208575704202,0.16561262257149056,1.7975751056892015,0.0,83,0.0035276412963867188,0.9984739064831967,0.9984739064831967,6337,-1.7672072303803106,0.0
75,1.1742713451385498,-23.595797656999867,6.371343674828149,-12.581576061300321,-27.77984385210779,0.0,0.16701213902239606,0.1,0.0026023387908935547,0.057650089263916016,0.050397296,0.6340315,11.935307952433796,-0.5204643078503791,0.8721334787965566,0.0,81,0.002825498580932617,0.9950906008321583,0.9950906008321583,6418,-2.1106848756240812,0.0
76,1.1742167472839355,68.2203706750777,147.6634020816831,323.77395153793503,-26.475160765357362,25.0,0.15199041664492424,0.1,0.0025501251220703125,0.06270647048950195,0.06769833,5.4821014,17.563814224698188,0.048142611792758645,2.698120352188477,25.0,84,0.004926204681396484,1.0000212780473605,1.0000212780473605,6502,-2.8577576928303707,0.0
77,1.159250259399414,-2.7993062772032933,20.72596432618235,31.727988497366148,-21.77362888945255,0.0,0.16231661978680278,0.1,0.002480745315551758,0.058010101318359375,0.052987088,3.4937403,15.52750217450804,0.12428017893974314,1.277921624159975,0.0,78,0.0029058456420898438,0.9949462991883653,0.9949462991883653,6580,-1.66100481520525,0.0
78,1.1762135028839111,-8.081011764922033,7.043983913969706,-3.505307856094827,-20.26934206586062,0.0,0.1724736675467124,0.1,0.006296873092651367,0.060929298400878906,0.052482605,0.47455955,13.166650780565034,0.2139595411011057,1.1701846215192906,0.0,81,0.0028913021087646484,0.9918116041071448,0.9918116041071448,6661,-2.053457475620641,0.0
79,1.107274055480957,2.641700081374127,26.90908308213006,29.6867678023849,-24.485012727364722,0.0,0.15960915167029738,0.1,0.00480961799621582,0.06157112121582031,0.042713843,1.5131197,12.114155710645942,0.13721662209807198,1.3834507156357545,0.0,97,0.003270864486694336,0.9962071878615724,0.9962071878615724,6758,-2.2515161360835245,0.0
80,1.0932319164276123,-17.379263495049734,7.733974322477159,-5.82281067706103,-27.61829295454414,0.0,0.1626885128445509,0.1,0.0025756359100341797,0.0502781867980957,0.04788437,0.57745534,9.164813790076375,-0.21816198282104346,0.9886821626690215,0.0,81,0.0031621456146240234,0.9944573991250968,0.9944573991250968,6839,-2.4603324477828274,0.0
81,1.1113159656524658,35.80351523384367,89.8598506569726,191.33026114443686,-21.680427483816214,0.0,0.14097063373784924,0.1,0.002533435821533203,0.05981302261352539,0.057842173,8.628208,11.828683934453105,0.05649032313773374,2.05052501071161,0.0,83,0.0031011104583740234,0.9994826445505575,0.9994826445505575,6922,-2.360046392059179,0.0
82,1.098327398300171,51.48968600010895,116.53845781777602,253.01530134515198,-26.093335468052544,0.0,0.1534467994284628,0.1,0.0024831295013427734,0.0495152473449707,0.046171363,3.1487696,15.794784141018688,0.08750045197821639,2.3616164369736663,0.0,77,0.0030562877655029297,0.9999098282897637,0.9999098282897637,6999,-2.4759935220338534,0.0
83,1.063192367553711,-2.955226604220972,19.63214725420839,28.369418115244322,-24.798472269343456,0.0,0.1673529996435535,0.1,0.002871990203857422,0.056586503982543945,0.04525111,0.9732301,13.919783066494722,0.12223659445845586,1.274446479439229,0.0,81,0.0035943984985351562,0.9951378156465386,0.9951378156465386,7080,-2.4629645849178723,0.0
84,1.0927984714508057,-8.107009548912558,4.7937411089764295,-1.0738442706452878,-14.027723411475542,0.0,0.1578281974711056,0.1,0.0077817440032958984,0.05251145362854004,0.04739462,0.69364804,11.717103804953993,0.23130513571952788,1.1675049985523531,0.0,81,0.0033462047576904297,0.9915336309103939,0.9915336309103939,7161,-2.3043753358785235,0.0
85,1.0896735191345215,-13.31396636846763,10.136448197218161,2.09308678749837,-25.81798012153297,0.0,0.1775530660378083,0.1,0.002544879913330078,0.05173993110656738,0.048883107,0.5370199,9.21399678761183,-0.04331974890381402,1.0684682995711303,0.0,83,0.0029501914978027344,0.9950162929355377,0.9950162929355377,7244,-1.949243113377965,0.0
86,1.166285514831543,-22.477977698217614,2.9905242812234114,-17.64547684028316,-25.51109019771357,0.0,0.16332652458629635,0.1,0.002850055694580078,0.05173683166503906,0.04969498,0.56175816,6.044799339028884,-0.5180538445422855,0.8940334536948694,0.0,75,0.0028083324432373047,0.9949684357207977,0.9949684357207977,7319,-1.108237351994444,0.0
87,1.209672212600708,25.553312406564743,67.6356420796566,141.65868961549342,-27.38720671210963,0.0,0.13816417674649395,0.1,0.002538442611694336,0.05079960823059082,0.05815817,11.81532,7.9956506457824705,0.17394610903273433,1.843478621743629,0.0,82,0.0029315948486328125,0.9989602693662076,0.9989602693662076,7401,-1.7096079002350193,0.0
88,1.172637701034546,19.905844503347822,62.565645983563776,127.27636526113231,-23.629846557064077,0.0,0.1494460205941647,0.1,0.0025463104248046875,0.05258345603942871,0.053560816,10.222741,9.186670031539006,0.02347812083210908,1.7313305780638117,0.0,81,0.003014087677001953,0.9984100533185676,0.9984100533185676,7482,-2.0117669699233756,0.0
89,1.163344383239746,-13.655750199838543,5.281265843299703,-8.587773377073647,-22.375817337961152,0.0,0.1894644400497393,0.1,0.0025703907012939453,0.05195188522338867,0.043606956,0.40452117,6.902428008401252,-0.03405498451660432,1.0641238834619977,0.0,80,0.005338191986083984,0.9940365955309953,0.9940365955309953,7562,-1.804631633886409,0.0
90,1.2211170196533203,-4.223409732794304,15.866695449933227,19.991176261345338,-23.69002399621853,0.0,0.16726788454378386,0.1,0.0025300979614257812,0.05109405517578125,0.051748328,1.7893751,5.789844234281696,0.20259352462662358,1.2462833575670071,0.0,82,0.0029969215393066406,0.9941573759063336,0.9941573759063336,7644,-2.2985461791900574,0.0
91,1.1638071537017822,25.692306896492582,65.77837227227143,139.08784175281903,-20.320138561050236,0.0,0.1384561680466164,0.1,0.0024802684783935547,0.05399942398071289,0.052378412,16.304071,7.780090500502785,0.16669926741308683,1.8426625268899406,0.0,79,0.003071308135986328,0.9990541458288752,0.9990541458288752,7723,-0.8396376390547337,0.0
92,1.111863613128662,-15.26274232252458,7.834770020685732,-1.8446723837585015,-21.405354717876246,0.0,0.16427702726242466,0.1,0.0026428699493408203,0.05296206474304199,0.04887133,0.8697762,5.475807218200049,-0.13685397986557052,1.030123726165684,0.0,79,0.002946138381958008,0.9948419683555544,0.9948419683555544,7802,-1.9011638960754969,0.0
93,1.1075875759124756,-7.8659177726118825,10.679563901125807,2.255056916477753,-23.564211742406794,0.0,0.19540173670039637,0.1,0.002542257308959961,0.05776405334472656,0.04071452,0.5353297,4.141634719118856,0.2025304725927107,1.1738947471786454,0.0,80,0.0034530162811279297,0.993155650408167,0.993155650408167,7882,-1.9815508213138957,0.0
94,1.1214971542358398,-8.38655379329012,9.554311721922726,2.5869783524790027,-20.328627455211308,0.0,0.16744695838899493,0.1,0.0024976730346679688,0.0504155158996582,0.0500191,0.7237566,2.888815867877958,0.19437896003132252,1.1616949715166647,0.0,75,0.002679586410522461,0.9933498075681118,0.9933498075681118,7957,-2.19307449103974,0.0
95,1.0986602306365967,-19.565166204412694,3.4317586547051167,-14.58548475497646,-24.154161894258795,0.0,0.16267161727112106,0.1,0.0024976730346679688,0.0503544807434082,0.048256636,0.8401119,0.6434176606488928,-0.33608901400497365,0.9519982612468787,0.0,79,0.0030972957611083984,0.9946814451236851,0.9946814451236851,8036,-2.155555429332926,0.0
96,1.124800443649292,-6.7552306939323215,23.842367368801042,32.61580765178563,-26.522798721274413,0.0,0.1569568576679974,0.1,0.002516508102416992,0.052643775939941406,0.049118344,2.3887002,-0.0964471748092286,-0.028884689336052927,1.1981810251931089,0.0,82,0.002874612808227539,0.9960765897605043,0.9960765897605043,8118,-2.2406731086803275,0.0
97,1.1263668537139893,-2.7671646234192036,20.633314648783905,29.564417224633893,-27.347514208295614,0.0,0.14434203112591998,0.1,0.0024747848510742188,0.051427364349365234,0.049205408,5.9429574,-0.3635189196702261,0.14766849174997318,1.277468943601468,0.0,81,0.0033540725708007812,0.9950380866991722,0.9950380866991722,8199,-2.0946080676154497,0.0
98,1.1284945011138916,-15.812753493840743,6.638460058944609,-5.013908070169984,-22.693931280968172,0.0,0.16736533242231952,0.1,0.0024919509887695312,0.049927473068237305,0.051704396,0.74255437,-1.9084423770872778,-0.1281350876802163,1.018815196934866,0.0,79,0.0028867721557617188,0.9945378948938517,0.9945378948938517,8278,-2.4761886150483576,0.0
99,1.1193206310272217,104.30774183067328,139.01401696952829,345.0163899477326,20.397617169572936,25.0,0.1413062573046323,0.1,0.0029926300048828125,0.05752301216125488,0.041819062,2.8235092,8.713176043688778,0.7280525409855956,3.4049286869798214,25.0,74,0.003210783004760742,1.0002832444769694,1.0002832444769694,8352,-2.5482773448316487,0.0
100,1.1663978099822998,35.8049565894923,88.6458669758232,188.08096104894875,-25.481973453220412,0.0,0.19574885701544062,0.1,0.0024700164794921875,0.0516817569732666,0.04852833,1.613236,11.42235409826913,0.022255596140910605,2.0487652813746386,0.0,79,0.0036401748657226562,0.999551683001386,0.999551683001386,8431,-3.4699823337092077,0.0
101,1.1495449542999268,-16.749876860009216,7.462457150909166,-10.179552528347488,-28.811171761252606,0.0,0.1722670930403995,0.1,0.0025603771209716797,0.05038928985595703,0.053668723,0.48751956,8.605131002441295,-0.16842733193617113,1.0015208547930678,0.0,83,0.0028009414672851562,0.9947680606149832,0.9947680606149832,8514,-3.321618613290424,0.0
102,1.1479496955871582,46.1494223492886,102.59235219821647,223.3363035509742,-24.26575348742604,0.0,0.16998878911657095,0.1,0.002450704574584961,0.049842119216918945,0.051166378,3.0857637,12.359560137126026,0.21596777257591143,2.25154939365398,0.0,73,0.0028929710388183594,0.9999029168459638,0.9999029168459638,8587,-2.8034987917366387,0.0
103,1.1820728778839111,-19.079763847112588,8.318859050685063,-10.03385561795912,-29.166336538504662,0.0,0.1556223275210562,0.1,0.0028505325317382812,0.05131864547729492,0.04337542,0.48408234,9.215627738702164,-0.2981588816657146,0.9563592983008651,0.0,78,0.00266265869140625,0.9953859909224857,0.9953859909224857,8665,-2.7473702660056234,0.0
104,1.1455061435699463,-6.877508778961105,21.30618921007868,29.47209852494462,-24.52043974617101,0.0,0.14499137027449735,0.1,0.002808809280395508,0.0558929443359375,0.050823666,7.4852357,7.606314086935837,-0.09456420575761804,1.1973323216566827,0.0,78,0.0059893131256103516,0.9950361650604971,0.9950361650604971,8743,-2.395627555342977,0.0
105,1.158966064453125,63.84234736686192,127.25171319446694,284.0664279406187,-16.620106937834727,0.0,0.13540108341929763,0.1,0.002400636672973633,0.048830270767211914,0.048001304,15.348661,13.229917414928446,0.30349971634398987,2.604057356666616,0.0,73,0.0028412342071533203,1.0001211973098867,1.0001211973098867,8816,-2.1053498557295587,0.0
106,1.171863317489624,-16.171089753597187,5.947086569065112,-9.919095417638275,-25.811157778530745,0.0,0.16689327463581546,0.1,0.002390623092651367,0.04979085922241211,0.04689159,0.47447437,10.289816698075883,-0.15483038555833706,1.0150812248730836,0.0,77,0.005255699157714844,0.9944266644425452,0.9944266644425452,8893,-2.3017158247451373,0.0
107,1.1610338687896729,41.37051363996649,86.93368095604099,191.71215415167302,-16.191709720846056,0.0,0.12548466030103894,0.1,0.002504110336303711,0.05315375328063965,0.050621778,15.339718,13.397886392264944,0.30993047253334316,2.1537800761798342,0.0,73,0.0033991336822509766,0.9997528004562894,0.9997528004562894,8966,-2.980512780816231,0.0
108,1.1136505603790283,17.79346777550909,63.5188811814753,127.2768459282668,-28.364647503917094,0.0,0.1296231765210429,0.1,0.0030117034912109375,0.051276445388793945,0.04944304,17.7805,13.837444530589359,-0.08432917959877362,1.6891735925006996,0.0,81,0.002973794937133789,0.9983903621880839,0.9983903621880839,9047,-2.961878151663029,0.0
109,1.1115188598632812,-11.039015447264799,4.71418852671667,-3.4841140541887667,-15.475209198584333,0.0,0.1673752140237972,0.1,0.002482175827026367,0.04978203773498535,0.059184294,0.72853,11.349798532803943,0.06882265205671842,1.1104825930282392,0.0,74,0.002987384796142578,0.9919550832641674,0.9919550832641674,9121,-2.8158753847521205,0.0
110,1.1046111583709717,100.10649510493188,129.64001163623158,322.81944406455676,-0.2760193892301226,25.0,0.15290280079350055,0.1,0.003078937530517578,0.050544023513793945,0.047419243,4.108032,20.225468190016738,0.6068997534947549,3.3254400509814492,25.0,84,0.002990245819091797,1.0002907111653936,1.0002907111653936,9205,-2.4517580893955824,0.0
111,1.086834192276001,-12.351468444740197,5.377500157302429,-5.023645607834869,-18.683955202536936,0.0,0.16991667069962063,0.1,0.0024313926696777344,0.04952216148376465,0.05137942,0.60716486,16.967774526541046,-0.04432513175192644,1.086458514989748,0.0,68,0.0028297901153564453,0.9928887128374518,0.9928887128374518,9273,-2.014321211502589,0.0
112,1.1348583698272705,4.91069152926382,28.162980999425095,51.799081444713245,-22.92656382129723,0.0,0.17827829215310242,0.1,0.002951383590698242,0.04950594902038574,0.059137665,1.5761567,15.762066226813324,0.2716399709255047,1.4250281050576645,0.0,77,0.003309011459350586,0.9975001878088972,0.9975001878088972,9350,-2.222063242901216,0.0
113,1.1180577278137207,-1.1692743490090969,17.895475514890464,28.31196113619228,-17.819408219876113,0.0,0.14929261582589118,0.1,0.0026443004608154297,0.05622363090515137,0.046105135,2.7400973,14.068932169231083,0.20189608430134398,1.30700441607039,0.0,80,0.003104686737060547,0.9941179837914356,0.9941179837914356,9430,-2.20423278954296,0.0
114,1.1444315910339355,-22.600111891619818,6.161844203595356,-14.950064110389473,-32.02878563341797,0.0,0.16540537773369193,0.1,0.0025305747985839844,0.05068039894104004,0.055258263,0.5710372,10.402027763145993,-0.46462929841263534,0.891769188496185,0.0,79,0.0028924942016601562,0.9952833785822969,0.9952833785822969,9509,-2.446374380580128,0.0
115,1.1298894882202148,-3.9464123621211455,19.494644421272643,27.87157139879408,-25.207341924008862,0.0,0.19240354997968037,0.1,0.0025644302368164062,0.05103778839111328,0.03884601,0.56202495,8.967183750619279,0.07749419357752815,1.255545402889065,0.0,84,0.0029990673065185547,0.9942582422832622,0.9942582422832622,9593,-2.48922330235813,0.0
116,1.1444320678710938,-20.699750472918744,8.156140232099768,-6.880894207864904,-26.75899745055053,0.0,0.18481423526333085,0.1,0.003191709518432617,0.0554957389831543,0.045952424,0.54269254,6.000490328265476,-0.3952834607815538,0.9287983564194404,0.0,77,0.0032236576080322266,0.9952789221337068,0.9952789221337068,9670,-2.343403461841803,0.0
117,1.1574475765228271,-17.81996489718002,4.0385869805684536,-12.00590875481114,-21.62756016883555,0.0,0.16119628700471791,0.1,0.0024864673614501953,0.05312299728393555,0.049113538,0.57126355,3.6184448057209266,-0.2743778716648706,0.9805908870191076,0.0,78,0.0028493404388427734,0.9943870969564853,0.9943870969564853,9748,-2.2743708437501016,0.0
118,1.1602051258087158,54.30862212698615,79.66283020580106,190.30684010766566,-2.201634597976012,0.0,0.14508772017049926,0.1,0.0027801990509033203,0.04877471923828125,0.044456825,6.4344854,8.68746253784745,0.5976401751592143,2.408376100788176,0.0,75,0.0028841495513916016,1.0000610937118934,1.0000610937118934,9823,-2.5357881331003838,0.0
119,1.1693685054779053,-12.237913127685877,8.795332444392114,-4.819546074349754,-27.08297616459055,0.0,0.15791896267128358,0.1,0.006537914276123047,0.05874943733215332,0.05568838,0.5472764,6.594924971294118,0.006757935213308003,1.0903589583630158,0.0,74,0.004189014434814453,0.9932265559381142,0.9932265559381142,9897,-2.775745875893764,0.0
120,1.1693649291992188,-13.39857275458435,8.563803301278428,-0.6689185727805222,-23.560608819732792,0.0,0.1831703583183154,0.1,0.004741668701171875,0.06658673286437988,0.047879435,0.7829667,4.595575198706271,-0.005667956105949869,1.0687955885870353,0.0,81,0.002624988555908203,0.994146108884033,0.994146108884033,9978,-2.674246154338775,0.0
121,1.172130823135376,-10.10258822830566,8.218228699918537,0.735579416349168,-20.088133486193357,0.0,0.18565244313568982,0.1,0.0024900436401367188,0.05057501792907715,0.04779949,0.52938926,3.1257588560050786,0.12624511738798108,1.1302282498491811,0.0,73,0.003010988235473633,0.9929462534601065,0.9929462534601065,10051,-2.9589549287166874,0.0
122,1.1855993270874023,-16.602498491218125,8.27330860323155,-5.687569472863318,-25.22135662703554,0.0,0.1877717682148261,0.1,0.0026946067810058594,0.04987287521362305,0.04906907,0.53766084,1.1529331212827583,-0.13583538340962775,1.0037437210415376,0.0,84,0.004013776779174805,0.9948358457672387,0.9948358457672387,10135,-2.83101002032085,0.0
123,1.2993459701538086,-12.472973527181601,7.6515833379770575,0.28972843555341843,-18.608601177332204,0.0,0.1758147643633407,0.1,0.002382993698120117,0.049001216888427734,0.056949478,1.0966192,-0.2096575435636776,-0.009098413603234663,1.0818315420749791,0.0,70,0.002601146697998047,0.9927966018289578,0.9927966018289578,10205,-2.401620530883711,0.0
124,1.2013168334960938,-5.5263705346240775,29.418799191529555,41.372451269884024,-32.911570509658645,0.0,0.16487272072165285,0.1,0.002469778060913086,0.05825614929199219,0.073369466,1.4333045,-0.7413288426697177,-0.0606061512640694,1.2217890676715617,0.0,82,0.0032892227172851562,0.9967066768772769,0.9967066768772769,10287,-3.104882368276441,0.0
125,1.0770354270935059,-14.933260996654788,8.836257197031289,-3.481636083988401,-26.1613769985703,0.0,0.17336630981591686,0.1,0.00255584716796875,0.05111980438232422,0.049400266,0.50657135,-2.1605220580682247,-0.13556945350996236,1.0378185696595132,0.0,71,0.0028867721557617188,0.9935639672021602,0.9935639672021602,10358,-2.8613770668148644,0.0
126,1.0894203186035156,51.59526955902311,115.89468124520316,252.10407200883938,-20.796940825833158,0.0,0.12429312259165694,0.1,0.0026443004608154297,0.05462312698364258,0.046204615,16.47242,3.215057103640909,0.05336769115246737,2.364526665524496,0.0,74,0.003065347671508789,0.9999390918497157,0.9999390918497157,10432,-2.9103909987449548,0.0
127,1.0981411933898926,1.2328848361200366,12.211062200920246,20.360281588915296,-13.158674562548063,0.0,0.16079865017968398,0.1,0.0029146671295166016,0.051035165786743164,0.05544519,1.7707583,3.016839876888822,0.42745394920743945,1.3499641692812268,0.0,72,0.0031981468200683594,0.991645639480105,0.991645639480105,10504,-2.6617278481826574,0.0
128,1.1434309482574463,-10.23990576544065,8.807893820880897,-0.061273583180964764,-23.112242842255085,0.0,0.16166849451509224,0.1,0.002508878707885742,0.049284934997558594,0.0486214,0.55651796,1.691165312655875,0.13008742551100339,1.1282816687559025,0.0,75,0.008471012115478516,0.9933515708472297,0.9933515708472297,10579,-2.775595286448093,0.0
129,1.2058613300323486,-5.965703288950825,16.981103690520566,20.17990179448829,-23.110769186883175,0.0,0.1427668574516474,0.1,0.002468585968017578,0.06907987594604492,0.05078336,2.535056,0.925478452495205,0.11388470818228937,1.2124507612486617,0.0,71,0.003420591354370117,0.9944445664090565,0.9944445664090565,10650,-2.801318494682605,0.0
130,1.2689244747161865,130.68372439165435,256.3488687654489,574.5291027900774,-25.524903565458395,25.0,0.17487651591197076,0.1,0.0025560855865478516,0.0500946044921875,0.046395876,1.3104191,13.90130304641112,0.05696799948752432,3.946048041335956,25.0,73,0.0031900405883789062,1.0001350657884178,1.0001350657884178,10723,-3.0195097623305887,0.0
131,1.2824454307556152,-8.78060184643823,6.350585492177185,-1.760600558820213,-18.88449159496592,0.0,0.18350050048045152,0.1,0.0025174617767333984,0.04947614669799805,0.051237483,0.52659655,11.633112557126186,0.16867668222828308,1.1558689964181759,0.0,67,0.0028998851776123047,0.9913706913492216,0.9913706913492216,10790,-2.839352259946102,0.0
132,1.301311731338501,-18.052032755258477,8.163697011042698,-10.316853223316315,-29.525919785196464,0.0,0.190911106860568,0.1,0.0026264190673828125,0.050397634506225586,0.05028898,0.4585629,8.66459802588772,-0.21639717934968494,0.9788343341268728,0.0,82,0.003227710723876953,0.9945822023999081,0.9945822023999081,10872,-2.684227405191466,0.0
133,1.1533071994781494,89.59958554012441,121.3830399009219,264.86334534701496,-29.146894069999885,0.0,0.15685403854374144,0.1,0.002396821975708008,0.07078170776367188,0.053925514,5.4401164,16.75809677731139,0.0940932164415482,3.121792432611272,0.0,78,0.0029191970825195312,1.000035038020653,1.000035038020653,10950,-2.818696277680356,0.0
134,1.131244421005249,-7.413097219084437,7.4311244460853665,-2.8010230038840414,-20.277236012257113,0.0,0.17500977918513858,0.1,0.002833127975463867,0.05033469200134277,0.0532257,0.46126857,14.340977377671809,0.2622553738541566,1.1807865115024523,0.0,70,0.002764463424682617,0.9917934163006359,0.9917934163006359,11020,-2.8556977760335065,0.0
135,1.1010234355926514,-3.772152890058461,21.373803967662454,32.67857792628118,-20.67791302550343,0.0,0.13639940636838296,0.1,0.002490520477294922,0.06650543212890625,0.04274711,3.367382,12.529664350898782,0.05998215267507674,1.2566004340014243,0.0,76,0.0028121471405029297,0.994446177177426,0.994446177177426,11096,-2.806462005089918,0.0
136,1.1380729675292969,-14.804062252581506,13.509398787393618,8.253565903512555,-26.222817386726774,0.0,0.16251944052780293,0.1,0.0026934146881103516,0.05038785934448242,0.051552653,1.0985284,9.796291690550754,-0.31170694490049733,1.0444975391263978,0.0,68,0.002719879150390625,0.9945365774555236,0.9945365774555236,11164,-2.908704926635073,0.0
137,1.1893787384033203,-5.585356981955745,6.663997511652986,-0.6344820899704029,-17.057634046412783,0.0,0.16720033723050573,0.1,0.0027399063110351562,0.050020456314086914,0.051040154,0.48830828,8.258126823300104,0.3687654057546909,1.2147755926882966,0.0,71,0.0027647018432617188,0.9918372496112512,0.9918372496112512,11235,-2.5173031125392358,0.0
138,1.0584864616394043,-9.041047663705049,7.628317546200374,-1.9994969955061723,-21.665018237830708,0.0,0.16981937104217804,0.1,0.002618551254272461,0.052005767822265625,0.058293384,0.70124817,6.528209374599589,0.2075624569851957,1.1482718001879328,0.0,73,0.0027837753295898438,0.9937288286806475,0.9937288286806475,11308,-2.7093013881729644,0.0
139,1.0489609241485596,126.26348652404221,151.44220361668926,343.8079258450144,-19.85789084278475,25.0,0.18992823928933686,0.1,0.0026998519897460938,0.07058358192443848,0.052598912,1.1125662,18.50173708954385,0.3506859980983833,3.8514042651596685,25.0,81,0.0037033557891845703,1.0001645581675926,1.0001645581675926,11389,-3.078729056818584,0.0
140,1.0695858001708984,-15.372534561940766,8.092996232042744,-1.7926414993367525,-22.603783876522748,0.0,0.16837897612635222,0.1,0.0025055408477783203,0.0508270263671875,0.050400876,0.728232,15.114309924395393,-0.15918068273309924,1.0303792216730883,0.0,71,0.004342555999755859,0.9944975518681289,0.9944975518681289,11460,-2.8138394506363267,0.0
141,1.0704662799835205,-14.559956890763173,7.322938870047543,-3.476234960478868,-21.720292366219475,0.0,0.15555443049370696,0.1,0.0025506019592285156,0.05834364891052246,0.049183838,0.7040641,12.146883242879536,-0.09234573954613506,1.0413328611812638,0.0,77,0.0033011436462402344,0.9939086055595113,0.9939086055595113,11537,-2.7927013938555914,0.0
142,1.0576410293579102,67.96782960394656,88.40484877456471,211.78074216735607,-5.398374584556259,0.0,0.16757633892382492,0.1,0.0024526119232177734,0.05541038513183594,0.05474589,9.802245,17.72897787898624,0.5486575053504545,2.684125807187705,0.0,71,0.0027658939361572266,1.0001760918184344,1.0001760918184344,11608,-3.0182857669777614,0.0
143,1.071000337600708,-9.23064152352142,7.039513543988426,-2.413149282895672,-20.614005842999973,0.0,0.1782294555465627,0.1,0.002480030059814453,0.05079531669616699,0.05252059,0.42915383,15.033015938735474,0.18962057410994526,1.1433085647556398,0.0,81,0.0027794837951660156,0.9911345299683261,0.9911345299683261,11689,-3.2064178685765405,0.0
144,1.070012092590332,1.633479095575618,25.19692274267884,41.4706347979163,-28.344294086441657,0.0,0.15648271826580665,0.1,0.027547121047973633,0.05404925346374512,0.047435634,1.8486767,13.69306225441949,0.24191654622983516,1.3607760215028206,0.0,73,0.0029726028442382812,0.996873874420573,0.996873874420573,11762,-3.3016602086402655,0.0
145,1.2246546745300293,136.8686795551553,102.41350574644851,251.1972453734825,-18.769936962866456,0.0,0.14842960978968214,0.1,0.004594326019287109,0.062433481216430664,0.04016329,1.5136006,26.010623984493073,0.4693260364884131,4.062032525874276,0.0,74,0.0034444332122802734,1.00042836118957,1.00042836118957,11836,-3.4127247874307187,0.0
146,1.290872573852539,-12.77339809767653,2.454669442894501,-9.288136210821794,-16.12665760334679,0.0,0.16198951472862486,0.1,0.0024416446685791016,0.06212306022644043,0.046035074,0.7672077,22.13222177627611,-0.011743011034407919,1.0808853525757645,0.0,75,0.0032677650451660156,0.9916388106170008,0.9916388106170008,11911,-3.493389831097176,0.0
147,1.188204288482666,-17.88248687091155,3.179332600123862,-12.83527835175151,-20.8614155667603,0.0,0.17285806477479307,0.1,0.002567768096923828,0.05942797660827637,0.059630137,0.55050856,18.130750911557346,-0.2787054584787451,0.9824769242315234,0.0,74,0.003245830535888672,0.9947744784255332,0.9947744784255332,11985,-3.6938945201221607,0.0
148,1.1936826705932617,-14.98602806009579,4.236598815824781,-9.80589936665309,-21.480973735425607,0.0,0.15808396927786306,0.1,0.002521514892578125,0.05777120590209961,0.055299,0.6977225,14.819073014392032,-0.0933737539309159,1.0391623334682247,0.0,79,0.005514621734619141,0.993033186497074,0.993033186497074,12064,-3.9859418166571463,0.0
149,1.2081356048583984,-7.02517542781433,2.90941616583657,-5.15534647732419,-12.048093733466711,0.0,0.15905119728171177,0.1,0.004648685455322266,0.06053352355957031,0.04936119,0.5917128,12.634648170171397,0.2728255726710632,1.1892036327689262,0.0,74,0.0030117034912109375,0.9900057663975521,0.9900057663975521,12138,-4.023926001606321,0.0
150,1.2294714450836182,-9.302594917649724,4.28728910105625,-2.386734187062827,-12.892604946134727,0.0,0.15400065143933706,0.1,0.0025246143341064453,0.049188852310180664,0.047976345,1.034727,10.440923861389285,0.1566048921446102,1.1478660277979538,0.0,75,0.0029451847076416016,0.9912241364041037,0.9912241364041037,12213,-3.7226868228427445,0.0
151,1.119370937347412,-16.139898050751263,7.919960004510557,-5.477677696871416,-27.811759938830903,0.0,0.17451738562265032,0.1,0.0026068687438964844,0.05685591697692871,0.05259527,0.6558693,7.78284167017523,-0.18180802871462137,1.0157010410854426,0.0,76,0.007394313812255859,0.9948076587868235,0.9948076587868235,12289,-3.673941925336697,0.0
152,1.111725091934204,-9.143936488173644,8.028102514315972,-3.424883360302446,-22.880198776247106,0.0,0.17726382350974945,0.1,0.002626180648803711,0.07891845703125,0.037586946,0.453386,6.090163854340343,0.15263147055514728,1.1478750224243743,0.0,71,0.005160808563232422,0.9925350531793569,0.9925350531793569,12360,-3.614981859251158,0.0
153,1.11399507522583,-5.177357743742069,20.246585553107334,28.611473948184205,-24.15844714053093,0.0,0.17444432490388903,0.1,0.0026760101318359375,0.07126283645629883,0.048328545,1.840906,4.963411694532102,-0.005693913535755324,1.2345780098023262,0.0,73,0.0055828094482421875,0.9946367827337287,0.9946367827337287,12433,-3.7574302017628605,0.0
154,1.1133999824523926,-13.34469766255912,9.528250469385902,-2.361253113537415,-23.776216350309475,0.0,0.16708990673764923,0.1,0.0025031566619873047,0.05400729179382324,0.049922578,0.53815037,3.1326007588229796,-0.04478427826036541,1.0658881963335396,0.0,68,0.0036673545837402344,0.9937419372779736,0.9937419372779736,12501,-3.899010793649687,0.0
155,1.113964319229126,-11.886623874210926,11.481825567133596,6.669599844595282,-24.75632364838917,0.0,0.15704942389548257,0.1,0.0024852752685546875,0.07338547706604004,0.05296147,1.201775,1.630678295519589,-0.08200978705560921,1.1002355732101252,0.0,81,0.0029561519622802734,0.9936775124708095,0.9936775124708095,12582,-3.874698099793728,0.0
156,1.1253774166107178,1.5947067663277783,23.44134210744918,41.66998546194707,-15.449648400609215,0.0,0.15728809806429336,0.1,0.006039142608642578,0.06319594383239746,0.036623623,1.1881725,1.627081142600408,0.22578586156197827,1.3630469224779465,0.0,73,0.0031273365020751953,0.995685587368737,0.995685587368737,12655,-4.023883664429138,0.0
157,1.133091688156128,58.105549580682606,124.17233722157167,272.6239012524591,-26.884671832310637,0.0,0.15018453980164834,0.1,0.002657651901245117,0.05104422569274902,0.050356552,3.3665655,7.274927986408628,0.14006541519420407,2.4930153983788554,0.0,75,0.0033721923828125,1.0000513573479262,1.0000513573479262,12730,-3.9797204168140126,0.0
158,1.205442190170288,-17.02529338113064,9.066336694017146,-7.8332367290892915,-28.655498976333938,0.0,0.18097563140435857,0.1,0.0025277137756347656,0.06903862953186035,0.05458021,0.44315484,4.844905849654701,-0.21986248749203285,0.9996369612755476,0.0,78,0.002924203872680664,0.9948533328585762,0.9948533328585762,12808,-3.8940275013509305,0.0
159,1.1248836517333984,-16.89045948080443,4.566760539517263,-11.67338917957487,-23.450462853480676,0.0,0.16892587495639566,0.1,0.002511739730834961,0.04980897903442383,0.047489952,0.51118517,2.671369316608788,-0.2193065232673687,0.999725920747435,0.0,76,0.002925395965576172,0.9940862816173909,0.9940862816173909,12884,-4.102301441599096,0.0
160,1.132140874862671,-6.4933406153185915,1.6153448739057923,-4.931676146074712,-8.815301995450373,0.0,0.16877496910888087,0.1,0.002989530563354492,0.06516337394714355,0.051359545,0.71406657,1.7548983234160498,0.31223475520550403,1.199801278459875,0.0,76,0.0034646987915039062,0.9880000763510474,0.9880000763510474,12960,-3.952883215957676,0.0
161,1.1412713527679443,-8.995427721976485,5.753721988650639,-0.7511291309064116,-15.400238879327336,0.0,0.1717921743792284,0.1,0.004737138748168945,0.05666708946228027,0.052731812,0.66980344,0.6798657188767963,0.172986877410859,1.1501075869004478,0.0,74,0.0031020641326904297,0.991389082338925,0.991389082338925,13034,-3.6958930179298295,0.0
162,1.1495022773742676,-16.879991076597072,4.787794455817709,-9.343404219539472,-22.31066570363699,0.0,0.18666115005648173,0.1,0.004630088806152344,0.06165003776550293,0.0537133,0.5201129,-1.076119960670591,-0.20912136714914434,1.0008060817630722,0.0,79,0.002971649169921875,0.9934007989481273,0.9934007989481273,13113,-3.533149418039285,0.0
163,1.1428837776184082,-5.746601955327563,6.2723242028216655,0.6161652388466115,-16.10096681754937,0.0,0.18040393270886226,0.1,0.0025224685668945312,0.06036090850830078,0.046907976,0.4622097,-1.543168160136288,0.34037479792244896,1.213245435255705,0.0,76,0.004159450531005859,0.9909458706180443,0.9909458706180443,13189,-4.136735028667905,0.0
164,1.1601221561431885,38.09309420790702,100.48679543681702,211.5687832415518,-31.921169534364715,0.0,0.18838660602518179,0.1,0.0025496482849121094,0.06096935272216797,0.043138806,1.7895865,2.4204580766680435,-0.014045011509405299,2.0976406234174356,0.0,81,0.0029592514038085938,0.9994577670348328,0.9994577670348328,13270,-4.656459126722675,0.0
165,1.1417462825775146,-17.822304610405382,5.690640721720669,-8.332656851891535,-22.887568937512036,0.0,0.1555066299592095,0.1,0.0048825740814208984,0.06749820709228516,0.058675695,0.67387843,0.3961818079607009,-0.26190617170940034,0.9822474207102829,0.0,75,0.0028748512268066406,0.9945608814694668,0.9945608814694668,13345,-5.357113313728353,0.0
166,1.1436092853546143,37.66141296840204,88.73026912024328,191.16594574293117,-19.686612334020754,0.0,0.16569483842964922,0.1,0.00481867790222168,0.054395437240600586,0.041590776,3.2507923,4.122704924004835,0.16849351616794161,2.0857350194317408,0.0,80,0.002931833267211914,0.9995014791348582,0.9995014791348582,13425,-4.731226305945637,0.0
167,1.1351776123046875,-9.462636166588782,6.859095430510897,-1.3299364153013875,-19.835416624142805,0.0,0.15256941388037412,0.1,0.0024559497833251953,0.06005120277404785,0.055684146,0.57334095,2.7641708149454733,0.15907191516123548,1.1389802591597884,0.0,75,0.005675792694091797,0.9918074761351927,0.9918074761351927,13500,-4.43737659450327,0.0
168,1.1442205905914307,-4.554183907907414,20.14812138406217,30.09673622824568,-19.71300607318529,0.0,0.17733258122718898,0.1,0.003300189971923828,0.05222201347351074,0.057513125,1.8941917,2.0323353426601845,0.02475830238879438,1.2427416508610847,0.0,77,0.0028405189514160156,0.9948019794814038,0.9948019794814038,13577,-5.022430041601959,0.0
169,1.1392338275909424,-10.887306715107702,7.001452616937198,-4.003370906921173,-19.871110667661007,0.0,0.19119729612580952,0.1,0.002879619598388672,0.06333494186401367,0.049451962,0.5586754,0.7403711368833958,0.09923845335578156,1.1157298583273136,0.0,81,0.008683919906616211,0.9925290362063658,0.9925290362063658,13658,-4.653470433280669,0.0
170,1.2446608543395996,-16.322963510665133,10.070485074173176,-0.286436772976324,-26.61040165374998,0.0,0.17093966400338018,0.1,0.003018617630004883,0.06019449234008789,0.047106758,0.61928344,-0.9659623278714571,-0.10064946565442909,1.0099104231270433,0.0,86,0.005895376205444336,0.9947736610853695,0.9947736610853695,13744,-4.5470732270374175,0.0
171,1.1769747734069824,7.916853181760408,24.122967575245603,40.105432800737056,-24.280381375542845,0.0,0.16265308028283038,0.1,0.0026302337646484375,0.06602311134338379,0.04676434,1.7178143,-0.07768077690827058,0.31764769602491133,1.4840951702476395,0.0,81,0.0028853416442871094,0.996198335041787,0.996198335041787,13825,-5.129841245098585,0.0
172,1.140981912612915,68.5606432233443,152.79135096299305,333.00994826418685,-27.181859279536543,25.0,0.1466287780918884,0.1,0.002482891082763672,0.06679320335388184,0.035767157,3.9141386,6.786151623116987,-0.05556237633085852,2.7069367814250946,25.0,73,0.0028777122497558594,1.0000665361477792,1.0000665361477792,13898,-4.852875163163819,0.0
173,1.1413578987121582,-14.185801982959205,6.398965673625996,-6.617148821348838,-21.224462060951733,0.0,0.1652947969966593,0.1,0.006627082824707031,0.05011701583862305,0.063622825,0.5510763,4.688956262509367,-0.1306342736159881,1.0511470638201754,0.0,72,0.003325223922729492,0.9933424293795878,0.9933424293795878,13970,-4.9866961140659765,0.0
174,1.2538866996765137,-14.420921077116152,8.816621729949617,-3.6274990802177722,-28.13570901166308,0.0,0.1646986767982317,0.1,0.0025246143341064453,0.06162714958190918,0.05351621,0.47006172,2.7779685285468156,-0.042924270118025534,1.0471917469521843,0.0,77,0.0030031204223632812,0.9944742208677537,0.9944742208677537,14047,-4.724233011407646,0.0
175,1.1669719219207764,65.44691883588837,103.91845853292989,241.3497594182695,-14.60995250872337,0.0,0.15736381942738245,0.1,0.0026061534881591797,0.05168890953063965,0.05699496,3.11923,9.044863559280971,0.40585676334164317,2.6379811741862262,0.0,74,0.002933502197265625,1.0001025041929732,1.0001025041929732,14121,-4.452284447610698,0.0
176,1.1552090644836426,19.73488869918625,65.62874159554393,131.85626256022434,-27.948660286831807,0.0,0.14849201361980818,0.1,0.002840757369995117,0.05072784423828125,0.057502095,11.994371,10.1138660732715,0.09749838799526528,1.7262853971729937,0.0,82,0.0027697086334228516,0.9983625734718427,0.9983625734718427,14203,-4.7129235092497295,0.0
177,1.1333115100860596,62.51566073011102,78.16831639335635,142.2847261557503,-21.3118450067413,0.0,0.1558963792115477,0.1,0.0025310516357421875,0.05802297592163086,0.04584567,2.2016335,15.354045538955454,0.27688291424146194,2.582239311450995,0.0,78,0.0030999183654785156,0.999704416361771,0.999704416361771,14281,-4.900533395284592,0.0
178,1.157480239868164,50.82946926464922,87.74001915914737,198.999455260034,-23.97487688459784,0.0,0.16309243792519665,0.1,0.003148794174194336,0.05936455726623535,0.05428082,6.4877543,18.90158791152483,0.2933080917682539,2.3474755541346117,0.0,77,0.0060079097747802734,0.9999321544164099,0.9999321544164099,14358,-5.275986697864146,0.0
179,1.1479110717773438,-6.851454905696288,15.537487531602439,17.66541833107682,-20.882332286580713,0.0,0.1672389766529762,0.1,0.0025510787963867188,0.0681612491607666,0.052766476,1.6449026,16.32628362980272,0.04739263489487225,1.1989532179885662,0.0,75,0.00331878662109375,0.994019183022057,0.994019183022057,14433,-4.987981382218805,0.0
180,1.154409408569336,-4.486834255512875,12.853601556432512,16.409489731834633,-16.6697777252488,0.0,0.15576092042182732,0.1,0.002564668655395508,0.06975531578063965,0.04942383,1.4104683,14.24497184127116,0.17637114949786728,1.242548240209914,0.0,79,0.002986431121826172,0.9925512433125315,0.9925512433125315,14512,-7.0137978656912265,0.0
181,1.1665303707122803,44.53430567966891,60.64603765213781,142.14487852658252,-9.524608010824164,0.0,0.15388470771492593,0.1,0.002596616744995117,0.05694890022277832,0.05071495,5.064634,17.273905225110937,0.465496317763583,2.2202016535686333,0.0,81,0.0040073394775390625,0.9997285302993985,0.9997285302993985,14593,-7.299448771433307,0.0
182,1.1415958404541016,22.073241929174582,64.9058296576009,133.6907706979588,-24.65018871339303,0.0,0.14104613619468612,0.1,0.0045926570892333984,0.05366826057434082,0.027442241,0.77722955,17.7538388955173,0.09035710329401075,1.774873967317562,0.0,76,0.004392147064208984,0.9999367372604092,0.9999367372604092,14669,-7.116755416876589,0.0
183,1.133591651916504,-19.72340418149416,1.321723542483897,-17.450795287780373,-20.73707161676759,0.0,0.17721665824438282,0.1,0.003122568130493164,0.05116438865661621,0.042052187,0.55305743,14.006114587816155,-0.3358420005666397,0.9484778803449282,0.0,77,0.003059864044189453,0.9941911048529338,0.9941911048529338,14746,-8.309590267117251,0.0
184,1.141509771347046,-18.486363622982225,4.429569273418677,-10.965397929497149,-22.152855055786915,0.0,0.18253961905672975,0.1,0.00250244140625,0.050386905670166016,0.044603202,0.53263587,10.756866766736318,-0.32616539147919676,0.9716016473947813,0.0,73,0.002895355224609375,0.9947968378519427,0.9947968378519427,14819,-6.361277317972646,0.0
185,1.1144802570343018,28.549932503603273,71.95205435983698,152.4759603563634,-22.510440373798236,0.0,0.16563068945302742,0.1,0.0025014877319335938,0.050169944763183594,0.053289972,3.3208768,12.536173340423012,0.21037286639726022,1.899926515167317,0.0,73,0.00347900390625,0.9993886067067028,0.9993886067067028,14892,-6.186701606089787,0.0
186,1.0786311626434326,-9.968960650243893,6.673330563051176,-3.2503388824652593,-18.042594867796684,0.0,0.1744724795805958,0.1,0.0023965835571289062,0.05748152732849121,0.05491828,0.5637136,10.285659941356322,0.1309753864459536,1.1304065219256647,0.0,71,0.0028197765350341797,0.9924692933573771,0.9924692933573771,14963,-6.844700648304962,0.0
187,1.1110506057739258,5.93128565250836,35.91630109452237,67.20167547353078,-20.220804013048294,0.0,0.2175048544924003,0.1,0.0025856494903564453,0.054711103439331055,0.05068659,1.7742922,9.850222512471527,0.05364712104447595,1.4535358089607182,0.0,76,0.003119945526123047,0.9959900032364318,0.9959900032364318,15039,-4.858546367539994,0.0
188,1.1395378112792969,0.9778742761448465,19.205070086258704,29.738737088978574,-23.994329993522474,0.0,0.2021806727426784,0.1,0.0024971961975097656,0.05146145820617676,0.05755611,0.8340985,8.96298768883886,0.27902144370243404,1.3486252812073105,0.0,80,0.003501415252685547,0.9953229394054521,0.9953229394054521,15119,-5.565091407974463,0.0
189,1.075819969177246,23.346181932835748,69.00126267688754,142.62903087092192,-22.122427492154497,0.0,0.1692036633393414,0.1,0.0023605823516845703,0.05052638053894043,0.053788036,4.103999,10.401307113238548,0.024266483959005658,1.8006801483068344,0.0,68,0.0028634071350097656,0.9990621620527327,0.9990621620527327,15187,-5.852573625368325,0.0
190,1.1305160522460938,-19.51546615421446,9.646643720332543,-2.8433713118027555,-26.106557983188996,0.0,0.1874393552826105,0.1,0.00247955322265625,0.05238175392150879,0.076423906,0.6929589,7.409629786493248,-0.2955509676435949,0.9470473970673599,0.0,77,0.0028104782104492188,0.9945804949251303,0.9945804949251303,15264,-5.074026418252857,0.0
191,1.1476836204528809,-11.420510326896746,6.17510449939507,-4.518076692813562,-19.807744711305915,0.0,0.171084946037292,0.1,0.0025069713592529297,0.06169748306274414,0.05190415,0.63649136,5.526615775154249,0.06921137536166383,1.1058287532020787,0.0,77,0.005475521087646484,0.9927424386607024,0.9927424386607024,15341,-6.320415236496249,0.0
192,1.1580204963684082,-17.53847055185899,4.058913164970243,-11.756486582353578,-21.89266707624656,0.0,0.2121196493248323,0.1,0.0025408267974853516,0.06975603103637695,0.054209378,0.50480235,3.2201071424529255,-0.2081770854310412,0.9884473265215743,0.0,78,0.00275421142578125,0.9943867836634069,0.9943867836634069,15419,-6.130673385025069,0.0
193,1.141869306564331,-10.126986751140311,6.733488051791567,-1.85914849845119,-20.510398750713836,0.0,0.19382816641094877,0.1,0.0025141239166259766,0.051962852478027344,0.052982815,0.49460015,1.885397753093602,0.10953852348799442,1.1295708693531847,0.0,70,0.003020048141479492,0.9923557962283426,0.9923557962283426,15489,-6.456978527867641,0.0
194,1.1580934524536133,28.47710603549647,55.12560741596647,123.8989602380335,-6.470140787940051,0.0,0.19009884702404023,0.1,0.002549409866333008,0.05139875411987305,0.057932686,0.77628684,4.5445685813338885,0.5875905199576137,1.888960190842368,0.0,68,0.005507707595825195,1.0006537956487744,1.0006537956487744,15557,-5.962122653348871,0.0
195,1.148202896118164,38.10296762963174,85.84569633436361,186.6723265856239,-14.710022166888203,0.0,0.13993120124047093,0.1,0.00260162353515625,0.052184104919433594,0.049365632,29.25766,7.900408486163674,0.158047769219418,2.0932534162154455,0.0,78,0.0033347606658935547,0.9994162847607438,0.9994162847607438,15635,-7.002988731593907,0.0
196,1.1678268909454346,-8.145411182910069,11.471588138092848,3.497924185099216,-27.17344535862013,0.0,0.18932522370361785,0.1,0.00526738166809082,0.058734893798828125,0.04502673,0.5561033,6.2958265192563,0.24524221404235466,1.1643912131275995,0.0,69,0.0030972957611083984,0.9946382154764288,0.9946382154764288,15704,-6.189159886670452,0.0
197,1.1611106395721436,-13.741709321390372,8.326356306712968,-4.864366886942152,-24.638411716156966,0.0,0.17908051201564393,0.1,0.0033071041107177734,0.052088260650634766,0.051280685,0.6005666,4.292072935191633,-0.007036902204556786,1.0633282363691339,0.0,79,0.0030815601348876953,0.9940218475860005,0.9940218475860005,15783,-6.946210965119133,0.0
198,1.1557049751281738,-21.401674138603212,5.926451943261454,-12.297704192879449,-28.748791603242736,0.0,0.1880850124951172,0.1,0.0024824142456054688,0.05203104019165039,0.050137565,0.49341297,1.722698227812148,-0.45181331066856606,0.9159030651774764,0.0,77,0.0029935836791992188,0.9953742415534084,0.9953742415534084,15860,-6.878667423511334,0.0
199,1.1385478973388672,-13.549135221429282,6.064314476396611,-3.674115860858079,-19.318630741479993,0.0,0.2132022620972812,0.1,0.0024645328521728516,0.04945802688598633,0.055352926,0.5422073,0.19551488288800511,-0.06327956904646746,1.0636354759043898,0.0,71,0.0028989315032958984,0.9928854725082528,0.9928854725082528,15931,-6.366659171730248,0.0
200,1.1564667224884033,-9.05139618184793,20.396181905077583,26.128898051774485,-22.775818442011445,0.0,0.16656721268924513,0.1,0.0025365352630615234,0.05209779739379883,0.04417004,1.8238264,-0.7291762235855883,-0.13871013106414048,1.1599276274047006,0.0,86,0.004131793975830078,0.9951354320203484,0.9951354320203484,16017,-6.747198339759145,0.0
201,1.1598100662231445,-13.389354895741377,5.0110692323481825,-8.3904529762906,-20.92582409944168,0.0,0.17375571308545687,0.1,0.0033288002014160156,0.0518035888671875,0.04940809,0.44364625,-1.9951940908011674,-0.02407808565063807,1.0680242063564758,0.0,78,0.005282402038574219,0.9929180624847879,0.9929180624847879,16095,-7.05897261562366,0.0
202,1.1377065181732178,50.659061219895904,81.71268774088593,191.0388915103907,-5.236719934110539,0.0,0.1426617894397629,0.1,0.0025768280029296875,0.051717519760131836,0.050204348,6.876668,3.27023144026854,0.5603370468795557,2.337805372620963,0.0,74,0.0032224655151367188,0.9998976253990508,0.9998976253990508,16169,-6.5318218427063774,0.0
203,1.14347505569458,-14.345348835472802,8.9564202203285,-2.2635573680883097,-25.551311863234343,0.0,0.21048957884432515,0.1,0.0025131702423095703,0.05198216438293457,0.09160413,0.41605556,1.508673412694406,-0.08133674236243435,1.0514050967564061,0.0,84,0.003545999526977539,0.9943109923930226,0.9943109923930226,16253,-5.944462796934349,0.0
204,1.1710100173950195,51.849045147761046,115.44653075107348,251.5345849616483,-24.487039993924974,0.0,0.13248760071934804,0.1,0.00262451171875,0.051215410232543945,0.0509613,6.4947357,6.54271058620107,0.12734893699550487,2.3709584249112727,0.0,79,0.003070354461669922,0.9998553019195159,0.9998553019195159,16332,11.51843927686273,0.0
205,1.157015085220337,38.6162550669182,87.88502681982732,190.25295430071785,-20.144397567691886,0.0,0.1373492983361341,0.1,0.0025551319122314453,0.05194807052612305,0.043331705,4.53968,9.750065034272783,0.1722652879530727,2.1034956159722227,0.0,75,0.005167722702026367,0.9996738615196313,0.9996738615196313,16407,12.270445708207925,0.0
206,1.1768200397491455,-16.816546718077465,8.53013814046989,-8.624605457263339,-30.42733516876163,0.0,0.18460644751724328,0.1,0.0025320053100585938,0.05225682258605957,0.048277706,0.4262512,7.0934038590377595,-0.14960616512027788,1.0024278819709007,0.0,81,0.0033712387084960938,0.9946775907654879,0.9946775907654879,16488,2.0828786025033925,0.0
207,1.1598694324493408,-8.657624986665592,8.372446340540607,-0.9180977317611747,-22.630636466998666,0.0,0.19152014833835643,0.1,0.0025568008422851562,0.0522921085357666,0.06462143,0.5110036,5.518300974467424,0.23667627316865952,1.1591983597061306,0.0,82,0.003620624542236328,0.9927200565191852,0.9927200565191852,16570,-3.974461874495715,0.0
208,1.185748815536499,4.004336677503717,39.41367220687596,71.42311685377912,-27.57442325443666,0.0,0.18774484563960195,0.1,0.0025200843811035156,0.052991390228271484,0.052988652,0.82126296,5.366904544771054,-0.05253071861971677,1.4143752496987898,0.0,81,0.003201723098754883,0.9982418977531603,0.9982418977531603,16651,-4.9262281527202605,0.0
209,1.156959056854248,-11.593154648509566,9.682114763545803,-4.780366697260885,-28.256560190770468,0.0,0.18735340532409783,0.1,0.002646207809448242,0.052145957946777344,0.042442836,0.31956357,3.6708986254429923,0.12908281799824245,1.1050917992279459,0.0,87,0.0031991004943847656,0.9936197960040095,0.9936197960040095,16738,-5.946913268789598,0.0
210,1.175708293914795,-5.44248547145928,16.448768769551616,19.402281342201544,-20.389601922807557,0.0,0.23073923071423993,0.1,0.0026061534881591797,0.06183815002441406,0.045245808,0.4943675,2.759560215752765,0.1818247504351116,1.2237939979205905,0.0,78,0.004003047943115234,0.9941545888495709,0.9941545888495709,16816,-6.728562791502763,0.0
211,1.159897804260254,-20.109069110743295,4.992353864227638,-11.922532928415416,-25.448262495948768,0.0,0.2246171634179733,0.1,0.0025453567504882812,0.0619046688079834,0.048611876,0.44328478,0.47269728310315884,-0.3148943743243408,0.9409979149716975,0.0,81,0.003863811492919922,0.995505923171303,0.995505923171303,16897,-6.495489800648021,0.0
212,1.1794030666351318,-11.363448064444068,8.778649463182946,-0.23104255087829983,-20.094515039025254,0.0,0.1967293894554569,0.1,0.0025110244750976562,0.06018543243408203,0.051684305,0.4586313,-0.7109172516515638,0.07105963846105072,1.1088656269098904,0.0,85,0.0031347274780273438,0.9935997806372642,0.9935997806372642,16982,-6.379522238305346,0.0
213,1.1683125495910645,-17.330174944004547,4.270923292009635,-11.56821066150404,-21.604494108157446,0.0,0.20054623410674258,0.1,0.005407810211181641,0.07806086540222168,0.04927248,0.42059124,-2.3728430208868625,-0.16328234001814765,0.992477698884344,0.0,87,0.0034394264221191406,0.9945375913953087,0.9945375913953087,17069,-5.651350617253033,0.0
214,1.1588902473449707,-13.4072751982294,9.333443500558124,-0.6794669357965457,-25.743357966031454,0.0,0.19850640326195368,0.1,0.002547025680541992,0.05583620071411133,0.04290022,0.5561662,-3.476286238621116,-0.016799928045559603,1.0685089412350364,0.0,80,0.0028760433197021484,0.9940205440712198,0.9940205440712198,17149,-6.857436319067568,0.0
215,1.197697401046753,21.270876910068935,62.641291037258235,129.27290410931778,-22.881250410586986,0.0,0.17622878766904762,0.1,0.0025205612182617188,0.06110572814941406,0.04964133,4.836774,-1.0015699237521112,0.08862877532583135,1.7590597460149167,0.0,79,0.0032663345336914062,0.9985599890463641,0.9985599890463641,17228,-6.172701734497347,0.0
216,1.1755626201629639,29.93823820263718,62.720505519062755,138.35328802288035,-12.60757914200398,0.0,0.19430234575363584,0.1,0.0024819374084472656,0.06631708145141602,0.049400248,3.7957757,2.092410888886818,0.39297320235712685,1.9255497066754232,0.0,83,0.003133058547973633,0.9991196475050451,0.9991196475050451,17311,-3.9169765350240606,0.0
217,1.1592302322387695,14.93351253043172,66.46120579937048,129.95562936501182,-27.37755780815812,0.0,0.1660415838169633,0.1,0.002529144287109375,0.06007122993469238,0.057718787,11.492007,3.3765210530413086,-0.15548220026612647,1.6361763997255645,0.0,86,0.003088235855102539,0.9981506801407836,0.9981506801407836,17397,-5.598572202528644,0.0
218,1.167811393737793,-11.576099876299828,9.30706053183707,1.1913006726146742,-25.077410128992145,0.0,0.20191408084585832,0.1,0.003152132034301758,0.058530330657958984,0.054581758,0.6620593,1.8812589601071952,0.08837515104785731,1.1024600786911183,0.0,83,0.0032699108123779297,0.993810303544133,0.993810303544133,17480,-6.611837889519156,0.0
219,1.1774520874023438,-18.14703295489177,11.279771903422043,-3.7364076601629734,-30.412632296298632,0.0,0.22830418321064633,0.1,0.002559185028076172,0.05867910385131836,0.050670117,0.50759333,-0.1215702313927014,-0.12218487141858936,0.9731905213104234,0.0,94,0.002777099609375,0.9961234476591324,0.9961234476591324,17574,-5.121673104924423,0.0
220,1.154860019683838,-11.595103227868389,7.364470249642738,-1.3330814329083842,-20.206085019184332,0.0,0.18555705959007357,0.1,0.0028302669525146484,0.05543160438537598,0.042985845,0.5121685,-1.26892353104027,0.0922001507554982,1.1015720183112396,0.0,83,0.006107807159423828,0.9934957313042302,0.9934957313042302,17657,-3.9873748084946588,0.0
221,1.1794672012329102,0.9967222716869928,16.483603689830918,28.999561586704196,-11.773631663327354,0.0,0.2228454499008564,0.1,0.005135297775268555,0.05973243713378906,0.054317124,1.3684046,-1.042358950767544,0.28816041543017273,1.3488085319443737,0.0,79,0.002794981002807617,0.9928516839730787,0.9928516839730787,17736,23.46434628216754,0.0
222,1.164215326309204,5.423721739594145,39.07106472719267,73.06457832458207,-19.02654397585831,0.0,0.17820805787252103,0.1,0.004694700241088867,0.05832934379577637,0.02951101,0.8824689,-0.39575088173137507,0.04987008579519016,1.4385468135832913,0.0,80,0.003240346908569336,0.998065767443738,0.998065767443738,17816,32.533419918858044,0.0
223,1.182274580001831,81.2930409427606,181.2014467771471,394.74736846987236,-34.75595385326048,25.0,0.19344797424991197,0.1,0.0030329227447509766,0.055568695068359375,0.058296088,1.6974541,7.773128300717823,-0.042564655038266515,2.9600503920740517,25.0,91,0.003509998321533203,1.0000130359823132,1.0000130359823132,17907,17.689790065995613,0.0
224,1.2012693881988525,0.5202042783743215,14.015582267867396,24.787913486369245,-8.14230988858341,0.0,0.19787918973807692,0.1,0.0026464462280273438,0.05757713317871094,0.032731883,1.0610502,7.047835898483473,0.30452364186293845,1.3444618714032455,0.0,91,0.005075693130493164,0.9922474621153455,0.9922474621153455,17998,23.06708872369552,0.0
225,1.169196367263794,78.86265929715964,152.9078415986697,343.69822944567085,-10.968818853302356,25.0,0.26309218991566763,0.1,0.002437114715576172,0.0622866153717041,0.030323628,0.4434837,14.229318238351091,0.3301014472673695,2.9057822923376144,25.0,84,0.006201028823852539,1.0000800356043442,1.0000800356043442,18082,22.820627228111345,0.0
226,1.177060842514038,25.435157932195892,67.48249184050536,141.47014205834157,-26.484145706466478,0.0,0.1662343083659029,0.1,0.002543926239013672,0.06116318702697754,0.048473917,3.0349853,15.349902207735571,0.20214695298733948,1.8408809219022881,0.0,83,0.0031473636627197266,0.9988653687575556,0.9988653687575556,18165,22.656411489363972,0.0
227,1.1855864524841309,-13.954696990304335,9.099462235743603,-3.4497108128725538,-27.31514937178179,0.0,0.20415077128349862,0.1,0.0025458335876464844,0.05898165702819824,0.054161772,0.40560305,12.419442287931581,0.006802102105401893,1.0561265044969925,0.0,88,0.003433704376220703,0.9943969960177466,0.9943969960177466,18253,22.589006784364006,0.0
228,1.1681289672851562,-6.353985099633413,7.449393907959904,3.7830863572661864,-17.111306829882544,0.0,0.18734670281082824,0.1,0.002525806427001953,0.05788159370422363,0.044744443,0.5900904,10.542099549175083,0.322900039536113,1.2004636927492187,0.0,80,0.003014802932739258,0.9916702563384867,0.9916702563384867,18333,12.555176139702297,0.0
229,1.1756868362426758,-19.55501236753848,7.475717494684869,-12.894801168664925,-32.24361108831004,0.0,0.21225540119122463,0.1,0.0030303001403808594,0.053761959075927734,0.04550031,0.41063696,7.532388357503725,-0.26139565363434625,0.9498358914371099,0.0,83,0.0032196044921875,0.9951839414787624,0.9951839414787624,18416,22.875843620783314,0.0
230,1.1655797958374023,58.899189889854625,116.57257920794764,260.79881138963094,-10.212808044653432,0.0,0.18638579889502346,0.1,0.0029976367950439453,0.05275869369506836,0.048325546,1.5582262,12.669068510738816,0.3299141167573798,2.509765758207918,0.0,83,0.0031614303588867188,0.9999163033548302,0.9999163033548302,18499,13.573250487955768,0.0
231,1.1669659614562988,-1.6930604227176111,26.082543443214412,42.24059332267255,-24.5707057619874,0.0,0.16050123716441506,0.1,0.004763603210449219,0.05881071090698242,0.04042293,1.4629995,11.232855617393172,0.09955806505990708,1.3000295677427702,0.0,90,0.0031366348266601562,0.9964016670221777,0.9964016670221777,18589,13.345574656108282,0.0
232,1.1336486339569092,138.89711358782554,275.64944228886793,616.3119038551189,-24.719074162633266,25.0,0.1826740072679629,0.1,0.0025396347045898438,0.05485939979553223,0.077473946,0.81167793,23.99928141443641,-0.06551168487378581,4.112537336993862,25.0,77,0.0037870407104492188,1.0001466704187427,1.0001466704187427,18666,8.579538885856456,0.0
233,1.1795217990875244,-17.829781605674064,6.467104490778186,-11.352002218439946,-27.64821786127849,0.0,0.21741982466073875,0.1,0.003190755844116211,0.051740407943725586,0.057229914,0.43812692,19.816375112425362,-0.21771957301238223,0.9838982936554395,0.0,82,0.0033864974975585938,0.9946467459968107,0.9946467459968107,18748,13.55970313242068,0.0
234,1.1275866031646729,-19.897496294213386,5.085139443585106,-13.241638666717652,-27.52994825157323,0.0,0.18028437941705225,0.1,0.0024657249450683594,0.049979448318481445,0.06766476,0.5510355,15.844987971761487,-0.33414667082136945,0.944240345330754,0.0,78,0.0029692649841308594,0.9952770372625912,0.9952770372625912,18826,3.5470639026240036,0.0
235,1.1091697216033936,-27.66345372924502,3.225191688856476,-24.131784889474226,-31.886022192512723,0.0,0.20000628500999285,0.1,0.0025064945220947266,0.050757408142089844,0.062163237,0.8558639,11.494143801660837,-0.6200178003825882,0.791243921473978,0.0,87,0.0029151439666748047,0.9961131702932542,0.9961131702932542,18913,2.6077959787035496,0.0
236,1.1550250053405762,-16.160964134798313,7.8530949954865985,-3.9117649236265097,-25.343170453518233,0.0,0.19783597677539058,0.1,0.0025911331176757812,0.06903433799743652,0.057574507,0.46228412,8.72863300801492,-0.08515230115814061,1.0170550573939783,0.0,93,0.003038644790649414,0.9946340384198732,0.9946340384198732,19006,-3.4514110504407696,0.0
237,1.1594960689544678,52.395828716469246,114.04799604510085,249.598977013553,-22.942524815835842,0.0,0.1599902255051425,0.1,0.0024704933166503906,0.06066107749938965,0.049273033,2.6801844,13.095352578860354,0.12593920549090593,2.3836140805861006,0.0,79,0.0031995773315429688,0.9998793700647198,0.9998793700647198,19085,-3.4657118967732283,0.0
238,1.1688876152038574,57.66218799852258,124.48211499889905,273.0199447116831,-21.245878784414625,0.0,0.1916303834989681,0.1,0.002869129180908203,0.05131793022155762,0.05161925,2.80109,17.55203612082658,0.131305845833651,2.485329593130746,0.0,82,0.002978086471557617,0.9999906357755716,0.9999906357755716,19167,-3.7570920497548905,0.0
239,1.1725430488586426,-13.673903630770338,8.836111349000722,-4.005669204803219,-24.622157384881618,0.0,0.21231526255632707,0.1,0.0025882720947265625,0.05709648132324219,0.041571558,0.42456427,14.429442145666886,-0.0020381051247990584,1.0636329779413083,0.0,84,0.0026640892028808594,0.994498253351167,0.994498253351167,19251,-3.826461226474421,0.0
240,1.1553759574890137,-15.123826759302466,7.405256659355901,-3.504513892284189,-22.900589254624418,0.0,0.19258822752804905,0.1,0.0025403499603271484,0.057135581970214844,0.06415385,0.5611644,11.474115255169952,-0.11051298213106386,1.0316749378341392,0.0,76,0.002936124801635742,0.9941493405896457,0.9941493405896457,19327,-2.660604917537124,0.0
241,1.1750760078430176,34.0797291322373,63.242723590411174,141.20589120880285,-19.770049609578443,0.0,0.19050346806298124,0.1,0.004722118377685547,0.05639219284057617,0.049824316,4.137641,13.734676642876687,0.33030072138237676,2.008480559063036,0.0,90,0.0031647682189941406,0.9991774586150638,0.9991774586150638,19417,-2.8026557176134097,0.0
242,1.1703376770019531,-16.766894688131767,9.000468150364346,-1.7658540072821918,-24.556003070907927,0.0,0.20805919360352684,0.1,0.00252532958984375,0.06744194030761719,0.051391333,0.5559211,10.684519509775843,-0.1401318518310929,1.0034109255302017,0.0,84,0.0035257339477539062,0.995076728812044,0.995076728812044,19501,-3.1922232168079248,0.0
243,1.1656527519226074,-6.5099464926134845,21.073319926079655,29.95065815679951,-19.758469780785916,0.0,0.21764357282171884,0.1,0.0025615692138671875,0.060632944107055664,0.0477715,0.63479465,8.96507290953691,-0.056212367809434186,1.2069444872824937,0.0,83,0.0032165050506591797,0.9953339583356567,0.9953339583356567,19584,-4.169518127809076,0.0
244,1.1636533737182617,-14.883913911843369,6.993898091777596,-4.291455864067935,-22.515740387798708,0.0,0.1960880451736044,0.1,0.0024471282958984375,0.06440401077270508,0.0553143,0.53628355,6.580174227398883,-0.03555954530810675,1.0377063488330884,0.0,81,0.003069639205932617,0.9943221117519229,0.9943221117519229,19665,-4.7268162413109716,0.0
245,1.156963586807251,49.52674934494201,114.63929012430543,248.06527653450777,-18.656370005464126,0.0,0.1666642461085479,0.1,0.0025207996368408203,0.07448267936706543,0.05893043,4.441666,10.874831739153196,0.01079974650084177,2.3287429098726324,0.0,82,0.003564119338989258,0.999716872529375,0.999716872529375,19747,-4.2523668968094315,0.0
246,1.1545741558074951,-13.70093309501021,9.69544859441325,-0.9512725958877315,-27.447839194788283,0.0,0.24038928064851836,0.1,0.002468109130859375,0.0662693977355957,0.05007256,0.4210306,8.417255255736855,-0.01978450439722349,1.0599957404676381,0.0,80,0.008519411087036133,0.9947152792143353,0.9947152792143353,19827,-4.737504889825566,0.0
247,1.1628007888793945,-14.24557847471425,8.213173872623637,-3.788530061805468,-26.27760418783317,0.0,0.20417246031106476,0.1,0.002562999725341797,0.06567788124084473,0.045010053,0.4237742,6.150971882691744,-0.03920339686563867,1.0520600650825718,0.0,85,0.0030303001403808594,0.9942322211795477,0.9942322211795477,19912,2.322232414986488,0.0
248,1.156914234161377,10.637459883212934,42.16014442229848,82.32938522421266,-25.59312296002315,0.0,0.18936124149252287,0.1,0.0025479793548583984,0.0588383674621582,0.044343848,0.9742115,6.599620682743863,0.20127712038780418,1.5439478541761857,0.0,89,0.0032498836517333984,0.9986807814679862,0.9986807814679862,20001,7.082301588215149,0.0
249,1.1678473949432373,74.15940869700125,161.59289537443445,354.0085395706888,-22.07614641632273,25.0,0.1754910476564079,0.1,0.0026330947875976562,0.06764531135559082,0.07264108,2.7443504,13.355599484169602,0.043264724132858166,2.815859378088433,25.0,88,0.0033426284790039062,1.0000615371393824,1.0000615371393824,20089,-3.9683485997099637,0.0
250,1.166156530380249,36.54931451788822,94.72778912371055,199.92733903173843,-29.788592534800024,0.0,0.2158045900967065,0.1,0.0025284290313720703,0.06583523750305176,0.048085775,1.8796209,15.674970987541466,0.05117348078150623,2.0672602347745377,0.0,90,0.0029137134552001953,0.9993488677914437,0.9993488677914437,20179,-3.899278554317208,0.0
251,1.1659293174743652,-18.812610313075822,4.5165643870026715,-14.0165008834893,-26.211623420601676,0.0,0.20329405599992628,0.1,0.002574443817138672,0.05068540573120117,0.055501815,0.49214366,12.226212857479737,-0.20459075326111634,0.9671307587217475,0.0,88,0.003149271011352539,0.995313044534881,0.995313044534881,20267,-5.148293790749339,0.0
252,1.1776621341705322,-10.165326474251398,22.151673330067435,28.183422959008553,-23.536892515807278,0.0,0.18468233994537328,0.1,0.0024979114532470703,0.05123090744018555,0.04819096,1.9532946,9.987058924306625,-0.20389715846427992,1.1355820402324568,0.0,86,0.002888917922973633,0.995757521932352,0.995757521932352,20353,-4.8278187486629935,0.0
253,1.162733554840088,-13.563929480283802,10.170291708193773,-2.6565193147211192,-30.029305884826677,0.0,0.21589519933353785,0.1,0.002484560012817383,0.04991793632507324,0.049513936,0.41050538,7.6319600838475825,-0.009773988015978785,1.0588150842322324,0.0,84,0.002852916717529297,0.9948810478588953,0.9948810478588953,20437,-4.539197905638077,0.0
254,1.1662118434906006,-9.79120106636141,7.1559845536021625,-1.084635893790474,-19.36496984121102,0.0,0.2311262973073792,0.1,0.002566814422607422,0.05122184753417969,0.04797042,0.3967351,5.889643968826683,0.1468655442317639,1.1353697864630592,0.0,84,0.0029366016387939453,0.9930044291305428,0.9930044291305428,20521,-4.630976988539705,0.0
255,1.1654329299926758,52.19458412960813,114.68910078925215,250.6575561637181,-21.53858588686756,0.0,0.17079677084446138,0.1,0.003000020980834961,0.05957603454589844,0.049684126,4.2489557,10.520137984904828,0.14997641008262752,2.3781081987590857,0.0,85,0.0029404163360595703,0.9998304645252943,0.9998304645252943,20606,-4.0066374919019685,0.0
256,1.1737141609191895,12.524666747959158,28.76275936033875,61.6397561981089,-11.187673157537935,0.0,0.22596210842263217,0.1,0.0025560855865478516,0.05189967155456543,0.047818128,1.9525996,10.72059086121026,0.4958516101605097,1.5769624838662453,0.0,91,0.0029153823852539062,0.99823510870572,0.99823510870572,20697,-4.3649352819340494,0.0
257,1.1809167861938477,-12.129455643503679,4.799538694254713,-6.192332610872174,-17.01170471800147,0.0,0.18951209838411534,0.1,0.003002643585205078,0.05345797538757324,0.041130085,0.5761409,8.435586210738865,0.017982516896554647,1.0945971813578488,0.0,77,0.0030221939086914062,0.9931807286996519,0.9931807286996519,20774,-4.939659367014952,0.0
258,1.1708765029907227,41.81923852659581,120.62593615153483,250.6430680978911,-33.60782265752145,0.0,0.16210828941047573,0.1,0.002623319625854492,0.05879330635070801,0.053365976,4.827241,11.77395144232456,-0.3395390928400892,2.178623531346845,0.0,83,0.0059201717376708984,0.9996331521199576,0.9996331521199576,20857,-4.786252945667003,0.0
259,1.1537353992462158,-14.491213617279632,6.673309732759308,-4.216023398967641,-22.254530242587354,0.0,0.1920841753230113,0.1,0.002628803253173828,0.0575871467590332,0.05018478,0.54081285,9.14743493636414,-0.05797407332985513,1.0474096193552163,0.0,81,0.003768444061279297,0.994100984151082,0.994100984151082,20938,-4.751186818647401,0.0
260,1.1309723854064941,38.91084525986976,88.74211565117396,191.84796224667573,-26.05907077848549,0.0,0.22945398237560846,0.1,0.0024640560150146484,0.05114006996154785,0.050797906,2.4223177,12.123775968714703,0.24677020344275524,2.1117712500236214,0.0,87,0.0031249523162841797,0.9994642155219858,0.9994642155219858,21025,-4.385777797812143,0.0
261,1.2065041065216064,57.01911439813741,111.19984065193903,248.6697084719468,-24.163337378314765,0.0,0.1884412165239657,0.1,0.002510547637939453,0.05089282989501953,0.052729495,0.83839226,16.613309811656976,0.1485109012464939,2.467531958702229,0.0,95,0.0028319358825683594,1.000315128524454,1.000315128524454,21120,-4.56036310731529,0.0
262,1.150754451751709,-7.1152642018903,18.55663495630589,21.33652725779605,-24.998055581359566,0.0,0.1847815320285003,0.1,0.002748727798461914,0.05963444709777832,0.054084,1.0695348,14.240452410302249,0.03439679605856183,1.1899693971080088,0.0,77,0.0028617382049560547,0.9959029467342783,0.9959029467342783,21197,-5.218493436080299,0.0
263,1.1583993434906006,94.77157617242565,162.2165724369837,375.0057895631183,-12.199435673660485,25.0,0.17027428770547098,0.1,0.0025670528411865234,0.050992727279663086,0.046342835,2.1916666,22.29356478651459,0.4918689718068062,3.2196036825691596,25.0,88,0.003315448760986328,1.000205792795493,1.000205792795493,21285,-5.3190371384846875,0.0
264,1.1615746021270752,29.869642141232735,50.552784107462394,103.69634238252914,-25.17720815851534,0.0,0.19918297614509514,0.1,0.002751588821411133,0.054921627044677734,0.048624594,0.74308777,23.051172521986405,0.28932367090922445,1.9258667859152194,0.0,86,0.0030558109283447266,0.9998267603985826,0.9998267603985826,21371,-5.737911360415158,0.0
265,1.101058006286621,-20.66542966127762,5.813678283647636,-13.890720240276629,-26.88918914318052,0.0,0.2048680787306168,0.1,0.002609729766845703,0.051215171813964844,0.051246356,0.46006435,18.67951230366,-0.3406705350358583,0.9268116646134683,0.0,80,0.003183603286743164,0.9953529716590855,0.9953529716590855,21451,-5.440189763883722,0.0
266,1.1710379123687744,-10.110327748311466,3.6141780671330754,-4.535997797533128,-13.926352638411387,0.0,0.22348475990323657,0.1,0.0026369094848632812,0.05441427230834961,0.049538516,0.5345827,15.800528298462854,0.18088312485538333,1.1333489525646894,0.0,93,0.003275632858276367,0.9919705961468669,0.9919705961468669,21544,-5.695698942756169,0.0
267,1.1854195594787598,-14.293883186712854,6.08044817195102,-7.117148965193922,-22.05421937356637,0.0,0.19232651665544012,0.1,0.0025277137756347656,0.051186323165893555,0.05132691,0.43910688,12.791087149945284,-0.023710038889707755,1.051820661828959,0.0,86,0.0033299922943115234,0.9937790266468951,0.9937790266468951,21630,-5.370609861545859,0.0
268,1.1468403339385986,-21.207872329292456,4.282694353851812,-15.297834862477213,-26.242725747890262,0.0,0.19896606958277221,0.1,0.002653360366821289,0.05186319351196289,0.05381973,0.6817785,9.39119120202151,-0.3510148679923887,0.9171767131889542,0.0,84,0.003428936004638672,0.9955231220748434,0.9955231220748434,21714,-4.978411627635501,0.0
269,1.1320257186889648,-13.579861720559355,8.84469407696396,1.4553839054881479,-20.66261875788928,0.0,0.20762287760672873,0.1,0.002549886703491211,0.05298924446105957,0.04363492,0.51623255,7.0940859097634235,0.0017712226994007624,1.0635573411504033,0.0,79,0.0030717849731445312,0.9942512922641464,0.9942512922641464,21793,-4.82867066438948,0.0
270,1.14650297164917,-12.4734963138672,9.503244697698175,0.33278484057085045,-21.756123866783586,0.0,0.1824077770585728,0.1,0.0024929046630859375,0.05136728286743164,0.048628602,0.61683995,5.1373276874003615,-0.012726381351510968,1.0847950207646746,0.0,74,0.0053288936614990234,0.9942755484128961,0.9942755484128961,21867,-4.807490515349374,0.0
271,1.1249995231628418,-2.1058640763360774,14.47975861130341,19.11767668489837,-16.920000422447,0.0,0.20726525141608365,0.1,0.0031120777130126953,0.049721479415893555,0.050324682,0.589843,4.413008511026717,0.2549704486749858,1.2895325757937286,0.0,77,0.0030126571655273438,0.994327547965975,0.994327547965975,21944,-4.947780208091786,0.0
272,1.1516976356506348,-12.53628877796263,6.087347931821769,-5.595594784822666,-21.66246196889887,0.0,0.20391686221701144,0.1,0.0025568008422851562,0.05235743522644043,0.049595572,0.4580186,2.7180787821277828,-0.009025755162142136,1.083241261776338,0.0,80,0.003284454345703125,0.9931948259237355,0.9931948259237355,22024,-4.856927908525367,0.0
273,1.138258695602417,34.66209911188193,57.48796326743219,129.99859123264858,-15.979577705765507,0.0,0.1826500970807836,0.1,0.002575397491455078,0.052133798599243164,0.049281977,7.1251435,5.912480815103198,0.37583455362846396,2.0197316343049914,0.0,89,0.003153562545776367,0.9990333452268295,0.9990333452268295,22113,-4.86220092492854,0.0
274,1.1524696350097656,-12.524418188934966,7.9188611778585045,-4.703965827752785,-22.940950576830858,0.0,0.22760423575370747,0.1,0.0025796890258789062,0.054937124252319336,0.055552423,0.42641795,4.068790914699381,0.04350282511587798,1.0858366158836399,0.0,89,0.0030717849731445312,0.9945021080888754,0.9945021080888754,22202,-5.34157740271144,0.0
275,1.0938503742218018,-20.232161072246818,5.388200673819491,-14.669728265949814,-29.05838490584344,0.0,0.20059652073721423,0.1,0.0025758743286132812,0.05335211753845215,0.04638682,0.45373815,1.6386957160047615,-0.3295717920617877,0.935843072432343,0.0,82,0.0033750534057617188,0.9954659947379408,0.9954659947379408,22284,-6.291283428813277,0.0
276,1.1360764503479004,-13.46621694077003,7.97384702447373,-3.6132245034276065,-25.44778768851873,0.0,0.2219074550021733,0.1,0.0025513172149658203,0.05900716781616211,0.05115556,0.4165795,0.12820445032728234,-0.00015830214607587267,1.0671704977622312,0.0,83,0.003039836883544922,0.9942826381771481,0.9942826381771481,22367,-6.014261267018131,0.0
277,1.1498699188232422,6.80002584156727,20.78493708212594,41.91246601422951,-12.154942179611151,0.0,0.20361460593639338,0.1,0.002635478973388672,0.05267691612243652,0.04027203,0.6576758,0.795386589451281,0.48493630082380135,1.4616509483037414,0.0,79,0.002999544143676758,0.9961464166754278,0.9961464166754278,22446,-5.719238427840512,0.0
278,1.1295750141143799,-9.399465972261336,6.227110260444164,0.6815649967933659,-15.095000631254916,0.0,0.20044844323185282,0.1,0.002651214599609375,0.05816459655761719,0.055829477,0.70147246,-0.2240986667199807,0.23403360159199119,1.1454034781591238,0.0,91,0.0033278465270996094,0.9936111011161646,0.9936111011161646,22537,-5.90640508044212,0.0
279,1.1220881938934326,-9.866661061279384,4.480544342485056,-4.21533940396751,-14.532751376440219,0.0,0.20647810460813823,0.1,0.0026476383209228516,0.05247020721435547,0.051551376,0.43371606,-1.188354906175921,0.1859945599340726,1.1375368288717644,0.0,81,0.0032846927642822266,0.9929777906348146,0.9929777906348146,22618,-5.373202386843759,0.0
280,1.1510920524597168,37.97860778131846,92.78519677934705,198.3679794504146,-21.821823862662086,0.0,0.1606990172113772,0.1,0.002495288848876953,0.05175304412841797,0.053844947,9.421836,2.7283413625735173,0.05006465348472057,2.097218976164324,0.0,80,0.003124237060546875,0.9995743806472557,0.9995743806472557,22698,-5.698400032276253,0.0
281,1.1895387172698975,-19.078254622662236,7.210304498347488,-7.102922022648142,-25.65876660366548,0.0,0.19217459693100766,0.1,0.002577066421508789,0.05338168144226074,0.053952403,0.5763069,0.5476817640499421,-0.2181183947847002,0.9598939499997232,0.0,87,0.0032351016998291016,0.9958278514154943,0.9958278514154943,22785,-5.23637876908733,0.0
282,1.1535232067108154,-13.55145042531504,6.657268825001011,-5.1935204518247495,-21.7369995983174,0.0,0.20188056735676776,0.1,0.002931356430053711,0.050269365310668945,0.05087918,0.4710897,-0.8622314548865561,-0.015358930935648399,1.0667385218153906,0.0,80,0.0036249160766601562,0.9937404195655593,0.9937404195655593,22865,-4.768862592599583,0.0
283,1.1540729999542236,-14.544008983022376,5.964561749658566,-5.40724074351102,-21.253120322445394,0.0,0.20379975974959322,0.1,0.0025472640991210938,0.0593416690826416,0.061277065,0.5197069,-2.230409207700138,-0.081791503192398,1.0422675746222672,0.0,78,0.0027761459350585938,0.994911721359665,0.994911721359665,22943,-5.013091021575229,0.0
284,1.189347267150879,-11.66728115255044,5.309204444586531,-2.7756753402257837,-16.635669812717758,0.0,0.2139411643102452,0.1,0.003132343292236328,0.06108832359313965,0.05354908,0.59094936,-3.1740964021851683,0.07375808248375372,1.1013842659654272,0.0,76,0.0033142566680908203,0.9935169919057857,0.9935169919057857,23019,-4.523631334155769,0.0
285,1.1488687992095947,5.891493809267654,44.746208341052764,83.33109493416765,-22.77443129835458,0.0,0.20773275180762976,0.1,0.002544879913330078,0.05274057388305664,0.053887457,0.7997962,-2.267537381039886,-0.059690053622992706,1.45219596737124,0.0,74,0.007458209991455078,0.9988244961935556,0.9988244961935556,23093,-4.679629952087093,0.0
286,1.16090989112854,-4.422515778298793,15.831744373255187,19.106139379751433,-24.552752378840246,0.0,0.16007523369433366,0.1,0.0026047229766845703,0.0611569881439209,0.055559218,3.0976295,-2.4830352207657764,0.22606003773171857,1.243267595607094,0.0,78,0.0027370452880859375,0.9944952689979392,0.9944952689979392,23171,-5.460191260514975,0.0
287,1.1995961666107178,-6.141041761970921,20.91752200513411,29.77695939583239,-21.46643265592065,0.0,0.18940943761274392,0.1,0.004835605621337891,0.07250070571899414,0.053734105,2.7469,-2.848835874886291,-0.04430112846124452,1.2124706450928837,0.0,84,0.004067182540893555,0.9954705177233449,0.9954705177233449,23255,-4.776269179398178,0.0
288,1.1461620330810547,-17.554126749746963,5.1445956354589875,-8.854401169212148,-22.034465043109876,0.0,0.18556092877815442,0.1,0.0025434494018554688,0.07302308082580566,0.06327006,0.6046216,-4.319364962372358,-0.1962530865044234,0.9886956946856976,0.0,81,0.003373384475708008,0.9956408477525276,0.9956408477525276,23336,-5.1282034796738944,0.0
289,1.1611003875732422,-14.203531198873332,11.516340398196265,2.100830308624314,-26.885319618177935,0.0,0.21486370722331183,0.1,0.0024530887603759766,0.06188154220581055,0.0495586,0.52220494,-5.307781586022456,-0.027928098235753873,1.051788435791954,0.0,84,0.002877950668334961,0.9953172412632683,0.9953172412632683,23420,-4.820002793874132,0.0
290,1.181502342224121,-16.31884252827156,3.0202512929609906,-11.583899167804375,-19.962809943474817,0.0,0.18991406243688835,0.1,0.0024690628051757812,0.07133269309997559,0.057890356,0.72928,-6.408887680247366,-0.16826241826314747,1.0135320921867987,0.0,78,0.0042612552642822266,0.9945494383573131,0.9945494383573131,23498,-4.503103643727355,0.0
291,1.1516828536987305,69.85280636085756,115.58057116648666,269.14110799916426,-9.299790763788309,0.0,0.17147758917247327,0.1,0.0027446746826171875,0.057464599609375,0.05319512,8.06077,1.2172817238631266,0.5224432935437439,2.7234876752889186,0.0,81,0.0034062862396240234,1.0000796706024042,1.0000796706024042,23579,-4.651070237801714,0.0
292,1.1358227729797363,-12.115657404613742,7.541234324577051,-3.541433101583164,-19.790804431754246,0.0,0.17674465791513472,0.1,0.0028772354125976562,0.05049777030944824,0.056937966,0.68398666,-0.11601218898456023,0.0021345214878661367,1.091118905133139,0.0,74,0.009862184524536133,0.9946360422974264,0.9946360422974264,23653,-4.860729212032743,0.0
293,1.08624267578125,-17.445282247025645,7.232938699387308,-5.537389854167183,-25.00869363426071,0.0,0.17879022480215,0.1,0.0024652481079101562,0.049097299575805664,0.07534835,0.775127,-1.8489391947886689,-0.2469878506176777,0.9874256586781066,0.0,73,0.0029523372650146484,0.9951804601350643,0.9951804601350643,23726,-5.469912234113164,0.0
294,1.0722811222076416,0.9813213054947068,24.215029706333183,40.0831513773119,-21.09339771552498,0.0,0.20968229017399664,0.1,0.002477884292602539,0.048793792724609375,0.0539654,0.8485679,-1.5659131447603314,0.19591638934488814,1.3505917785249095,0.0,85,0.0027654170989990234,0.9962408884198568,0.9962408884198568,23811,-5.868657419744469,0.0
295,1.0601589679718018,57.944129176402654,124.85304491791304,273.6381034683578,-28.586447968834833,0.0,0.17583501973185292,0.1,0.002458810806274414,0.049425601959228516,0.049498335,2.9690437,4.385091087355967,0.15774340208493343,2.4919008848644735,0.0,81,0.0027937889099121094,0.9999021557601943,0.9999021557601943,23892,-5.98297420945102,0.0
296,1.0691156387329102,-12.131839039372924,11.201916925072313,-0.4652433328450778,-27.168469983831365,0.0,0.2106816047411269,0.1,0.0029876232147216797,0.05002570152282715,0.048076857,0.44994915,2.7333980746830777,0.07318372495234896,1.090782866823249,0.0,86,0.0033941268920898438,0.9951177051589234,0.9951177051589234,23978,-5.800779981484479,0.0
297,1.0659871101379395,-14.282882119380815,12.876536766141806,5.444581849479183,-30.667593600877595,0.0,0.2232591097268454,0.1,0.0026216506958007812,0.05008673667907715,0.047176093,0.45229727,1.0317700552766884,-0.12401580768745366,1.05197845343379,0.0,85,0.00286865234375,0.995427533484313,0.995427533484313,24063,-5.4706930843189205,0.0
298,1.0651025772094727,-8.772852731266353,7.653496640606885,-0.3270601777041149,-19.98931807536605,0.0,0.19388805709404233,0.1,0.002466917037963867,0.04949665069580078,0.049509604,0.4892715,0.05130777662238428,0.267767557640513,1.1542469980943728,0.0,85,0.0028455257415771484,0.9935533053598716,0.9935533053598716,24148,-5.559780635215563,0.0
299,1.0677075386047363,-12.743002892644217,6.376926895114789,-6.256524369034021,-20.414173836215273,0.0,0.19971431073908488,0.1,0.0025551319122314453,0.04802274703979492,0.060496233,0.5482294,-1.2281232903042758,0.03829223975670408,1.0774652503257673,0.0,83,0.0030181407928466797,0.994457098936883,0.994457098936883,24231,-5.447887258404219,0.0
300,1.0589733123779297,-16.31557119046919,6.320874119151722,-7.241863692318764,-23.34660108180188,0.0,0.21775694946496005,0.1,0.0028753280639648438,0.04877805709838867,0.05412847,0.51265603,-2.7368680803207672,-0.1795208429060424,1.009739278536538,0.0,76,0.005613565444946289,0.9949051338097497,0.9949051338097497,24307,-5.7317007807510985,0.0
301,1.1053435802459717,27.880534266390416,66.98231914303359,141.30976763206874,-25.056579021436985,0.0,0.21155210807498395,0.1,0.002496480941772461,0.04845762252807617,0.053667516,1.7434474,0.3248721543503512,0.15711858996194697,1.888540357127006,0.0,81,0.003565549850463867,0.9990186827181169,0.9990186827181169,24388,-5.490946368031513,0.0
302,1.0647001266479492,-12.683806345964436,7.1386777760177775,-8.319549674766694,-25.045577661071295,0.0,0.2029761317369339,0.1,0.002573251724243164,0.049410104751586914,0.04383283,0.33131677,-0.9759956956811275,0.00626601707805155,1.0816857868241403,0.0,75,0.0032575130462646484,0.9944724661811628,0.9944724661811628,24463,-5.689797461877472,0.0
303,1.079157829284668,-9.831691809246529,6.554724231747653,-2.798069896857185,-17.21531745187975,0.0,0.1991162947703213,0.1,0.0024878978729248047,0.048830509185791016,0.05152907,0.65607536,-1.8615653070376676,0.1645804697276707,1.134816081306651,0.0,80,0.003086566925048828,0.9933658132194574,0.9933658132194574,24543,-5.692486847009445,0.0
304,1.0746939182281494,-18.120604137254507,6.522989036006676,-12.207157616028043,-29.13620551533004,0.0,0.20016020931082526,0.1,0.0024819374084472656,0.04846763610839844,0.055370998,0.42588136,-3.4874691900593517,-0.18030796838142696,0.9765415537914649,0.0,86,0.003101348876953125,0.9955119400976638,0.9955119400976638,24629,-5.918931247508,0.0
305,1.0644607543945312,-13.17819236064445,9.938377904316347,-0.771077083286106,-25.5987951165394,0.0,0.19105023746415245,0.1,0.002759218215942383,0.04974484443664551,0.054592323,0.49496225,-4.456541507117862,-0.04092913575517754,1.0724425829362976,0.0,81,0.003057241439819336,0.9952516097695581,0.9952516097695581,24710,-5.720566426320777,0.0
306,1.0865280628204346,-24.38164099828864,8.494564409811543,-14.768995047985026,-37.36453043971089,0.0,0.19836583405934163,0.1,0.002515554428100586,0.05032944679260254,0.066854656,0.41250682,-6.4490514562349395,-0.42254004075291424,0.8534894507409754,0.0,90,0.0038094520568847656,0.9962441812327623,0.9962441812327623,24800,-5.7969574613185735,0.0
307,1.0744597911834717,-16.772835569109322,7.631990949207066,-6.374617624115073,-27.78160833164015,0.0,0.20767977900079393,0.1,0.0023908615112304688,0.04872584342956543,0.04831474,0.47697273,-7.481429867522378,-0.14785075614829754,1.0029806670633636,0.0,82,0.0036344528198242188,0.9951864686424123,0.9951864686424123,24882,-5.897812601148577,0.0
308,1.0903635025024414,44.18531483383764,89.86899000962616,199.68538279948012,-14.110524069143356,0.0,0.22158372823918698,0.1,0.002582073211669922,0.05311393737792969,0.054024242,1.7528367,-2.314755397386376,0.3507311142954855,2.2149206283414267,0.0,86,0.0029115676879882812,0.9997969062455835,0.9997969062455835,24968,-5.720525687227102,0.0
309,1.0202326774597168,65.82115752395798,147.43351221027305,321.1462672906834,-22.87168433702262,25.0,0.21483936379002463,0.1,0.002902984619140625,0.05077791213989258,0.03980192,1.1369556,4.498835894748059,-0.029398239523542327,2.6532182602648384,25.0,86,0.003173828125,1.0000316819597193,1.0000316819597193,25054,-5.804808297745229,0.0
310,1.0178163051605225,-19.398878243397828,6.270960012292103,-9.64514949782758,-26.90867024149449,0.0,0.2258355028252325,0.1,0.00260162353515625,0.05022120475769043,0.04530076,0.41161948,2.109064480933471,-0.26903315251484305,0.9545836497991637,0.0,85,0.0029649734497070312,0.9959514697084586,0.9959514697084586,25139,-5.568792984637433,0.0
311,1.0170047283172607,-1.4542302505865834,17.674534504208474,27.172633210452872,-19.641956692957265,0.0,0.2180411186419058,0.1,0.002518177032470703,0.05217385292053223,0.049602732,0.9836381,1.7527350077814654,0.1874872382200973,1.3031694894718924,0.0,87,0.0029299259185791016,0.994263332674155,0.994263332674155,25226,-5.525146397865806,0.0
312,1.0384438037872314,-9.087532302008789,23.759494841737084,31.19775903672253,-30.438035806575936,0.0,0.21263850201577672,0.1,0.002454519271850586,0.04956650733947754,0.050654426,0.7954809,0.6687082768024399,-0.09558955054507938,1.1564037765906519,0.0,91,0.002931356430053711,0.996265388946527,0.996265388946527,25317,-5.790676105459606,0.0
313,1.0241096019744873,-14.58083983107865,7.967914901461685,-1.7965933757500991,-23.71766814075538,0.0,0.20192543565688426,0.1,0.0024805068969726562,0.04849600791931152,0.045043346,0.5569998,-0.8562465339856692,-0.060526837536432926,1.0434118518638613,0.0,82,0.0027942657470703125,0.9953343066710467,0.9953343066710467,25399,-6.604428258017418,0.0
314,1.027226209640503,31.008598335229294,98.56483457190033,201.5908659834567,-31.557057620217755,0.0,0.15810007818508298,0.1,0.002763986587524414,0.04847264289855957,0.041907687,2.8426144,2.3302379529358275,-0.2685718852906434,1.9565155454116843,0.0,84,0.00241851806640625,0.9995125603182663,0.9995125603182663,25483,-6.262634823976719,0.0
315,1.042832374572754,-22.214918609161003,4.2953767352905405,-15.057396036011724,-26.26559342863692,0.0,0.20287756182507957,0.1,0.0024461746215820312,0.0485692024230957,0.055907086,1.1814759,-0.12427770327385579,-0.33863381401575626,0.8990531450263788,0.0,90,0.0035479068756103516,0.9954772665584526,0.9954772665584526,25573,-6.386313488758798,0.0
316,1.044050931930542,-16.218796530304726,9.730208566329354,-5.395780288277686,-31.365118901315725,0.0,0.2022701399417403,0.1,0.0024461746215820312,0.048117637634277344,0.052234344,0.549407,-1.7337295859769428,-0.05070871605106492,1.0137982995870238,0.0,91,0.0026738643646240234,0.9957804238097762,0.9957804238097762,25664,-6.882395402528103,0.0
317,1.0416076183319092,70.11554397899607,145.56135330635252,321.88148712571683,-26.154044568771795,25.0,0.1516894218494025,0.1,0.0025391578674316406,0.05133342742919922,0.065395534,4.3200035,5.451197770520359,0.15285635746011447,2.7348455065248114,25.0,87,0.0030694007873535156,1.0001070198842408,1.0001070198842408,25751,-6.542515062515995,0.0
318,1.0515711307525635,86.44106478709804,102.20562448419643,188.67090859155454,-18.58234902911144,0.0,0.2076140333264413,0.1,0.002527475357055664,0.05027294158935547,0.042220153,1.0971819,13.550184472178127,0.2378730780293918,3.0614520584012865,0.0,87,0.002993345260620117,1.0000099075257904,1.0000099075257904,25838,-7.151315304079631,0.0
319,1.0408053398132324,-17.739034422651418,9.688607944599637,-8.078105850328317,-33.606798381357606,0.0,0.19863942277784502,0.1,0.0023734569549560547,0.04981112480163574,0.058346793,0.5061783,10.421262582695173,-0.14493527822414215,0.9854790888201373,0.0,86,0.0026793479919433594,0.9951495796836058,0.9951495796836058,25924,-6.91257205444505,0.0
320,1.0621154308319092,-12.047332245115788,3.382040230068743,-7.885077538947148,-17.309060954970665,0.0,0.22110242004991812,0.1,0.0024292469024658203,0.04796576499938965,0.059925247,0.6337854,8.174403099914077,0.09029365871013331,1.0951751186765357,0.0,86,0.0026285648345947266,0.9930798031853564,0.9930798031853564,26010,-6.703990228159442,0.0
321,1.0547099113464355,11.10358469095072,20.20414260896637,32.04206657623097,-14.697643074285876,0.0,0.18932202833006484,0.1,0.002781391143798828,0.05004167556762695,0.055864643,1.1042739,8.467321259017742,0.4630489479531955,1.5494064707484323,0.0,83,0.002740144729614258,0.9962286601541699,0.9962286601541699,26093,-6.270264188688536,0.0
322,1.0577924251556396,-14.74032160078405,13.741519116756741,3.53827997294458,-34.91331126574214,0.0,0.22241663414991808,0.1,0.0029494762420654297,0.04932737350463867,0.05099123,0.4278289,6.146556973037564,-0.0019798944782404883,1.0379226316650065,0.0,83,0.002875804901123047,0.996215994658528,0.996215994658528,26176,-7.003407533744682,0.0
323,1.0931613445281982,41.02579634323776,98.98179764583409,212.02850172130962,-25.412564434874326,0.0,0.17759174634982047,0.1,0.0027496814727783203,0.049134254455566406,0.057633504,3.1730034,9.634480910057583,0.1171410139352484,2.155694791716223,0.0,82,0.0027000904083251953,0.999705727866848,0.999705727866848,26258,-7.260871590207575,0.0
324,1.0810675621032715,-20.503729134434842,6.584410044960261,-9.792472059021998,-27.477068644256338,0.0,0.18985586935579885,0.1,0.00240325927734375,0.0504302978515625,0.06310985,0.60260457,6.620659905608342,-0.3426553987517072,0.9307161330889104,0.0,78,0.0065460205078125,0.995568971455172,0.995568971455172,26336,-7.3332834511932035,0.0
325,1.0834434032440186,-17.565518853267747,6.456701481601333,-12.661524624355966,-28.66642965871437,0.0,0.23380252263986245,0.1,0.0024328231811523438,0.04821920394897461,0.045495436,0.35432476,4.202042029720733,-0.17999775664071624,0.9866256680416734,0.0,85,0.0027201175689697266,0.9944496502776938,0.9944496502776938,26421,-7.224971952869104,0.0
326,1.1021249294281006,-21.28924294016287,8.836485487779074,-6.671374474543214,-30.176448874068306,0.0,0.20411805807506297,0.1,0.0029578208923339844,0.05092954635620117,0.05956569,0.5610161,1.6529135327323723,-0.2403327895320418,0.9126142585808086,0.0,96,0.003172159194946289,0.9957206473107291,0.9957206473107291,26517,-7.164974689905599,0.0
327,1.0339100360870361,89.92673033558702,182.1444584519553,405.32998053887854,-19.209599017868953,25.0,0.18286618871784496,0.1,0.0031585693359375,0.051714420318603516,0.043241117,1.3730353,10.480295213017838,0.13619294099960616,3.1276256937185574,25.0,83,0.003257274627685547,1.000069202181098,1.000069202181098,26600,-7.193233209612004,0.0
328,1.0287635326385498,-16.497165212021585,9.315389537754166,-2.1773957879644295,-27.262279998625715,0.0,0.2116628937662841,0.1,0.002593517303466797,0.051863908767700195,0.05335695,0.48260266,7.782549170513896,-0.14707696344484333,1.004551307062991,0.0,82,0.003029346466064453,0.9951031994722773,0.9951031994722773,26682,-6.945001234783149,0.0
329,1.0276970863342285,72.3749893875602,104.53151622288058,249.05971254325547,-23.79388821178519,0.0,0.1759633625906918,0.1,0.002803325653076172,0.05073118209838867,0.04630019,1.9875147,14.241793192218527,0.38569258838918385,2.7738656361770153,0.0,81,0.0030977725982666016,1.000129707550527,1.000129707550527,26763,-6.891684004694249,0.0
330,1.028202772140503,17.159298681603854,71.24219367511967,140.45839982250823,-28.28607188538396,0.0,0.2086267626737252,0.1,0.002596616744995117,0.05012106895446777,0.052167334,2.4698067,14.53354374115706,-0.18094218737873743,1.6796946674487883,0.0,81,0.0030777454376220703,0.9989605176081815,0.9989605176081815,26844,-7.165118984904748,0.0
331,1.0317704677581787,33.96361194348011,97.2844284984752,202.33995873293705,-26.814093591956368,0.0,0.21503248235391575,0.1,0.0028944015502929688,0.04911184310913086,0.053450726,1.0778068,16.476550561389363,-0.1054328086008921,2.0164956057950953,0.0,85,0.0032501220703125,0.9995396923011747,0.9995396923011747,26929,-7.589509875138698,0.0
332,1.044285535812378,6.243393434305988,16.060906310007997,31.030148862641024,-8.161150767848099,0.0,0.23642159468964952,0.1,0.002511739730834961,0.05018949508666992,0.044519063,0.58566755,15.453234848681026,0.35856069062790463,1.4572668963666526,0.0,92,0.006737470626831055,0.994260450017523,0.994260450017523,27021,-7.327797119047749,0.0
333,1.026562213897705,-12.030800504330104,7.7043309350112885,-1.4012048728042896,-23.05442520065786,0.0,0.2003561066890629,0.1,0.002587556838989258,0.05079150199890137,0.048607443,0.5039918,12.704831313379913,0.07263593610978288,1.0933716730658285,0.0,81,0.0031669139862060547,0.9938961548173565,0.9938961548173565,27102,-7.484389414586144,0.0
334,1.0600054264068604,-15.89255761512812,8.154146148813268,-5.117569427479705,-26.533486589390012,0.0,0.22876239626589073,0.1,0.0026268959045410156,0.05000591278076172,0.050656654,0.44906962,9.84509242052911,-0.10457887010791052,1.020651226420753,0.0,84,0.0029299259185791016,0.9948891733390043,0.9948891733390043,27186,-7.8098757127727145,0.0
335,1.051255226135254,57.01922437728972,118.93790219454634,262.5242804394408,-24.53715845937827,0.0,0.19246153447960854,0.1,0.0025310516357421875,0.04890108108520508,0.020325078,0.4030081,14.562505616205172,0.2801530769409569,2.469873610962563,0.0,83,0.002476930618286133,1.0000705801942957,1.0000705801942957,27269,-7.503620676372361,0.0
336,1.0643668174743652,-24.177355525602195,4.144150162980473,-17.805321816273782,-29.23771512424338,0.0,0.18998821569890123,0.1,0.002423524856567383,0.04828023910522461,0.049077798,0.62694603,10.688519502024436,-0.48464018074506865,0.8610321384825075,0.0,83,0.0028862953186035156,0.995774690255943,0.995774690255943,27352,-6.753803017735458,0.0
337,1.064368724822998,14.246267586789788,66.53406798038692,129.38608757439465,-27.91591861926976,0.0,0.18836295541923048,0.1,0.002424478530883789,0.0481412410736084,0.047805235,3.338096,11.044294310500971,-0.2278658683127533,1.623067389388573,0.0,80,0.002920389175415039,0.9984307201290137,0.9984307201290137,27432,-6.593732401054836,0.0
338,1.0647459030151367,-14.159404538329062,10.40134892517916,-3.4635534898753866,-31.351890324302786,0.0,0.20367235311251083,0.1,0.002485036849975586,0.0488133430480957,0.05750441,0.37863076,8.523924425617968,0.0023027345734707647,1.0544959418964865,0.0,88,0.0027551651000976562,0.9951065381657612,0.9951065381657612,27520,-6.759029940456891,0.0
339,1.082338571548462,-5.337312280400177,26.57886372436769,40.03372026578621,-27.807450959187452,0.0,0.1679575037933676,0.1,0.002435445785522461,0.04884052276611328,0.040640928,1.859866,7.137800755016154,-0.08596833553655314,1.2289092968039768,0.0,83,0.002948760986328125,0.9964851863710694,0.9964851863710694,27603,-6.674592959850621,0.0
340,1.0869579315185547,83.61181816522924,75.05641426420358,200.2715934496322,0.7524236372786435,0.0,0.2096199939926997,0.1,0.002521514892578125,0.058868408203125,0.06333448,1.0040959,14.785202496037464,0.6654693649921632,2.9955312196273383,0.0,90,0.003115415573120117,1.0003890823719555,1.0003890823719555,27693,-6.873646665912239,0.0
341,1.0942392349243164,-13.99166363953734,10.230381703831451,-1.4603184532282527,-29.912291278578582,0.0,0.2132692418569244,0.1,0.0023953914642333984,0.048996686935424805,0.04747362,0.42865348,11.907515882479984,0.00014231181103915923,1.0552540591494906,0.0,80,0.002676248550415039,0.995141436389735,0.995141436389735,27773,-6.9285556337706815,0.0
342,1.11403226852417,52.93375392842091,114.35991772671069,248.78095532201456,-28.65889902852406,0.0,0.2301767125416629,0.1,0.0024662017822265625,0.04970717430114746,0.049739823,1.3236755,16.010139687074076,-0.048103897286250114,2.395549031693415,0.0,86,0.002889871597290039,0.9999585535935521,0.9999585535935521,27859,-7.1048864839576575,0.0
343,1.0921976566314697,-14.249689480556373,4.15501646062005,-8.488305984447365,-19.338342085747417,0.0,0.21329546147604067,0.1,0.0025658607482910156,0.049791574478149414,0.05016273,0.52033406,12.984156770311031,-0.04946075361742651,1.049566250364463,0.0,77,0.002699613571166992,0.9936475426183007,0.9936475426183007,27936,-7.083378823330025,0.0
344,1.1171114444732666,-9.4427316591802,13.612210584373793,9.848690332674966,-22.78955089086013,0.0,0.2096056444122461,0.1,0.0024542808532714844,0.05005240440368652,0.052010614,0.5197802,10.741467927361908,0.06874539076046131,1.1448584611374466,0.0,80,0.0030341148376464844,0.9947044654288825,0.9947044654288825,28016,-6.685049122785624,0.0
345,1.0257794857025146,31.333301342272698,92.76992555787261,190.6629727151581,-32.78049593145272,0.0,0.20973312614160675,0.1,0.003120899200439453,0.05011463165283203,0.044815473,1.7397444,12.800651268852988,-0.031246522989856723,1.9589628051451897,0.0,89,0.0033812522888183594,0.999393654761231,0.999393654761231,28105,-6.544161964238914,0.0
346,1.0138523578643799,-13.122440606514013,7.035850672031254,-4.349005004193414,-21.976777958959495,0.0,0.21549438987180344,0.1,0.0025072097778320312,0.04873013496398926,0.060091212,0.4556575,10.208342081316287,0.0005276172807548163,1.0730593190695685,0.0,79,0.00511479377746582,0.994531299893293,0.994531299893293,28184,-6.487650287351713,0.0
347,1.024977684020996,-3.742792028325549,20.284292834217243,29.398404374726205,-21.350162774500756,0.0,0.2144465937466056,0.1,0.0026962757110595703,0.05023670196533203,0.05117872,0.83906996,8.813228670352103,0.13143994766287992,1.2609547428174914,0.0,88,0.003335714340209961,0.9950873164385189,0.9950873164385189,28272,-6.633481530856457,0.0
348,1.0197522640228271,-9.87793802079792,7.390780987075741,-2.1046867893108745,-21.358721406462507,0.0,0.19162309399122943,0.1,0.0025849342346191406,0.05109858512878418,0.044346023,0.47228935,6.944112001237102,0.20182087752968042,1.1356623857554469,0.0,83,0.0031070709228515625,0.9931573237855559,0.9931573237855559,28355,-6.717644337410136,0.0
