iteration,time_sampling,stoc_pol_mean,stoc_pol_std,stoc_pol_max,stoc_pol_min,rollout_success,alpha,delta,time_vpg,time_npg,kl_dist,surr_improvement,running_score,rwd_sparse,rwd_dense,success_percentage,num_samples,time_VF,VF_error_before,VF_error_after,env_samples,eval_score,eval_success
0,1.5765132904052734,0.6729332990778425,0.007424630595853264,0.6814853891648852,0.6612399959229062,0.0,0.14789838911018063,0.1,0.06396079063415527,0.06692814826965332,0.052987583,2.4526129,0.6729332990778425,0.0,0.00950747162430724,0.0,300,0.044237375259399414,0.8449665305868513,0.6209941854133659,300,0.6643714497728127,0.0
1,1.3920481204986572,0.6811462631747469,0.018399015890371247,0.7128276490154236,0.6679687170986819,0.0,0.15293914679000853,0.1,0.003041505813598633,0.06031680107116699,0.048608683,1.7474866,0.6737545954875329,0.0,0.00962459366129964,0.0,300,0.05183672904968262,0.6267997501002578,0.4170599949993418,600,0.6674429199176214,0.0
2,1.3996474742889404,0.6774175677032341,0.0053909855810918275,0.6831588710018736,0.6695306278351423,0.0,0.1524945084902941,0.1,0.005062103271484375,0.06301641464233398,0.051278923,2.3748286,0.6741208927091031,0.0,0.009571285681100382,0.0,300,0.06930112838745117,0.42955094671907157,0.27120663705696507,900,0.6649804851673212,0.0
3,1.4111521244049072,0.6861364228323991,0.03522815771032265,0.7465670876766478,0.6598461760674363,0.0,0.15593078954587217,0.1,0.005480766296386719,0.06837940216064453,0.051264387,1.750228,0.6753224457214329,0.0,0.009688341270691923,0.0,300,0.10630512237548828,0.2911240342621677,0.22113234727426445,1200,0.6634888484128031,0.0
4,1.3760697841644287,0.6793430288925156,0.005398453589459838,0.6877983909231398,0.6740934473064749,0.0,0.15085257307891517,0.1,0.003366708755493164,0.061231374740600586,0.05364196,4.324374,0.6757245040385411,0.0,0.009597842560074885,0.0,300,0.027782917022705078,0.19548916142319386,0.13810294532740683,1500,0.6638608827431425,0.0
5,1.4588546752929688,0.6848363699038613,0.010561456860248479,0.6979864707523901,0.6693935253846404,0.0,0.13319398503277366,0.1,0.005272388458251953,0.06868314743041992,0.05439392,23.506987,0.6766356906250732,0.0,0.009667493292804943,0.0,300,0.03910470008850098,0.14026520809478887,0.11793634470547813,1800,0.6615354260816496,0.0
6,1.4387104511260986,0.6812010227598104,0.023419627777090148,0.7212612544284678,0.6636551635224781,0.0,0.14846689907939553,0.1,0.0033156871795654297,0.060315608978271484,0.048152067,15.135889,0.6770922238385471,0.0,0.009613870524089735,0.0,300,0.030083179473876953,0.11910991240626084,0.10367509269309684,2100,0.6646772580610218,0.0
7,1.4256653785705566,0.6728090471654442,0.005882655222417736,0.6799824906066894,0.6643372104452395,0.0,0.13071098700549894,0.1,0.0034835338592529297,0.07517814636230469,0.04911409,32.97289,0.6766639061712368,0.0,0.009511617491526821,0.0,300,0.027320384979248047,0.10152098888388542,0.08766788902858255,2400,0.665687568534615,0.0
8,1.5059702396392822,0.6921397575928248,0.019540294029410498,0.7242528131573852,0.673126053398804,0.0,0.1287997534191456,0.1,0.005259037017822266,0.06795716285705566,0.049020465,14.569393,0.6782114913133956,0.0,0.009758531894102125,0.0,300,0.030901670455932617,0.08733862003206969,0.07328826190355618,2700,0.6643400998382598,0.0
9,1.443333625793457,0.6850998928544989,0.016430748755551727,0.7094298155417802,0.6632450163344022,0.0,0.1341558542153804,0.1,0.005078554153442383,0.07848119735717773,0.046852883,19.478466,0.6789003314675061,0.0,0.00967278110166814,0.0,300,0.05190086364746094,0.07433039398289958,0.062408097762492766,3000,0.6753257085312415,0.0
10,1.450460433959961,0.6806068308393217,0.01137995836579254,0.7001236618682032,0.6725995149379432,0.0,0.1466270118191868,0.1,0.0033032894134521484,0.06763005256652832,0.051110134,11.712049,0.6790709814046877,0.0,0.009616396527753463,0.0,300,0.0554499626159668,0.06655046821780256,0.05456835217936384,3300,0.6655563184666143,0.0
11,1.4835736751556396,0.6925371865020421,0.03168613359452504,0.7473067972669366,0.6722292505635337,0.0,0.1772470597970072,0.1,0.0033540725708007812,0.059644222259521484,0.05146447,1.8212726,0.6804176019144231,0.0,0.009765992846560875,0.0,300,0.06766796112060547,0.07369283171504942,0.05655339400175916,3600,0.6645360692799965,0.0
12,1.4132564067840576,0.7031791218473389,0.038472120416169174,0.7669543186846705,0.6700114799569039,0.0,0.17503606694643586,0.1,0.0048291683197021484,0.06049704551696777,0.049130987,2.2049363,0.6826937539077148,0.0,0.009887750823460145,0.0,300,0.042809247970581055,0.0825687492241587,0.06958345696569959,3900,0.6687560178045472,0.0
13,1.4606983661651611,0.6954108089513054,0.024843002698647414,0.7344526924244896,0.6662484231210584,0.0,0.1660141742115079,0.1,0.0032918453216552734,0.06098747253417969,0.049019895,2.334937,0.6839654594120739,0.0,0.009776222821810553,0.0,300,0.06334972381591797,0.06947039944210215,0.06647530410398125,4200,0.6694846522370527,0.0
14,1.4667901992797852,0.7119469781616057,0.05867604251735659,0.8133875974768153,0.6725753267898097,0.0,0.15533038537036803,0.1,0.0034863948822021484,0.06958460807800293,0.049860187,2.7204797,0.6867636112870271,0.0,0.010025486244213025,0.0,300,0.04098987579345703,0.10701703853420023,0.08357953648173197,4500,0.6883100644254551,0.0
15,1.499375820159912,0.6987525466291877,0.026103544253498458,0.7346954731294558,0.6738400837720399,0.0,0.13475855897438846,0.1,0.0030913352966308594,0.06011390686035156,0.04829944,21.11278,0.6879625048212432,0.0,0.009850976814457638,0.0,300,0.058451175689697266,0.05283167424596274,0.040868226128326475,4800,0.7003948748104732,0.0
16,1.5060067176818848,0.6875504082342885,0.011126117692775004,0.7030584811814576,0.6715956373841265,0.0,0.16320645837190365,0.1,0.008346080780029297,0.06276202201843262,0.04946556,4.4498057,0.6879212951625477,0.0,0.009710878530802563,0.0,300,0.02754831314086914,0.04547820422458347,0.041215784057443305,5100,0.7286736268923178,0.0
17,1.4603431224822998,0.6922064373892611,0.016290151173798884,0.7131390571344912,0.6700087219154128,0.0,0.1603913776491118,0.1,0.0030829906463623047,0.06167268753051758,0.050782844,5.867269,0.6883498093852191,0.0,0.009770652376762478,0.0,300,0.08562684059143066,0.03372008632879646,0.021092754722389268,5400,0.7610656008480365,0.0
18,1.5165166854858398,0.7159917272724786,0.024906248178458157,0.7485203221876976,0.6809896081770122,0.0,0.16653009393761545,0.1,0.007657527923583984,0.06484150886535645,0.050417606,3.0330443,0.691114001173945,0.0,0.010086174099967014,0.0,300,0.042737722396850586,0.026810465586759865,0.023678987799952728,5700,0.7250034393451285,0.0
19,1.5135304927825928,0.6811451255034227,0.009864585849822572,0.6949905070624477,0.6693281443811933,0.0,0.17161390214823974,0.1,0.003378152847290039,0.06101512908935547,0.050119974,1.7147263,0.6901171136068928,0.0,0.009619198914604436,0.0,300,0.10895705223083496,0.04536177451006774,0.02596707559881139,6000,0.7143096566451669,0.0
20,1.4655039310455322,0.6998747809187164,0.03213121021276478,0.7544828885671873,0.6744110823607796,0.0,0.1714055110659849,0.1,0.0033178329467773438,0.06219625473022461,0.05119364,2.103244,0.6910928803380751,0.0,0.009867912221319466,0.0,300,0.0529780387878418,0.062693957666513,0.03903244929501808,6300,0.7376497889434263,0.0
21,1.5054497718811035,0.7195507107001845,0.04831262201760103,0.7844412057685782,0.661985245716788,0.0,0.16055805748741023,0.1,0.005409717559814453,0.07069516181945801,0.049445268,2.7642233,0.6939386633742861,0.0,0.010117854613672875,0.0,300,0.057111263275146484,0.034815921287316164,0.028468584506443382,6600,0.7433965537123653,0.0
22,1.6911706924438477,0.7655016617610009,0.08354109350213067,0.871199144199749,0.6638038062693137,0.0,0.182518015727672,0.1,0.0032656192779541016,0.06164216995239258,0.05061905,1.5251552,0.7010949632129576,0.0,0.010667257337347105,0.0,300,0.06098008155822754,0.10571664465714839,0.07767985398101312,6900,0.7006781309967082,0.0
23,1.6067945957183838,0.6837751371119098,0.013733358492514041,0.7061969419363185,0.6698345486669466,0.0,0.17293283014939537,0.1,0.003721952438354492,0.061768531799316406,0.050269328,1.896447,0.6993629806028528,0.0,0.009660017749540997,0.0,300,0.05402636528015137,0.11710164534250246,0.06031643637055928,7200,0.6969860479179334,0.0
24,1.5241949558258057,0.8166382786971504,0.07180256174335366,0.8874411344180988,0.7270744059952842,0.0,0.19332912155174892,0.1,0.0064852237701416016,0.06705665588378906,0.04797462,1.036823,0.7110905104122827,0.0,0.01141309673437851,0.0,300,0.22649216651916504,0.3380303103515358,0.20584363295051938,7500,0.6975020063603782,0.0
25,1.533247947692871,0.6854803318375028,0.009204452373203604,0.6982104011925845,0.6737087890562751,0.0,0.18130047763986107,0.1,0.005323886871337891,0.06378412246704102,0.050002303,6.85635,0.7085294925548047,0.0,0.009682291252883557,0.0,300,0.02697277069091797,0.7453054315151391,0.09428849457799167,7800,0.7297440673074606,0.0
26,1.5500311851501465,0.6928531276496134,0.02253517343423865,0.7233885071300598,0.6671959519329657,0.0,0.17204652929600223,0.1,0.004900217056274414,0.06487751007080078,0.050150353,2.1252463,0.7069618560642855,0.0,0.009777538843867242,0.0,300,0.029205322265625,0.09197023055627404,0.1509372850034972,8100,0.6944298610827043,0.0
27,1.4818618297576904,0.6832170066315226,0.014452863629910608,0.7036222336462625,0.6629963179197184,0.0,0.16842047173722316,0.1,0.005323171615600586,0.0608212947845459,0.04942661,2.9076095,0.7045873711210092,0.0,0.009652333593152724,0.0,300,0.06407332420349121,0.15127913364329829,0.04214639798941614,8400,0.6894711355270742,0.0
28,1.5072712898254395,0.6930428321950823,0.027764132450411805,0.7406243923628775,0.6737070081388981,0.0,0.15000219320100489,0.1,0.01582193374633789,0.06208014488220215,0.048840553,6.4011135,0.7034329172284165,0.0,0.009775139409644716,0.0,300,0.028622865676879883,0.04252396985940404,0.06591976208839784,8700,0.6882732509686066,0.0
29,1.5010006427764893,0.7080645098588428,0.03749794162231183,0.754081388684543,0.6620920986147589,0.0,0.17741069752611632,0.1,0.0054399967193603516,0.0627448558807373,0.049684986,0.78318334,0.7038960764914592,0.0,0.009965031168521175,0.0,300,0.038396596908569336,0.06145345931965975,0.042041589739169494,9000,0.6903878702938971,0.0
30,1.5178544521331787,0.6912874739022875,0.016110048193046997,0.7112008246089595,0.6701188419058111,0.0,0.15094547235911598,0.1,0.00316619873046875,0.06079506874084473,0.051125593,3.2279806,0.7026352162325421,0.0,0.009757509645204531,0.0,300,0.05439114570617676,0.04162841977695817,0.04387984602507501,9300,0.7267040646649168,0.0
31,1.5766956806182861,0.7435961116347001,0.04471003874897235,0.8109245336241319,0.6851827120680843,0.0,0.18156136102964415,0.1,0.005297660827636719,0.06091713905334473,0.04967907,2.5201101,0.7067313057727579,0.0,0.010451554010183987,0.0,300,0.04329705238342285,0.0761202760448594,0.051171296751337324,9600,0.7022920655411439,0.0
32,1.6431145668029785,0.7044612188952384,0.025148363170324258,0.7383885750490653,0.6754874187193304,0.0,0.17793232014169408,0.1,0.0034170150756835938,0.06216239929199219,0.05014161,1.0289588,0.706504297085006,0.0,0.009928543122607445,0.0,300,0.10569643974304199,0.04126664048198326,0.032943157620462765,9900,0.7539206164111981,0.0
33,1.529266357421875,0.7394514672930328,0.025928782876717453,0.7798557703841833,0.7104625670394232,0.0,0.1716440719777708,0.1,0.005360126495361328,0.07643842697143555,0.051097486,2.1975372,0.7097990141058087,0.0,0.010380288593780589,0.0,300,0.034010887145996094,0.0416264422358441,0.04097408142711373,10200,0.7026337371850097,0.0
34,1.6478817462921143,0.6872674699125404,0.016443569295393853,0.7092845141180963,0.66938477616038,0.0,0.15019406273818448,0.1,0.003183126449584961,0.05989527702331543,0.049732845,5.736275,0.7075458596864819,0.0,0.00970736437275984,0.0,300,0.043360233306884766,0.02270851004597299,0.01806542319482803,10500,0.6827772130502449,0.0
35,1.5782599449157715,0.7278470716660621,0.08237920592547424,0.8690100047345966,0.6663683651266745,0.0,0.16980905021628961,0.1,0.0033576488494873047,0.05950760841369629,0.04887912,2.5071223,0.70957598088444,0.0,0.010241270325542626,0.0,300,0.06972241401672363,0.09457694770209313,0.07816040867586624,10800,0.670231570683321,0.0
36,1.5949969291687012,0.8000245637181427,0.08153343157011331,0.9349095729279308,0.7285445619695053,0.0,0.17557616100777593,0.1,0.04348421096801758,0.15439724922180176,0.05097867,2.101133,0.7186208391678103,0.0,0.011144972144329548,0.0,300,0.03876543045043945,0.11768264660853889,0.08429880838425083,11100,0.6721711900831763,0.0
37,1.5231847763061523,0.7346436793705466,0.06814349625006942,0.8523396626403643,0.6870792472046963,0.0,0.17317171140421245,0.1,0.003276824951171875,0.06040310859680176,0.049403165,1.7378324,0.7202231231880839,0.0,0.010300290029769447,0.0,300,0.07185912132263184,0.19132638733442647,0.055832570248487715,11400,0.6751531269365728,0.0
38,1.6004362106323242,0.7662356471994565,0.05721398635608835,0.8392469043553771,0.6998675418102699,0.0,0.18589790310243653,0.1,0.00481414794921875,0.06316232681274414,0.049673285,1.0529892,0.7248243755892212,0.0,0.010736506910450902,0.0,300,0.058320045471191406,0.07062203361791625,0.0714300293966332,11700,0.6783549765303413,0.0
39,1.6094825267791748,0.837530611361654,0.16982569787939356,1.1277737580076188,0.697312528421705,0.0,0.18367216609914716,0.1,0.005289316177368164,0.07314515113830566,0.04905013,1.3726263,0.7360949991664645,0.0,0.011692575635992188,0.0,300,0.06163430213928223,0.35783568096154733,0.27867695438438794,12000,0.6893374461616206,0.0
40,1.652204990386963,0.7096979588373911,0.0378972920707201,0.7611854421612828,0.6656170274819077,0.0,0.16832325667204162,0.1,0.0035903453826904297,0.28847289085388184,0.04953701,2.1356993,0.7334552951335571,0.0,0.010005193585861964,0.0,300,0.17105865478515625,0.26045619538967874,0.06311462221235349,12300,0.7007606129027959,0.0
41,1.6776227951049805,0.8365309373400216,0.12000488723027646,1.0285870129494117,0.7106297597132352,0.0,0.20443542827625236,0.1,0.0032172203063964844,0.13710784912109375,0.04902986,0.8311835,0.7437628593542036,0.0,0.011693043698532848,0.0,300,0.07191324234008789,0.17644761150828836,0.18826190365916265,12600,0.7470253470193224,0.0
42,1.6351275444030762,0.7206366901932517,0.0468590139424617,0.8011702398654263,0.6866831434650428,0.0,0.1712198692775311,0.1,0.003278017044067383,0.06546378135681152,0.050327364,2.3703449,0.7414502424381084,0.0,0.010122061911518675,0.0,300,0.15125036239624023,0.04103389902965159,0.0453646713162325,12900,0.6952571739996882,0.0
43,1.6641106605529785,0.9866204114912018,0.4090604496098209,1.6918091484058897,0.6895826998520904,0.0,0.1934879600551479,0.1,0.00561213493347168,0.07102346420288086,0.049534403,0.9669464,0.7659672593434177,0.0,0.013664368706378445,0.0,300,0.022505760192871094,0.502102125753029,0.3708116258328707,13200,0.7026165669811207,0.0
44,1.5831212997436523,0.982559422911503,0.06822454297448487,1.088438630769844,0.9104081916641795,0.0,0.1881658104235497,0.1,0.0033235549926757812,0.06165194511413574,0.049591918,1.3280586,0.7876264757002263,0.0,0.013617505239089318,0.0,300,0.0578923225402832,0.07410052478761996,0.06256280255994472,13500,0.6905294544304151,0.0
45,1.5469372272491455,0.7246083914661219,0.04785891212048364,0.8068482739255901,0.689315276123568,0.0,0.18892677821052034,0.1,0.003507852554321289,0.06015753746032715,0.049303137,0.47163975,0.7813246672768158,0.0,0.010192878747782502,0.0,300,0.1051478385925293,0.6932227899539708,0.12342978659250606,13800,0.6965590352783723,0.0
46,1.5648140907287598,0.8556437922272273,0.1760886499347738,1.146658606999915,0.7149640407519481,0.0,0.18716938307703296,0.1,0.0033991336822509766,0.06177186965942383,0.049852908,1.0043237,0.788756579771857,0.0,0.011950772959712551,0.0,300,0.035062551498413086,0.3156261471381825,0.32636148820568056,14100,0.7323931222267438,0.0
47,1.5072288513183594,0.8152131317099713,0.12341121986642908,1.0089224647477604,0.6905502422924928,0.0,0.18273004517117508,0.1,0.005544185638427734,0.07756233215332031,0.050023783,1.3565674,0.7914022349656684,0.0,0.011408392666068497,0.0,300,0.04321932792663574,0.25961113355006304,0.1443918780132623,14400,0.747232581595063,0.0
48,1.6358528137207031,0.8524949036141003,0.07763177996029162,0.9329860578053413,0.7413919438350663,0.0,0.17867377424365705,0.1,0.005548954010009766,0.062409162521362305,0.050028797,2.9467244,0.7975115018305117,0.0,0.01186603373567164,0.0,300,0.04807090759277344,0.10086250651867926,0.09851037046354738,14700,0.8402263888842937,0.0
49,1.6623671054840088,0.8655306520606267,0.16768772667245316,1.1153703373947195,0.7032819995232457,0.0,0.18814719703648589,0.1,0.0038862228393554688,0.06939339637756348,0.05144712,0.98918444,0.8043134168535232,0.0,0.012074764392090915,0.0,300,0.03377962112426758,0.1889755036079261,0.18000829981432692,15000,0.9313307885922947,0.0
50,1.5840988159179688,0.7661059644316973,0.10805346131732259,0.9523376477557525,0.687325815953217,0.0,0.19213722071560738,0.1,0.0034608840942382812,0.059967756271362305,0.05043119,0.74010545,0.8004926716113406,0.0,0.01075643181795078,0.0,300,0.14635038375854492,0.2895193847909211,0.12672365861655466,15300,1.004195042213441,0.0
51,1.6832427978515625,0.7819513942363979,0.07185927778042615,0.8905817059229741,0.6898139610804015,0.0,0.18255482573005014,0.1,0.0053789615631103516,0.06165146827697754,0.05017453,0.8452904,0.7986385438738464,0.0,0.010965348827329581,0.0,300,0.050737857818603516,0.07092632744560655,0.09959967796788818,15600,1.311057571438375,0.0
52,1.664046049118042,0.8469157308135187,0.17619791468749735,1.1366401839389515,0.6736361109991937,0.0,0.17795154956991757,0.1,0.0033783912658691406,0.06083869934082031,0.048888505,1.283662,0.8034662625678136,0.0,0.011806351792289347,0.0,300,0.02953624725341797,0.23198964644345366,0.140295884456581,15900,1.5178687657258674,0.0
53,1.7066192626953125,0.9363282192279229,0.14003864447058484,1.107178821067809,0.7179712032962615,0.0,0.18123322537210798,0.1,0.005420684814453125,0.062307119369506836,0.049465675,0.8053985,0.8167524582338246,0.0,0.01299790676471853,0.0,300,0.032358407974243164,0.15510020569951186,0.12968631311148038,16200,1.7326345602453193,0.0
54,1.6554341316223145,0.9064157401936827,0.12930730282189454,1.1263330060382735,0.7952122429665885,0.0,0.1748633522841881,0.1,0.0074710845947265625,0.06177520751953125,0.04980212,1.2753532,0.8257187864298103,0.0,0.012606662562258512,0.0,300,0.15564942359924316,0.13928898407528967,0.10589996808980576,16500,1.57515793254056,0.0
55,1.7146360874176025,0.7668856333468598,0.07328062058538191,0.8829042599716336,0.687925829613939,0.0,0.1736898880071055,0.1,0.003355264663696289,0.0611572265625,0.05118579,1.4208399,0.8198354711215153,0.0,0.010769276773878683,0.0,300,0.08426737785339355,0.25514666106237915,0.0627863251471218,16800,1.868196614479036,0.0
56,1.6154417991638184,0.8235319790149761,0.09642917587773091,0.9903135817692535,0.7600087911468991,0.0,0.17203902017480519,0.1,0.009634017944335938,0.06859731674194336,0.049377147,1.069149,0.8202051219108615,0.0,0.01150187820489542,0.0,300,0.02592182159423828,0.1074471297828603,0.13210777888129405,17100,1.4409412146247293,0.0
57,1.6352479457855225,0.9684587995776538,0.4193367511032287,1.6936890369194475,0.6925574353431301,0.0,0.19372774664841894,0.1,0.0033609867095947266,0.09458589553833008,0.05038885,0.93823916,0.8350304896775408,0.0,0.013450127774927788,0.0,300,0.04081916809082031,0.5104232071686785,0.4090160674882147,17400,0.9459948110978295,0.0
58,1.6658203601837158,1.1110656176932414,0.4596152282397622,1.812153853965357,0.6836914393323742,0.0,0.17968444513965784,0.1,0.09592342376708984,0.12463927268981934,0.050177593,1.1529912,0.8626340024791108,0.0,0.015355600938264045,0.0,300,0.040819406509399414,0.42177958465896664,0.3723979875391647,17700,0.8606164846012213,0.0
59,1.6286852359771729,0.8702493937352191,0.19976576301588675,1.21331690698518,0.724590516252978,0.0,0.1828544242588794,0.1,0.0034198760986328125,0.061148881912231445,0.04984552,0.82753927,0.8633955416047218,0.0,0.012111670834582207,0.0,300,0.04606437683105469,0.6250371060958798,0.15037284464744036,18000,0.8046469140743628,0.0
60,1.6815061569213867,0.8182467567018787,0.1802020087946288,1.1295929197599295,0.7014104544552432,0.0,0.17294472391777438,0.1,0.005392789840698242,0.0619962215423584,0.05003708,1.0616415,0.8588806631144376,0.0,0.011445353423526752,0.0,300,0.05359792709350586,0.2324039222728942,0.255388593311129,18300,0.8001535038191502,0.0
61,1.5776584148406982,1.0622187229617879,0.4159696303664148,1.7403015837532334,0.7141056585275541,0.0,0.1862919708571537,0.1,0.0032837390899658203,0.08285164833068848,0.04964738,1.2289723,0.8792144690991726,0.0,0.014701906021792503,0.0,300,0.049945831298828125,0.5220475368301307,0.3898217551249498,18600,0.7838899775872054,0.0
62,1.5906894207000732,0.8793680166291267,0.10144074634363759,1.0526938348453592,0.8056194993152012,0.0,0.18643064573937454,0.1,0.0032274723052978516,0.06220841407775879,0.049742047,1.1030613,0.8792298238521681,0.0,0.01225869598251082,0.0,300,0.028935670852661133,0.08857050600472802,0.14973470994615765,18900,0.7778445234650534,0.0
63,1.5724170207977295,0.9087039103125936,0.09482836912380956,1.0539342342090414,0.7890761670648373,0.0,0.1799374878429717,0.1,0.010142326354980469,0.07352375984191895,0.050442293,1.4375545,0.8821772324982107,0.0,0.012618220909192287,0.0,300,0.033197641372680664,0.12208810899315015,0.09375535163458572,19200,0.717645506951394,0.0
64,1.610133171081543,1.2944671419553844,0.4204580684195217,1.911490360768403,0.8711459339430531,0.0,0.16851959545761763,0.1,0.0030608177185058594,0.06080293655395508,0.049057093,1.6658204,0.9234062234439281,0.0,0.017802695969912095,0.0,300,0.03586459159851074,0.4230243746226462,0.30562886798495686,19500,0.7105403733440089,0.0
65,1.608130693435669,1.1696440120424492,0.23599001297353914,1.4467215841148855,0.7943827671818969,0.0,0.18646062345101,0.1,0.0033788681030273438,0.0639045238494873,0.049823474,0.9616118,0.9480300023037802,0.0,0.01613803770995132,0.0,300,0.09893226623535156,0.12306405321157575,0.16717890164351745,19800,0.7188563395375231,0.0
66,1.631105661392212,1.297771511928303,0.7183769229099781,2.5205836638692265,0.7317600822449024,0.0,0.18329687264961872,0.1,0.05214571952819824,0.14252901077270508,0.0497752,1.5312039,0.9830041532662325,0.0,0.017845234450117847,0.0,300,0.07346034049987793,0.44082265108176466,0.4285763214856048,20100,0.6978138405292794,0.0
67,1.6480042934417725,0.9955241238420931,0.29495676631260626,1.4891418631448745,0.7173744646056095,0.0,0.1883578089271791,0.1,0.003290414810180664,0.06491208076477051,0.050104152,0.7409646,0.9842561503238185,0.0,0.013817579991974839,0.0,300,0.07045650482177734,0.3566103365499931,0.26124206299722114,20400,0.7215358828217845,0.0
68,1.6792120933532715,1.3454185202840077,0.3920393258070669,1.7334503977438969,0.8110328547874591,0.0,0.1912344765403357,0.1,0.005198001861572266,0.06065964698791504,0.04964392,0.7747768,1.0203723873198376,0.0,0.018474141968758694,0.0,300,0.08656167984008789,0.3668383878251724,0.2744773177605325,20700,0.7066512468952423,0.0
69,1.76682710647583,0.9599431989696263,0.23010066090641806,1.3168356965036025,0.6743475551341502,0.0,0.18047009047963,0.1,0.0031142234802246094,0.07162833213806152,0.04943525,1.1643109,1.0143294684848165,0.0,0.013342761345970977,0.0,300,0.045336008071899414,0.3703521228607807,0.359746707171094,21000,0.6980233534391743,0.0
70,1.5811443328857422,0.8617457179738357,0.21164903850197264,1.2165217266827764,0.6847933217959474,0.0,0.18618525725531543,0.1,0.005360126495361328,0.06634402275085449,0.050079647,0.54655236,0.9990710934337186,0.0,0.01203234378595332,0.0,300,0.026578187942504883,0.6385501285094981,0.25597110953579477,21300,0.6744843318006574,0.0
71,1.7252964973449707,1.497768927977217,0.8575934476699897,2.947068373561916,0.753397755861101,0.0,0.18324634109443563,0.1,0.003144979476928711,0.061171770095825195,0.0491063,1.3496937,1.0489408768880684,0.0,0.020506457484702263,0.0,300,0.04041266441345215,0.6217626753197204,0.5677437968507547,21600,0.6788669324547302,0.0
72,1.6937816143035889,1.3040965484376066,0.20648577555361583,1.5600460594929195,0.9833502496068611,0.0,0.1898785117765756,0.1,0.0031070709228515625,0.060671329498291016,0.04924591,0.70520735,1.0744564440430222,0.0,0.017926638742671117,0.0,300,0.024521589279174805,0.20289684829108084,0.0932654943710605,21900,0.6698133886551433,0.0
73,1.7491846084594727,1.4362443324073453,0.4696901783885665,2.013432058045878,0.8096631483221779,0.0,0.19092920859534812,0.1,0.006083488464355469,0.08860445022583008,0.04993039,0.81838286,1.1106352328794546,0.0,0.01969233197427051,0.0,300,0.025003910064697266,0.2806397382725739,0.2532582133515213,22200,0.6658360997618609,0.0
74,1.7475571632385254,1.2311023794871867,0.5211310189870193,1.890189544481893,0.7168927488349369,0.0,0.18606954908347248,0.1,0.003091096878051758,0.06004524230957031,0.04916234,0.7693171,1.1226819475402279,0.0,0.01695259644305518,0.0,300,0.03499555587768555,0.5231016457711675,0.3208715602294453,22500,0.662408646847078,0.0
75,1.6761984825134277,1.1715203679056765,0.29036178648461836,1.639436767643372,0.8421725662544568,0.0,0.18878440353585796,0.1,0.007029056549072266,0.059309959411621094,0.04943434,0.864705,1.1275657895767728,0.0,0.016160404613191834,0.0,300,0.03083038330078125,0.23774377761154902,0.22413831256228486,22800,0.6617364161561,0.0
76,1.6380488872528076,1.5700870542889853,0.668749879703523,2.3198643044957445,0.7842356243497671,0.0,0.18617630221358505,0.1,0.003109455108642578,0.06423687934875488,0.04993784,1.2835474,1.1718179160479942,0.0,0.021460677064472324,0.0,300,0.017894506454467773,0.5064854385446349,0.38781169616328015,23100,0.662015858929969,0.0
77,1.680335283279419,1.2804749562040953,0.607672244161557,2.2005634960796354,0.6771429291197334,0.0,0.17135860313802181,0.1,0.00748753547668457,0.09892773628234863,0.050769553,0.98624766,1.1826836200636044,0.0,0.017616634501887805,0.0,300,0.049323081970214844,0.37022434869239573,0.40348668273650706,23400,0.6627247383518299,0.0
78,1.5889194011688232,1.0692066278023376,0.4474413069219903,1.8231019057837077,0.7080471978315673,0.0,0.17979676591376342,0.1,0.003275632858276367,0.06457328796386719,0.049410164,0.8087741,1.1713359208374776,0.0,0.014797743676082498,0.0,300,0.03040170669555664,0.6434614489879242,0.43864326880011706,23700,0.6635076514020826,0.0
79,1.6206471920013428,1.8067741646996744,0.683934844063218,2.836606217848969,0.9357430220030766,0.0,0.18918718556922276,0.1,0.0037147998809814453,0.09214663505554199,0.049140807,0.9110518,1.2348797452236973,0.0,0.02463229053106564,0.0,300,0.05037569999694824,0.34802799654068617,0.32497519264897107,24000,0.6657045024112332,0.0
80,1.6055009365081787,1.6547453231220497,0.6235077176776662,2.391207150422899,0.8231167510503513,0.0,0.18503794270375457,0.1,0.005437612533569336,0.06395936012268066,0.04958105,0.8301815,1.2768663030135325,0.0,0.022607502472518547,0.0,300,0.10976767539978027,0.2952271398670023,0.24152687465642397,24300,0.6699284399197313,0.0
81,1.698547601699829,1.1483468630185036,0.36073199857049504,1.5113331184707108,0.7849736587436179,0.0,0.18715146232607321,0.1,0.0050334930419921875,0.059769630432128906,0.049869988,0.5129332,1.2640143590140296,0.0,0.015853224824060146,0.0,300,0.021805524826049805,0.679474763696811,0.42735607160376593,24600,0.6728706522724366,0.0
82,1.6477229595184326,1.2281096588782103,0.31432087983660284,1.586503919821021,0.7298364389419226,0.0,0.17846862625304916,0.1,0.0377504825592041,0.09000134468078613,0.049599722,0.47917685,1.2604238890004478,0.0,0.01691417546709017,0.0,300,0.06888413429260254,0.2596881265102653,0.17098486650210856,24900,0.6874379306190929,0.0
83,1.7336599826812744,1.289567787537695,0.14472479727541743,1.4054362838105416,1.046831701911008,0.0,0.1701877714056197,0.1,0.003220081329345703,0.06296896934509277,0.04942594,0.6383009,1.2633382788541725,0.0,0.017724738596118013,0.0,300,0.045894622802734375,0.07685696718628027,0.09938987265798899,25200,0.7105254789178345,0.0
84,1.6899676322937012,1.164787364690166,0.33892315681477325,1.534664598773282,0.8212640374267565,0.0,0.18494200959576765,0.1,0.005186319351196289,0.06153273582458496,0.050144542,0.68743503,1.2534831874377719,0.0,0.016073121343499787,0.0,300,0.0453336238861084,0.21565738415302999,0.2084209000992884,25500,0.7109141310841204,0.0
85,1.6952836513519287,1.4109010222340586,0.4833160922512847,2.0494970033872186,0.7473662513589572,0.0,0.18162863653958752,0.1,0.0032002925872802734,0.06110239028930664,0.04950804,0.70145684,1.2692249709174006,0.0,0.019354806285095928,0.0,300,0.22050166130065918,0.32758670190889444,0.2746921875397356,25800,0.7096960672452371,0.0
86,1.7300922870635986,2.029199183818515,0.8102532759100746,3.268765650157529,1.233307159255477,0.0,0.19443695254192764,0.1,0.0031087398529052734,0.06734347343444824,0.049288943,0.8042764,1.3452223922075122,0.0,0.027598652669184053,0.0,300,0.0775303840637207,0.44868470534105426,0.32282427511364764,26100,0.7065350757247991,0.0
87,1.7096891403198242,1.2505649874958118,0.3721631089891976,1.8788234166896207,0.9199141577558901,0.0,0.19351478653580678,0.1,0.00392460823059082,0.06457233428955078,0.049628552,0.82836866,1.3357566517363422,0.0,0.017206811386151582,0.0,300,0.029184818267822266,0.37238111575315114,0.3897926769765927,26400,0.6836629649695635,0.0
88,1.7866599559783936,1.6584743296667595,0.5338704671297203,2.5581313255101765,1.1719976315638505,0.0,0.17767314762228117,0.1,0.0030515193939208984,0.06030845642089844,0.050407212,1.1739768,1.368028419529384,0.0,0.022653974750372802,0.0,300,0.06378173828125,0.19108167561201148,0.18688499379371942,26700,0.6899784886415713,0.0
89,1.735292911529541,1.023587793076811,0.2808946596784637,1.4752988500492024,0.7390610517441254,0.0,0.1854775587324824,0.1,0.0031058788299560547,0.06188774108886719,0.049456432,0.49211344,1.3335843568841266,0.0,0.014191066490138661,0.0,300,0.020578622817993164,0.8566713017878347,0.4207760455394628,27000,0.6971650725837485,0.0
90,1.7445778846740723,1.0609224216562656,0.38508233733052566,1.681140863092455,0.6926971968347426,0.0,0.173786313586844,0.1,0.003406047821044922,0.061781883239746094,0.049675174,0.52730674,1.3063181633613405,0.0,0.014685141926253479,0.0,300,0.0472414493560791,0.4592712474524183,0.3313957059539251,27300,0.7236042657533385,0.0
91,1.744110345840454,0.8429928907536085,0.09307935244883606,0.985548767692175,0.730372083288074,0.0,0.18765687573484735,0.1,0.005284786224365234,0.060408592224121094,0.050776336,0.4356992,1.2599856361005675,0.0,0.011776334038475212,0.0,300,0.19524550437927246,0.5400128975807931,0.18476122625154104,27600,0.7247944569570052,0.0
92,1.65193510055542,0.9809498748378709,0.24354005955441224,1.2565784423220334,0.7325699159139272,0.0,0.18045462824267744,0.1,0.0030460357666015625,0.05937647819519043,0.049170922,0.6411791,1.2320820599742979,0.0,0.013601433599351485,0.0,300,0.027441024780273438,0.3023148791914771,0.3173710929052418,27900,0.7109656697478465,0.0
93,1.6524860858917236,1.3357597560758374,0.6356530867516812,2.2722555662649184,0.6973363548617004,0.0,0.18216899165461334,0.1,0.003122568130493164,0.05910444259643555,0.05050889,0.8339485,1.242449829584452,0.0,0.01833624926852405,0.0,300,0.0400848388671875,0.5710955407205625,0.4715559963136586,28200,0.7444189925798109,0.0
94,1.6974518299102783,1.8194669133080192,0.5492860604393854,2.5281304122115054,0.9967735099799917,0.0,0.18518111586314803,0.1,0.002961874008178711,0.05948472023010254,0.05006467,0.8125406,1.3001515379568087,0.0,0.024803961599026234,0.0,300,0.07394194602966309,0.5352683222615449,0.3505419504070859,28500,0.744445565947882,0.0
95,1.7134153842926025,1.4311983547243456,0.4236476748739306,1.9532130587100582,0.9048176835223622,0.0,0.18927942802504436,0.1,0.003249645233154297,0.06177568435668945,0.050191216,0.85461134,1.3132562196335624,0.0,0.01962565673570256,0.0,300,0.06645083427429199,0.2302991939086197,0.20523723542845942,28800,0.7224153057328623,0.0
96,1.5709400177001953,2.1708055913214643,1.2596102905057633,4.321484204716542,1.2178514580204767,0.0,0.17776841477008287,0.1,0.005035400390625,0.12909364700317383,0.04977515,1.5748549,1.3990111568023527,0.0,0.029481108563747166,0.0,300,0.02815699577331543,0.48215258851831017,0.39291042943330645,29100,0.7346230690998171,0.0
97,1.5721344947814941,1.68863172386204,0.46432743836641094,2.4622979758817087,1.2579211634329808,0.0,0.1727908864575911,0.1,0.0055141448974609375,0.06227564811706543,0.04904103,2.2293253,1.4279732135083214,0.0,0.02304640882839168,0.0,300,0.034828901290893555,0.19893177052307595,0.2128921809379668,29400,0.710153143043012,0.0
98,1.6613337993621826,1.5267228640545065,0.2528308855684565,1.9385494091739728,1.288526345078841,0.0,0.16834682091068923,0.1,0.0031104087829589844,0.05856728553771973,0.049450353,0.7826752,1.43784817856294,0.0,0.020896555528798957,0.0,300,0.045378923416137695,0.35539856715810036,0.11282051207712003,29700,0.7027019812855003,0.0
99,1.5854058265686035,1.6850524776415194,0.4088268818900525,2.1526148976279678,1.0445261494008293,0.0,0.18253773389706232,0.1,0.003034353256225586,0.07100892066955566,0.04899211,0.6365059,1.462568608470798,0.0,0.022995662768224616,0.0,300,0.13001537322998047,0.13003377786768294,0.15400661373259786,30000,0.7056259593768893,0.0
100,1.6366181373596191,1.1918717454348804,0.28820672056909946,1.553105176976124,0.7729609844255729,0.0,0.19287972765330755,0.1,0.005194902420043945,0.06964898109436035,0.050000597,0.5232185,1.4354989221672063,0.0,0.016426271912797517,0.0,300,0.024024009704589844,0.2949454938453434,0.20826515628030395,30300,0.7417824909328381,0.0
101,1.6978123188018799,2.1651976505647856,1.5372396372929302,4.79852135261468,0.923073733197343,0.0,0.16158097435237517,0.1,0.002997159957885742,0.06038236618041992,0.04979433,1.8013746,1.5084687950069642,0.0,0.0294073715413255,0.0,300,0.03063178062438965,0.5809910965128747,0.5395596578804894,30600,0.7559636324536013,0.0
102,1.60990571975708,2.21950940015167,1.3321982184528478,4.176300612890893,0.7659015704276715,0.0,0.1912666320373265,0.1,0.0030968189239501953,0.05924654006958008,0.05049334,0.7773157,1.5795728555214348,0.0,0.030123370448435553,0.0,300,0.0195772647857666,0.4691365964769491,0.37069320042597814,30900,0.8171789064793361,0.0
103,1.7179043292999268,2.299773354824109,1.163964737372375,3.86258966196763,1.0798670889200288,0.0,0.17744206487261605,0.1,0.0073163509368896484,0.0646657943725586,0.04995835,0.84868217,1.6515929054517022,0.0,0.03120586120736027,0.0,300,0.030209064483642578,0.3092668459919388,0.27424618551381996,31200,0.8958697586676014,0.0
104,1.6500885486602783,1.9429703102623475,1.0021486918365374,3.5561350743000792,1.091583164610707,0.0,0.16618525319981187,0.1,0.003008127212524414,0.05992770195007324,0.049883403,1.3640136,1.6807306459327669,0.0,0.0264395623753141,0.0,300,0.031056642532348633,0.44028959527411904,0.37075103576969626,31500,0.9574222290916085,0.0
105,1.734147548675537,0.8930188260055631,0.14469998474928264,1.0818430244946071,0.733416171871963,0.0,0.19063552248820193,0.1,0.0050966739654541016,0.07793760299682617,0.049720515,0.45754558,1.6019594639400465,0.0,0.012451068137889178,0.0,300,0.02468585968017578,8.678916791715054,2.601912851285244,31800,0.8561764569791602,0.0
106,1.739316463470459,1.5617842200195144,0.2228565351210237,1.9198397759803532,1.3570774751816528,0.0,0.18683490535839867,0.1,0.002971172332763672,0.05851578712463379,0.050143734,0.49055755,1.5979419395479935,0.0,0.021280210317352916,0.0,300,0.03261113166809082,0.08698400975656316,0.151033010996999,32100,1.0174168284789757,0.0
107,1.6524333953857422,1.0467492870158133,0.18188982548295338,1.1789028139724356,0.7330733280702122,0.0,0.17847095736265153,0.1,0.0028824806213378906,0.05904865264892578,0.049515855,0.43998834,1.5428226742947755,0.0,0.014500595500398322,0.0,300,0.02925276756286621,0.4867200176482412,0.2770692333472266,32400,1.105976704602409,0.0
108,1.6838781833648682,2.375184162434377,0.6450940276482331,3.378931453417122,1.5823712299818866,0.0,0.19449574302147743,0.1,0.0031745433807373047,0.06126832962036133,0.04972986,0.7650152,1.6260588231087358,0.0,0.032200421251129444,0.0,300,0.02140045166015625,0.4673754008692024,0.43191578682918463,32700,1.473352788014558,0.0
109,1.5722453594207764,1.58787739118073,0.24763878680951795,1.8551857468755621,1.1858988736180818,0.0,0.19052891540345543,0.1,0.008528709411621094,0.09460067749023438,0.04992635,0.7815202,1.6222406799159352,0.0,0.021667210759248993,0.0,300,0.10582447052001953,0.23802145712035433,0.14566732519093134,33000,1.2190943058092782,0.0
110,1.66546630859375,2.4502284539645114,0.7752876140765095,3.243357855545535,1.3306239998099745,0.0,0.17417094489592194,0.1,0.0033981800079345703,0.059538841247558594,0.049933102,1.0504175,1.705039457320793,0.0,0.033211277515065626,0.0,300,0.017664432525634766,0.3866649431434692,0.2922755685750658,33300,1.3246739663132794,0.0
111,1.6788713932037354,1.5532043112478688,0.46512147755458694,2.2833621445038412,1.0177007134073313,0.0,0.17126913669923688,0.1,0.004882097244262695,0.06368684768676758,0.049405303,1.185851,1.6898559427135007,0.0,0.021247038014707852,0.0,300,0.03371405601501465,0.19007927309807784,0.2288624544335935,33600,1.3016604922187376,0.0
112,1.7051963806152344,1.6189703043630987,0.27535918343293586,2.0786376115677028,1.3823774954493158,0.0,0.16417683713149614,0.1,0.0030786991119384766,0.05878043174743652,0.04942046,1.06651,1.6827673788784605,0.0,0.022124692552003125,0.0,300,0.024864912033081055,0.11478319643816898,0.11878123504905806,33900,1.726786006647213,0.0
113,1.6881825923919678,1.4502298648616334,0.3933335194984585,1.9712517130861464,1.0386744037395417,0.0,0.1736152410321298,0.1,0.00293731689453125,0.06317830085754395,0.0501897,0.5613606,1.6595136274767779,0.0,0.0198798068957623,0.0,300,0.021076440811157227,0.2708199352209644,0.21912069876254778,34200,1.6596700831905615,0.0
114,1.772754430770874,1.7278325182816459,0.8397928181613704,2.834886612055212,0.8759668808392536,0.0,0.16572532934688874,0.1,0.005846261978149414,0.05879402160644531,0.049465477,1.0813462,1.6663455165572647,0.0,0.023538875036324278,0.0,300,0.0259246826171875,0.2956275076277932,0.27763844600330934,34500,1.5807687124245604,0.0
115,1.7110834121704102,2.1463962036134046,1.2568928368682155,4.235345461187153,0.8863887915983821,0.0,0.17261014623609858,0.1,0.003288745880126953,0.059295654296875,0.049790997,1.4936229,1.7143505852628789,0.0,0.02916160886324267,0.0,300,0.0852811336517334,0.42257501742634607,0.40739815476341845,34800,2.102422455617426,0.0
116,1.691516399383545,1.6462307425149556,0.15022733105878117,1.8540968439769523,1.4890864641581234,0.0,0.18352537995688709,0.1,0.005899667739868164,0.06210446357727051,0.049562104,0.7601661,1.7075386009880866,0.0,0.02249241527226672,0.0,300,0.02550053596496582,0.07458013908815095,0.08427940615785769,35100,2.2949024276919023,0.0
117,1.6716463565826416,1.37048197941153,0.4915683608645442,2.130561319390056,0.85016892664767,0.0,0.16944645646664575,0.1,0.002974271774291992,0.07856297492980957,0.050051797,0.540841,1.6738329388304312,0.0,0.01878187641358124,0.0,300,0.029044628143310547,0.33701582503599126,0.29350238848218285,35400,1.7649267704698712,0.0
118,1.718646764755249,1.4666059221561216,0.29872309760512794,1.7925418877353292,1.1188536350648055,0.0,0.18423072435396615,0.1,0.029168367385864258,0.07132720947265625,0.049779996,0.41435558,1.6531102371630002,0.0,0.020097684787837144,0.0,300,0.03130602836608887,0.13315569293485544,0.09991389667399353,35700,1.823728207972901,0.0
119,1.7594261169433594,1.5978375297225185,0.30747666664444234,1.7796010978498782,1.065323204823077,0.0,0.1684852671060895,0.1,0.003179788589477539,0.05985140800476074,0.04915389,0.5960729,1.647582966418952,0.0,0.02184496888199519,0.0,300,0.0677022933959961,0.08797500431306374,0.0865035760501087,36000,4.792112766314906,0.0
120,1.7895450592041016,1.3717642734839892,0.3925124034997892,1.9380717026255416,0.8568933395769027,0.0,0.17927187764238156,0.1,0.007444620132446289,0.05895638465881348,0.04944932,0.59754705,1.6200010971254557,0.0,0.0188037005816043,0.0,300,0.046758174896240234,0.18451608391344745,0.17156306923103287,36300,1.916573170425161,0.0
121,1.7635936737060547,1.4493334959136805,0.6418497933763331,2.2207732006278724,0.7857204799521988,0.0,0.17393542493070963,0.1,0.003844022750854492,0.06969070434570312,0.049026586,0.63036984,1.6029343370042781,0.0,0.019868355546254705,0.0,300,0.2394728660583496,0.355787001069582,0.34882365814719274,36600,1.1979530769161433,0.0
122,1.7920165061950684,2.160185224097958,0.833690091361753,3.26247567655824,1.1738823231375288,0.0,0.1718236538313818,0.1,0.0030126571655273438,0.059145212173461914,0.049496446,1.048749,1.6586594257136462,0.0,0.029346243647850177,0.0,300,0.023365259170532227,0.35194574558048236,0.30816128344101884,36900,0.969993085914307,0.0
123,1.956930160522461,1.8839309032332474,0.7950257556609281,2.9684005334081904,0.8387370486969132,0.0,0.16146481941652882,0.1,0.10078191757202148,0.1542046070098877,0.04969506,1.4624561,1.6811865734656064,0.0,0.02564333714624381,0.0,300,0.07641220092773438,0.3120104675813735,0.2847289808758069,37200,0.992761559152543,0.0
124,1.6415987014770508,1.9345939525479663,0.7894468842694672,3.0766458024028616,0.8612424581888982,0.0,0.16025983568302382,0.1,0.0032083988189697266,0.06355643272399902,0.049173906,1.6917993,1.7065273113738426,0.0,0.026334847707081513,0.0,300,0.0407867431640625,0.2400165836498825,0.21922558117111027,37500,0.9535256231352212,0.0
125,1.6440436840057373,2.1362587669649242,0.8060102374290075,2.9994074929586927,0.8185677951192973,0.0,0.18024659389906414,0.1,0.003230571746826172,0.06183266639709473,0.049703665,0.6549318,1.7495004569329509,0.0,0.029027134150058607,0.0,300,0.039194345474243164,0.2664001913152045,0.24543045972617705,37800,1.0646048245671975,0.0
126,1.707655429840088,1.7126189043267246,0.6499388865922792,2.522479340573496,0.7081343440366988,0.0,0.18463664919234143,0.1,0.0031158924102783203,0.059334754943847656,0.05009116,0.538127,1.7458123016723284,0.0,0.023374720368766793,0.0,300,0.03047037124633789,0.26730596463049977,0.2615561677480477,38100,0.921128616814741,0.0
127,1.691396713256836,2.1820911210515823,0.9399002887399918,3.5894191886429305,1.0078942889932696,0.0,0.1820079638176263,0.1,0.003225088119506836,0.05878758430480957,0.049634412,0.9072417,1.789440183610254,0.0,0.029637157609451584,0.0,300,0.03278374671936035,0.31063727352451187,0.30469609930757546,38400,0.940143018515064,0.0
128,1.6983582973480225,2.468070828163925,0.7129211548113549,3.3243535416831946,1.3871683428142054,0.0,0.1723506566038019,0.1,0.003262758255004883,0.059602975845336914,0.049877204,0.97114927,1.8573032480656213,0.0,0.03344645849913978,0.0,300,0.051207780838012695,0.15933671309893252,0.1360274031205227,38700,0.9504648905743648,0.0
129,1.677966594696045,2.3502708154074288,1.4932003975106976,4.8490415507119335,0.9509178371370912,0.0,0.1749503510402446,0.1,0.0032110214233398438,0.06696295738220215,0.050022922,1.2685093,1.9066000047998022,0.0,0.03188060963820158,0.0,300,0.04383659362792969,0.39521560063885713,0.381117922475237,39000,0.8580469619971115,0.0
130,1.751983404159546,1.93346079131368,0.7813046149399172,3.1861496001229286,1.0340300673959237,0.0,0.16504406972692306,0.1,0.003195047378540039,0.058373212814331055,0.04912864,0.54997516,1.9092860834511902,0.0,0.02632118218156151,0.0,300,0.02562713623046875,0.28928271117578697,0.25093205698697485,39300,0.8453590320535213,0.0
131,1.7553439140319824,2.821813917305067,1.4368708443186098,4.676303541615074,1.0164108984470324,0.0,0.16756358927965923,0.1,0.009961605072021484,0.058342695236206055,0.050420385,0.96812075,2.0005388668365782,0.0,0.03815256670497528,0.0,300,0.019514083862304688,0.33378479671140404,0.31067382267049926,39600,0.9850231672726505,0.0
132,1.7242188453674316,1.6255748723710741,1.0921988840698877,3.494412169678951,0.7862118766466617,0.0,0.18147653094503066,0.1,0.002999544143676758,0.058019161224365234,0.04981633,0.5812775,1.9630424673900277,0.0,0.022217803804731137,0.0,300,0.02621936798095703,0.8015698663879327,0.6914276381796961,39900,0.9698197737147664,0.0
133,1.6998841762542725,2.1974451197261886,1.1327797918129812,3.9889191815345697,1.1041462446716646,0.0,0.16209989041163586,0.1,0.003010272979736328,0.059275150299072266,0.049546663,0.8241102,1.9864827326236438,0.0,0.029835852096949278,0.0,300,0.04883575439453125,0.31940946582120033,0.32625360417876975,40200,0.8285238744375065,0.0
134,1.725621223449707,2.6399114053460173,1.0075965285552968,3.780377282051072,1.15879453029847,0.0,0.17151777346317545,0.1,0.005018949508666992,0.05915522575378418,0.049594518,0.751601,2.051825599895881,0.0,0.035725395729575574,0.0,300,0.02045297622680664,0.25603579890405925,0.22239589475437838,40500,0.8436630122589803,0.0
135,1.797774314880371,1.969464071396142,0.6135965339376496,2.8998914463831498,1.1882223283902729,0.0,0.15855443851284007,0.1,0.002960681915283203,0.05944228172302246,0.049445536,0.73109424,2.0435894470459073,0.0,0.02680141829847317,0.0,300,0.029411792755126953,0.16954586120720352,0.18913539198373913,40800,0.9000936946590875,0.0
136,1.7502682209014893,1.6729368858807196,0.7128177707012593,2.6770432693186694,0.6673964551368271,0.0,0.18186066853056707,0.1,0.005079984664916992,0.06321191787719727,0.04998466,0.5050738,2.0065241909293885,0.0,0.022847893925883857,0.0,300,0.030639171600341797,0.5073293646148447,0.3473520947058912,41100,1.0456349274346761,0.0
137,1.7340121269226074,2.420375002169672,1.279702706425697,3.8682863684732705,0.9195800329248699,0.0,0.1702575233977355,0.1,0.0029799938201904297,0.05863308906555176,0.049542263,0.87992287,2.047909272053417,0.0,0.03280405868571368,0.0,300,0.019618511199951172,0.3516441760387866,0.36117378549838325,41400,0.9412958396637721,0.0
138,1.7329301834106445,2.1564885425924993,0.5553393746014783,2.754545133685655,1.5445794644056452,0.0,0.16723022302354654,0.1,0.00296783447265625,0.06809401512145996,0.049992573,0.7634202,2.0587671991073253,0.0,0.029283371986077063,0.0,300,0.03052544593811035,0.13524547612741286,0.12231318991532053,41700,1.0540888987689048,0.0
139,1.864816427230835,2.0270320477706436,0.7608917994749873,3.1710871583657507,1.0551874149769143,0.0,0.17675362968058056,0.1,0.0029489994049072266,0.05805778503417969,0.050384533,0.7701021,2.0555936839736573,0.0,0.027563243825243822,0.0,300,0.02158832550048828,0.265792116176729,0.2631800414056054,42000,1.0463173913340724,0.0
140,1.8187751770019531,1.8612806253629264,0.06650408357437113,1.9317088073754745,1.7645687624852913,0.0,0.17971019814652847,0.1,0.0029976367950439453,0.05777692794799805,0.049813647,0.5575245,2.036162378112584,0.0,0.025355386270496223,0.0,300,0.029396533966064453,0.05869518578975868,0.04162102313565911,42300,1.036061034298669,0.0
141,1.883101224899292,1.4408589782372285,0.4467876708944517,1.9829019692995142,0.9956163930713593,0.0,0.16002292484795255,0.1,0.0033316612243652344,0.07294607162475586,0.04924744,0.45710963,1.9766320381250486,0.0,0.019740877456080337,0.0,300,0.045890092849731445,0.4347074541399628,0.29007419702520687,42600,0.8891748834430454,0.0
142,1.7199480533599854,1.3723186143293429,0.2903194958720243,1.7285308954870053,1.0655815830041464,0.0,0.17850876254880335,0.1,0.003147602081298828,0.05990099906921387,0.04979222,0.5058534,1.916200695745478,0.0,0.018840051046074387,0.0,300,0.028246164321899414,0.4423991443693138,0.23206985750228948,42900,0.9827803673067717,0.0
143,1.7572031021118164,1.93528460777583,0.46458943092530725,2.678017052027681,1.5079171745108095,0.0,0.1655601823484515,0.1,0.003153562545776367,0.07405352592468262,0.0500292,1.1004452,1.9181090869485131,0.0,0.02633890697443147,0.0,300,0.029633283615112305,0.17332086547491413,0.19283133848189402,43200,1.0469916933094832,0.0
144,1.7507045269012451,1.7394076527168056,0.9018277110975015,2.8562769700664385,0.8060397102566474,0.0,0.17239719310621024,0.1,0.09206390380859375,0.7877719402313232,0.049641628,0.9052887,1.9002389435253426,0.0,0.023734303855773815,0.0,300,0.034989356994628906,0.3468797745419558,0.34501685635246193,43500,1.2537595839614248,0.0
145,1.7656292915344238,1.8057564324074107,0.47636164658929153,2.4620125765784637,1.1157913346506476,0.0,0.17268904091337167,0.1,0.0031883716583251953,0.06082463264465332,0.049443793,0.99261117,1.8907906924135494,0.0,0.024606606674537745,0.0,300,0.030148029327392578,0.16835943431997016,0.15711835731697452,43800,1.2921352969402111,0.0
146,1.7978014945983887,1.6573369085411809,0.0512668303823345,1.7088329111084148,1.5769912177707917,0.0,0.16790019848515342,0.1,0.020876407623291016,0.06095242500305176,0.050096475,0.92536795,1.8674453140263125,0.0,0.022639578606970953,0.0,300,0.01853489875793457,0.024861033329654388,0.025986493338555367,44100,1.6543774055971159,0.0
147,1.849853754043579,1.1962738323413031,0.360017854407422,1.5656304272788735,0.8357663178557561,0.0,0.18411474353021234,0.1,0.0032186508178710938,0.062270402908325195,0.049513612,0.7604414,1.8003281658578116,0.0,0.016486197217654326,0.0,300,0.06681704521179199,0.5790394324731546,0.47519243668626976,44400,2.173935701163476,0.0
148,1.782454490661621,1.6364197263394957,0.5368585000935779,2.1840409152202813,0.8559916970060673,0.0,0.1863220821939549,0.1,0.0045359134674072266,0.06011033058166504,0.049494937,0.61924386,1.78393732190598,0.0,0.022360394208032045,0.0,300,0.026180028915405273,0.21145608335334393,0.219407032125881,44700,1.8531163224787575,0.0
149,1.753697156906128,1.7975858273995249,0.9787784214158088,3.230226669600601,0.7887373767438652,0.0,0.1831077811402945,0.1,0.0030717849731445312,0.05959343910217285,0.049743462,0.7677255,1.7853021724553346,0.0,0.024510892676640438,0.0,300,0.03134298324584961,0.4099769109807392,0.39242315654593946,45000,1.8356316256557896,0.0
150,1.8833582401275635,2.1839450340162196,0.5633405904280331,2.834524308303237,1.576828069944848,0.0,0.17874677340480405,0.1,0.003053426742553711,0.05954480171203613,0.04945377,0.99213797,1.8251664586114231,0.0,0.029660325808597086,0.0,300,0.01920008659362793,0.21707724287105404,0.15430340136715304,45300,1.6084618619545619,0.0
151,1.7461206912994385,1.79885714492822,0.4406883660856295,2.295038073633451,1.0922752278398404,0.0,0.17241069953237342,0.1,0.003258228302001953,0.061080217361450195,0.049664386,0.9234877,1.822535527243103,0.0,0.024510640653185083,0.0,300,0.021500587463378906,0.15668436285463597,0.1581964352735913,45600,1.498512511818744,0.0
152,1.8910517692565918,2.9817454413771167,1.1476544624652445,4.844794511179374,1.85846913728726,0.0,0.18121122417884783,0.1,0.003155231475830078,0.07250571250915527,0.049563397,1.12971,1.9384565186565044,0.0,0.04029067742624076,0.0,300,0.05087113380432129,0.3676058554828602,0.2679870734977095,45900,1.2827795455384268,0.0
153,1.7988030910491943,2.783630752217195,1.7559804853614385,5.329898275815051,0.8267510314238236,0.0,0.1831574656592549,0.1,0.0053098201751708984,0.07114052772521973,0.050185338,0.81044596,2.0229739420125736,0.0,0.037624613753611424,0.0,300,0.06846141815185547,0.39391901271173774,0.37101652228163756,46200,1.3999036530010418,0.0
154,1.7976148128509521,1.331518805965837,0.34766579184965746,1.7866558948398652,0.816166410831663,0.0,0.17771189979408827,0.1,0.0034580230712890625,0.09853172302246094,0.049604785,0.5675712,1.9538284284079,0.0,0.018294414364588982,0.0,300,0.13332533836364746,3.8626535817746217,0.9089689995908585,46500,1.5774149274301126,0.0
155,1.8816094398498535,1.668213858271597,0.6747492949343872,2.7574421114822116,1.0789175282240993,0.0,0.16322688044622694,0.1,0.0052013397216796875,0.06131792068481445,0.050306782,0.5056053,1.9252669713942696,0.0,0.022785701772601575,0.0,300,0.24661660194396973,0.385105272341813,0.30169135893152876,46800,1.4104359943897735,0.0
156,1.8851416110992432,1.7171242845694452,1.090047001634306,3.5703838954286975,0.8349019745076801,0.0,0.18594477443193957,0.1,0.009271621704101562,0.10477542877197266,0.050035264,1.0103252,1.9044527027117872,0.0,0.0234328910063048,0.0,300,0.2613949775695801,0.4440389110946979,0.44165435039784234,47100,1.2525755225486803,0.0
157,1.8427250385284424,1.9817404409616208,0.5105525262045749,2.4637759989275887,1.1523786055618805,0.0,0.18219582794350064,0.1,0.004982471466064453,0.13015317916870117,0.049437534,0.9157709,1.9121814765367706,0.0,0.026935309274066146,0.0,300,0.05128359794616699,0.31362026588136444,0.2266507810717508,47400,1.4199307296085113,0.0
158,1.8566839694976807,2.202498758230677,0.7959000457100704,3.029294365238763,0.8899790200876585,0.0,0.18211606026517194,0.1,0.008965015411376953,0.05809950828552246,0.04970228,0.70007217,1.9412132047061614,0.0,0.02991000922470697,0.0,300,0.050890207290649414,0.33785613829310407,0.25692326121930137,47700,1.6422545666142059,0.0
159,1.908979892730713,2.438456316909587,0.9915414513637072,3.692050468641444,1.1438962940171482,0.0,0.1798045543497764,0.1,0.002938985824584961,0.05858278274536133,0.04978835,0.9814085,1.9909375159265041,0.0,0.033045209796699046,0.0,300,0.23686623573303223,0.3163575606173373,0.264035227045106,48000,1.4605674640268524,0.0
160,1.769040584564209,2.4438292528343757,1.2696142759849207,4.325417507314224,1.1628193947577292,0.0,0.18724744877068694,0.1,0.022805213928222656,0.10986948013305664,0.04993349,0.9080714,2.0362266896172914,0.0,0.033123919890614265,0.0,300,0.219879150390625,0.3480298396216179,0.3163524098496393,48300,1.4132751763171905,0.0
161,1.8086023330688477,1.449326266878148,0.2817581342464304,1.901420081737218,1.1253650864422902,0.0,0.1863312819369372,0.1,0.004281282424926758,0.0589909553527832,0.050698053,0.46420684,1.977536647343377,0.0,0.01986154223539288,0.0,300,0.2435319423675537,1.067151969409373,0.8237774997436871,48600,1.4996480487294008,0.0
162,1.791923999786377,2.471790499867815,0.8459855939130807,3.133190048433107,1.0356226463445655,0.0,0.1649087205820083,0.1,0.0030889511108398438,0.06036996841430664,0.04966056,0.8575575,2.026962032595821,0.0,0.03348954126162392,0.0,300,0.041475534439086914,0.17379396722477608,0.17621762881143077,48900,1.7161153668408498,0.0
163,1.7811410427093506,2.855236683388425,0.2912278778082398,3.1691207677600035,2.3859957414055137,0.0,0.1944859905986552,0.1,0.0030934810638427734,0.059420108795166016,0.050258555,0.6786407,2.1097894976750813,0.0,0.038608646925156274,0.0,300,0.10030913352966309,0.10649039081508023,0.08385432482889739,49200,1.8121579406832806,0.0
164,1.805699110031128,3.059264375179047,1.6865304475459426,5.493040607462563,0.7800147663044986,0.0,0.18034946165589116,0.1,0.0031566619873046875,0.05884432792663574,0.050068047,0.79682803,2.2047369854254777,0.0,0.0413313805354576,0.0,300,0.1952979564666748,0.42467144427516124,0.37809539426519334,49500,1.7861335739487607,0.0
165,1.8348219394683838,2.6083637406523597,1.6187859108645184,4.892888135880035,1.0316266308389017,0.0,0.19527504099863133,0.1,0.09338164329528809,0.40708112716674805,0.050345715,0.5926666,2.245099660948166,0.0,0.03531355048803628,0.0,300,0.04076337814331055,0.4306575223739347,0.4380715179215788,49800,2.215987769655815,0.0
166,1.7950680255889893,2.431684545633188,1.1551796844039892,4.090015090823876,0.8391947283696628,0.0,0.1730628080764915,0.1,0.05702948570251465,0.6694779396057129,0.04934825,0.84000343,2.2637581494166685,0.0,0.03296262397165736,0.0,300,0.056000471115112305,0.3136192087551465,0.2813763823063855,50100,2.146158318723369,0.0
167,1.8048171997070312,2.0292694777329707,1.0188164623957485,3.6788931708352166,1.0880770733506384,0.0,0.16821924655822754,0.1,0.09366130828857422,0.06493449211120605,0.050965868,0.46774077,2.240309282248299,0.0,0.027591907858155393,0.0,300,0.09879183769226074,0.39616265020346153,0.31891307339166824,50400,3.1120768970861357,0.0
168,1.9172415733337402,2.1796985116617145,0.6942510128842415,2.8615803431492646,1.0258869941866302,0.0,0.18960135571254663,0.1,0.0330812931060791,0.06691360473632812,0.049911242,0.5094339,2.2342482051896404,0.0,0.02960218107137735,0.0,300,0.12422680854797363,0.18491726892579594,0.17186733845981933,50700,2.259834867425202,0.0
169,1.770214557647705,2.598060526867127,1.1277311773466148,4.26018481172113,1.3784096349221167,0.0,0.1735383912559212,0.1,0.01464390754699707,0.07088470458984375,0.04914467,1.0529088,2.270629437357389,0.0,0.03515865883912819,0.0,300,0.15352702140808105,0.2643413388214567,0.254528387656755,51000,1.842386525327097,0.0
170,1.826866865158081,2.0318725709829195,1.0739603409740168,3.672954463343539,0.7946449364536207,0.0,0.18537780410462631,0.1,0.09171319007873535,0.3256409168243408,0.049799293,0.70147055,2.2467537507199418,0.0,0.027625700856861085,0.0,300,0.2426621913909912,0.34859612641317916,0.34758286263814847,51300,1.392337807267398,0.0
171,1.884695053100586,1.9232786575577634,0.6836315132643339,2.799902330152203,0.9797649361815159,0.0,0.18061108016701924,0.1,0.003301382064819336,0.062125205993652344,0.049731705,0.49040955,2.214406241403724,0.0,0.026133805917061836,0.0,300,0.11874723434448242,0.28257494191111177,0.2638252343428813,51600,1.3748052485115847,0.0
172,1.910153865814209,1.6265315442477069,0.5772392689303012,2.3478557132895816,0.9262974819387145,0.0,0.1810814873084654,0.1,0.09694170951843262,0.09172224998474121,0.049388576,0.46918675,2.1556187716881223,0.0,0.022223930602149222,0.0,300,0.11846065521240234,0.38844762023944507,0.29649970765317435,51900,1.606693855488768,0.0
173,1.8247344493865967,2.807167699437332,0.6434039106150459,3.5587126382831524,1.7997049520551458,0.0,0.17883736929154515,0.1,0.003270864486694336,0.06121683120727539,0.049841177,1.008313,2.220773664463043,0.0,0.03796466299669358,0.0,300,0.18485069274902344,0.1943160080281913,0.18295934063490876,52200,1.9183607272558125,0.0
174,1.8677935600280762,2.357886213759285,0.6752064253513141,3.0995097083268184,1.3720791674116128,0.0,0.17546414868775068,0.1,0.0030908584594726562,0.059519290924072266,0.049494077,0.84165436,2.2344849193926675,0.0,0.03195493977798708,0.0,300,0.1446247100830078,0.1508960600072894,0.12897220963024691,52500,2.350193197147782,0.0
175,1.9034676551818848,2.113325781256414,1.1235300865222555,4.0297185413957415,1.215472972260726,0.0,0.17023366530690193,0.1,0.0049626827239990234,0.10564303398132324,0.049602292,1.1101731,2.222369005579042,0.0,0.02871999090211621,0.0,300,0.042321205139160156,0.3027393302696806,0.3041488405076425,52800,2.1590402678726717,0.0
176,1.8615269660949707,2.4729785164027778,1.2071783348304301,4.131441480104647,0.9881542343363792,0.0,0.17573997866693328,0.1,0.010652303695678711,0.11791396141052246,0.05076251,1.0051509,2.2474299566614158,0.0,0.033515297386031165,0.0,300,0.09673786163330078,0.29078806108631267,0.28084764240941346,53100,2.026811394883556,0.0
177,1.860546588897705,1.7691033116653914,0.623722839050216,2.4973172685764617,1.010323923796932,0.0,0.17948916477007865,0.1,0.05984854698181152,0.11391353607177734,0.049907584,0.5232832,2.199597292161813,0.0,0.02413054738159665,0.0,300,0.051363229751586914,0.36397844794554035,0.3080354170252672,53400,2.518715517182347,0.0
178,1.8751955032348633,2.1824654288645116,0.776092693973272,3.393301904539033,1.3459456837758002,0.0,0.17505759555558187,0.1,0.0030913352966308594,0.05884695053100586,0.04982908,1.0634124,2.1978841058320833,0.0,0.029631867740210576,0.0,300,0.2526209354400635,0.17324748498481599,0.1753227625809217,53700,3.51476700568114,0.0
179,1.952488660812378,2.2996746196552325,1.2586457786382446,4.215886740798802,0.7590755543731075,0.0,0.18508161934050427,0.1,0.005095958709716797,0.06586289405822754,0.049272154,1.0558046,2.2080631572143985,0.0,0.0312042512335195,0.0,300,0.06729936599731445,0.3488840532594082,0.3461486059693415,54000,4.209136555771883,0.0
180,1.7652053833007812,1.5626269857300357,0.22802923035527917,1.8150222186550753,1.2199172069185298,0.0,0.18396301293773906,0.1,0.010821342468261719,0.06328988075256348,0.0497647,0.43708527,2.143519540065962,0.0,0.021377533349883432,0.0,300,0.02373790740966797,0.33541743519022765,0.25909494481373485,54300,3.710696069507117,0.0
181,1.7185263633728027,1.5440820348840307,0.4141490206612376,2.0000144581494084,1.0994402849855536,0.0,0.17021728926356852,0.1,0.00849294662475586,0.12154459953308105,0.049875855,0.3930221,2.083575789547769,0.0,0.02112870874649667,0.0,300,0.04965472221374512,0.36275066537709444,0.21134339618783954,54600,4.9072165725201335,0.0
182,1.7758145332336426,2.210441017789712,0.9396710764120951,3.786310937573622,1.3264854886040196,0.0,0.17607851435774274,0.1,0.03004312515258789,0.0836031436920166,0.0498127,1.388546,2.0962623123719633,0.0,0.030010234756440476,0.0,300,0.2310323715209961,0.2847753790285896,0.2929532198006578,54900,4.8484285915443825,0.0
183,1.8120827674865723,1.9289894878311038,0.5789811828563526,2.5498551195021673,0.9795700278320415,0.0,0.17164464467133853,0.1,0.003281116485595703,0.071502685546875,0.049364418,0.8154782,2.0795350299178774,0.0,0.02626065619663695,0.0,300,0.22003173828125,0.1653203544714101,0.15994109594258352,55200,5.134483380169946,0.0
184,1.810295581817627,2.5359529717793765,1.0651448018329472,3.726566695166556,0.9166001566847036,0.0,0.17930034648352622,0.1,0.005117654800415039,0.1353132724761963,0.049364947,1.1584308,2.1251768241040274,0.0,0.030996112562925674,0.0,300,0.05971217155456543,0.44420082223996576,0.39763425236271255,55500,4.790836706623347,0.0
185,1.8644509315490723,1.535252219040875,0.5040178362292689,2.0191322728324548,0.7237797084948373,0.0,0.1644171623267243,0.1,0.0031566619873046875,0.08566021919250488,0.05007606,0.38366067,2.066184363597712,0.0,0.021002974226483492,0.0,300,0.14486074447631836,0.347992267293513,0.39965971608392264,55800,4.3153419617906374,0.0
186,1.728548288345337,1.427780885399922,0.38849124818407743,1.9670388650914765,0.8749175669319392,0.0,0.19813088522963324,0.1,0.0029485225677490234,0.0587916374206543,0.050197568,0.42375645,2.002344015777933,0.0,0.019580254055725044,0.0,300,0.023378372192382812,0.5851535079420146,0.4484354514932823,56100,4.998656329962963,0.0
187,1.8343486785888672,2.8478553938628584,1.0164606004699828,3.780722677000727,1.1369613283723454,0.0,0.17678040828755026,0.1,0.026929378509521484,0.19630169868469238,0.04990379,0.7467939,2.0868951535864255,0.0,0.03851451142309594,0.0,300,0.23330211639404297,0.2999583738493349,0.29468283318604704,56400,4.534143939457791,0.0
188,1.8809289932250977,3.4403536266932013,1.4747993964523383,5.328214522356052,1.259946524158633,0.0,0.18061302566173645,0.1,0.09540367126464844,0.21286725997924805,0.049970638,0.8815924,2.222241000897103,0.0,0.04630031574361611,0.0,300,0.13436222076416016,0.4324775070078247,0.34684625728385615,56700,4.789158730571812,0.0
189,1.8608813285827637,2.045360695479055,0.8435740916452902,3.2203055775106435,0.871539804511527,0.0,0.17257005326258953,0.1,0.018419504165649414,0.07883477210998535,0.05008196,0.80836296,2.204552970355299,0.0,0.027814009163193043,0.0,300,0.06819558143615723,0.2594683405130171,0.3237529765294845,57000,2.7435479453766267,0.0
190,1.8310596942901611,1.4024407191953912,0.4278395019603719,2.0057759596572966,0.9850625963801745,0.0,0.1805341956970644,0.1,0.027410507202148438,0.39432573318481445,0.049872506,0.4439868,2.1243417452393083,0.0,0.019241997835043982,0.0,300,0.08049392700195312,1.52445150971624,1.0015138630207492,57300,4.025682634431361,0.0
191,1.8636975288391113,2.016919552019272,0.8500394702970139,3.110809703823753,0.740024650254164,0.0,0.16604183484343288,0.1,0.0033926963806152344,0.2679324150085449,0.04950169,0.94039977,2.1135995259173046,0.0,0.027431397167131152,0.0,300,0.11727380752563477,0.2944383662170148,0.24306990789981983,57600,3.1802423041491203,0.0
192,1.8071434497833252,1.546099204758729,0.9567487307654693,3.1265775787326104,0.7340400235069671,0.0,0.16886893932664282,0.1,0.07136058807373047,0.19408893585205078,0.049128205,0.8126879,2.056849493801447,0.0,0.021158302196213598,0.0,300,0.23457884788513184,0.5048544507877486,0.44247019801673954,57900,2.168993345438697,0.0
193,1.8849658966064453,1.7454191681814106,0.4440266702720939,2.3965036814449707,1.1430409595672517,0.0,0.18094450687116143,0.1,0.003276348114013672,0.060331106185913086,0.048546623,0.72743505,2.0257064612394435,0.0,0.02378749840660596,0.0,300,0.23192667961120605,0.15649272785693005,0.16135664122060026,58200,3.9594321482332386,0.0
194,1.796020746231079,1.7701439234285814,1.0382953283608836,3.3635559938577444,0.7966257166372579,0.0,0.17747750048295435,0.1,0.0032880306243896484,0.15551495552062988,0.049822573,0.8575078,2.0001502074583573,0.0,0.02414459152725859,0.0,300,0.04098248481750488,0.42630540426453384,0.40691578976150694,58500,2.178450330859252,0.0
195,1.6948506832122803,1.5363608591415239,0.45357686573874684,2.3106066888861454,1.166553972094982,0.0,0.17225017801836418,0.1,0.003443002700805664,0.07125449180603027,0.04941057,0.9766381,1.9537712726266738,0.0,0.021015233641130254,0.0,300,0.17384123802185059,0.20592672323487832,0.2108718036134471,58800,2.3518565452278213,0.0
196,1.7718241214752197,1.903681959320895,0.8400726636914368,3.3289953186949615,1.2648115825584614,0.0,0.17580476237455672,0.1,0.020273685455322266,0.06252455711364746,0.04960871,1.1544626,1.948762341296096,0.0,0.025924849107990762,0.0,300,0.14281916618347168,0.25894670360598776,0.24903087016712072,59100,2.485263449747858,0.0
197,1.7870900630950928,1.9013196829262742,0.5993320481619804,2.605361411832174,0.9474385337533828,0.0,0.172652138360615,0.1,0.004518270492553711,0.06016993522644043,0.04946628,0.57186335,1.9440180754591139,0.0,0.025891847675079772,0.0,300,0.19768762588500977,0.22407011292699863,0.20531160945810578,59400,4.143946261118792,0.0
198,1.728379487991333,1.7819256022225896,0.4122345882829203,2.2742806272648326,1.1616447039459314,0.0,0.17981628741891179,0.1,0.032938241958618164,0.06058478355407715,0.05033399,0.6253161,1.9278088281354615,0.0,0.02428227803187868,0.0,300,0.2472388744354248,0.09304352986883777,0.09528221076757135,59700,2.4005841694718275,0.0
199,1.79410982131958,1.892799374957884,0.4533608690515691,2.4328725493441654,1.1873443871774025,0.0,0.1835007361875567,0.1,0.00555109977722168,0.2438504695892334,0.050389525,0.8171928,1.9243078828177036,0.0,0.025772723712495362,0.0,300,0.1651453971862793,0.12981391932819838,0.12937233014060895,60000,2.6259972739250363,0.0
200,1.774174690246582,1.9144431974564433,0.4115170627915156,2.5059586792545754,1.528141668759704,0.0,0.18871533571690619,0.1,0.0032324790954589844,0.06115460395812988,0.050334677,0.7380378,1.9233214142815775,0.0,0.02606663150628577,0.0,300,0.0875391960144043,0.12407472715755385,0.11909328881399327,60300,3.7685526638753406,0.0
201,1.7655260562896729,2.3653093998001617,0.8788306806145358,3.295084610704412,1.3619375051438993,0.0,0.17130462000770724,0.1,0.032584190368652344,0.06416630744934082,0.05053712,1.117973,1.967520212833436,0.0,0.032081274689196054,0.0,300,0.23866748809814453,0.22260358416004608,0.2102880895417839,60600,4.024958832275941,0.0
202,1.811873197555542,2.352022958636697,0.5615552651610611,3.1941296609876098,1.7178207804072645,0.0,0.18227819124679737,0.1,0.09018421173095703,0.25452709197998047,0.049519464,1.1292776,2.0059704874137623,0.0,0.031903995252064644,0.0,300,0.19922637939453125,0.13433640707168604,0.11612429228358019,60900,4.444979392752307,0.0
203,1.7972102165222168,3.4972779814972537,2.2035186998084666,6.952469569583221,0.8744522926029278,0.0,0.19017705425685055,0.1,0.09456539154052734,0.5504045486450195,0.050238494,1.2883731,2.1551012368221114,0.0,0.04382387723132164,0.0,300,0.18330764770507812,0.6987491195303347,0.5955969425144896,61200,4.775882287579732,0.0
204,1.8635773658752441,2.14676652857303,0.991045478073785,3.432811937043739,0.7592051454247426,0.0,0.17742646234887924,0.1,0.003165006637573242,0.0695793628692627,0.050540097,0.9867107,2.1542677659972034,0.0,0.02915696558593199,0.0,300,0.03292489051818848,0.43164258139176687,0.5856804682980002,61500,4.6150678344101195,0.0
205,1.7962796688079834,3.402981617429713,1.2923239384099396,5.369321358439441,2.0551015591357533,0.0,0.18221723771965545,0.1,0.003742694854736328,0.06266069412231445,0.050112847,0.9076885,2.2791391511404546,0.0,0.04591647753887843,0.0,300,0.24254584312438965,0.26411256539094885,0.23832668329448162,61800,4.510429938399655,0.0
206,1.8360249996185303,2.4363750311879064,0.7828968079502336,3.4750539067141424,1.3636021314122746,0.0,0.17463924980789952,0.1,0.09759163856506348,0.0658867359161377,0.050278712,0.8940952,2.2948627391452,0.0,0.03302588702273087,0.0,300,0.03263688087463379,0.3024939607489841,0.22382709980939955,62100,5.231976879498092,0.0
207,1.842010736465454,3.147828491492858,1.5130994446349988,5.114762420628,1.1969572959849097,0.0,0.17719098075832018,0.1,0.003454923629760742,0.15707635879516602,0.049911536,0.95857817,2.3801593143799655,0.0,0.04251383445126973,0.0,300,0.22364449501037598,0.311280336527783,0.3005318921080548,62400,5.143797053667572,0.0
208,1.8008463382720947,2.6663115043906496,0.8723164282278443,4.144675653861938,1.8913095138411682,0.0,0.19388229663027368,0.1,0.005046367645263672,0.06381726264953613,0.05021616,0.88349485,2.408774533381034,0.0,0.036092991118903114,0.0,300,0.07720208168029785,0.15712271186280627,0.15284066474541752,62700,4.963197476197203,0.0
209,1.8792829513549805,2.9808445908582706,1.4519808531294873,4.758150357302633,0.9847616403690608,0.0,0.17567697281210407,0.1,0.003144502639770508,0.06363558769226074,0.049993668,0.866165,2.465981539128758,0.0,0.04027491969106425,0.0,300,0.02026963233947754,0.26030179272659376,0.25562428803176984,63000,5.110440201166562,0.0
210,1.825378179550171,2.3797419919153873,0.772460674998577,3.6741314707494337,1.6440993869671257,0.0,0.17329784874888482,0.1,0.0934441089630127,0.18612265586853027,0.050046563,0.5478269,2.4573575844074207,0.0,0.03226457676761124,0.0,300,0.24047470092773438,0.173010127315217,0.15979042828927556,63300,5.0978500511473035,0.0
211,1.7980587482452393,2.38627547604396,0.4952551824366731,2.8672738392400983,1.5577933096461358,0.0,0.17222439463616246,0.1,0.09027338027954102,0.19292664527893066,0.04838104,0.42859593,2.450249373571075,0.0,0.03234248422849374,0.0,300,0.09797048568725586,0.08963366064730305,0.07266116457566407,63600,4.714418685387259,0.0
212,1.7268240451812744,2.433930717755932,1.0561415282681101,3.604162382193966,1.064340553384876,0.0,0.18609448192722539,0.1,0.02709054946899414,0.0698404312133789,0.050034504,0.5883985,2.4486175079895607,0.0,0.03299607492333621,0.0,300,0.11828231811523438,0.3194967741803682,0.3126017924300996,63900,4.233908574512062,0.0
213,1.7681331634521484,2.156456943836408,0.4350145775763994,2.624024756552912,1.4459974063993728,0.0,0.17266732488828937,0.1,0.005455732345581055,0.0957944393157959,0.051323306,0.5125105,2.4194014515742452,0.0,0.029286550470672714,0.0,300,0.2510206699371338,0.08805538617413657,0.07824338331045833,64200,4.3541476098684475,0.0
214,1.7533738613128662,2.2257717294833217,0.5071467269695008,2.8637629780841003,1.4439131722878435,0.0,0.17632546745375818,0.1,0.003244638442993164,0.058327436447143555,0.04976842,0.74463254,2.4000384793651532,0.0,0.030214275811682616,0.0,300,0.22731566429138184,0.0957507736808304,0.09316950350390472,64500,4.72274194208128,0.0
215,1.764336347579956,2.5086363421712377,0.7694783450611015,3.4035667635088758,1.2816714746427547,0.0,0.18696000934901488,0.1,0.06535983085632324,0.2655496597290039,0.049849346,0.7050251,2.410898265645762,0.0,0.033971328025733494,0.0,300,0.2427048683166504,0.19467083296373802,0.1716003344776799,64800,4.980567655383006,0.0
216,1.8332676887512207,2.1388538767524667,0.714660809427357,3.1995374601133824,1.2690866437197594,0.0,0.17249769070626514,0.1,0.003387928009033203,0.05919337272644043,0.050041348,1.0147107,2.3836938267564323,0.0,0.029060742340941137,0.0,300,0.22914385795593262,0.19929203324652964,0.20379137329205615,65100,3.3667422497510633,0.0
217,1.8363795280456543,2.1904722192319475,0.7290700362641505,3.2503813780074617,1.4272655628509987,0.0,0.1669735899844857,0.1,0.08678650856018066,0.16263103485107422,0.049848184,0.9562817,2.3643716660039837,0.0,0.029744223097665785,0.0,300,0.10547637939453125,0.22279517911398725,0.1984237406388881,65400,2.0481452571986067,0.0
218,1.7832210063934326,1.9036376809427742,1.3489071823494418,4.198642145714686,0.7374586175502099,0.0,0.1793452344294404,0.1,0.09147071838378906,0.4526543617248535,0.049949292,0.9521303,2.318298267497863,0.0,0.02590886784577342,0.0,300,0.1776871681213379,0.5334271852932201,0.4978554062183811,65700,1.242311252899578,0.0
219,1.8431448936462402,3.292483634204763,1.313382976917703,4.927428387679604,1.287621515119795,0.0,0.17792786797052482,0.1,0.09052133560180664,0.23926329612731934,0.049215022,0.9254548,2.415716804168553,0.0,0.044442099038030716,0.0,300,0.07537841796875,0.3100951755240226,0.27551997960325275,66000,1.868310995882417,0.0
220,1.860480546951294,2.3339761042083165,0.35024884592867905,2.68754620602364,1.8401160859408952,0.0,0.18429235610051875,0.1,0.04579734802246094,0.16908979415893555,0.0496196,0.7489123,2.4075427341725293,0.0,0.03165664373881022,0.0,300,0.2394871711730957,0.07199403056004591,0.06346063006582957,66300,1.359605128057743,0.0
221,1.8592536449432373,2.1228332094505404,1.423978367816683,4.488129254945523,0.7783140568693232,0.0,0.16956467992593785,0.1,0.0032880306243896484,0.12553167343139648,0.050294235,1.093675,2.3790717817003304,0.0,0.028848399390438036,0.0,300,0.09764432907104492,0.48051582459491937,0.48467827067756514,66600,1.2644641307221764,0.0
222,1.9126451015472412,2.4968684268822843,1.1660897259528928,4.073732563765286,0.7832791008377021,0.0,0.16568243749420522,0.1,0.018310546875,0.06094002723693848,0.049868613,0.8196496,2.390851446218526,0.0,0.03383425062505806,0.0,300,0.2446589469909668,0.2647089096764725,0.26344756263569274,66900,1.3309795853378932,0.0
223,1.8882310390472412,2.5176544065625373,1.4825543536899344,5.062546444565261,1.4889521009324789,0.0,0.16828411096946252,0.1,0.0031571388244628906,0.06287097930908203,0.050223224,1.2185446,2.4035317422529276,0.0,0.03409061462040925,0.0,300,0.059320688247680664,0.37929184416689093,0.3755097865185605,67200,1.793326496665691,0.0
224,1.9170372486114502,2.213329173498542,1.1179105546127726,4.062138583397394,1.2209981384606243,0.0,0.17066977786284981,0.1,0.003268718719482422,0.06310343742370605,0.04976689,1.1326852,2.384511485377489,0.0,0.030050247861997136,0.0,300,0.09258675575256348,0.3240035770224529,0.31669676683193404,67500,1.4964456547195708,0.0
225,1.8405482769012451,1.9566261438497643,1.3559085279125538,4.261760058091578,0.7983440694880893,0.0,0.18014699626670003,0.1,0.0050983428955078125,0.06064462661743164,0.049576808,0.82889485,2.3417229512247166,0.0,0.026631404287005805,0.0,300,0.23849844932556152,0.5238034949264269,0.4869345379982976,67800,1.250961386429593,0.0
226,1.9270949363708496,2.5481466857894706,1.0020169653563544,4.114999077788648,1.6237220999951534,0.0,0.18032684401875312,0.1,0.01783919334411621,0.13495707511901855,0.050139308,1.0497805,2.362365324681192,0.0,0.03447108215227926,0.0,300,0.17932438850402832,0.20421297638426258,0.2122213293138842,68100,1.4288148112806913,0.0
227,1.814742088317871,1.8796362706399945,1.3188450438150916,4.146818451347097,0.9050124242744411,0.0,0.17039126951265812,0.1,0.003320455551147461,0.06090259552001953,0.049581632,1.2572623,2.314092419277072,0.0,0.02558920888695089,0.0,300,0.13835453987121582,0.46965416751792766,0.46062114839265245,68400,1.3927511993247028,0.0
228,1.8009450435638428,2.413653617137418,0.8496656739057358,3.1555191955680457,0.9723418040339253,0.0,0.16816450748448225,0.1,0.0695486068725586,0.16535305976867676,0.050071474,0.59350085,2.324048539063107,0.0,0.03271908792306668,0.0,300,0.07172036170959473,0.1829106985498617,0.18380657123980543,68700,1.3609511460959498,0.0
229,1.8106932640075684,1.5937676280640005,0.95610316806196,3.2464984024815413,0.9445520797166982,0.0,0.1734569772315338,0.1,0.02371978759765625,0.06092476844787598,0.050440285,0.78053033,2.2510204479631963,0.0,0.02178984025010863,0.0,300,0.06046342849731445,0.6042180569872859,0.5500657516504232,69000,1.2774725846700596,0.0
230,1.7576704025268555,2.4386899670155344,0.7048701715437371,3.438553754987946,1.5680484132647543,0.0,0.16793253876803696,0.1,0.003217458724975586,0.07472753524780273,0.04880763,1.2096584,2.26978739986843,0.0,0.03305696927691927,0.0,300,0.24007916450500488,0.14678527278721779,0.15502316454121653,69300,1.297074957647545,0.0
231,1.8252990245819092,2.3980632369165424,1.2665076579892647,3.9496967050281806,0.72237767552043,0.0,0.1773579545459395,0.1,0.09014058113098145,0.14409184455871582,0.05014143,0.6460247,2.282614983573241,0.0,0.03251268571055064,0.0,300,0.10943460464477539,0.3450081043134733,0.33081459713464023,69600,1.3746242658648196,0.0
232,1.8513579368591309,2.831120394473984,0.5551200042970426,3.282420249725744,1.884400405490879,0.0,0.171942866558731,0.1,0.003068685531616211,0.06150531768798828,0.050170958,1.0821717,2.3374655246633154,0.0,0.038282175816059506,0.0,300,0.031037092208862305,0.14798004099916917,0.10180519304666068,69900,1.7170097508486863,0.0
233,1.7574200630187988,2.7004500812925336,1.3721021093510037,4.350576869091591,0.8817918132328798,0.0,0.17838279798798573,0.1,0.003363370895385742,0.08532309532165527,0.049341276,0.7169272,2.3737639803262374,0.0,0.036541427545645926,0.0,300,0.02953958511352539,0.2896445320194666,0.27624440543354994,70200,1.5888576946141473,0.0
234,1.837256669998169,3.526640993379098,1.6750935105983515,5.182660892628434,0.9428234086470608,0.0,0.17699296108707643,0.1,0.0034241676330566406,0.07100844383239746,0.050286658,0.79775673,2.4890516816315236,0.0,0.047552903283935855,0.0,300,0.059963226318359375,0.29073319034217304,0.25362276544316886,70500,1.383102993990873,0.0
235,1.827800989151001,4.489109315518466,2.729653401026962,9.011923338833492,2.311100789391854,0.0,0.15437262432015836,0.1,0.06516170501708984,0.07555508613586426,0.05069025,2.8370116,2.6890574450202176,0.0,0.0602141721997479,0.0,300,0.22294950485229492,0.4155476184987107,0.35796014042631974,70800,1.4454375700647832,0.0
236,1.9209520816802979,1.5235910403913775,0.4165305023175922,2.2317385075901375,1.1699562219871567,0.0,0.18317767757879327,0.1,0.004752159118652344,0.05839133262634277,0.050390072,0.43477112,2.572510804557334,0.0,0.020853854983278203,0.0,300,0.11179113388061523,8.020935525850817,2.0596784201361773,71100,1.3652072563005089,0.0
237,1.8966691493988037,1.811086238145683,0.6624603216145194,2.928160929354923,1.1947255399540924,0.0,0.1736506048815099,0.1,0.003273487091064453,0.11202430725097656,0.04966933,0.45701987,2.496368347916169,0.0,0.024664120181772345,0.0,300,0.04681730270385742,0.9028702440261712,0.35788572638602206,71400,2.3122787513629035,0.0
238,1.8843069076538086,1.7568898785253475,0.45466432771650317,2.458533397951391,1.3023255676030345,0.0,0.16939764386319756,0.1,0.0032243728637695312,0.06810426712036133,0.04994457,0.5928358,2.422420500977087,0.0,0.0239319136727187,0.0,300,0.13211560249328613,0.2805119322590622,0.2965426752627052,71700,1.502823167234143,0.0
239,1.8959472179412842,2.635474171279228,0.5532578982353397,3.1353958740776764,1.7614112655368412,0.0,0.17917585418107143,0.1,0.005028486251831055,0.06285238265991211,0.050173856,1.7967031,2.4437258680073013,0.0,0.035668967266919364,0.0,300,0.11466360092163086,0.35371392151559755,0.2846125213108312,72000,1.470804359239836,0.0
240,1.8894872665405273,1.7855317239719417,0.13811298365924188,2.0003466219461163,1.618010602372828,0.0,0.17958494053643212,0.1,0.030443429946899414,0.5938448905944824,0.05008811,1.2149484,2.3779064536037655,0.0,0.02435008795941639,0.0,300,0.08486413955688477,0.06590578627780813,0.04424988010677819,72300,1.5038453484921537,0.0
241,1.8979473114013672,2.152961159223339,0.9949905529154516,3.8686962756369114,1.4940522508459113,0.0,0.1770636539050424,0.1,0.0030565261840820312,0.058472633361816406,0.049161494,1.1275222,2.3554119241657228,0.0,0.02922661252567541,0.0,300,0.036604881286621094,0.3195942653561517,0.29105881390842914,72600,3.357337135117079,0.0
242,1.8961284160614014,2.1327032413508666,0.9674166040875888,3.7886443391142386,1.353121995033216,0.0,0.1736930612938606,0.1,0.002939462661743164,0.05942988395690918,0.049889084,1.1347889,2.3331410558842376,0.0,0.028963484439229453,0.0,300,0.029949426651000977,0.27528632115742935,0.2698874906935795,72900,1.724631182580587,0.0
243,1.9508271217346191,2.7176079166982277,1.7890869459987684,4.6221203486841755,0.7678396662710777,0.0,0.17793223955644066,0.1,0.00316619873046875,0.06258511543273926,0.049867965,0.673882,2.3715877419656364,0.0,0.036691550574622915,0.0,300,0.09630489349365234,0.456198575864721,0.4122048496845379,73200,3.4612364534643,0.0
244,1.8813085556030273,2.1232957855840344,0.7244411186306573,3.323264519170599,1.4662551542959628,0.0,0.1744266908668598,0.1,0.02261972427368164,0.20457029342651367,0.049939163,0.8461057,2.346758546327476,0.0,0.02884380264877999,0.0,300,0.08655166625976562,0.23851165272756586,0.26382046613279747,73500,2.417065919135578,0.0
245,1.8306961059570312,3.5388555924882326,1.1082863082306136,4.665292700589611,2.2052207366752734,0.0,0.16361201823998436,0.1,0.0031952857971191406,0.06196999549865723,0.049697127,1.5947183,2.465968250943552,0.0,0.047698528826423836,0.0,300,0.18585491180419922,0.22212908240551166,0.18677485343500186,73800,2.4714905825073354,0.0
246,1.836881160736084,2.541383865123353,1.487460319308935,4.344158274888436,0.8080194825704748,0.0,0.16618729401830384,0.1,0.02379631996154785,0.06186103820800781,0.049499195,0.6576607,2.473509812361532,0.0,0.03436238258821209,0.0,300,0.2214961051940918,0.3508265450919825,0.36137542619035146,74100,2.8118306744612522,0.0
247,1.8025991916656494,2.50605540447588,0.7780228426883313,3.7200913215777267,1.5859422978953104,0.0,0.17974770264441706,0.1,0.0431370735168457,0.06369686126708984,0.049746655,0.71463925,2.4767643715729664,0.0,0.03394194604641964,0.0,300,0.24891352653503418,0.20049418108385575,0.17285820069320446,74400,3.1698736995941634,0.0
248,1.9355838298797607,2.0918542155464976,0.9140936078271499,3.0919832695650435,0.9240481871227675,0.0,0.1794975406701316,0.1,0.005287885665893555,0.09928750991821289,0.049255442,0.5240489,2.4382733559703196,0.0,0.02843288894740081,0.0,300,0.24159646034240723,0.4338525457488832,0.31291982243333266,74700,3.5932838840849306,0.0
249,1.8006820678710938,2.459369766892426,1.0352408348132842,3.703872704837729,0.8433659351151744,0.0,0.17366661838803715,0.1,0.0058155059814453125,0.06184577941894531,0.049141865,0.66506964,2.4403829970625304,0.0,0.033329885605587924,0.0,300,0.11652565002441406,0.2504352962434121,0.2460279866016944,75000,2.0915387109195147,0.0
250,1.9389173984527588,2.8879738279470266,1.235965840257277,4.427024762798282,1.415397473514383,0.0,0.17166055578755443,0.1,0.0033111572265625,0.058364152908325195,0.049754225,1.020726,2.4851420801509803,0.0,0.03903416918328782,0.0,300,0.15138888359069824,0.2673679998130566,0.27035832704083645,75300,3.228653995923049,0.0
251,1.8736622333526611,2.401151810234624,0.9261981775456894,3.507463356812923,1.2966679062916642,0.0,0.168185940730122,0.1,0.09194636344909668,0.06408476829528809,0.04969681,0.6285635,2.4767430531593444,0.0,0.0325114577916405,0.0,300,0.20812416076660156,0.21883034082582775,0.2139605266777306,75600,3.8888278612448297,0.0
252,1.8486459255218506,2.956023262240143,0.5727895443022345,3.5099115604115134,2.143076718467179,0.0,0.17700425805058112,0.1,0.011736392974853516,0.10516881942749023,0.050236255,0.8463831,2.5246710740674243,0.0,0.03992720732677838,0.0,300,0.14900851249694824,0.13584037250034223,0.09710202977082108,75900,4.851760130198337,0.0
253,1.9320149421691895,2.155714892607917,0.5221843177950319,2.9849720917321694,1.6074499278941048,0.0,0.1641614460206023,0.1,0.0048711299896240234,0.05995750427246094,0.050164495,0.7346326,2.4877754559214735,0.0,0.029242837385002933,0.0,300,0.2071061134338379,0.14910920703887776,0.1604001191825784,76200,4.75338985022701,0.0
254,1.8886678218841553,2.011564003122223,0.9676793187820019,3.5732309209505955,1.1551611387727958,0.0,0.16476376935131576,0.1,0.0033178329467773438,0.07115960121154785,0.05046407,0.84499514,2.440154310641548,0.0,0.027360391923628043,0.0,300,0.05708742141723633,0.394424717942806,0.3472631897694349,76500,4.239719335842294,0.0
255,1.9595158100128174,1.713789607117627,0.8892761572673499,3.068954954791883,0.7620029707013916,0.0,0.1932883646572047,0.1,0.0031735897064208984,0.06293106079101562,0.050292503,0.4745939,2.3675178402891564,0.0,0.023393925457218367,0.0,300,0.21656489372253418,0.568874722390503,0.453556720414062,76800,3.486408603651244,0.0
256,1.9682612419128418,2.955251268970082,1.1742536976699132,4.959245754956239,2.1078570821187457,0.0,0.20083005776848425,0.1,0.0925438404083252,0.23805856704711914,0.05013815,0.77267003,2.426291183157249,0.0,0.03994018894872082,0.0,300,0.06174802780151367,0.36241700188937614,0.3493435862469196,77100,3.6963804149925164,0.0
257,1.9933621883392334,1.592022836913609,0.6802604144414466,2.559607734395661,0.8405584253027201,0.0,0.18084269796122815,0.1,0.09168291091918945,0.30162906646728516,0.05014553,0.5523425,2.342864348532885,0.0,0.021725980110967113,0.0,300,0.13483524322509766,0.527441760527463,0.5338160670347247,77400,2.2182843520366182,0.0
258,2.0109193325042725,2.4122302445356256,0.8373238925647207,3.848704685842121,1.75485743400292,0.0,0.17443591532572958,0.1,0.0038602352142333984,0.11189866065979004,0.049905047,1.0817907,2.349800938133159,0.0,0.03270389654015574,0.0,300,0.11240434646606445,0.18972912469781192,0.1859056818801346,77700,3.4312864413960305,0.0
259,2.022744655609131,3.031801207654997,1.2479090695877466,5.120514459624593,2.0704601350103737,0.0,0.17709961148084033,0.1,0.09190893173217773,0.13464570045471191,0.04942802,1.4497856,2.4180009650853425,0.0,0.04096348145352311,0.0,300,0.05552172660827637,0.27852458221827325,0.24745662267552074,78000,3.319090334802199,0.0
260,1.9093623161315918,2.597642481046926,0.945669491585679,4.077737268751616,1.639003087785881,0.0,0.17891993635914807,0.1,0.003138303756713867,0.058270931243896484,0.05004603,1.167522,2.435965116681501,0.0,0.03517603094286059,0.0,300,0.07373571395874023,0.20051330572305154,0.19066449279429282,78300,3.787878948217726,0.0
261,1.949958086013794,2.9899751704254554,1.9263538093095263,5.76158212162623,0.8912165738320538,0.0,0.1589587350510246,0.1,0.003279447555541992,0.06146073341369629,0.050609693,1.3742261,2.4913661220558962,0.0,0.040368426235176495,0.0,300,0.185774564743042,0.38697013376150075,0.36687938327792624,78600,3.6329564837515353,0.0
262,1.8522920608520508,3.8661285559372205,0.9362327582524779,5.156049430044624,2.7509818572679756,0.0,0.17885515443146713,0.1,0.09792470932006836,0.22668957710266113,0.04914146,1.0773729,2.628842365444029,0.0,0.05207011022314155,0.0,300,0.06647968292236328,0.17688224072155317,0.11239714270167515,78900,4.105344543647632,0.0
263,1.8644895553588867,2.712782094595709,1.4906131156972562,4.872258943370098,0.8407863382851201,0.0,0.17596416147690522,0.1,0.003576993942260742,0.16866040229797363,0.05029986,0.749177,2.637236338359197,0.0,0.036660759016918024,0.0,300,0.19421005249023438,0.40759552627509904,0.3665947114101249,79200,3.6380163894772917,0.0
264,1.9030625820159912,2.610439515379644,1.5470413637986558,5.219709551074083,1.1825403933885419,0.0,0.17693119986518738,0.1,0.0032799243927001953,0.06347870826721191,0.05032654,0.73966986,2.6345566560612417,0.0,0.03501108922474953,0.0,300,0.10956311225891113,0.43958229747279043,0.3961731115096539,79500,3.2433887639446435,0.0
265,1.9222424030303955,2.3628471122232946,0.602620404252759,3.371681975703729,1.7749749458810584,0.0,0.1759915575166804,0.1,0.09580540657043457,0.17862510681152344,0.049653012,0.61989886,2.607385701677447,0.0,0.032036777031639097,0.0,300,0.1519019603729248,0.17538745363976854,0.10698307449879078,79800,3.8731481695931866,0.0
266,1.9057390689849854,3.24035904637383,1.3565049503870925,4.791538063995242,1.522109461949746,0.0,0.17427638299680392,0.1,0.0998375415802002,0.11243629455566406,0.04972802,0.9499124,2.6706830361470857,0.0,0.04371530943503402,0.0,300,0.14394664764404297,0.2669376720805477,0.2688244518610998,80100,3.9464008645871105,0.0
267,1.8958308696746826,3.0881802503598976,1.3789487102982365,5.4648858120060595,2.08018588963753,0.0,0.18364216938664063,0.1,0.021551847457885742,0.23080682754516602,0.04988413,0.906797,2.712432757568367,0.0,0.04170594335199022,0.0,300,0.10097718238830566,0.33939192435879306,0.30005997025253356,80400,3.9524474111194716,0.0
268,1.9263083934783936,4.376037345489167,0.7722466665800067,5.484552824449086,3.409723528818649,0.0,0.17443257461192682,0.1,0.0892782211303711,0.13412785530090332,0.050316736,0.927746,2.878793216360447,0.0,0.05885785817206409,0.0,300,0.06808328628540039,0.23558941149601106,0.14520848366530653,80700,3.6546182183722795,0.0
269,1.938016414642334,2.5398022883673805,1.0952757842105616,3.8885781732890696,1.0574269124486813,0.0,0.16874275264047495,0.1,0.04584789276123047,0.0827949047088623,0.049646284,0.54406905,2.84489412356114,0.0,0.03437434295027592,0.0,300,0.08579158782958984,0.3456541589241129,0.41733654737073367,81000,3.315370212046427,0.0
270,1.9300761222839355,1.7103177075807805,0.1866520773712259,1.930410583135918,1.4207002538804483,0.0,0.1747271225412362,0.1,0.003434896469116211,0.060327768325805664,0.050089397,0.5381577,2.731436481963104,0.0,0.023346201717097795,0.0,300,0.12045931816101074,2.19121529194472,0.9728280088072356,81300,3.171635366712272,0.0
271,1.9824717044830322,4.01118588777635,1.925823480109507,5.652368294697001,0.7268354404793277,0.0,0.17628720356811117,0.1,0.013734102249145508,0.06117105484008789,0.050358936,0.6624032,2.8594114225444285,0.0,0.0540115026413416,0.0,300,0.047930002212524414,0.31435543911292485,0.34844536116789154,81600,2.2251128110407667,0.0
272,1.939648151397705,2.748605011659788,2.066915706486723,5.96540896435745,0.8322214541099902,0.0,0.16464341273375604,0.1,0.005048990249633789,0.16837382316589355,0.049205787,0.8930846,2.8483307814559646,0.0,0.0371826918247359,0.0,300,0.27359700202941895,0.4439402715825116,0.4391750213205116,81900,3.543387284133454,0.0
273,1.8919041156768799,2.3814023664615784,1.230279967661691,4.496862970735841,1.456898166820181,0.0,0.17407567011739078,0.1,0.08975982666015625,0.20727181434631348,0.05013486,0.81385857,2.801637939956526,0.0,0.0322593074091667,0.0,300,0.11785101890563965,0.3564597223546266,0.35156369857418124,82200,2.262243204366876,0.0
274,1.9131991863250732,3.2553503749857136,1.5887429058539508,5.867766968737546,1.6297631616779302,0.0,0.1696406980365704,0.1,0.003363370895385742,0.07064557075500488,0.049428865,1.5284745,2.8470091834594444,0.0,0.043893461265206615,0.0,300,0.24580931663513184,0.2867402943972322,0.2783208347122707,82500,1.6760172626076884,0.0
275,1.9364666938781738,3.7450433947948953,1.8768798169577632,6.315761641427123,1.012619697373204,0.0,0.18123590778112364,0.1,0.08977055549621582,0.11276102066040039,0.04958501,0.7644988,2.9368126045929897,0.0,0.050449900533155054,0.0,300,0.09706449508666992,0.3353594438301377,0.3036082482405543,82800,1.5989217851956408,0.0
276,2.00360107421875,2.3015399073969203,0.6988252158723133,3.193027189132612,1.2335412724508108,0.0,0.1743683790974707,0.1,0.004325151443481445,0.06261563301086426,0.04985373,0.69977313,2.873285334873383,0.0,0.031184031142842412,0.0,300,0.034928321838378906,0.4347069113820073,0.3881689981420759,83100,1.7561632977215105,0.0
277,1.9813661575317383,2.6292872722845066,0.8219268351177288,3.6526971054523525,1.4119352689469238,0.0,0.15784751007411368,0.1,0.004378080368041992,0.06058669090270996,0.04964086,0.6495488,2.8488855286144954,0.0,0.03559285836452161,0.0,300,0.15214824676513672,0.18994711842225084,0.1450639789287752,83400,2.2736624273134756,0.0
278,1.9933338165283203,1.369549414212944,0.3782285812023081,1.7605892725396521,0.8250306827614684,0.0,0.1748953772719099,0.1,0.0033333301544189453,0.062306880950927734,0.04989285,0.45470133,2.7009519171743404,0.0,0.01879741345300015,0.0,300,0.17333149909973145,2.341508878121743,1.395510251451129,83700,3.8923276992773608,0.0
279,1.932013750076294,3.8358891078331383,1.5734848212167796,5.435663783171272,2.028208436996939,0.0,0.17342320510556414,0.1,0.0033135414123535156,0.1303246021270752,0.04940486,1.0639247,2.81444563624022,0.0,0.05167179744840176,0.0,300,0.1541588306427002,0.3213028600992195,0.3387872979992826,84000,4.240223797626761,0.0
280,1.9338743686676025,2.0885474632344385,1.3083804782640192,4.242224227473783,0.9822310276657032,0.0,0.17279289138086146,0.1,0.003237009048461914,0.061748504638671875,0.049475204,0.75737965,2.741855818939642,0.0,0.02837329594740644,0.0,300,0.07980513572692871,0.4678291776984452,0.4717449376034432,84300,4.729581107665973,0.0
281,1.9762461185455322,2.9172993114957215,0.7724919399746039,4.0287461604757615,1.9577405675124273,0.0,0.16086358228144398,0.1,0.003022909164428711,0.06366133689880371,0.049497686,1.1346824,2.75940016819525,0.0,0.03942613380135445,0.0,300,0.14806652069091797,0.1641821855060011,0.1561560605820997,84600,4.901746715330293,0.0
282,2.0033910274505615,2.2057680415372563,0.648680632335057,3.140018969472466,1.4188797072494865,0.0,0.17312823799372698,0.1,0.0031616687774658203,0.527550458908081,0.050403845,0.46810028,2.704036955529451,0.0,0.029880455460583634,0.0,300,0.0640716552734375,0.17229671951598644,0.17058148868592965,84900,4.865455176948905,0.0
283,1.910698413848877,3.2487713318107665,1.5592401872713828,5.678631252346769,1.3307942723775064,0.0,0.18606944924934699,0.1,0.09602117538452148,0.15878582000732422,0.04911447,1.0523331,2.7585103931575827,0.0,0.043851115099571535,0.0,300,0.23587298393249512,0.290519329455796,0.27463075268801834,85200,4.751095107388557,0.0
284,1.8214662075042725,2.09998138491107,0.6160054023162344,2.8526218131444634,1.2032505231605233,0.0,0.17646259081348886,0.1,0.02822732925415039,0.06072235107421875,0.049032897,0.5694612,2.692657492332932,0.0,0.02851057379675678,0.0,300,0.06116437911987305,0.2753502457932263,0.2805727561329129,85500,4.003715793243191,0.0
285,1.9826884269714355,2.370426142348612,1.0659085240000392,3.864534567590195,1.2394185126676476,0.0,0.16807048522188953,0.1,0.0031807422637939453,0.06118202209472656,0.050615873,0.9637869,2.6604343573345,0.0,0.03211368774153734,0.0,300,0.14448022842407227,0.26601060778879915,0.2576973968641822,85800,2.3638674120064382,0.0
286,1.8586161136627197,2.48050820328104,0.8756746693585554,3.324626958540601,1.0117741400357936,0.0,0.1774726292431789,0.1,0.09151625633239746,0.09011125564575195,0.049724106,0.6135266,2.6424417419291544,0.0,0.0335905891371112,0.0,300,0.15947365760803223,0.19970982957886343,0.19632836029385362,86100,2.4764139482264405,0.0
287,1.8531522750854492,2.9481860492293936,1.0052559777523364,4.105793708543391,1.622873635352042,0.0,0.16305830678892827,0.1,0.0032613277435302734,0.06206154823303223,0.049736384,0.8830131,2.6730161726591786,0.0,0.039799384902892074,0.0,300,0.05087852478027344,0.1890640347492875,0.17475481104426102,86400,2.3369459186706467,0.0
288,1.9149620532989502,3.756093689424775,1.4892713197756597,5.876798193957793,2.014933626807392,0.0,0.17752997669846776,0.1,0.003124237060546875,0.06375527381896973,0.04951974,1.1004133,2.781323924335738,0.0,0.05059318102201189,0.0,300,0.07342362403869629,0.3015851687308831,0.26504495020105984,86700,2.288774727463973,0.0
289,1.8911495208740234,3.28248900263641,1.569073827862237,5.2833248112655165,1.400980836403125,0.0,0.1715029122662555,0.1,0.0034821033477783203,0.07185244560241699,0.04995539,0.9715916,2.831440432165805,0.0,0.044220625016438454,0.0,300,0.19564533233642578,0.2620687178479807,0.24579147356932968,87000,2.7604879116009635,0.0
290,1.985886573791504,3.9516706075519634,1.5042011966406184,5.580981369105346,1.4973072824612899,0.0,0.1669510913309529,0.1,0.0033643245697021484,0.06152749061584473,0.049212437,0.7055842,2.9434634497044208,0.0,0.053128845994553656,0.0,300,0.29167699813842773,0.21047073947777747,0.17460676974149308,87300,4.183666585774546,0.0
291,2.0074033737182617,3.8809880320628327,0.6146253250650616,4.793619144638364,3.0845142063499438,0.0,0.18001532977413695,0.1,0.09201359748840332,0.0744175910949707,0.049684353,0.91261476,3.0372159079402623,0.0,0.05225832467263018,0.0,300,0.04080820083618164,0.05456609532811612,0.05108281917540699,87600,4.343127177309348,0.0
292,2.0015594959259033,2.240364200798374,0.4895198263640672,3.062553447120156,1.7717579254681783,0.0,0.16975206271904167,0.1,0.003183603286743164,0.06341361999511719,0.050151583,0.47700408,2.9575307372260737,0.0,0.030382273286235106,0.0,300,0.21832704544067383,1.0518523951094259,0.4988820913936633,87900,5.057073685527696,0.0
293,1.9707226753234863,3.7965685502872435,1.1874670439445227,5.394733903309353,2.055646246100071,0.0,0.1702354825452103,0.1,0.005997180938720703,0.26264429092407227,0.050094534,0.7225622,3.0414345185321907,0.0,0.051155526790768804,0.0,300,0.12438797950744629,0.13640093110052623,0.16808108033660563,88200,5.052151701804669,0.0
294,1.9525878429412842,4.271179414966156,0.8675773126661408,5.411533411434952,2.9799811861977505,0.0,0.17565893004589894,0.1,0.0032749176025390625,0.061928749084472656,0.04960059,0.8114916,3.1644090081755873,0.0,0.05746384333159775,0.0,300,0.24756479263305664,0.17696504677915506,0.14409711733930208,88500,4.517684593041209,0.0
295,1.944756031036377,3.5517200593278218,1.8131513738666072,6.095793859231402,1.7423517063351348,0.0,0.17111639063660145,0.1,0.0035331249237060547,0.06143069267272949,0.049507573,0.7904605,3.203140113290811,0.0,0.047843332858509134,0.0,300,0.1256556510925293,0.2677216356731864,0.2535009431305804,88800,5.275134847759595,0.0
296,1.920257329940796,3.78799918936756,1.5467500023000775,5.801889379207338,1.7071746882793297,0.0,0.16226525642725909,0.1,0.007513761520385742,0.05837559700012207,0.050164808,0.8991694,3.2616260208984857,0.0,0.05103906227149983,0.0,300,0.10728216171264648,0.20224834267563868,0.2038997361758838,89100,5.501626194635334,0.0
297,1.9616351127624512,3.214086854650672,1.7206643249527793,5.446230738092969,1.0370612831831199,0.0,0.17177941704057145,0.1,0.0032563209533691406,0.05931663513183594,0.049796496,0.8174581,3.2568721042737043,0.0,0.04337963741325967,0.0,300,0.1434340476989746,0.3630196877545814,0.3304709452686009,89400,5.622592458957398,0.0
298,1.9934711456298828,4.1834490558911686,1.4024148662817433,5.719015563339894,2.6285887241996795,0.0,0.1687025351741348,0.1,0.0032172203063964844,0.06307196617126465,0.04998782,0.8865316,3.3495297994354507,0.0,0.056308896730059156,0.0,300,0.032277822494506836,0.1558146808137194,0.1538878566960334,89700,5.575978650954224,0.0
299,1.9505605697631836,2.8369027797398854,0.756937676449046,3.807047552889689,1.92899612784032,0.0,0.17089868264187358,0.1,0.0035636425018310547,0.13190126419067383,0.04970106,0.5077631,3.2982670974658945,0.0,0.0383454654097581,0.0,300,0.12452220916748047,0.20538198800102692,0.17501740872516103,90000,5.8933415517101375,0.0
300,2.0156993865966797,3.266974241562477,0.8774169296622369,4.2051325589870245,1.9047269110057787,0.0,0.16879446952072288,0.1,0.10300087928771973,0.14529061317443848,0.049951125,0.5545921,3.295137811875553,0.0,0.04405916688249252,0.0,300,0.04015922546386719,0.10610695441964081,0.09789513031045839,90300,5.202177041953682,0.0
301,1.8891170024871826,2.049403294980889,1.0895322350300902,3.8582882373844223,0.957895411453232,0.0,0.17145651919514354,0.1,0.0922994613647461,0.1907961368560791,0.050484385,0.48372284,3.170564360186087,0.0,0.027845468581134056,0.0,300,0.27541613578796387,0.8088746819273409,0.5660073439615388,90600,4.842049756658725,0.0
302,1.9060969352722168,3.5819830090002,0.9983906865019604,4.576421617941496,2.2600836174523073,0.0,0.16720211476957675,0.1,0.08319258689880371,0.0971212387084961,0.050601948,0.9968905,3.2117062250674984,0.0,0.048267291863165376,0.0,300,0.06978154182434082,0.13218061678950677,0.1563883401434334,90900,4.222753821788098,0.0
303,1.966986894607544,3.4668722201774336,1.2628598654153829,4.9494957586276875,1.9875260125893075,0.0,0.16667044948281384,0.1,0.0031499862670898438,0.06066775321960449,0.050169397,0.9778022,3.237222824578492,0.0,0.04675955623941877,0.0,300,0.10439729690551758,0.20303698100416018,0.1913048633577021,91200,4.83263417630925,0.0
304,1.9451613426208496,2.983460374732817,0.947982240250903,3.917878732870722,1.537947503740131,0.0,0.16114939177578316,0.1,0.0051059722900390625,0.07926225662231445,0.050332364,1.012179,3.211846579593925,0.0,0.040307316763683355,0.0,300,0.21160125732421875,0.1332448723988516,0.12568538782219507,91500,3.8939573068649644,0.0
305,1.9788806438446045,3.451883840228409,2.0549721774697343,5.995379247997473,1.0455685059025877,0.0,0.16438857387204955,0.1,0.03359055519104004,0.14903926849365234,0.049797483,0.7873454,3.2358503056573733,0.0,0.04643884560391299,0.0,300,0.08621001243591309,0.345287308170723,0.33434070926538767,91800,4.278379292196817,0.0
306,1.9311468601226807,3.7353865773462043,1.0717688200386697,5.502170405855319,2.859080861315446,0.0,0.16591860873736597,0.1,0.08861899375915527,0.10983777046203613,0.049311556,1.1034492,3.2858039328262567,0.0,0.050300964596186645,0.0,300,0.07256698608398438,0.13918898925694748,0.1197203793274577,92100,4.0366806643030975,0.0
307,1.9554243087768555,2.9598662823289015,1.2668072841603197,4.171075997116153,0.8445641151039223,0.0,0.172734070372362,0.1,0.003142833709716797,0.06084084510803223,0.05007881,0.53506726,3.2532101677765213,0.0,0.03973423943857927,0.0,300,0.26152920722961426,0.26614656131529896,0.27207991539637527,92400,4.119230359527102,0.0
308,1.8818228244781494,3.247586364422019,0.549631797761282,3.99023205502003,2.6866651748541632,0.0,0.17409411625381788,0.1,0.005196571350097656,0.07658028602600098,0.049386717,0.99314547,3.252647787441071,0.0,0.04366177913079805,0.0,300,0.185227632522583,0.0637682988936874,0.05154941776637152,92700,4.825902855800421,0.0
309,1.9561927318572998,3.732540615929576,1.5822085235200478,6.336484168105879,2.0944113511228033,0.0,0.16462895382827764,0.1,0.007946014404296875,0.29118871688842773,0.049838882,2.740976,3.3006370702899215,0.0,0.05023986714983303,0.0,300,0.16265225410461426,0.2514707610977814,0.24881191444927633,93000,5.861837267774994,0.0
310,2.005972385406494,2.775574589045388,1.486070582604063,5.209788036003112,1.1993419054487053,0.0,0.17588498178752526,0.1,0.0032494068145751953,0.06526303291320801,0.04952393,0.6142213,3.248130822165468,0.0,0.03744508789339385,0.0,300,0.2657597064971924,0.3681933529916584,0.3590093163029752,93300,6.320295285865626,0.0
311,2.0187923908233643,2.7340849745618714,0.5171939308670075,3.382592020190522,1.9945779617782564,0.0,0.1716513184811016,0.1,0.0072956085205078125,0.06289887428283691,0.05031073,0.5698249,3.1967262374051084,0.0,0.036960986497067146,0.0,300,0.1460742950439453,0.12685903964836298,0.09007473059942774,93600,4.646126089912074,0.0
312,1.9639461040496826,3.933892651944727,1.8176264905345287,5.3297417244071355,0.8756727484496292,0.0,0.17412964771830391,0.1,0.0052187442779541016,0.48202013969421387,0.05025637,0.80584,3.27044287885907,0.0,0.05295618812411278,0.0,300,0.17246651649475098,0.27994628324668674,0.2779526337872752,93900,3.5844724302614943,0.0
313,2.0400514602661133,2.3197993015462077,0.24417371930346451,2.682206251269317,2.038123043645019,0.0,0.16876187518315464,0.1,0.09050798416137695,0.13352084159851074,0.049615495,0.5039682,3.175378521127784,0.0,0.03141984114808753,0.0,300,0.21986150741577148,0.18900527788500765,0.16780804806594773,94200,3.101851300282673,0.0
314,1.9584529399871826,3.731335536820949,1.210043060651512,5.721941531050688,2.5948740249199975,0.0,0.17427961377951873,0.1,0.003231048583984375,0.05887794494628906,0.050427772,1.2227683,3.2309742226971006,0.0,0.050234240364134285,0.0,300,0.07768869400024414,0.16335858465516903,0.16304861821639896,94500,4.787362997661573,0.0
315,1.9826221466064453,3.095899891810446,1.2676617226135742,4.996153038138637,1.4666692104998333,0.0,0.16628752335429609,0.1,0.003202676773071289,0.10102319717407227,0.049762663,0.8954188,3.217466789608435,0.0,0.04181453389658557,0.0,300,0.05029940605163574,0.20840996407023146,0.20524696818061192,94800,7.2468253478348545,0.0
316,1.9715075492858887,2.7272058791226117,1.0392452194926964,4.504252345008806,1.8664911332390628,0.0,0.15738410524264404,0.1,0.003319263458251953,0.13797807693481445,0.049705505,1.9613017,3.1684406985598526,0.0,0.0368594618537686,0.0,300,0.08758974075317383,0.2040147052183081,0.19381975505184962,95100,6.616976408465093,0.0
317,2.017301321029663,3.3369579463595778,0.8821838254085508,4.3045118561368945,2.02593851868421,0.0,0.168842561580741,0.1,0.0033669471740722656,0.05888962745666504,0.049825307,0.95053774,3.185292423339825,0.0,0.0449656072513802,0.0,300,0.04518318176269531,0.09890036720912015,0.09892742405159888,95400,5.67557793736215,0.0
318,1.971463918685913,3.4384743085199974,1.7405852699623328,6.1382236190623845,1.2744225856442108,0.0,0.16629874485385782,0.1,0.09876084327697754,0.1791362762451172,0.049452353,1.3914826,3.210610611857842,0.0,0.0462943936514329,0.0,300,0.15115070343017578,0.2870131341996748,0.28014901315237334,95700,6.078679320393294,0.0
319,2.160677433013916,2.4152329170442832,1.1680498322359043,4.310061649705541,1.1315263423197675,0.0,0.15950626455383543,0.1,0.09384799003601074,0.08563923835754395,0.05010511,0.6396768,3.1310728423764864,0.0,0.03271833970483003,0.0,300,0.27400970458984375,0.37800635420723744,0.3632141141028559,96000,7.337653726455461,0.0
320,2.01120662689209,2.1613010570484668,1.0253250510647451,3.454825054919023,1.1541226208352582,0.0,0.1734863557401863,0.1,0.027037382125854492,0.060513973236083984,0.049772803,0.46619076,3.0340956638436847,0.0,0.029263670357768806,0.0,300,0.04470515251159668,0.4995730629664499,0.39218261125829795,96300,6.539607061077658,0.0
321,1.917860984802246,2.1632788979507045,1.2243774094120565,3.6214142592864778,0.9392322662592892,0.0,0.17560194316079308,0.1,0.00519251823425293,0.1139380931854248,0.049307752,0.4322377,2.947013987254387,0.0,0.02934575925897262,0.0,300,0.1056070327758789,0.4474288269981284,0.3703856847558526,96600,5.577935355623416,0.0
322,1.9594876766204834,2.7625971841661268,1.3897161303646108,5.0634720734484375,1.4809820230604556,0.0,0.17581563249209964,0.1,0.003238201141357422,0.061419010162353516,0.049845584,0.92400026,2.9285723069455605,0.0,0.03736628497449433,0.0,300,0.12315869331359863,0.30978014903000006,0.31515726861803045,96900,5.927473544321219,0.0
323,1.9259958267211914,3.3390378121333635,1.2979153218455703,4.702300234331586,2.0346809346375294,0.0,0.17356693227055636,0.1,0.028072118759155273,0.060857295989990234,0.04977288,0.8326444,2.969618857464341,0.0,0.0450526198503209,0.0,300,0.05989527702331543,0.29919805818188727,0.2646345981187605,97200,4.944554130279933,0.0
324,1.9397635459899902,3.4440655945264154,1.3540943147395084,5.4539771138443225,1.6934226373686325,0.0,0.17956505254356406,0.1,0.08021998405456543,0.05967855453491211,0.050226156,0.93589866,3.0170635311705487,0.0,0.04644103401201307,0.0,300,0.04775714874267578,0.2909856109054966,0.23653287135452553,97500,4.681144219855594,0.0
325,1.9314298629760742,3.3663599742184616,1.335113750330528,4.879997867997991,1.5286598881715607,0.0,0.17207213568843818,0.1,0.07686614990234375,0.06769919395446777,0.04989063,0.9380888,3.05199317547534,0.0,0.04540317514451245,0.0,300,0.08333373069763184,0.22799648584532295,0.21348078599827447,97800,4.866697858241041,0.0
326,2.016624689102173,4.120736550120077,1.3908331431973275,5.798445883260555,1.9510567511709112,0.0,0.16690544508051103,0.1,0.0032885074615478516,0.06221127510070801,0.049567617,0.86870384,3.1588675129398136,0.0,0.055466285766783335,0.0,300,0.04330778121948242,0.22487380650450792,0.17779808757756813,98100,5.417246490619134,0.0
327,2.005678415298462,3.9801373998076457,1.152726643039103,5.591785992339093,2.342215984959257,0.0,0.1688480014094189,0.1,0.003171205520629883,0.06056022644042969,0.05006932,1.6730847,3.240994501626597,0.0,0.05357822416865246,0.0,300,0.05369997024536133,0.1400819146402602,0.11002096262677327,98400,7.445319762639659,0.0
328,1.9969511032104492,5.259234828536955,0.47354024102048337,5.7243582552011265,4.531095698498594,0.0,0.1814949085458533,0.1,0.0423436164855957,0.07921242713928223,0.049485043,0.89274126,3.4428185343176327,0.0,0.07061457302985631,0.0,300,0.05336475372314453,0.1078403788584976,0.0479527281610481,98700,7.932165314276591,0.0
329,1.961714267730713,3.4725480407774674,1.4645346400521637,5.027713694292897,1.2998711812607908,0.0,0.17042861159860392,0.1,0.003133058547973633,0.06179451942443848,0.050327443,0.4414978,3.4457914849636166,0.0,0.04683222437404368,0.0,300,0.031646728515625,0.2678612759571588,0.2738586850380563,99000,8.225929911191546,0.0
330,2.0438172817230225,3.3414190145672107,1.1471421550644123,5.1753734984900825,2.320756913305944,0.0,0.16645110924743237,0.1,0.0030095577239990234,0.05938434600830078,0.049849536,0.6429351,3.4353542379239763,0.0,0.045086227008894204,0.0,300,0.13724184036254883,0.3207739389831313,0.18099813898599473,99300,8.363396424049727,0.0
331,2.0614938735961914,5.046388870963829,0.8010904046941947,6.266135286097658,4.166250751032977,0.0,0.1814771864284137,0.1,0.0032122135162353516,0.061780452728271484,0.050961614,0.7909245,3.5964577012279615,0.0,0.06776202905705644,0.0,300,0.08814001083374023,0.13521654947170164,0.11874818246120847,99600,7.78826045751043,0.0
332,2.0218722820281982,5.872582573402526,0.8749199264221548,6.938990354288493,4.81362817174239,0.0,0.17945012717796607,0.1,0.00674128532409668,0.07463622093200684,0.05024495,1.0502698,3.824070188445418,0.0,0.07881936656220492,0.0,300,0.06974411010742188,0.1611654858415254,0.0942858216609941,99900,6.003386288124553,0.0
333,2.065396547317505,3.3953952007529846,1.7525411828349644,5.750721511583953,0.8404449758082443,0.0,0.1669310693539822,0.1,0.003551006317138672,0.1170196533203125,0.04995826,1.231746,3.781202689676175,0.0,0.04574743485427574,0.0,300,0.2731928825378418,0.5475378440593671,0.448302592456402,100200,7.780137646291636,0.0
334,2.038872480392456,4.374254122958467,1.6038604355551351,6.1184898487222386,1.924956844200706,0.0,0.16449474991365431,0.1,0.09218740463256836,0.09830522537231445,0.050134815,0.6166693,3.840507833004404,0.0,0.05875986205673034,0.0,300,0.21224236488342285,0.19584581689285785,0.19550076649128853,100500,8.89874783465139,0.0
335,2.027168035507202,3.890151896062564,1.2973311682383875,5.406401707046241,2.119146111117285,0.0,0.17887269244629897,0.1,0.0031442642211914062,0.05844259262084961,0.04972709,0.45393687,3.84547223931022,0.0,0.05237786298970927,0.0,300,0.05102133750915527,0.13873322030227417,0.14039764788323794,100800,9.157700698551269,0.0
336,2.0489413738250732,3.6646994434345457,1.5313152078211536,6.20563218001274,2.424345615433078,0.0,0.1685072852557553,0.1,0.003042459487915039,0.09029436111450195,0.05037997,0.94134146,3.8273949597226524,0.0,0.04938736690648135,0.0,300,0.056923627853393555,0.20527269185202052,0.20137144628426026,101100,8.184573732140105,0.0
337,1.9589502811431885,4.4196970025199285,1.1954697092547346,5.601172601105212,2.4262727901065895,0.0,0.17146151855534578,0.1,0.05883646011352539,0.06274604797363281,0.04973105,0.6403646,3.88662516400238,0.0,0.059392386697891875,0.0,300,0.05644965171813965,0.1380872819908894,0.11697239527610027,101400,8.962270923248084,0.0
338,1.953153371810913,4.785075573626727,1.4770652558493296,6.895603097230252,3.2504759099628875,0.0,0.17062068821654128,0.1,0.09193181991577148,0.40881991386413574,0.050180193,0.97848713,3.9764702049648153,0.0,0.06431566631278401,0.0,300,0.049811601638793945,0.15198957638310873,0.12759541494695836,101700,6.322577393718501,0.0
339,1.9486017227172852,2.9918836531063446,1.1997860263960187,4.331017787536629,1.394839022552546,0.0,0.16892377754604526,0.1,0.003482818603515625,0.06966209411621094,0.049620118,0.531015,3.8780115497789684,0.0,0.04037852506766316,0.0,300,0.0731649398803711,0.4212578910110877,0.38368192212654806,102000,4.5005974521454,0.0
340,2.005495548248291,4.308196405039439,1.377939821261564,6.549493323924185,2.7882212455335242,0.0,0.17162966609918973,0.1,0.005440235137939453,0.34192752838134766,0.049680267,1.0909184,3.921030035305016,0.0,0.05795750735311258,0.0,300,0.2675795555114746,0.12565061651015838,0.13342807835637172,102300,5.49684980838919,0.0
341,1.974515438079834,4.334692347361851,1.2035968578620726,5.874711276157104,2.497755120517263,0.0,0.17375308664945813,0.1,0.09422779083251953,0.43309473991394043,0.049850423,0.6328586,3.9623962665106998,0.0,0.05826097506342403,0.0,300,0.2532062530517578,0.13161512557027222,0.12270294213473039,102600,5.547593257271806,0.0
342,2.014465808868408,4.162808943009274,1.2715401304087652,5.458607088554598,2.1488858368731525,0.0,0.17038464135110062,0.1,0.0032248497009277344,0.061713457107543945,0.049726788,0.74302,3.9824375341605576,0.0,0.05603135771647831,0.0,300,0.08174014091491699,0.13930309354395873,0.1417918954312665,102900,8.585732601585049,0.0
343,2.009051561355591,4.8653245981521325,1.5164821002444553,6.442396618075127,2.4248727468641067,0.0,0.17101110212079035,0.1,0.0032989978790283203,0.06384944915771484,0.04959905,0.70687956,4.070726240559715,0.0,0.06538329065677266,0.0,300,0.04267120361328125,0.14143137294187422,0.1240193403488246,103200,7.187904309273956,0.0
344,2.0154619216918945,2.180711423210055,0.7502849508923626,2.9509416724235167,1.0505602914578123,0.0,0.1787747816247818,0.1,0.08914637565612793,0.07341432571411133,0.049912076,0.52792794,3.881724758824749,0.0,0.029597003040794365,0.0,300,0.14537668228149414,1.8175594099729238,1.2292014055132539,103500,6.2023646331438576,0.0
345,1.9916574954986572,4.148535260877546,1.5375702139915457,6.542605354473065,2.2875517496433426,0.0,0.17188922555091238,0.1,0.07391715049743652,0.06368827819824219,0.050080873,0.86378,3.908405809030029,0.0,0.05566114976413512,0.0,300,0.1284337043762207,0.2030711898473057,0.22692255563539415,103800,6.434255253311794,0.0
346,2.075753927230835,3.2201896994410832,1.8062381994828807,6.062049325149145,1.0500681831606158,0.0,0.16305121132047343,0.1,0.08922171592712402,0.09268760681152344,0.050385606,0.8150153,3.8395841980711345,0.0,0.043452072010713945,0.0,300,0.040450334548950195,0.34121546763222127,0.33088646864953736,104100,5.7068365564521875,0.0
347,2.073289632797241,2.896974253646479,1.6317010245001353,5.648158006028393,1.3775833050583939,0.0,0.16557892493021867,0.1,0.005039215087890625,0.06063485145568848,0.04992608,0.6855004,3.745323203628669,0.0,0.03915142209672785,0.0,300,0.052496910095214844,0.3492567367753562,0.34117588677847355,104400,6.4534650656962524,0.0
348,2.0101797580718994,4.442495296124465,1.4421219819609339,6.468200302001767,3.0780387401738207,0.0,0.1663947164341579,0.1,0.0029897689819335938,0.057930707931518555,0.049828842,1.7111951,3.8150404128782487,0.0,0.05969923192337509,0.0,300,0.0541231632232666,0.24783809897036535,0.21859477033269387,104700,6.522343957022389,0.0
349,1.9496896266937256,4.223747338895663,0.791066091304759,5.090123122630407,3.0638187995881476,0.0,0.17120704756695976,0.1,0.003197908401489258,0.0582880973815918,0.050046157,0.94209826,3.8559111054799904,0.0,0.05648004764982194,0.0,300,0.04918551445007324,0.11397971592560066,0.07145005462560815,105000,5.055571364640001,0.0
350,2.0209174156188965,4.460761399648737,1.2704032742783713,5.61432290137774,2.3106008825384943,0.0,0.17083384532245935,0.1,0.003072977066040039,0.058777809143066406,0.04983216,0.7733874,3.916396134896865,0.0,0.0598888162498843,0.0,300,0.044680118560791016,0.1513723099281536,0.1300081179619912,105300,3.6098415426108734,0.0
351,2.0057005882263184,3.273662026883642,0.6122382859074134,4.020155783255183,2.4738987607209633,0.0,0.16569763132876694,0.1,0.03744864463806152,0.06281137466430664,0.04945154,0.77745825,3.852122724095543,0.0,0.04415966126780867,0.0,300,0.21104717254638672,0.1778837351929167,0.16793013042481922,105600,5.173322624478764,0.0
352,2.0340187549591064,5.317364197760211,1.4883055774885434,7.2959333362971845,3.106345925925078,0.0,0.17314957764468572,0.1,0.013810396194458008,0.07193636894226074,0.04956734,0.780592,3.99864687146201,0.0,0.07139503657680456,0.0,300,0.09289169311523438,0.17853306180064077,0.16421596686676898,105900,1.9922588290067977,0.0
353,2.115358352661133,3.959301124308046,1.7463576169439232,6.868126835887929,2.3747999496325405,0.0,0.16227765967674132,0.1,0.0030198097229003906,0.05840134620666504,0.050026614,1.308828,3.9947122967466138,0.0,0.05331901145840537,0.0,300,0.03343033790588379,0.21023291420960807,0.21438373558628554,106200,2.3972967563705043,0.0
354,1.9819409847259521,2.717237509784029,1.1152172077857918,4.104933553360918,1.0643036865753082,0.0,0.1724718266134811,0.1,0.003282308578491211,0.09479236602783203,0.049896568,0.48273736,3.8669648180503553,0.0,0.03667694339668597,0.0,300,0.06438302993774414,0.694602879920639,0.4617858796236963,106500,4.797667882211486,0.0
355,2.160060167312622,3.0956236815747724,0.9515750163853332,4.081235138175202,1.7997516019659936,0.0,0.17190258870696734,0.1,0.005311012268066406,0.25407910346984863,0.049594544,0.65304476,3.789830704402797,0.0,0.04176158920492836,0.0,300,0.06936144828796387,0.22723542648463682,0.18038567270998535,106800,7.04164683411673,0.0
356,2.0730607509613037,3.597230502383067,0.7529819099141611,4.6424812182896105,2.7089338700412315,0.0,0.15345412199978883,0.1,0.003237009048461914,0.06156468391418457,0.04991236,0.59163034,3.7705706842008238,0.0,0.04838196301224053,0.0,300,0.05697512626647949,0.06719477210088871,0.0786414069206622,107100,4.955057215792925,0.0
357,2.0302374362945557,4.909928952446957,1.4443978474928145,6.2926044006737,2.6620591199793813,0.0,0.16335757642755064,0.1,0.0031709671020507812,0.061266422271728516,0.050293226,1.0511899,3.884506511025437,0.0,0.06594804612971157,0.0,300,0.06108593940734863,0.22873457625037513,0.19701668236072264,107400,8.009225591930917,0.0
358,1.98934006690979,3.6892711130525706,1.467767150607523,5.706738361495008,1.7439619895763712,0.0,0.17287445125453765,0.1,0.003110647201538086,0.0599517822265625,0.04981605,0.79197776,3.8649829712281507,0.0,0.04967675566599805,0.0,300,0.037087440490722656,0.21303116956668477,0.20197381193220545,107700,7.961424175665628,0.0
359,2.0902295112609863,4.889705249942547,1.361309832271847,6.279454040584883,2.6313507378464043,0.0,0.17898862346493452,0.1,0.002940654754638672,0.05966591835021973,0.050104797,0.7955781,3.9674551990995908,0.0,0.06552794738548619,0.0,300,0.16475200653076172,0.16131113745438433,0.11942453887134646,108000,6.696170271509804,0.0
360,2.012882947921753,4.824942291335709,1.259977697246731,6.487587576472622,3.3739738366560603,0.0,0.1661838635165772,0.1,0.01770806312561035,0.06686019897460938,0.04968919,1.0717629,4.053203908323202,0.0,0.064710848066301,0.0,300,0.0545344352722168,0.10755284080976278,0.09329847485100698,108300,9.15366346051786,0.0
361,2.1155872344970703,3.301197755521458,0.19031845853632137,3.5826614291526164,3.0677598302004574,0.0,0.17104496967890753,0.1,0.0031290054321289062,0.060784339904785156,0.05035783,0.82961637,3.9780032930430282,0.0,0.044516486727471105,0.0,300,0.10774087905883789,0.2953584592025608,0.20477737900992746,108600,7.928189829499245,0.0
362,2.1188008785247803,3.354349338715772,1.6953689479602263,4.978989274273329,0.9506586062670214,0.0,0.1710283405135872,0.1,0.022922277450561523,0.10553646087646484,0.04950452,0.63568556,3.915637897610303,0.0,0.04525888836641079,0.0,300,0.08108043670654297,0.44075486539981773,0.31302974295152786,108900,8.987628024899127,0.0
363,2.0763778686523438,4.29757177803604,1.5854094652253055,5.918298676700111,2.3316880254643673,0.0,0.1702318128423138,0.1,0.002979755401611328,0.1371452808380127,0.049940255,0.7094998,3.9538312856528766,0.0,0.05777652095042301,0.0,300,0.11608767509460449,0.23484764757278814,0.24882748744906688,109200,8.200433373978736,0.0
364,2.045562267303467,4.339567187294778,1.1232542135941292,5.798391226007273,3.109837928298712,0.0,0.17076667747061045,0.1,0.013671159744262695,0.08233976364135742,0.04946797,1.1766218,3.992404875817067,0.0,0.05839682174128659,0.0,300,0.11337494850158691,0.12229440075454207,0.11614356289441806,109500,9.626376126473813,0.0
