iteration,time_sampling,stoc_pol_mean,stoc_pol_std,stoc_pol_max,stoc_pol_min,rollout_success,alpha,delta,time_vpg,time_npg,kl_dist,surr_improvement,running_score,rwd_sparse,rwd_dense,success_percentage,num_samples,time_VF,VF_error_before,VF_error_after,env_samples,eval_score,eval_success
0,0.9748754501342773,0.09068253181220845,0.044467514776398286,0.15844960377003472,0.044828406894437615,0.0,0.13977197430582214,0.1,0.058881282806396484,0.055420875549316406,0.056318436,1.3683645,0.09068253181220845,0.0,0.0017755871674762335,0.0,200,0.04397726058959961,0.5543705681777821,0.3056289190369112,200,0.1301995914520551,0.0
1,1.0203187465667725,0.10057806697699424,0.0076355101518573824,0.10900766554752586,0.08836463546753982,0.0,0.1487393742230956,0.1,0.0027441978454589844,0.05260825157165527,0.051633276,0.57599854,0.09167208532868704,0.0,0.0019511411668160332,0.0,200,0.013292551040649414,0.18254627778654603,0.11025204120312752,400,0.10537403263156873,0.0
2,0.9740064144134521,0.13701806410721049,0.04412682976067112,0.20849259964660244,0.0878500900146476,0.0,0.1473054333163751,0.1,0.0027587413787841797,0.05217337608337402,0.05223637,1.348595,0.09620668320653938,0.0,0.0028026668012852956,0.0,200,0.013298511505126953,0.25696568015568083,0.2374944733967812,600,0.1064015687354019,0.0
3,0.9643774032592773,0.13124050465305914,0.04547825102003908,0.20021598658310263,0.08498502670908704,0.0,0.14767066929884726,0.1,0.0028171539306640625,0.05496621131896973,0.05277899,0.8862977,0.09971006535119137,0.0,0.002568473799952547,0.0,200,0.01369023323059082,0.1867801809463084,0.17663266528205696,800,0.13118029267096112,0.0
4,1.0000219345092773,0.1482340461568137,0.03272926781814176,0.18836013068735874,0.10084188033851053,0.0,0.14315205075896686,0.1,0.002696990966796875,0.05273556709289551,0.051478114,0.850084,0.1045624634317536,0.0,0.0029044204742793315,0.0,200,0.014509916305541992,0.20149722719758853,0.1893031606378587,1000,0.13913802355169205,0.0
5,1.000464916229248,0.16497525486407105,0.022190537284463005,0.18504628465955822,0.12745837542911315,0.0,0.14271679282259614,0.1,0.0027828216552734375,0.0538182258605957,0.05212396,0.86404973,0.11060374257498536,0.0,0.003923396532693952,0.0,200,0.013715982437133789,0.21721452823678095,0.19027359035072886,1200,0.12475534873668824,0.0
6,1.0809545516967773,0.13765746581053176,0.05272375081037113,0.20490094096789827,0.08081514493190749,0.0,0.1538968204030587,0.1,0.0027008056640625,0.05253338813781738,0.050899487,0.8280528,0.11330911489854,0.0,0.0027691624884077044,0.0,200,0.013417959213256836,0.3751661642747332,0.21771319370111367,1400,0.13442722220319137,0.0
7,1.0550734996795654,0.128586528896727,0.04865693479242802,0.18516601377884545,0.06108043745091783,0.0,0.14495634784152128,0.1,0.0026700496673583984,0.0522463321685791,0.05032612,1.7824512,0.11483685629835869,0.0,0.0025524596768265943,0.0,200,0.014466047286987305,0.21781597032066866,0.22937473564891483,1600,0.13572266037261368,0.0
8,1.104600429534912,0.17886256209482226,0.0754428868541159,0.26324182132719887,0.07928859082329347,0.0,0.13420325070177025,0.1,0.002637624740600586,0.053098201751708984,0.05075549,0.95145607,0.12123942687800504,0.0,0.003565610642062427,0.0,200,0.014617443084716797,0.48131115566256777,0.291997025930601,1800,0.1582694038084991,0.0
9,1.0843214988708496,0.1424159894071133,0.0368421603910046,0.19562983787197927,0.10163201299156567,0.0,0.14459577780014826,0.1,0.002763986587524414,0.05312609672546387,0.049955945,0.97109026,0.12335708313091588,0.0,0.0029741376970236003,0.0,200,0.01389765739440918,0.19110345273004656,0.21662331327555898,2000,0.1792052788330206,0.0
10,0.977520227432251,0.12046396984717767,0.006047787087365644,0.1302877542123739,0.11397097769327663,0.0,0.14999322966877818,0.1,0.0026116371154785156,0.052344560623168945,0.052084204,0.7952124,0.12306777180254207,0.0,0.002463398899012345,0.0,200,0.013150453567504883,0.6483080664218315,0.3659572815660443,2200,0.15778406969982622,0.0
11,0.9482574462890625,0.19385951874756432,0.0898998178391008,0.3336893083118653,0.08565449244966337,0.0,0.13883018489246485,0.1,0.0027170181274414062,0.052094221115112305,0.049705833,1.1812323,0.13014694649704428,0.0,0.0039015447917165854,0.0,200,0.015913963317871094,0.3595595934187341,0.36541097299416186,2400,0.15066101387321088,0.0
12,1.0301578044891357,0.17645178511307766,0.06212571209759208,0.27220910080942956,0.1010557416840091,0.0,0.14036617333491214,0.1,0.0027751922607421875,0.05625033378601074,0.04883148,1.489806,0.13477743035864762,0.0,0.0035058849807700293,0.0,200,0.013649225234985352,0.3218821105887375,0.304152963536592,2600,0.18904050454360302,0.0
13,1.03483247756958,0.1795417757154168,0.0880681545819209,0.331494054526265,0.11761925884725691,0.0,0.14079277586601935,0.1,0.0029249191284179688,0.05761528015136719,0.047698326,1.5283338,0.13925386489432454,0.0,0.0037423671645110423,0.0,200,0.013667106628417969,0.3552259714839159,0.33414176344896096,2800,0.22685338874493408,0.0
14,1.0441036224365234,0.22887055923410266,0.12415551321410362,0.4230540485417373,0.08068906859590749,0.0,0.14033966109107768,0.1,0.0028045177459716797,0.053385019302368164,0.05085554,1.402333,0.14821553432830237,0.0,0.004598521826506195,0.0,200,0.015400171279907227,0.3994810539091358,0.3483638382824165,3000,0.3901636159851037,0.0
15,1.0717763900756836,0.11849730529776982,0.03972860741756653,0.18500538894779694,0.07968119465813632,0.0,0.1399510971453524,0.1,0.002844095230102539,0.05657815933227539,0.048326872,1.1166898,0.1452437114252491,0.0,0.0023120050578401235,0.0,200,0.013439655303955078,0.9273544637852171,0.6924711211747293,3200,0.3403268634320369,0.0
16,1.0558040142059326,0.15009297156590984,0.04329351829415763,0.20283006931490222,0.08308491827795252,0.0,0.1418350436020089,0.1,0.003103494644165039,0.05381035804748535,0.049893823,0.7872813,0.1457286374393152,0.0,0.002839759744056713,0.0,200,0.013936281204223633,0.20280469799668907,0.13518075863705778,3400,0.4935757555829456,0.0
17,1.0530755519866943,0.22144965079820278,0.05028919946774538,0.30185523596639663,0.1657843396640178,0.0,0.1362026593689099,0.1,0.0028066635131835938,0.053114891052246094,0.049431548,1.2735171,0.15330073877520395,0.0,0.004453289873666009,0.0,200,0.013408660888671875,0.22451410510305947,0.21665671969120803,3600,0.552773940934889,0.0
18,1.058807611465454,0.3417474183534742,0.1254019275351717,0.4666291049399841,0.1673213644373914,0.0,0.13710744334102082,0.1,0.0028536319732666016,0.05310511589050293,0.049578376,0.9794247,0.17214540673303097,0.0,0.006909434953879603,0.0,200,0.013405323028564453,0.46595792895592664,0.3199798802642839,3800,0.5156938081734356,0.0
19,1.0512402057647705,0.22466484358972305,0.11077983145049045,0.3803369225628766,0.11317061776242203,0.0,0.13695561285342472,0.1,0.002693653106689453,0.05304574966430664,0.050019946,1.752528,0.1773973504187002,0.0,0.0044471245342602005,0.0,200,0.014056921005249023,0.27542991731400285,0.3459724341970261,4000,0.4505324148531218,0.0
20,1.0949304103851318,0.25881464988262837,0.11158822693275952,0.4343541957720861,0.12433954302151073,0.0,0.13823575433543903,0.1,0.0027642250061035156,0.05625605583190918,0.051128887,1.0299087,0.18553908036509303,0.0,0.005162064430269522,0.0,200,0.013050317764282227,0.2664161129700439,0.26436502183472493,4200,0.6213944472192215,0.0
21,1.0808522701263428,0.19122679610420223,0.10287242889968165,0.35782136665545305,0.0972763292822283,0.0,0.13245181410631696,0.1,0.002632617950439453,0.05220389366149902,0.05016716,1.7149472,0.18610785193900395,0.0,0.003822067721268181,0.0,200,0.01410222053527832,0.5432752410409905,0.3883946606301312,4400,0.5842349699965289,0.0
22,1.1982026100158691,0.42098479433888325,0.42184047315363277,1.1468190688967315,0.10388399537555015,0.0,0.14111856395758215,0.1,0.0026636123657226562,0.0523681640625,0.049744654,1.5864543,0.2095955461789919,0.0,0.008396597168841719,0.0,200,0.015242338180541992,0.661095130638473,0.6553390030816924,4600,0.4433162752263016,0.0
23,1.0708489418029785,0.14733611240212213,0.06408418362010412,0.22662006198217416,0.06119211638448422,0.0,0.13803258941824317,0.1,0.002615690231323242,0.05289101600646973,0.051510125,0.9082086,0.20336960280130492,0.0,0.002958457764603652,0.0,200,0.013607978820800781,0.719133433020353,0.5612560572670308,4800,0.49055538636785595,0.0
24,1.0808734893798828,0.4118603016093048,0.23022742009675035,0.7659118226189404,0.12369219803006286,0.0,0.12252542505646598,0.1,0.0027060508728027344,0.05307316780090332,0.049997926,2.7373276,0.2242186726821049,0.0,0.008194717355462797,0.0,200,0.013032197952270508,0.5062255245279027,0.45071857507735,5000,0.38441381310990236,0.0
25,1.0941047668457031,0.1771166816129766,0.11428344962913327,0.37467302250922513,0.09960303722970226,0.0,0.1340931968288157,0.1,0.002834320068359375,0.05278897285461426,0.049294844,1.4859179,0.21950847357519207,0.0,0.0034138218031331087,0.0,200,0.012947797775268555,0.5187183521301095,0.5919327229449833,5200,0.9427825917205855,0.0
26,1.1031904220581055,0.2074364719728256,0.09473607791322097,0.29495735259989225,0.0481258509356101,0.0,0.1326303202264437,0.1,0.002862215042114258,0.05291032791137695,0.04994984,1.3919144,0.21830127341495542,0.0,0.004141827667562573,0.0,200,0.0264739990234375,0.41087586895115136,0.3232652242069564,5400,1.2410935691524043,0.0
27,1.063941240310669,0.12441518676445651,0.05714499886454201,0.21787691479681562,0.06684925499213942,0.0,0.13584422574622873,0.1,0.002960681915283203,0.05383706092834473,0.051537015,0.8873405,0.20891266474990555,0.0,0.0028401437568209135,0.0,200,0.014464139938354492,1.5269719175609973,0.6566063742087237,5600,1.2381221183394056,0.0
28,1.0240693092346191,0.1158149901040543,0.030511859360344118,0.16460004486864135,0.08465787095176537,0.0,0.1308963366145564,0.1,0.002877950668334961,0.054144859313964844,0.05103134,1.0244389,0.19960289728532044,0.0,0.002314488894494939,0.0,200,0.013434171676635742,1.2105048229976478,0.34796570155939777,5800,0.43350391746431227,0.0
29,1.0372178554534912,0.367804126650472,0.36070875767642596,0.9825528032630162,0.07874705574066529,0.0,0.13481309281748244,0.1,0.002908945083618164,0.053362369537353516,0.05106636,1.9499661,0.2164230202218356,0.0,0.007248412747069051,0.0,200,0.013933658599853516,0.7735092668428186,0.753090970120012,6000,0.7652023657395128,0.0
30,1.0603671073913574,0.24235501519645689,0.14284572440855622,0.48854958692206196,0.14462473141248236,0.0,0.1362031834742885,0.1,0.0028336048126220703,0.0569915771484375,0.050582167,1.8726481,0.21901621971929772,0.0,0.004771119771253791,0.0,200,0.014150381088256836,0.45772568493654797,0.3953712101897879,6200,0.43379005229476614,0.0
31,1.0568537712097168,0.31195549439286535,0.14291949480668018,0.518436094709777,0.13065629850462718,0.0,0.13423311743706545,0.1,0.0028939247131347656,0.05331707000732422,0.05050814,1.1665051,0.2283101471866545,0.0,0.0063680483924929195,0.0,200,0.014861345291137695,0.40318447757107917,0.35477537720864805,6400,0.5050620981723277,0.0
32,1.1021230220794678,0.15012074607477993,0.03644572357403903,0.1924155128534884,0.10212093145212897,0.0,0.13742230772722583,0.1,0.003865480422973633,0.05235457420349121,0.04934858,1.0546601,0.22049120707546704,0.0,0.0030099322454546396,0.0,200,0.014042854309082031,0.7469022047042845,0.91389531697237,6600,0.37403085788186763,0.0
33,1.0780632495880127,0.33393549464359856,0.08321582196581283,0.4220097147561324,0.23489021329150644,0.0,0.12784730367160713,0.1,0.002738475799560547,0.052353858947753906,0.05019732,0.87359846,0.2318356358322802,0.0,0.006604630582575701,0.0,200,0.013751506805419922,0.25908871048822174,0.24247647724976332,6800,0.34025477763590417,0.0
34,1.0975008010864258,0.20425264586496503,0.08977641651811384,0.31323806749405264,0.07100010094084358,0.0,0.13438019928974507,0.1,0.0027391910552978516,0.05195331573486328,0.049580384,0.97060096,0.2290773368355487,0.0,0.00410560087835854,0.0,200,0.013365745544433594,0.34245694077694394,0.3317808464647542,7000,0.43945340942574634,0.0
35,1.063523530960083,0.662770751944549,0.5465026670203115,1.4690159903030622,0.13681293983736956,0.0,0.13512748326086704,0.1,0.0027251243591308594,0.056914329528808594,0.050572682,1.1742582,0.27244667834644876,0.0,0.01319736446935205,0.0,200,0.014325380325317383,0.7051938926032761,0.6429180797464359,7200,0.3945752478615674,0.0
36,1.1028361320495605,0.24099687645182544,0.13747018869490482,0.4172193406114303,0.10604213711064063,0.0,0.1312359574619123,0.1,0.0026683807373046875,0.05258631706237793,0.04998999,1.045249,0.2693016981569864,0.0,0.004756834538441906,0.0,200,0.017094850540161133,0.4529208457697376,0.6569472303096139,7400,0.30064693180240976,0.0
37,1.1030094623565674,0.16723637058115554,0.03625720816217668,0.21743170562612038,0.12865808124728262,0.0,0.13191641870614432,0.1,0.002759695053100586,0.055457115173339844,0.049757708,1.3822827,0.25909516539940336,0.0,0.0033852557664713124,0.0,200,0.013948917388916016,2.207551145107286,1.4619647794478066,7600,1.4658298983229863,0.0
38,1.1039800643920898,0.4266118211132476,0.4666179400551901,1.2248807483012503,0.04913193983820262,0.0,0.13673257937007519,0.1,0.003348827362060547,0.06812882423400879,0.0504614,2.25942,0.27584683097078777,0.0,0.008730941569960592,0.0,200,0.01629924774169922,0.6308172873859452,0.6291836054615142,7800,1.6727920127601237,0.0
39,1.1297316551208496,0.29726162777656173,0.1718933409993431,0.5095184728717631,0.09953256655007489,0.0,0.1304775077751038,0.1,0.0032792091369628906,0.06751489639282227,0.04922371,0.9466808,0.2779883106513652,0.0,0.0059229880438591165,0.0,200,0.014320850372314453,0.3093359975531773,0.2997557098103371,8000,0.4924722565442455,0.0
40,1.1294760704040527,0.38081356882202266,0.22541858042443522,0.7454652737375242,0.13394783527377263,0.0,0.13189589921530778,0.1,0.0026657581329345703,0.052221059799194336,0.04956834,1.6791266,0.28827083646843094,0.0,0.007494187100800309,0.0,200,0.013461828231811523,0.4066879295931136,0.398174656445076,8200,0.7796294047676651,0.0
41,1.681396245956421,0.6966665544057613,0.6069156790314231,1.743717080867743,0.26247242034863605,0.0,0.1294468677536259,0.1,0.0025947093963623047,0.05275607109069824,0.049304377,2.3990178,0.329110408262164,0.0,0.013843617978261644,0.0,200,0.015014410018920898,0.6857860428136208,0.610344501635393,8400,0.6906902814787549,0.0
42,1.034255027770996,0.448015840074247,0.443173005923874,1.2134716344532157,0.15673705640947483,0.0,0.12766517833387478,0.1,0.0027370452880859375,0.0538792610168457,0.049451254,1.9476825,0.3410009514433723,0.0,0.008946699763198514,0.0,200,0.014302253723144531,0.5854866499099366,0.5887165727504805,8600,0.5889478477621118,0.0
43,1.0376918315887451,0.5678995913894912,0.5958135178217265,1.5933637066172368,0.13644261310258582,0.0,0.12750781346375029,0.1,0.0026998519897460938,0.05273294448852539,0.04890833,2.1773865,0.3636908154379842,0.0,0.011372226944792712,0.0,200,0.013263225555419922,0.5939555673253738,0.5823868762965992,8800,0.5645028610350215,0.0
44,1.0689523220062256,1.1676776911801812,0.7745200642037616,2.411438885108177,0.37089848183653445,0.0,0.1301043966281773,0.1,0.0026397705078125,0.05378150939941406,0.04968694,1.4629755,0.4440895030122039,0.0,0.022624934301556328,0.0,200,0.01429128646850586,0.5617751742998252,0.4440100059475363,9000,0.6279107806637051,0.0
45,1.0623040199279785,0.22051081849402057,0.12887942102122907,0.4230624472212982,0.10542846905090893,0.0,0.13849103035174185,0.1,0.0027806758880615234,0.05365157127380371,0.050233588,1.4840702,0.4217316345603856,0.0,0.004389883860117091,0.0,200,0.014633893966674805,6.93651782592043,6.890982204817325,9200,0.5230683364681535,0.0
46,1.0914502143859863,0.8438983417643986,1.067732038748516,2.683498311287784,0.12924389624151894,0.0,0.1375400513946755,0.1,0.0029730796813964844,0.0531001091003418,0.04937522,1.3213719,0.4639483052807869,0.0,0.016561364405364643,0.0,200,0.01602792739868164,0.6667831151897472,0.6685366848655283,9400,0.6268316890992948,0.0
47,1.0724821090698242,0.3954198203112667,0.17078005254367956,0.5841605377364189,0.21614493306378008,0.0,0.13490941393811454,0.1,0.0029010772705078125,0.05339360237121582,0.049561366,1.0831344,0.4570954567838349,0.0,0.007830082334227004,0.0,200,0.013794660568237305,0.9023179697898303,0.5569389417461611,9600,0.8415660837403497,0.0
48,1.068429708480835,0.7905371473444256,0.44935987672644573,1.5327358386169871,0.3267693705782786,0.0,0.11659148641532353,0.1,0.002789735794067383,0.05245494842529297,0.049151137,2.8651714,0.490439625839894,0.0,0.015980030599102534,0.0,200,0.013695955276489258,0.37377296267362686,0.3867950938943421,9800,1.073648669546725,0.0
49,1.0496697425842285,0.2920301017181935,0.09199979852978797,0.37239727447096826,0.13593708527605633,0.0,0.1322217383002493,0.1,0.0026717185974121094,0.05225872993469238,0.049054977,0.95175874,0.47059867342772393,0.0,0.00558877025248565,0.0,200,0.013695716857910156,1.4126278732935584,0.8452006856558429,10000,0.7506935395148678,0.0
50,1.0686521530151367,0.5302485074213853,0.3057664443923479,0.987098663005399,0.1822518072634375,0.0,0.13540967779782545,0.1,0.002736330032348633,0.05358719825744629,0.049976967,1.2744629,0.47656365682709007,0.0,0.010482308151522486,0.0,200,0.014429330825805664,0.3367326368745618,0.35685803800499055,10200,0.8051433731271125,0.0
51,1.094783067703247,0.4095260453740914,0.2511182831050106,0.821975728439138,0.17652291473132045,0.0,0.12578111477537596,0.1,0.0027666091918945312,0.0532832145690918,0.048670374,1.3584545,0.4698598956817902,0.0,0.008204733752692898,0.0,200,0.013422727584838867,0.4965207768847808,0.45456785825028573,10400,2.028716472157067,0.0
52,1.067347764968872,0.29624795980184,0.22104685606421204,0.6754250176514989,0.12211661215866682,0.0,0.1267003455773023,0.1,0.0026750564575195312,0.05229067802429199,0.04943401,1.2152393,0.45249870209379517,0.0,0.005956100285167208,0.0,200,0.013396739959716797,0.624240171124121,0.5405632581780848,10600,2.5179855400662947,0.0
53,1.0770323276519775,1.2033441243120933,0.9609183370758141,2.364233910786299,0.09681702282389587,0.0,0.1281305093307746,0.1,0.0028007030487060547,0.05196094512939453,0.050319143,1.1836617,0.527583244315625,0.0,0.023346464339330478,0.0,200,0.013514995574951172,0.7185274643100741,0.6725132871253141,10800,1.699679023476546,0.0
54,1.0668108463287354,0.6163213242200071,0.38925309278299147,1.1067106896247523,0.18306006846322342,0.0,0.1263965170270228,0.1,0.0026671886444091797,0.05270075798034668,0.05005895,1.4233154,0.5364570523060632,0.0,0.012202604970793958,0.0,200,0.013995647430419922,0.4206045705730307,0.37760583323921304,11000,0.6697932054563657,0.0
55,1.069715976715088,0.3657285093547215,0.15962982553431346,0.6418754572637699,0.26581556765411213,0.0,0.1379837450119882,0.1,0.0029458999633789062,0.05318403244018555,0.04992534,1.0441445,0.519384198010929,0.0,0.007134425353665223,0.0,200,0.013485193252563477,0.44494423563261704,0.5579534975579771,11200,0.8446904149571292,0.0
56,1.0916261672973633,0.7928671739545885,0.48989203206933984,1.4552536136605148,0.22436118081135603,0.0,0.12448488254112636,0.1,0.0026960372924804688,0.05287480354309082,0.050110955,1.4761986,0.546732495605295,0.0,0.0153955344067343,0.0,200,0.013490438461303711,0.37909190631623474,0.36166298922699064,11400,0.8414029671015907,0.0
57,1.0901682376861572,1.465116434636018,2.2366867645680824,5.337603133226223,0.08406144370986338,0.0,0.12703996482516328,0.1,0.00260162353515625,0.05378603935241699,0.050207615,1.8059574,0.6385708895083673,0.0,0.02827353387608318,0.0,200,0.013637542724609375,0.8134011942386663,0.7796780627937993,11600,0.8628607771185198,0.0
58,1.1476080417633057,0.3646553282229589,0.1445514407702544,0.4798035749951677,0.12480479933063499,0.0,0.12710951940072523,0.1,0.002660989761352539,0.052141666412353516,0.050509226,1.2656541,0.6111793333798264,0.0,0.007413934440137991,0.0,200,0.014420270919799805,1.6479455885982015,2.237199823064439,11800,0.5911015364951272,0.0
59,1.1167187690734863,0.20998201224810675,0.08166272128485329,0.3443938617708623,0.1306741369301581,0.0,0.12713669317898432,0.1,0.002687215805053711,0.05211496353149414,0.049242392,2.4945092,0.5710596012666544,0.0,0.004145383365226131,0.0,200,0.013789176940917969,12.838245614323307,8.890147479434498,12000,1.2023838480921856,0.0
60,1.0544459819793701,0.20999981529289763,0.15311332400796332,0.47312855514530294,0.09468070226141537,0.0,0.12667883498778781,0.1,0.002974987030029297,0.05408930778503418,0.0504606,0.9643585,0.5349536226692787,0.0,0.004190202933726241,0.0,200,0.013947248458862305,7.926501219549471,4.1095312209555885,12200,0.27190828831701114,0.0
61,1.0288677215576172,0.2835756480719034,0.2126771686209317,0.6110163968307992,0.08263248710522687,0.0,0.12473495649648064,0.1,0.0028371810913085938,0.054195404052734375,0.04991174,1.2251525,0.5098158252095412,0.0,0.005634583109166024,0.0,200,0.014028787612915039,1.316080152571977,0.5994040248594716,12400,0.23834422775729022,0.0
62,1.0850586891174316,0.46804741035432496,0.22760461381595506,0.8595747704200927,0.3002035924818467,0.0,0.13162052668771576,0.1,0.0027561187744140625,0.053862571716308594,0.050065875,1.7043161,0.5056389837240196,0.0,0.009410291332703647,0.0,200,0.013751506805419922,0.24471698046300508,0.31492541577681993,12600,2.149663518223352,0.0
63,1.089026927947998,0.45300798178548257,0.4744338159755454,1.259557848979701,0.0848034141409771,0.0,0.12517561075860006,0.1,0.0035064220428466797,0.05431795120239258,0.049910925,1.9017208,0.5003758835301659,0.0,0.009020157669288775,0.0,200,0.01525735855102539,0.5946591930014851,0.6102101617058953,12800,1.3194550491121688,0.0
64,1.1020712852478027,0.6408081430544482,0.2659128063353058,1.0500274922311528,0.3112459094769241,0.0,0.11580297012497459,0.1,0.002859354019165039,0.05282855033874512,0.047970515,3.472996,0.5144191094825942,0.0,0.012074903607273594,0.0,200,0.01413869857788086,0.5012146238364945,0.45806623449192935,13000,1.2287556224748932,0.0
65,1.0886828899383545,0.39783261148767,0.17772870748848804,0.6317544456348528,0.14456391872616964,0.0,0.12632848143087982,0.1,0.002798318862915039,0.05267167091369629,0.04888945,1.6334336,0.5027604596831018,0.0,0.007934175082526881,0.0,200,0.014888763427734375,0.24274626478557534,0.23651569516953574,13200,0.9117478488255557,0.0
66,1.093977451324463,0.5634387961008753,0.16719469413125984,0.7329455995939266,0.3186330387635107,0.0,0.12690901835448448,0.1,0.0027947425842285156,0.052681684494018555,0.0501187,1.2665809,0.5088282933248792,0.0,0.011263076140041958,0.0,200,0.013793230056762695,0.22265417803895995,0.19571630382587143,13400,1.5306651867952075,0.0
67,1.1149141788482666,0.7330685260477119,0.6046953748637994,1.3947870269335054,0.1212864185423877,0.0,0.1286086286036958,0.1,0.0028274059295654297,0.053458213806152344,0.050334968,1.1517646,0.5312523165971625,0.0,0.014574674517281462,0.0,200,0.01380610466003418,0.575450234628349,0.5371833215259236,13600,1.4148132422076654,0.0
68,1.1040558815002441,0.5381532037063393,0.2539980225145542,0.7732683548731001,0.14559088766316627,0.0,0.12795708159546818,0.1,0.00276947021484375,0.05376863479614258,0.049910627,0.81158376,0.5319424053080802,0.0,0.010532457745986833,0.0,200,0.01493382453918457,0.24218195034347487,0.22866548909711867,13800,1.4636934477308798,0.0
69,1.104250431060791,0.6882612911371188,0.3994742201060224,1.1806016207203447,0.0692874671212186,0.0,0.12848440092800492,0.1,0.002768278121948242,0.05341029167175293,0.04956308,1.2525649,0.5475742938909841,0.0,0.013469800630526302,0.0,200,0.013518333435058594,0.36162973299497175,0.32193913193880797,14000,1.3697412114287524,0.0
70,1.118346929550171,0.370023411370413,0.13000134648746747,0.555381461745132,0.20972100173368413,0.0,0.12554688217158613,0.1,0.0027146339416503906,0.05660223960876465,0.049836926,0.90758926,0.529819205638927,0.0,0.007461223659106371,0.0,200,0.013547420501708984,0.5964698880670741,0.5399626297013853,14200,2.3391212875536502,0.0
71,1.1218619346618652,1.7356761251151565,2.1241508238572404,5.32308009542556,0.07750637197301366,0.0,0.13824997736837968,0.1,0.002719402313232422,0.05203676223754883,0.04955125,1.2472508,0.65040489758655,0.0,0.0336946497639022,0.0,200,0.013476371765136719,0.7917995982594087,0.7486993434850076,14400,4.161835310952307,0.0
72,1.1727094650268555,0.9266408317587931,0.7000207740662764,1.685291405213976,0.21013215981287836,0.0,0.12853140606207747,0.1,0.002642393112182617,0.05209493637084961,0.049109478,1.3507638,0.6780284910037744,0.0,0.018482062345660737,0.0,200,0.014425039291381836,0.4277829407577739,0.4074992617040027,14600,2.789748369801403,0.0
73,1.130042552947998,1.3338191142228049,0.252218755072392,1.7287420084187353,1.1085151625205256,0.0,0.12793202418732563,0.1,0.002612590789794922,0.052522897720336914,0.04890912,1.1049789,0.7436075533256775,0.0,0.02549479977447767,0.0,200,0.012917280197143555,0.1810293101325383,0.11863885635509638,14800,2.844407234670534,0.0
74,1.126431941986084,0.7376147141083694,0.6152614823564132,1.5728264505713017,0.13427736121905692,0.0,0.1285622023902544,0.1,0.003304004669189453,0.06754755973815918,0.049327947,1.2617298,0.7430082694039468,0.0,0.01471791186086934,0.0,200,0.015599727630615234,0.7175751595262835,0.7013643169216217,15000,2.447626747124235,0.0
75,1.1139304637908936,0.6506707576626148,0.7287779092525538,1.9065182902303213,0.1131164109314863,0.0,0.13309737084534498,0.1,0.0034470558166503906,0.06722068786621094,0.0492836,1.5346129,0.7337745182298137,0.0,0.012839918116355395,0.0,200,0.014328479766845703,0.9048421004971929,0.7237737315209519,15200,1.2831453263542525,0.0
76,1.1237034797668457,0.8305984075401724,0.6612784754015774,1.8430938481808932,0.19325220058215747,0.0,0.13015100574499824,0.1,0.0026702880859375,0.05344390869140625,0.049519993,1.5762233,0.7434569071608496,0.0,0.016657626235141477,0.0,200,0.013558626174926758,0.5107993923574978,0.4589994542863346,15400,0.5713780548291083,0.0
77,1.1185336112976074,0.9335852509196381,1.1176960270360092,2.8633449857096402,0.19809527646156208,0.0,0.13332447281617224,0.1,0.0028934478759765625,0.05488276481628418,0.049110834,1.4562455,0.7624697415367284,0.0,0.01840455223790392,0.0,200,0.014657735824584961,0.626401609094625,0.6365006230529793,15600,0.5801347128413017,0.0
78,1.0962791442871094,0.7336393281653564,0.3992559726392861,1.1453743138540715,0.20824950075428275,0.0,0.1296374378591507,0.1,0.0028035640716552734,0.05401039123535156,0.050612412,1.1489573,0.7595867001995912,0.0,0.014703954948722923,0.0,200,0.014237165451049805,0.3357825810971921,0.33087536552502034,15800,0.51755391217525,0.0
79,1.1148707866668701,0.7213303394483276,0.36799001876054727,1.3329691191355935,0.38872798270939657,0.0,0.12996787869696586,0.1,0.002812623977661133,0.052985429763793945,0.050061222,1.6570724,0.7557610641244648,0.0,0.014188393466597334,0.0,200,0.013807058334350586,0.3008817253165464,0.29855350321815505,16000,1.3792906263345721,0.0
80,1.1070706844329834,1.8903947067975486,1.9135901114089615,5.156007522235952,0.2676893195697958,0.0,0.13234764011949585,0.1,0.002781391143798828,0.05275774002075195,0.049517535,1.600327,0.8692244283917732,0.0,0.03682116127825259,0.0,200,0.013375282287597656,0.7518203055143208,0.6983794124993591,16200,1.86916338062014,0.0
81,1.0911285877227783,1.7814474252012764,0.934114555283102,3.392765689803668,1.1482909621809858,0.0,0.12276645964508913,0.1,0.0027544498443603516,0.05304598808288574,0.04933414,1.8879476,0.9604467280727236,0.0,0.03522036896557495,0.0,200,0.019178390502929688,0.4581517733068678,0.3473574316882785,16400,2.443993945581145,0.0
82,1.1373918056488037,0.5607558236149506,0.37995258816442373,1.1060429476711766,0.0997114991689553,0.0,0.12732830444396756,0.1,0.002816915512084961,0.054450035095214844,0.049489804,1.307615,0.9204776376269462,0.0,0.011263133856596731,0.0,200,0.014777421951293945,1.146953679330063,1.6212202061635945,16600,3.2982988835681244,0.0
83,1.1429457664489746,0.9943630549551787,1.0475291326963705,2.8079315346862783,0.35518546852537475,0.0,0.12756516586896743,0.1,0.002826213836669922,0.05411243438720703,0.04947803,1.7287999,0.9278661793597694,0.0,0.019636981240531134,0.0,200,0.013841390609741211,0.5995592327867828,0.5848228817265989,16800,1.3098103292932577,0.0
84,1.0949513912200928,0.8172618637133671,0.42706978217188957,1.4488624665357994,0.2725456022385927,0.0,0.12908633471602707,0.1,0.0027763843536376953,0.05392122268676758,0.049468808,0.91894615,0.9168057477951292,0.0,0.015580872584817017,0.0,200,0.01352834701538086,0.4527053458657248,0.336341244026712,17000,1.591790348798449,0.0
85,1.1293306350708008,0.8968383725289708,0.6747910833561166,1.8774395573411085,0.21978537792493494,0.0,0.12562948142652475,0.1,0.0027923583984375,0.05376434326171875,0.049635924,1.0999591,0.9148090102685135,0.0,0.01742101511617971,0.0,200,0.013712882995605469,0.45248282860732575,0.4083469409403992,17200,2.2380156293974913,0.0
86,1.134216547012329,1.1757981866166431,0.30440394830326684,1.590476312950548,0.7957079165424299,0.0,0.12538865700537044,0.1,0.002770662307739258,0.05264019966125488,0.049923934,0.95839477,0.9409079279033264,0.0,0.02330743218195883,0.0,200,0.013296365737915039,0.19667138878837262,0.20789931258442598,17400,3.6395319353283724,0.0
87,1.1537926197052002,0.5664449067762916,0.171761686204707,0.7089428273890024,0.2823778321410102,0.0,0.13305298920270797,0.1,0.0027577877044677734,0.052640676498413086,0.049442235,0.70298636,0.903461625790623,0.0,0.011599105219455473,0.0,200,0.013730049133300781,0.4343779595640277,0.2850240777596548,17600,5.327319446409642,0.0
88,1.1334927082061768,1.1495752691841608,0.46618096963822336,1.8275602243012379,0.5917927773607077,0.0,0.12947748342214174,0.1,0.0027709007263183594,0.052351951599121094,0.04977661,1.4029901,0.9280729901299768,0.0,0.022783477185785196,0.0,200,0.013396024703979492,0.23787454838807376,0.24695779816319055,17800,4.093911556857088,0.0
89,1.1553165912628174,1.138814393630446,0.7805695073769003,2.4803558307461535,0.5415486033422965,0.0,0.1273216409879651,0.1,0.002691507339477539,0.05210995674133301,0.049586352,1.8603919,0.9491471304800237,0.0,0.021975319615828708,0.0,200,0.012799978256225586,0.4574417524873545,0.4385228958155647,18000,0.3687026654126459,0.0
90,1.1493160724639893,0.35093314387502356,0.12146788433840826,0.48745218478446434,0.15925002651075942,0.0,0.13124015560197708,0.1,0.002894163131713867,0.05394315719604492,0.049432974,0.9910384,0.8893257318195238,0.0,0.006965291989353254,0.0,200,0.013982295989990234,2.0321040191660718,1.9568706442342285,18200,1.2704630818398583,0.0
91,1.1110045909881592,0.272956228416324,0.05108115830894625,0.3508505816905117,0.21266805367963382,0.0,0.12838223031804055,0.1,0.0027625560760498047,0.05325675010681152,0.049407534,1.3812293,0.8276887814792039,0.0,0.005361800631719214,0.0,200,0.013298988342285156,5.587864917745894,3.9980798434948523,18400,0.27639768545706,0.0
92,1.1920356750488281,1.072434775329542,0.7571832523604839,2.064861012924259,0.1913673862364653,0.0,0.12415346200786566,0.1,0.002786874771118164,0.05352473258972168,0.04908119,1.1511861,0.8521633808642377,0.0,0.020500296548654602,0.0,200,0.016408443450927734,0.4329938465557289,0.4459640104290292,18600,1.036481577889841,0.0
93,1.1136369705200195,0.528265348873348,0.2978749161854148,0.8256999246494815,0.09150680176865592,0.0,0.12757038266240248,0.1,0.0027964115142822266,0.053960561752319336,0.04993354,1.4592922,0.8197735776651488,0.0,0.010585150977891138,0.0,200,0.013576269149780273,0.45268783550566993,0.41724967383642964,18800,3.282379342857215,0.0
94,1.1342508792877197,2.3293754734641543,1.4416522716021052,4.412111507167626,0.8156559539333077,0.0,0.12014698056877796,0.1,0.0028133392333984375,0.053107261657714844,0.050263878,2.0082426,0.9707337672450495,0.0,0.04578338165287494,0.0,200,0.013149023056030273,0.6832964924844647,0.6374511945936908,19000,3.349085129105409,0.0
95,1.1383960247039795,2.1623175825736594,1.5623059339267387,4.857798632708815,1.0684523854762642,0.0,0.12491447509525971,0.1,0.002752065658569336,0.05277824401855469,0.0498543,2.2324035,1.0898921487779105,0.0,0.04274938521555184,0.0,200,0.01316523551940918,0.6375860793678556,0.5373319367432353,19200,2.1122482224281014,0.0
96,1.1454401016235352,2.6187537776845984,1.402286430366072,4.3534942645498935,1.137510865262602,0.0,0.1118395953115184,0.1,0.0028543472290039062,0.05314779281616211,0.048798367,2.736722,1.2427783116685793,0.0,0.05213715478120719,0.0,200,0.01309061050415039,0.5577486739488472,0.4173527187881366,19400,1.5930239410958087,0.0
97,1.1219348907470703,0.9624618445741763,0.5504766298851227,1.766762318365346,0.39481611237106523,0.0,0.12027664970934095,0.1,0.002785205841064453,0.0528414249420166,0.049353324,1.5462923,1.214746664959139,0.0,0.019381771455371573,0.0,200,0.013468027114868164,0.751852999927969,1.165719551806893,19600,1.1432126681939663,0.0
98,1.1332523822784424,2.295132922246706,2.0537718398582236,5.8200829082538945,0.6850596538060174,0.0,0.12042996559990844,0.1,0.002722024917602539,0.052720069885253906,0.050537962,2.8039246,1.3227852906878956,0.0,0.04560761579118705,0.0,200,0.013654470443725586,0.5018618559892646,0.48516442404283966,19800,1.0966395521483445,0.0
99,1.2104928493499756,0.5936206458002878,0.14215900040819784,0.719090574255178,0.3528652860105712,0.0,0.12758890398302872,0.1,0.002840280532836914,0.05369067192077637,0.050201938,1.8432292,1.2498688261991349,0.0,0.011510644835294482,0.0,200,0.014085531234741211,8.08984640306881,5.565779517913351,20000,1.1920715359474525,0.0
100,1.114722490310669,1.0161740179579335,0.5666047880587056,1.6046389504082026,0.15195408403838495,0.0,0.13578059440045256,0.1,0.002770662307739258,0.05356740951538086,0.050045222,0.9360783,1.2264993453750148,0.0,0.019977187142402257,0.0,200,0.013520956039428711,0.7322937082862677,0.35977509762106197,20200,1.2443477067758888,0.0
101,1.2130932807922363,0.9640975612693649,0.7155420707355282,2.115465382565474,0.3120414898804473,0.0,0.11964177889485583,0.1,0.0028352737426757812,0.053583621978759766,0.05021814,1.7398334,1.20025916696445,0.0,0.01914451060704601,0.0,200,0.014388322830200195,0.6178400191253313,0.46811995033026427,20400,1.1636648665293055,0.0
102,1.2425386905670166,1.162010158926577,0.6938081108214245,2.3368008562279505,0.5818071700986093,0.0,0.12679490964598303,0.1,0.002748727798461914,0.053499460220336914,0.050205056,1.8105577,1.1964342661606626,0.0,0.022676904674981187,0.0,200,0.013986587524414062,0.35711632809393684,0.3739328322795197,20600,0.9526659430364469,0.0
103,1.1432578563690186,1.9409146947426605,1.2387255769498622,3.2631469633410433,0.58309474560042,0.0,0.12630673207973428,0.1,0.0028073787689208984,0.05361509323120117,0.05001237,1.3457727,1.2708823090188626,0.0,0.03783306851068038,0.0,200,0.013803482055664062,0.5392176451991664,0.5526791132074454,20800,1.3196258348485999,0.0
104,1.174403190612793,1.0088951544452125,0.5203566064585733,1.6804258402651968,0.45955287250258825,0.0,0.12993143800415477,0.1,0.0026810169219970703,0.052495718002319336,0.049783267,1.1902483,1.2446835935614977,0.0,0.020067410542933154,0.0,200,0.013936519622802734,0.2979639488624242,0.2975255257963846,21000,0.9154996623757685,0.0
105,1.1542141437530518,1.2830442690491997,0.822923757297056,2.496753287532368,0.178364068270256,0.0,0.12548476865390715,0.1,0.002794981002807617,0.052522897720336914,0.04998889,1.5825393,1.248519661110268,0.0,0.025498738593247725,0.0,200,0.013607025146484375,0.3827311498411185,0.3750562716738635,21200,1.68858042010406,0.0
106,1.2034971714019775,0.9630433022299081,0.5253119170673471,1.808548985721393,0.4154674858533216,0.0,0.12461843490782865,0.1,0.0026848316192626953,0.05206656455993652,0.04875616,1.7665601,1.2199720252222321,0.0,0.01888723579084698,0.0,200,0.013051986694335938,0.3293195222292834,0.3287444663011104,21400,0.7907587133728916,0.0
107,1.1843993663787842,2.1754885573933365,0.874680354143803,3.0793382952570854,1.2676990681635991,0.0,0.11961832029256159,0.1,0.0026311874389648438,0.051894187927246094,0.05021374,1.5197372,1.3155236784393427,0.0,0.04260690642997258,0.0,200,0.013046503067016602,0.4736272873765924,0.4343643437607328,21600,1.5495813610513745,0.0
108,1.1182746887207031,1.352279084970375,0.5083373593332148,2.1577127460725793,0.7655449840008234,0.0,0.12467035288556066,0.1,0.0029175281524658203,0.053360939025878906,0.05029026,1.445526,1.319199219092446,0.0,0.026273410910044204,0.0,200,0.01402592658996582,0.20476239082956396,0.17149536305581262,21800,1.5365031652545509,0.0
109,1.1276345252990723,0.7008340528913638,0.3338235145813154,1.1380049843756732,0.2357800549006641,0.0,0.12561816103075654,0.1,0.0028028488159179688,0.05370521545410156,0.04985823,1.014621,1.2573627024723377,0.0,0.014002012691965588,0.0,200,0.013609886169433594,0.7053159525045078,0.8057475556982606,22000,0.9185870608792017,0.0
110,1.1499896049499512,2.13585172116458,1.7931993839787528,4.761653964066231,0.2767756213407282,0.0,0.1294292831386238,0.1,0.0028192996978759766,0.05278897285461426,0.04993842,1.3088592,1.345211604341562,0.0,0.04170375654816397,0.0,200,0.014082908630371094,0.5452892218485516,0.5206350001558102,22200,1.5194545606737375,0.0
111,1.1505951881408691,1.7104300564963366,0.7259351744127295,2.9148874036506576,0.9964630957109327,0.0,0.13201595084976414,0.1,0.002916097640991211,0.053220510482788086,0.050085474,1.1580297,1.3817334495570397,0.0,0.033418728830551324,0.0,200,0.016699790954589844,0.27584783743380414,0.2482467935988002,22400,1.986452260931432,0.0
112,1.189432144165039,1.0608236327634573,0.29227948887056154,1.566706180474076,0.8742588874841187,0.0,0.1260096836844465,0.1,0.0028471946716308594,0.053220272064208984,0.049908776,1.7819537,1.3496424678776815,0.0,0.02109318374819459,0.0,200,0.014516830444335938,0.31989661707052125,0.37760597002314855,22600,1.7797889919363186,0.0
113,1.139190912246704,0.6401061399303223,0.2929545911038287,0.948820265519029,0.19500414416018763,0.0,0.1286996194273016,0.1,0.002830982208251953,0.05268049240112305,0.04932982,0.99589276,1.2786888350829457,0.0,0.01265214956011014,0.0,200,0.018538951873779297,2.080392581274801,1.6396471110923665,22800,1.0406860793504296,0.0
114,1.1604669094085693,2.642773209025272,0.7281593184191696,3.489909621951626,1.7244067501593217,0.0,0.12382132504808467,0.1,0.0028717517852783203,0.05322980880737305,0.049682274,1.1558594,1.4150972724771784,0.0,0.051519767899628546,0.0,200,0.01622629165649414,0.3211203278434087,0.3077172553702104,23000,1.1822050196237104,0.0
115,1.166736125946045,2.4681029659167493,1.4207519453177644,4.540098101441561,1.0875263354080482,0.0,0.12035240522906616,0.1,0.0034406185150146484,0.06852889060974121,0.049930472,1.7716311,1.5203978418211357,0.0,0.04772804009750905,0.0,200,0.0158846378326416,0.412581319498147,0.3648571717083615,23200,1.4388417090932384,0.0
116,1.173649787902832,1.4889477095032957,0.37718515380933243,1.8706802558583118,1.0268004990557136,0.0,0.12451446646007794,0.1,0.0034275054931640625,0.06810307502746582,0.050546527,0.9583557,1.5172528285893518,0.0,0.029489430232332525,0.0,200,0.013962268829345703,0.11374585062743074,0.15813944683827305,23400,1.737631568605164,0.0
117,1.1681439876556396,0.5288047476830683,0.17861156240865325,0.7371957551857554,0.24423836688850523,0.0,0.12611820647265648,0.1,0.0027964115142822266,0.05269813537597656,0.049778033,1.3594093,1.4184080204987237,0.0,0.010558174898904473,0.0,200,0.014018535614013672,6.296087327590023,5.068408250511644,23600,0.9296856477145793,0.0
118,1.1995432376861572,2.4525223200862576,1.6384158812656455,4.9909767623915,0.7519322663561676,0.0,0.12568669739842245,0.1,0.002856731414794922,0.05266714096069336,0.05028703,2.0557296,1.5218194504574774,0.0,0.04728507374204309,0.0,200,0.013377904891967773,0.40889222443811374,0.421254338074131,23800,1.2476571879710623,0.0
119,1.1942949295043945,1.7826494915559064,1.7608177757803327,4.628897566055036,0.27941885964209806,0.0,0.1270537081719389,0.1,0.002756357192993164,0.05299687385559082,0.049424082,1.4524494,1.5479024545673203,0.0,0.03478931325630997,0.0,200,0.013030290603637695,0.5195429495937718,0.5166680951192799,24000,0.9348280486212017,0.0
120,1.1832261085510254,0.2682898724798315,0.18493006221428063,0.4877148926567478,0.07867298463204979,0.0,0.12328244819032909,0.1,0.002810955047607422,0.052896976470947266,0.050487343,0.8801815,1.4199411963585715,0.0,0.005489021108623484,0.0,200,0.013595819473266602,23.66666797141313,18.694765087330296,24200,0.7356364769334521,0.0
121,1.2180020809173584,0.5616621361683171,0.26760459744849996,0.8671170153542983,0.2601785238037106,0.0,0.12647688396062887,0.1,0.00284576416015625,0.053652286529541016,0.049681697,1.3000816,1.334113290339546,0.0,0.010924804294448507,0.0,200,0.014971733093261719,3.0696749226468696,1.722880534387916,24400,0.8225733148278763,0.0
122,1.247100830078125,1.7149448477377227,1.1517598239753384,3.347772638840746,0.2135066734411865,0.0,0.13008085369510008,0.1,0.002815723419189453,0.05371809005737305,0.05017776,0.998588,1.3721964460793639,0.0,0.033736329561695595,0.0,200,0.013384819030761719,0.3936504205543689,0.4247845395916391,24600,0.591847462395897,0.0
123,1.211824655532837,0.7120719314369046,0.3501332112095644,1.2826507453816773,0.32913633492726313,0.0,0.1243411742820945,0.1,0.0027265548706054688,0.053231000900268555,0.050273195,1.4879509,1.306183994615118,0.0,0.01416313845700538,0.0,200,0.013364315032958984,0.5090152113192677,0.4040571917967745,24800,0.6699818271717762,0.0
124,1.1914634704589844,1.5460995460554574,1.779601286615105,4.599234000831418,0.27476578948404584,0.0,0.11784479853431622,0.1,0.002786874771118164,0.05336260795593262,0.04992475,2.6304395,1.3301755497591519,0.0,0.030165309137422457,0.0,200,0.013313531875610352,0.6280594593741254,0.6279305667709301,25000,0.5006035452627016,0.0
125,1.1588845252990723,1.3785941632271765,1.128930966990512,3.206168507597957,0.13575165803126943,0.0,0.12601807559954875,0.1,0.0027952194213867188,0.053542137145996094,0.04917518,1.6085743,1.3350174111059543,0.0,0.027282112220694186,0.0,200,0.013805389404296875,0.5016511359965067,0.4922234333512803,25200,0.473406149940619,0.0
126,1.1785008907318115,1.2359530303769903,1.3511798685411864,3.5621387835772125,0.3369986064811416,0.0,0.1264668037888963,0.1,0.002716541290283203,0.05965614318847656,0.04949716,1.6566794,1.325110973033058,0.0,0.024203147966186358,0.0,200,0.013893842697143555,0.5692285984327703,0.5572939297626903,25400,0.5977855380374769,0.0
127,1.2106213569641113,1.4761253936436247,0.8007744426215238,2.72155682692957,0.7493180375458734,0.0,0.13963998956271392,0.1,0.0026826858520507812,0.05217337608337402,0.04909538,1.0942852,1.3402124150941148,0.0,0.02880404717047349,0.0,200,0.012810230255126953,0.32675449135302537,0.3039214960541762,25600,0.6662773678596198,0.0
128,1.172945261001587,1.2767474570201027,0.23380833176892182,1.4517481747906438,0.8772501604756238,0.0,0.13191348520031315,0.1,0.002936124801635742,0.05337810516357422,0.0499668,1.0789872,1.3338659192867135,0.0,0.025756729404179352,0.0,200,0.013845205307006836,0.07974087121941474,0.0852602629085963,25800,0.9784892215335784,0.0
129,1.1793453693389893,1.2359530944101862,0.6425865968915051,2.083842246372285,0.3443861800040581,0.0,0.13176456629754524,0.1,0.0027632713317871094,0.05322527885437012,0.04918192,1.225842,1.3240746367990608,0.0,0.024534195666541816,0.0,200,0.01448369026184082,0.32215905164358244,0.313775045618178,26000,0.7701006244396851,0.0
130,1.1938424110412598,0.8805668753876856,0.4201866931229686,1.3429647704488137,0.23233312149195967,0.0,0.1322434799601312,0.1,0.0028030872344970703,0.053090572357177734,0.050435744,0.75618327,1.2797238606579233,0.0,0.016809925654526763,0.0,200,0.013251304626464844,0.4278922901728477,0.36177565513910215,26200,0.8754087158185636,0.0
131,1.1914901733398438,1.4699047682130009,0.9576679516546523,3.072877622717059,0.533567807521507,0.0,0.12991940596821916,0.1,0.002795696258544922,0.05559539794921875,0.049850892,1.4067532,1.2987419514134313,0.0,0.028778101411047433,0.0,200,0.014603376388549805,0.31988672335807616,0.322622082500671,26400,3.2571132595150174,0.0
132,1.2308237552642822,0.7618420834996736,0.5708845845811863,1.7459825271981781,0.38072480849686235,0.0,0.12023838209353033,0.1,0.002713918685913086,0.05303072929382324,0.049506888,1.6232309,1.2450519646220555,0.0,0.015479082752651897,0.0,200,0.014236211776733398,0.6110446935295022,0.5685199487024599,26600,2.1722122737457945,0.0
133,1.2147550582885742,1.2892596893096826,0.5471310259223089,1.9328019883652356,0.7443316938394966,0.0,0.12385278907181248,0.1,0.003442049026489258,0.06832289695739746,0.05002613,1.3159593,1.2494727370908183,0.0,0.025696529792454365,0.0,200,0.013436317443847656,0.2228058976358812,0.22452922883721652,26800,2.0832150050043436,0.0
134,1.2133352756500244,1.505776946289768,1.5109184479372142,4.088593704498777,0.30239476604106436,0.0,0.12652298442277213,0.1,0.0026886463165283203,0.05353736877441406,0.04980681,3.2321534,1.2751031580107133,0.0,0.029168624525844834,0.0,200,0.013409614562988281,0.5711426429358615,0.563281053259159,27000,2.129596535715192,0.0
135,1.173720121383667,0.6469094567129792,0.30313562393808285,0.8931630004303565,0.12870019501737112,0.0,0.12697584419565575,0.1,0.0028057098388671875,0.05297970771789551,0.049638998,0.73839766,1.2122837878809398,0.0,0.01272896116511282,0.0,200,0.013379096984863281,0.8014224169189277,0.7558778244893678,27200,3.4854088993033012,0.0
136,1.1926333904266357,1.6043177620650493,1.0591242080029328,2.822606432814707,0.15712977756534938,0.0,0.12420519821201385,0.1,0.0027227401733398438,0.052675724029541016,0.050250687,1.2595947,1.251487185299351,0.0,0.03183890001608712,0.0,200,0.013818979263305664,0.4322083308225025,0.42688505132370486,27400,2.150246152790531,0.0
137,1.207587480545044,0.9366566480896218,0.7579417257141808,2.1358605742974484,0.2558316353112405,0.0,0.12136419146114447,0.1,0.003394603729248047,0.052617549896240234,0.047957066,1.7667423,1.220004131578378,0.0,0.01880083191067509,0.0,200,0.013463020324707031,0.517520343816267,0.5170363241520327,27600,1.7263470389126754,0.0
138,1.1966667175292969,1.3701825787684396,1.0369768590306931,3.160372897778211,0.6550856403700567,0.0,0.12898584346126657,0.1,0.0027370452880859375,0.05247902870178223,0.04980791,1.8122606,1.2350219762973842,0.0,0.027379071649250523,0.0,200,0.01375126838684082,0.4584442834604817,0.45503900985531887,27800,1.2396852471225912,0.0
139,1.2992260456085205,0.8516844977288578,0.4190458139333799,1.5156785746399493,0.4373352444427059,0.0,0.1254134578314447,0.1,0.0027370452880859375,0.052472591400146484,0.04920139,1.994381,1.1966882284405316,0.0,0.01659091827392257,0.0,200,0.01307988166809082,0.3779385794690511,0.36474095125363604,28000,1.9732421809806917,0.0
140,1.2016730308532715,0.7901998587452184,0.4831935150284434,1.3627396841686379,0.12657610219930235,0.0,0.1189878627704337,0.1,0.0031430721282958984,0.05810403823852539,0.04957403,0.78303236,1.156039391471,0.0,0.01531969522250113,0.0,200,0.013837337493896484,0.5317128329467367,0.4695887223282703,28200,0.5774555122058105,0.0
141,1.2496778964996338,0.6402567954930276,0.5248610599446122,1.506456964866701,0.17017830617463248,0.0,0.12407766838627607,0.1,0.0028028488159179688,0.05304121971130371,0.049995467,1.2703882,1.104461131873203,0.0,0.012532606123673642,0.0,200,0.013644218444824219,0.6445679074726575,0.543595435320796,28400,0.9617346267319279,0.0
142,1.2874388694763184,0.8760041120033439,0.7143557744121446,1.9429364591410954,0.09384679296047355,0.0,0.12678354825036686,0.1,0.002859354019165039,0.05393409729003906,0.04925634,1.0156857,1.081615429886217,0.0,0.016936694076746535,0.0,200,0.01380014419555664,0.4206861260984611,0.4147719103470401,28600,0.5714084270484701,0.0
143,1.2597894668579102,1.004382645923549,0.6914357631071409,2.170319559800367,0.4636041871997042,0.0,0.12434111011495363,0.1,0.002792835235595703,0.05263924598693848,0.049693704,2.1649697,1.0738921514899502,0.0,0.01973828209911014,0.0,200,0.013911962509155273,0.3714072283480592,0.37870080277506823,28800,0.87924151393163,0.0
144,1.216912031173706,0.8998422869172019,0.58642590883039,1.815648405078908,0.35448118247745813,0.0,0.12890665286137298,0.1,0.002665281295776367,0.052289724349975586,0.05026104,1.5110044,1.0564871650326755,0.0,0.01796024773229697,0.0,200,0.013475418090820312,0.32898934785910355,0.32715133634828464,29000,0.6593550341523686,0.0
145,1.2388525009155273,0.8233731934231724,0.4966144080594758,1.4817421029253535,0.2389423178115864,0.0,0.12996442951336223,0.1,0.003164529800415039,0.05186319351196289,0.049981784,0.9021453,1.0331757678717253,0.0,0.016416540967137617,0.0,200,0.01280069351196289,0.29546675108577447,0.2923536177703501,29200,0.3942900259155147,0.0
146,1.1672146320343018,2.3460063258929544,1.5189764994205643,4.552191168762153,0.44995006112721125,0.0,0.13032903433534065,0.1,0.0029048919677734375,0.053379058837890625,0.04992857,1.1444324,1.1644588236738482,0.0,0.045869797903258694,0.0,200,0.013469934463500977,0.5991510064614557,0.560844655758579,29400,0.4303411107538844,0.0
147,1.1973381042480469,0.3672128065303725,0.21258261109845927,0.7312809486701486,0.20898677555433598,0.0,0.13354537576435596,0.1,0.002786397933959961,0.05320405960083008,0.05017664,0.938779,1.0847342219595006,0.0,0.007599883250211766,0.0,200,0.0137176513671875,3.05189382747538,3.6737413277939224,29600,0.8817096440008901,0.0
148,1.1910507678985596,0.7169328077169058,0.3898381155302116,1.2177301915419538,0.1442053724381276,0.0,0.1265832728661822,0.1,0.002829313278198242,0.054633140563964844,0.050778426,1.1724428,1.0479540805352412,0.0,0.014326838311649263,0.0,200,0.01430368423461914,0.4778770004512858,0.46933015080846696,29800,0.4434801144683895,0.0
149,1.2012929916381836,1.3689604551152055,0.6394457117340437,2.137012529157919,0.424370181461442,0.0,0.1269319433993204,0.1,0.003197908401489258,0.05407428741455078,0.049538285,0.9048259,1.0800547179932376,0.0,0.026826465028211052,0.0,200,0.013915300369262695,0.2548337531180206,0.251745438632248,30000,0.7182875617381549,0.0
150,1.2331936359405518,1.2780049333460926,0.8168672444650836,2.674104088284394,0.650019971354629,0.0,0.12296913180062279,0.1,0.0029022693634033203,0.0543208122253418,0.04972924,1.7158514,1.0998497395285232,0.0,0.024840262560898985,0.0,200,0.013652324676513672,0.3831008623084379,0.373851800537363,30200,0.7612853139077318,0.0
151,1.2599446773529053,2.2691607310512714,1.354342362515174,4.081081616031115,0.8802377869619793,0.0,0.12063575522728039,0.1,0.0028007030487060547,0.05379486083984375,0.050179068,1.5054617,1.216780838680798,0.0,0.04395284305551031,0.0,200,0.01327824592590332,0.49788187808790774,0.45771923026059225,30400,0.7643061605515116,0.0
152,1.2321069240570068,1.9149214782242265,1.3769990223694344,4.034326238161775,0.30537453364223477,0.0,0.11957192541275842,0.1,0.002809762954711914,0.054563283920288086,0.04949833,2.3525558,1.2865949026351409,0.0,0.0374825469881536,0.0,200,0.014200448989868164,0.45731147537284017,0.4100609856366642,30600,0.7526475486371705,0.0
153,1.2548952102661133,1.3295707298405535,0.9974460998013209,3.0373358427910633,0.6176762401214088,0.0,0.12633232693905616,0.1,0.0028409957885742188,0.0535433292388916,0.0497098,1.7764364,1.2908924853556822,0.0,0.025934421239423803,0.0,200,0.013367414474487305,0.4271256884652816,0.4532916610851997,30800,1.4292249879561423,0.0
154,1.2348484992980957,0.6334441270239625,0.22686601447458807,0.8836507656934282,0.26726898710023805,0.0,0.1279728486414628,0.1,0.0028731822967529297,0.05356192588806152,0.048949603,2.493949,1.2251476495225104,0.0,0.012648582460473477,0.0,200,0.013500690460205078,2.8512518810911205,2.514556032040216,31000,1.9381571265031876,0.0
155,1.230194330215454,0.8535149472455952,0.6780905932528564,1.7088011369174205,0.18681549460107202,0.0,0.11596409577618189,0.1,0.0028231143951416016,0.05343890190124512,0.04964532,1.1721114,1.1879843792948188,0.0,0.017268348959608566,0.0,200,0.013031959533691406,0.7766003171393268,0.6153325629672899,31200,1.7316182487974523,0.0
156,1.2242927551269531,1.1824786758997428,0.3312543384148963,1.6049968563522448,0.8292346251759996,0.0,0.13222736562721016,0.1,0.002769947052001953,0.05243730545043945,0.050442267,1.3259673,1.1874338089553114,0.0,0.02336352924005828,0.0,200,0.014096260070800781,0.14749982947729215,0.12704766475847093,31400,2.2079417140565902,0.0
157,1.1816668510437012,0.6496376665109929,0.4723013088198322,1.335738762193349,0.11733193934001107,0.0,0.1268283895770207,0.1,0.00278472900390625,0.05381608009338379,0.049853098,1.0711088,1.1336541947108796,0.0,0.012914144173055891,0.0,200,0.013679265975952148,1.089522641912853,0.8596053348898168,31600,4.9342673361828995,0.0
158,1.2054672241210938,0.9349311745934463,0.9212784887820669,2.4951872247110316,0.16157992868634463,0.0,0.12164756713120595,0.1,0.003804445266723633,0.0679330825805664,0.04978387,1.9421256,1.1137818926991363,0.0,0.01788000024562067,0.0,200,0.014799356460571289,0.6044505149646872,0.5889640388664982,31800,4.6734531520312315,0.0
159,1.2700066566467285,1.6598060921577367,1.3745299061606253,3.599901567268344,0.25063335387139873,0.0,0.12289759626276281,0.1,0.002681255340576172,0.05230545997619629,0.0491089,1.3402399,1.1683843126449964,0.0,0.033159801110729754,0.0,200,0.01289224624633789,0.5251669100860249,0.5232623073760924,32000,3.3683525674480816,0.0
160,1.2167794704437256,0.74568962510492,0.6401158734153312,1.8439379985871145,0.275573458607748,0.0,0.1278808964446523,0.1,0.002882242202758789,0.05334973335266113,0.050006464,1.9791019,1.1261148438909887,0.0,0.014887390134138836,0.0,200,0.014038324356079102,0.5679726960706807,0.5633467751253064,32200,3.188342038662897,0.0
161,1.249720811843872,1.6168190104658824,1.3267524569774234,3.890043685280342,0.6522698881988083,0.0,0.12348202535373186,0.1,0.002702951431274414,0.051859140396118164,0.049638223,1.940145,1.175185260548478,0.0,0.031238647060037913,0.0,200,0.014225959777832031,0.5462611635959587,0.5289823344112712,32400,3.9222477497400585,0.0
162,1.253709077835083,2.4567036823687927,1.7257733435509626,5.005743492529878,0.5635730811028137,0.0,0.12407137027863122,0.1,0.002759695053100586,0.05204129219055176,0.0493512,1.2812163,1.3033371027305096,0.0,0.04701572402157375,0.0,200,0.013435840606689453,0.6016734902061889,0.5628238031676973,32600,2.9836685931235025,0.0
163,1.2036616802215576,1.3231663594678333,0.8828958085100547,2.2582301009109598,0.33572534023277745,0.0,0.1267426472584181,0.1,0.002942800521850586,0.05413413047790527,0.0503976,0.9858709,1.305320028404242,0.0,0.025666190022929136,0.0,200,0.014346599578857422,0.35090454343190614,0.34249534503665835,32800,3.55267900216225,0.0
164,1.2003757953643799,0.7501854898370406,0.13058110605651932,0.8600588404666857,0.527893302808291,0.0,0.13574480451268592,0.1,0.002809286117553711,0.052999019622802734,0.049239755,1.0054157,1.249806574547522,0.0,0.014727424520183779,0.0,200,0.013315439224243164,0.6774495598811772,0.7888200021485365,33000,4.1822399707315245,0.0
165,1.2030143737792969,2.2502886002200286,1.889979893955572,5.386047679951022,0.3271885347428927,0.0,0.12002100679651982,0.1,0.002855539321899414,0.05303525924682617,0.04971686,2.7976928,1.3498547771147729,0.0,0.04366708455559988,0.0,200,0.018521547317504883,0.5410019205164711,0.5306483032841548,33200,3.019152483104611,0.0
166,1.1944613456726074,0.9376175039109634,0.5049921469365504,1.7259483027220532,0.4955492470598903,0.0,0.13435860119015197,0.1,0.0028357505798339844,0.05368781089782715,0.04938012,1.6101254,1.308631049794392,0.0,0.018650612743035335,0.0,200,0.018766403198242188,0.5475791968943662,0.5496705897915284,33400,4.5806161687251485,0.0
167,1.2348625659942627,0.8182149017512583,0.5226086558500903,1.4104317010494263,0.250020393301654,0.0,0.1267056024783724,0.1,0.0028154850006103516,0.05328655242919922,0.049491845,1.2036268,1.2595894349900787,0.0,0.015980064622541337,0.0,200,0.013532400131225586,0.7489606116597132,0.666442832696443,33600,3.5357112996104703,0.0
168,1.2504158020019531,2.104119539061087,1.7557389582344527,4.796276998051615,0.23831873956319843,0.0,0.13177856416442407,0.1,0.0028951168060302734,0.053427696228027344,0.04993818,1.2232702,1.3440424453971795,0.0,0.04100026604592495,0.0,200,0.013803243637084961,0.5141695707584015,0.5117894757614153,33800,2.0117384009212222,0.0
169,1.2069451808929443,0.9764178928360261,0.35755208186179666,1.3944913852116931,0.5004821858492584,0.0,0.1272895686772203,0.1,0.0027320384979248047,0.05329418182373047,0.049735714,1.2246463,1.307279990141064,0.0,0.019496998626295982,0.0,200,0.013570308685302734,0.29854925021286294,0.2992238922260283,34000,5.924821461650116,0.0
170,1.2781214714050293,0.8509146760630866,0.6727331768001965,1.9709151155934206,0.1871457755212811,0.0,0.12435114889696325,0.1,0.0028717517852783203,0.053717613220214844,0.04929211,1.6147132,1.2616434587332663,0.0,0.016832989008585278,0.0,200,0.013862133026123047,0.6752481821523538,0.6261176450908673,34200,3.897799216792867,0.0
171,1.2805428504943848,2.417435525001879,1.275560805517545,3.738804650834042,0.7905529082280655,0.0,0.12687584949047775,0.1,0.0066776275634765625,0.05388307571411133,0.050101455,1.2753862,1.3772226653601276,0.0,0.04698492020292321,0.0,200,0.013495683670043945,0.44582783084975836,0.43401324076201264,34400,2.656164418324052,0.0
172,1.3361263275146484,1.0022325944427797,0.41071942828386504,1.4433908341272494,0.43101188598950035,0.0,0.12307158500109282,0.1,0.0028426647186279297,0.05398964881896973,0.050587483,0.86532885,1.339723658268393,0.0,0.02004696843842301,0.0,200,0.013654232025146484,0.32705982763558644,0.3517235887838586,34600,1.7831901293769545,0.0
173,1.3157508373260498,1.5317833504078426,1.356941227759357,3.694019670393496,0.21302255898103198,0.0,0.12098556308316583,0.1,0.002779245376586914,0.05255556106567383,0.0494958,2.2073684,1.358929627482338,0.0,0.029873038565053814,0.0,200,0.015688180923461914,0.51573271140556,0.5121085209321619,34800,1.0126762517362053,0.0
174,1.3729965686798096,1.4483614362778097,0.722098971255568,2.5158608095247184,0.4956874378404696,0.0,0.12043729130189329,0.1,0.002818584442138672,0.052425384521484375,0.049073204,2.2190084,1.3678728083618852,0.0,0.028317101345308182,0.0,200,0.013653039932250977,0.25438943481900245,0.2517929112762067,35000,1.8138503426499135,0.0
175,1.368504285812378,0.8377044637064848,0.5249888780162483,1.508745116354859,0.28030291601884505,0.0,0.12006978785239518,0.1,0.0030722618103027344,0.05215811729431152,0.04960562,1.3270526,1.3148559738963452,0.0,0.016523634384575568,0.0,200,0.013970613479614258,0.7360018257189777,0.6833022711534237,35200,1.8902690417480388,0.0
176,1.3552463054656982,1.234322721552908,0.7461248009973503,1.9732454364096705,0.2696344905269475,0.0,0.12769919369677088,0.1,0.0027456283569335938,0.052062034606933594,0.05004403,1.1307656,1.3068026486620015,0.0,0.024162778837622648,0.0,200,0.014174222946166992,0.31557171732920336,0.31097821500228295,35400,0.6151729745595133,0.0
177,1.2689874172210693,1.446946149867201,0.6903993049196533,2.1833709924507656,0.5606612184049873,0.0,0.12302140727899456,0.1,0.0031189918518066406,0.05469393730163574,0.050149556,1.1725785,1.3208169987825213,0.0,0.028453744925106543,0.0,200,0.014313697814941406,0.25114555939913513,0.25277124682795266,35600,0.6415709295496265,0.0
178,1.2910666465759277,0.725311579596,0.5633531074114921,1.4485626029056753,0.14665978996357817,0.0,0.12293269286912346,0.1,0.0028836727142333984,0.05322551727294922,0.04962819,1.2936918,1.2612664568638692,0.0,0.014448804930134194,0.0,200,0.01668834686279297,0.7797546162619744,0.7166193880029631,35800,0.8413884222471268,0.0
179,1.3627679347991943,1.2113237172282905,1.1319379476904543,3.1128332890421393,0.131268453651175,0.0,0.12854940208331475,0.1,0.004935503005981445,0.054622650146484375,0.049696673,1.9071616,1.2562721829003112,0.0,0.02306391005617579,0.0,200,0.013409137725830078,0.5165766835909197,0.5114920925564059,36000,0.39531590886104667,0.0
180,1.2933292388916016,1.6794710740064644,1.4898475918497869,4.143602641096022,0.14914669300805025,0.0,0.12800349514315135,0.1,0.002895832061767578,0.05345273017883301,0.049952853,1.4641526,1.2985920720109265,0.0,0.03261083228258293,0.0,200,0.013611316680908203,0.5435489191142178,0.5366698137258582,36200,0.9610123941743963,0.0
181,1.3303358554840088,1.2515169524683756,1.1479246735896749,3.215250168445697,0.3781280792758964,0.0,0.11868337165951191,0.1,0.0028557777404785156,0.05358767509460449,0.049175624,2.1444871,1.2938845600566715,0.0,0.024737347352039155,0.0,200,0.01800394058227539,0.5239004284457782,0.5141397299653666,36400,1.3281383074453383,0.0
182,1.328031301498413,1.929549361173247,1.0977355316518007,3.497427542981303,0.863287175770873,0.0,0.11741653550178525,0.1,0.0029044151306152344,0.05312037467956543,0.049451437,1.6400331,1.3574510401683293,0.0,0.03666156346287438,0.0,200,0.014662027359008789,0.39210942786503,0.3581459663528257,36600,1.1681941216960952,0.0
183,1.3486781120300293,0.6957067360350506,0.33632848469027166,1.1082008383755666,0.17914455703558016,0.0,0.12338286132764259,0.1,0.003137826919555664,0.05420804023742676,0.05026223,1.0096624,1.2912766097550015,0.0,0.014013311560317099,0.0,200,0.01693582534790039,0.9498865988592226,1.0547049057324531,36800,1.3848608006355116,0.0
184,1.3331515789031982,1.5719357815405723,1.2080037190714428,3.5575135719173288,0.5630219862356698,0.0,0.12087642302841894,0.1,0.002819538116455078,0.05544614791870117,0.049427606,3.6162183,1.3193425269335586,0.0,0.03118927716963378,0.0,200,0.017101764678955078,0.4661291709121356,0.4617123200962368,37000,1.035737967163919,0.0
185,1.316596508026123,0.6224778918097744,0.3773183193959438,1.0662178821750472,0.11122242928494142,0.0,0.13055563016403704,0.1,0.0028553009033203125,0.05870938301086426,0.04999448,1.0205239,1.2496560634211802,0.0,0.0122502418183023,0.0,200,0.01566290855407715,1.4884767122955511,1.3594868298418634,37200,0.7491580803140275,0.0
186,1.3096518516540527,0.640721800617785,0.6215933243635969,1.7077886045264727,0.20612721191630312,0.0,0.12488895660956575,0.1,0.002852916717529297,0.05283927917480469,0.05018394,1.478147,1.1887626371408406,0.0,0.012781445620805054,0.0,200,0.01359701156616211,1.0858468835246555,0.9211605542979973,37400,0.729195252449244,0.0
187,1.2814586162567139,1.6324835144281522,1.23252867564107,3.6786174139059544,0.4762776977186255,0.0,0.12467354995788944,0.1,0.002892017364501953,0.05266213417053223,0.050200664,3.2060382,1.2331347248695717,0.0,0.031187719885998662,0.0,200,0.013504505157470703,0.48911322157989773,0.4983341898401412,37600,0.7314657999506039,0.0
188,1.3410954475402832,1.6813045790004832,0.6687974361591854,2.561884432945935,0.7508206526508296,0.0,0.12303797686042005,0.1,0.0028111934661865234,0.05259203910827637,0.049493376,1.027178,1.2779517102826627,0.0,0.033022369487458056,0.0,200,0.013139486312866211,0.2791928804875549,0.2772388577171995,37800,1.3606613770396097,0.0
189,1.3020234107971191,0.89339044282511,0.3812352650328259,1.3346448090837366,0.35414738908709303,0.0,0.12927337275025153,0.1,0.0029714107513427734,0.05322122573852539,0.049923725,1.1005418,1.2394955835369075,0.0,0.018337527030902814,0.0,200,0.013872385025024414,0.32231596868973544,0.3082732336448807,38000,0.9448010566770445,0.0
190,1.351083517074585,1.05866984614187,0.4549574032273152,1.7739601482179128,0.5846165538810749,0.0,0.11854528369809189,0.1,0.0028405189514160156,0.05219626426696777,0.050764166,2.0707796,1.2214130097974039,0.0,0.021293880875753412,0.0,200,0.01381373405456543,0.21527138618114844,0.21024503388759966,38200,1.1837739251940422,0.0
191,1.3221983909606934,1.3676983320836953,0.8494466923938343,2.5606313073592437,0.33441366538361983,0.0,0.1274733235672744,0.1,0.0027570724487304688,0.05243635177612305,0.049255002,2.0975678,1.2360415420260331,0.0,0.02766029465553702,0.0,200,0.016337871551513672,0.3504537473256858,0.34959466282771007,38400,1.7039916156531587,0.0
192,1.3305256366729736,0.6969330477495975,0.2540707999795065,0.8849234480080949,0.2594943352501485,0.0,0.12359801871395339,0.1,0.002834320068359375,0.05246281623840332,0.04956721,0.89607507,1.1821306925983897,0.0,0.013857507668002846,0.0,200,0.013380050659179688,0.6363475701123359,0.5710505264439916,38600,1.4362404850386774,0.0
193,1.3835186958312988,0.7445569791151037,0.44125188475236854,1.3417816836786838,0.29065198259022507,0.0,0.134188892252514,0.1,0.0028045177459716797,0.05285978317260742,0.049162615,1.0592774,1.138373321250061,0.0,0.014914706243087428,0.0,200,0.01420450210571289,0.47681531474867306,0.41377335654673536,38800,2.214533840238766,0.0
194,1.2787363529205322,1.1210842418520748,0.9095426428036127,2.6083298457443007,0.20007494090504005,0.0,0.12580823336405586,0.1,0.00299835205078125,0.055527448654174805,0.05026438,1.8244907,1.1366444133102624,0.0,0.021818883802598853,0.0,200,0.01880645751953125,0.43069662344960646,0.4330561102802347,39000,2.2540286068755413,0.0
195,1.2988064289093018,0.8145787897833062,0.5859548107460459,1.808264190731388,0.3759183500199432,0.0,0.12032391160782152,0.1,0.002960681915283203,0.05336618423461914,0.049405154,2.5273316,1.104437850957567,0.0,0.016359289351702458,0.0,200,0.014466285705566406,0.4771316590099752,0.46651689618165537,39200,4.23124053879189,0.0
196,1.3733646869659424,1.3724386741673782,1.4914715180980034,3.945267657965768,0.29584849306380895,0.0,0.12185231331929121,0.1,0.002852201461791992,0.05353379249572754,0.049791552,2.1159275,1.131237933278548,0.0,0.02628029528769577,0.0,200,0.013697147369384766,0.6177221793240677,0.6093709345320165,39400,1.2866257808828794,0.0
197,1.311309576034546,0.41013149071665506,0.21101203732197493,0.6829056480433349,0.13856328483609878,0.0,0.12384566919368624,0.1,0.0028197765350341797,0.05294084548950195,0.050523855,0.902569,1.0591272890223586,0.0,0.008137980016048232,0.0,200,0.014406681060791016,2.265347774231601,2.2101876193550187,39600,3.751001229114648,0.0
198,1.3453266620635986,1.4948091640016017,0.9476235339102905,2.744561452525184,0.4799953283607973,0.0,0.12189386605443756,0.1,0.002811431884765625,0.053095102310180664,0.050172582,2.1534853,1.102695476520283,0.0,0.029833866690649608,0.0,200,0.01359248161315918,0.39845191541947134,0.3933697027850471,39800,2.8201617260283096,0.0
199,1.3316516876220703,0.778047348857736,0.30895618859538304,1.0983141803109984,0.2741818488936017,0.0,0.12684031767668863,0.1,0.0028858184814453125,0.05319523811340332,0.04991933,1.0485603,1.0702306637540284,0.0,0.01504642068014554,0.0,200,0.014015913009643555,0.2901104662930138,0.29031059125487635,40000,1.9349980364042783,0.0
200,1.3319408893585205,0.5249149528883363,0.2844844776207564,0.8384388904562189,0.19512288388401916,0.0,0.12517694351583442,0.1,0.003000974655151367,0.05363917350769043,0.05006136,1.8320837,1.0156990926674592,0.0,0.01072346199374378,0.0,200,0.014349699020385742,1.121866349065094,1.039459957094021,40200,1.2818959938368264,0.0
201,1.3770782947540283,1.828773182124803,1.1014323169053815,3.713359586162678,0.9842439634978941,0.0,0.12439842801923214,0.1,0.0028023719787597656,0.05320382118225098,0.04944484,2.7777371,1.0970065016131936,0.0,0.0365666590555954,0.0,200,0.014222860336303711,0.48832637659662814,0.48020013259014127,40400,1.057786074233199,0.0
202,1.3547766208648682,1.7888801265659298,2.047546718204884,5.333575865497648,0.5026893099941806,0.0,0.12394076553858263,0.1,0.002767801284790039,0.05304908752441406,0.049807705,1.9554332,1.1661938641084673,0.0,0.03494814589036026,0.0,200,0.013603925704956055,0.6545605969381018,0.634551259124015,40600,1.102985000934822,0.0
203,1.282454490661621,0.4417941723562195,0.26962934215061596,0.9003166449765303,0.20568649752769125,0.0,0.1282911050694047,0.1,0.0028924942016601562,0.0535891056060791,0.049928263,0.94204825,1.0937538949332426,0.0,0.008818424636041365,0.0,200,0.014982461929321289,1.7972778836369716,2.027021765148538,40800,0.5841626354549009,0.0
204,1.3639991283416748,2.065752293352365,1.8502047906144075,4.920411344738526,0.13741393287535886,0.0,0.12904013224049216,0.1,0.0029485225677490234,0.053345680236816406,0.050052777,1.92532,1.1909537347751549,0.0,0.03980710426320874,0.0,200,0.013625860214233398,0.5842152019780597,0.5641252268760285,41000,0.7612932446884914,0.0
205,1.3138988018035889,1.8423441568778067,1.8920685046971395,5.117422966032325,0.6550692551681483,0.0,0.12211688105217557,0.1,0.0027713775634765625,0.05457282066345215,0.050232638,2.1248515,1.25609277698542,0.0,0.036186192544213944,0.0,200,0.014594554901123047,0.603500804493893,0.5802606111574244,41200,0.7723040577103122,0.0
206,1.2939622402191162,0.5873873844620809,0.19918223150427153,0.7657149932565177,0.2569231076634091,0.0,0.12716208025338546,0.1,0.002957582473754883,0.05295443534851074,0.050144278,0.93797106,1.189222237733086,0.0,0.011704108820518262,0.0,200,0.013735294342041016,2.6082963239610057,2.7886326948135345,41400,1.0351455345289555,0.0
207,1.2448945045471191,0.730892199661515,0.3455853334994993,1.1932535990854587,0.30280970983849,0.0,0.13111883083468184,0.1,0.002874135971069336,0.054592132568359375,0.049961705,0.9061177,1.143389233925929,0.0,0.014479046597928296,0.0,200,0.01818251609802246,1.0065724420868967,0.804809860302721,41600,0.8812795088181646,0.0
208,1.2911317348480225,2.8857267918199376,1.5104018151037482,4.43689545252861,0.6357687260240444,0.0,0.1236050779529632,0.1,0.002896547317504883,0.05853700637817383,0.05021981,1.3302317,1.31762298971533,0.0,0.056940278039241274,0.0,200,0.013802766799926758,0.478130934856649,0.46664949961258484,41800,0.9806989228193429,0.0
209,1.3440675735473633,1.4269716867935138,0.5982671964342744,2.1362127335583927,0.7229196161694648,0.0,0.12187393459986248,0.1,0.0034356117248535156,0.06843304634094238,0.049871832,2.302125,1.3285578594231484,0.0,0.02828988592055145,0.0,200,0.015729904174804688,0.20162494241168838,0.19073699771999883,42000,0.7529461730388026,0.0
210,1.3898701667785645,2.038082612344913,0.9245735077736315,3.257682435344041,0.7192828451181189,0.0,0.12634313469719285,0.1,0.002790689468383789,0.053240060806274414,0.050066147,1.1884081,1.399510334715325,0.0,0.04006528436200897,0.0,200,0.015113353729248047,0.3099761576996659,0.2706184813732111,42200,0.970513705481121,0.0
211,1.2751669883728027,1.5094449569465676,1.2163596838728439,3.4850845919235165,0.34834653260383497,0.0,0.12469690251156057,0.1,0.0029745101928710938,0.052536964416503906,0.04978995,1.9314176,1.4105037969384495,0.0,0.029636109675140153,0.0,200,0.01438593864440918,0.42193047509881576,0.4284142010001775,42400,1.148269339038216,0.0
212,1.2733838558197021,0.43801679969116747,0.12767385286061936,0.6017250207787787,0.24994116822595033,0.0,0.12519114820828503,0.1,0.002947092056274414,0.052720069885253906,0.050240993,1.0222229,1.3132550972137214,0.0,0.008547945241968892,0.0,200,0.013924837112426758,10.538495767788694,9.244708662903692,42600,1.1953822452679712,0.0
213,1.3070180416107178,1.7276614033259332,0.7545559493000683,2.7037446184262293,0.5970588250633005,0.0,0.12798647714328223,0.1,0.0028150081634521484,0.057935476303100586,0.049683724,1.0356033,1.3546957278249425,0.0,0.03433808684617963,0.0,200,0.014540433883666992,0.19216432404549397,0.1983404102352838,42800,1.3175837920660225,0.0
214,1.2866404056549072,0.9763606508829181,0.4641155755285457,1.6630338957809896,0.3581824808617835,0.0,0.131619243717361,0.1,0.0029304027557373047,0.05382704734802246,0.05014317,0.9378665,1.3168622201307403,0.0,0.01950525521106436,0.0,200,0.013278484344482422,0.4962730392595379,0.4051044185849383,43000,1.1510898727078294,0.0
215,1.2751023769378662,0.8306538934274013,0.7397908473156537,2.066948374623618,0.24024543517905594,0.0,0.13450045152892212,0.1,0.002699136734008789,0.05340409278869629,0.050011873,1.3430557,1.2682413874604066,0.0,0.01633864525654205,0.0,200,0.014328956604003906,0.8748414734831294,0.7148863766923871,43200,1.0979406096741295,0.0
216,1.2747721672058105,1.9864567484368916,1.227889085803675,3.542784164242585,0.2519578902113873,0.0,0.12174730053467281,0.1,0.002939939498901367,0.05394697189331055,0.050601434,1.4581162,1.340062923558055,0.0,0.03952967380686566,0.0,200,0.013900279998779297,0.4032717795048221,0.4140035721853182,43400,0.9245533079722241,0.0
217,1.4174790382385254,1.8693935464210507,1.9242533517162421,5.137795458563549,0.2891368769001024,0.0,0.1269760247908015,0.1,0.002749204635620117,0.052878379821777344,0.049616408,1.6439906,1.3929959858443546,0.0,0.03706998256468493,0.0,200,0.013830184936523438,0.5766966872945987,0.5651406594682404,43600,0.7171158142173137,0.0
218,1.3779218196868896,0.7016617567090383,0.42789944541762626,1.3905925070613925,0.21717499430361187,0.0,0.12491711470972011,0.1,0.00283050537109375,0.05280637741088867,0.050039575,0.8853623,1.323862562930823,0.0,0.014164216074621226,0.0,200,0.015332460403442383,1.0014712143986833,1.005098408415704,43800,0.5805208799661937,0.0
219,1.2738733291625977,1.7939875041950923,1.0020275009561204,3.0565940414029114,0.537584490109227,0.0,0.12355228902980578,0.1,0.002899169921875,0.05660223960876465,0.049760893,1.3285003,1.3708750570572499,0.0,0.03482934185417644,0.0,200,0.013483285903930664,0.30391988437930473,0.29956752697523165,44000,0.3039905539291758,0.0
220,1.3931305408477783,1.7139562066879948,0.5747761351479598,2.5210087590061936,0.9337476322579701,0.0,0.12559493426183987,0.1,0.0027501583099365234,0.05286264419555664,0.049998708,1.5815266,1.4051831720203243,0.0,0.03430758520596381,0.0,200,0.015641450881958008,0.2319355371110115,0.21202816833651283,44200,0.18866645804573853,0.0
221,1.2702839374542236,0.9206667370863173,1.218023732562696,3.0293137534973327,0.15557967784068258,0.0,0.12166401705779065,0.1,0.0029840469360351562,0.05471611022949219,0.050406825,1.5266038,1.3567315285269237,0.0,0.018363767335843263,0.0,200,0.014168977737426758,0.7055575348159698,0.7068798259793709,44400,0.2700761248969171,0.0
222,1.352013349533081,1.1681837462946238,1.0149759335318542,2.882693676143113,0.23886389499157798,0.0,0.13134848175068958,0.1,0.0029778480529785156,0.052652835845947266,0.049887925,2.7156076,1.3378767503036937,0.0,0.023481500839198113,0.0,200,0.014976024627685547,0.47285724170713533,0.46800393734589074,44600,0.5276090348914065,0.0
223,1.362534523010254,1.7914769726626079,1.5688127772694365,3.8723139620268467,0.20634125352948976,0.0,0.12267075103442335,0.1,0.002702951431274414,0.053128719329833984,0.049737595,1.7234597,1.3832367725395853,0.0,0.034815204630520305,0.0,200,0.019005537033081055,0.45406599230310324,0.45037800820195506,44800,0.36965143893229047,0.0
