iteration,time_sampling,stoc_pol_mean,stoc_pol_std,stoc_pol_max,stoc_pol_min,rollout_success,alpha,delta,time_vpg,time_npg,kl_dist,surr_improvement,running_score,rwd_sparse,rwd_dense,success_percentage,num_samples,time_VF,VF_error_before,VF_error_after,env_samples,eval_score,eval_success
0,1.3235857486724854,9.697103425408534,8.731178572591642,22.22701783093932,0.1430396539765373,0.0,0.16731728517477817,0.1,0.09901928901672363,1.5576903820037842,0.051678,1.0665356,9.697103425408534,0.0,0.12940915139143883,0.0,300,0.2865562438964844,0.9939965247430842,0.9752208026869394,300,22.27837095086286,0.0
1,1.5282208919525146,5.140419274186929,8.750644933891719,20.296970795733856,0.07727088604440867,0.0,0.16589577180919488,0.1,0.08609247207641602,0.5854089260101318,0.050001156,1.2851077,9.241435010286374,0.0,0.06865356867088271,0.0,300,0.20403456687927246,0.9795553906716525,0.9612585990987782,600,22.263566799924387,0.0
2,1.3936080932617188,8.401998514286475,8.3814386706822,22.25484711516743,0.08901759811065793,0.0,0.16971582780681788,0.1,0.07688355445861816,0.10692882537841797,0.048145093,1.4584177,9.157491360686384,0.0,0.11214166403184257,0.0,300,0.2729072570800781,0.9527429955290714,0.9173136353654889,900,22.270439083077672,0.0
3,1.3585195541381836,18.768460162654186,4.481109649597447,22.27500724217021,11.29901561744857,0.0,0.1748120775504305,0.1,0.09088635444641113,0.5950028896331787,0.05164884,0.64628893,10.118588240883163,0.0,0.25032708224654987,0.0,300,0.2613067626953125,0.923296825405741,0.8676469502001131,1200,22.26492647336565,0.0
4,1.3925106525421143,1.8679776929676892,2.09573977337089,5.219458475893807,0.06389474366229357,0.0,0.17334656647928587,0.1,0.0038847923278808594,0.056485652923583984,0.050707046,1.4281231,9.293527186091616,0.0,0.025022381169647345,0.0,300,0.22349238395690918,0.8676510562803392,1.0689766772896692,1500,22.265291364697223,0.0
5,1.415968656539917,12.128056114516856,10.546081797901733,22.896859890214877,0.1142496962176072,0.0,0.16883481589666147,0.1,0.004445314407348633,0.06382369995117188,0.052061062,1.2596544,9.57698007893414,0.0,0.16182376985626665,0.0,300,0.08538198471069336,0.8417126697308267,0.7850433274721651,1800,22.255154087961625,0.0
6,1.756941318511963,12.492257776455379,6.765160508871965,22.24856930477897,3.1255731983185915,0.0,0.1716599648447134,0.1,0.10168170928955078,0.5544610023498535,0.050346605,0.81393033,9.868507848686264,0.0,0.16667936645727321,0.0,300,0.03946828842163086,0.7191043945142028,0.6243809597486196,2100,22.25999256746982,0.0
7,1.5643501281738281,13.449443755434991,9.370990646665005,22.26548819715724,0.08163112721464552,0.0,0.17654658762012526,0.1,0.003295421600341797,0.06711864471435547,0.05011525,0.8356256,10.226601439361136,0.0,0.17944015344664227,0.0,300,0.04833698272705078,0.663023326069418,0.5693861385253197,2400,22.24997257753776,0.0
8,1.4439723491668701,14.50312464501022,6.405483135301645,22.28423775580073,7.151334418720021,0.0,0.17979711235293078,0.1,0.09668707847595215,0.2050487995147705,0.049822684,0.7139145,10.654253759926046,0.0,0.1934168137089371,0.0,300,0.050087690353393555,0.509767099862414,0.44047236511685234,2700,22.253247195201457,0.0
9,1.935560703277588,16.867045389990327,9.469068005930582,22.528927908947715,0.46744834555855286,0.0,0.17082361772285948,0.1,0.0036835670471191406,0.05949258804321289,0.050422747,0.8074867,11.275532922932475,0.0,0.22500954762037806,0.0,300,0.03230619430541992,0.4902396666955575,0.43240688917050724,3000,22.263041077364118,0.0
10,1.4153923988342285,21.00631861276191,2.136778085608012,22.26288383797203,17.30541518336855,0.0,0.1726183374153993,0.1,0.002985715866088867,0.39449071884155273,0.05058216,0.59868735,12.248611491915419,0.0,0.28019898333990684,0.0,300,0.08699703216552734,0.32575171592341456,0.2647473099640928,3300,22.247597516632705,0.0
11,1.4519450664520264,19.838077737352688,4.408349827065376,22.525994740784483,12.204701141287021,0.0,0.17447814634415995,0.1,0.0031859874725341797,0.2185206413269043,0.0503002,0.7597036,13.007558116459146,0.0,0.2646240627697229,0.0,300,0.05442523956298828,0.31403815549265585,0.27762269677024226,3600,22.249738321707976,0.0
12,1.4923255443572998,15.024573817881896,9.107418777577363,22.512547841059597,0.10503720001507132,0.0,0.16430306709962858,0.1,0.003268718719482422,0.057396650314331055,0.051212233,0.9491911,13.209259686601422,0.0,0.2004415029265712,0.0,300,0.2437441349029541,0.4794404179797176,0.38276113784966126,3900,22.25669264140407,0.0
13,1.5948905944824219,19.502877419709634,4.764467616332042,22.28581224003774,11.250654864104387,0.0,0.16971217412556888,0.1,0.0037908554077148438,0.060318946838378906,0.051293902,1.2373945,13.838621459912245,0.0,0.2601450726968921,0.0,300,0.16240382194519043,0.25747834635550976,0.2482651492370971,4200,22.2674735389847,0.0
14,1.450439214706421,13.959622796256813,8.394789403523886,22.2892191920273,4.133008218910389,0.0,0.1674146516615845,0.1,0.01146245002746582,0.07460308074951172,0.050769456,0.78578544,13.850721593546702,0.0,0.1862331750306517,0.0,300,0.12095808982849121,0.4459603543792942,0.39213398183215714,4500,22.280687500331165,0.0
15,1.3888771533966064,7.674250900440997,9.056022384588625,22.279894843628615,0.1001301960364476,0.0,0.16497160584847378,0.1,0.08564352989196777,0.3878650665283203,0.049302395,0.690852,13.233074524236132,0.0,0.1024365571079028,0.0,300,0.15289640426635742,0.7794568763689267,0.6351891932429307,4800,22.256324654148532,0.0
16,1.5527827739715576,22.356864357649364,0.15529605185924636,22.624349219012228,22.249711497863082,0.0,0.16518325569861306,0.1,0.08575081825256348,0.1750640869140625,0.05129254,0.8623829,14.145453507577455,0.0,0.29816720894922766,0.0,300,0.17938995361328125,0.34476912637216256,0.2959350646064637,5100,22.25457588644615,0.0
17,1.5278494358062744,9.193782238393585,8.194298310818816,22.23288770518244,0.0901618892614373,0.0,0.152230257714314,0.1,0.0050868988037109375,0.059661149978637695,0.05109849,1.676433,13.650286380659068,0.0,0.12270118897127436,0.0,300,0.05436301231384277,0.5611285625146587,0.6115536748788594,5400,22.245601515391854,0.0
18,1.584080696105957,18.53722013323887,3.416731508246364,22.483079099489558,14.253627530982866,0.0,0.17222498533765612,0.1,0.018053054809570312,0.2779204845428467,0.04957049,0.86016655,14.138979755917049,0.0,0.24727846064189557,0.0,300,0.0626060962677002,0.18302005052028977,0.14503821830899397,5700,22.23453420420223,0.0
19,1.629655122756958,17.959782488000677,7.424669258576162,22.280936681017717,5.099936013608977,0.0,0.16303164027794392,0.1,0.08406472206115723,0.09403753280639648,0.051025666,0.70012045,14.521060029125413,0.0,0.23957673594721202,0.0,300,0.18016552925109863,0.2495055550759571,0.23229303180136435,6000,22.23302737369582,0.0
20,1.769301176071167,12.938614481910047,9.639825548265803,22.273345490650765,0.13604307069868168,0.0,0.16909469366263827,0.1,0.003162384033203125,0.062386274337768555,0.049729705,0.6006838,14.362815474403877,0.0,0.17262990177404108,0.0,300,0.4647965431213379,0.6254061134708466,0.5553016650311426,6300,22.231773709039434,0.0
21,1.513448715209961,21.67735703720669,1.0192408574196863,22.330396710585713,19.91341593424146,0.0,0.16381726112123077,0.1,0.030424118041992188,0.06129193305969238,0.04960887,0.93610096,15.09426963068416,0.0,0.2891410767742138,0.0,300,0.22721481323242188,0.15115453270565954,0.14733775026326287,6600,22.234191959773813,0.0
22,1.4570603370666504,16.77875657978206,6.239592741084502,22.31726647290303,7.098559911271357,0.0,0.1598980857376096,0.1,0.0030236244201660156,0.056833505630493164,0.050494198,0.86358196,15.26271832559395,0.0,0.22382157164634547,0.0,300,0.10931110382080078,0.23985510019516065,0.23465799501195178,6900,22.233890577373412,0.0
23,1.5815131664276123,22.280527822353566,0.0312572444245682,22.31716039466035,22.230765812168457,0.0,0.17878566704771962,0.1,0.09200811386108398,0.3362762928009033,0.05098215,0.8495018,15.964499275269912,0.0,0.2971869780439166,0.0,300,0.0710287094116211,0.1602772835553548,0.13802073243468602,7200,22.22670921041067,0.0
24,1.6519362926483154,22.445347768394807,0.5926997536275003,23.34228527246782,21.70363231145292,0.0,0.161998180391137,0.1,0.09331154823303223,0.28256678581237793,0.050205115,0.7433295,16.6125841245824,0.0,0.299328124818302,0.0,300,0.046172142028808594,0.18848564413569927,0.16762538093783239,7500,22.229100033942782,0.0
25,1.497443437576294,18.978871742186218,5.695417193779478,22.314557781207828,9.114272121208256,0.0,0.16894742246984293,0.1,0.0053253173828125,0.15567398071289062,0.051948816,0.73321056,16.849212886342784,0.0,0.25316723731665186,0.0,300,0.23639988899230957,0.18745986790230618,0.17471066073300323,7800,22.225129826082213,0.0
26,1.639516830444336,16.73152894014008,9.593945244723184,22.296399080557222,0.11440205796990337,0.0,0.16019826831696282,0.1,0.008621454238891602,0.0803825855255127,0.05051883,0.66393477,16.837444491722515,0.0,0.2232003570900323,0.0,300,0.11170172691345215,0.323526274603493,0.2827300932160105,8100,22.226186277380965,0.0
27,1.6348671913146973,18.990617986992753,5.660312898621641,22.313071788126297,9.18683910241535,0.0,0.17161763183454176,0.1,0.09812641143798828,0.20519280433654785,0.04986148,0.6289434,17.05276184124954,0.0,0.2533224834223815,0.0,300,0.03115248680114746,0.17791580737545656,0.17836398202000334,8400,22.225585694061294,0.0
28,1.6871285438537598,22.25023168194064,0.0296735398301641,22.300919946198157,22.225469666087694,0.0,0.16345949073362948,0.1,0.0033082962036132812,0.06058907508850098,0.05019941,0.8652181,17.572508825318653,0.0,0.29678064057193443,0.0,300,0.12331795692443848,0.14183881807746773,0.10456694710923904,8700,22.225166613103795,0.0
29,1.4355041980743408,19.24376181367868,5.27829484795969,22.39480407487284,10.102159074646442,0.0,0.16910305162167175,0.1,0.03537178039550781,0.10615324974060059,0.049824994,0.62932384,17.739634124154655,0.0,0.2566974991129958,0.0,300,0.07719612121582031,0.1845277871435637,0.19059624689464583,9000,22.226276513920364,0.0
30,1.4529311656951904,20.534999462226676,3.0225027689173265,22.32094209233835,15.30028478617117,0.0,0.16930308378878706,0.1,0.09047412872314453,0.19822287559509277,0.049896345,0.7114871,18.01917065796186,0.0,0.27391526522961296,0.0,300,0.2057361602783203,0.11401524660519578,0.10631245522700006,9300,22.229596398573893,0.0
31,1.6035706996917725,16.265368893389464,9.381590634909765,22.346799827933626,0.07230193201004968,0.0,0.16147440995988063,0.1,0.03644514083862305,0.10686945915222168,0.049715593,0.629532,17.84379048150462,0.0,0.21698425331578466,0.0,300,0.2611377239227295,0.374162436741807,0.29090868333389214,9600,22.23102098089986,0.0
32,1.5289347171783447,19.52300914354339,4.7363470877812945,22.312104395821358,11.319623609929524,0.0,0.17096715022739498,0.1,0.03339838981628418,0.060350656509399414,0.049799517,0.8571522,18.011712347708496,0.0,0.2604195398590806,0.0,300,0.10503959655761719,0.11807239620399416,0.12451659464377042,9900,22.236041224359827,0.0
33,1.6180708408355713,22.2631988788011,0.009500703099856067,22.277184527836766,22.250447267413197,0.0,0.17205774320951345,0.1,0.009093523025512695,0.07253789901733398,0.05065113,0.82114077,18.436861000817757,0.0,0.2969554527353329,0.0,300,0.10505890846252441,0.09299140364381073,0.05798504191257119,10200,22.230926301252527,0.0
34,1.5234739780426025,16.70549759944533,9.592798869630112,22.254644166378423,0.09028807264641069,0.0,0.15476436015551323,0.1,0.0033588409423828125,0.09634065628051758,0.049300857,0.6046873,18.263724660680513,0.0,0.22285426831813604,0.0,300,0.3949012756347656,0.29487790774291617,0.292564266883552,10500,22.225572897066787,0.0
35,1.4046013355255127,21.257582025978348,1.7366750802567033,22.300807964541395,18.24989844650351,0.0,0.15911778997857287,0.1,0.029704570770263672,0.07028460502624512,0.050253406,1.1570933,18.563110397210295,0.0,0.2835465818777733,0.0,300,0.22316622734069824,0.07179909077344526,0.06845203179333867,10800,22.22243211596629,0.0
36,1.6235454082489014,15.961575050774204,9.24467304576114,22.314162748450908,0.09721680142913777,0.0,0.15711899313366215,0.1,0.003093242645263672,0.05799984931945801,0.050066028,0.53606707,18.30295686256669,0.0,0.21293162376108454,0.0,300,0.02699136734008789,0.2689615847953456,0.23514872288980582,11100,22.22129387887728,0.0
37,1.463705062866211,22.24822825804157,0.01424166844493607,22.263983058329025,22.22763920067387,0.0,0.1590635975837062,0.1,0.0038805007934570312,0.056333065032958984,0.049210887,6.131057,18.697484002114177,0.0,0.29674925990737455,0.0,300,0.23708057403564453,0.07408850123986876,0.0703315445942423,11400,22.221386186430493,0.0
38,1.5395934581756592,22.251382477603528,0.024836592193681638,22.2882730754831,22.220464042671175,0.0,0.1645284055065691,0.1,0.018515348434448242,0.06374502182006836,0.04984091,1.0003811,19.05287384966311,0.0,0.29679158114575815,0.0,300,0.08173775672912598,0.04831955767785164,0.038188206268625284,11700,22.219041477120594,0.0
39,1.5964422225952148,16.96018939805488,9.149842060198267,22.254825940180655,1.1122081989232366,0.0,0.15602156928978153,0.1,0.0034863948822021484,0.05912923812866211,0.049699582,0.5277175,18.843605404502288,0.0,0.22624795507769027,0.0,300,0.14121508598327637,0.213168437086838,0.20156386007123253,12000,22.218750794039746,0.0
40,1.6199374198913574,16.72514315620802,9.588396582880197,22.271132227650266,0.11755690190037221,0.0,0.14495379897277325,0.1,0.003343343734741211,0.05848574638366699,0.048329856,0.4733865,18.631759179672862,0.0,0.2231170850671973,0.0,300,0.02247309684753418,0.28798584716200426,0.2655813896244261,12300,22.21842504712319,0.0
41,1.6255252361297607,16.46457139725252,9.460834366305944,22.27896325869227,0.09246895356185475,0.0,0.15660624126322556,0.1,0.08687067031860352,0.8351376056671143,0.05021104,0.68457735,18.41504040143083,0.0,0.2196411350915129,0.0,300,0.0335693359375,0.23792629499310744,0.2336413922600313,12600,22.2190403063998,0.0
42,1.6086440086364746,22.24458133802097,0.014824033468136186,22.268067345645203,22.22697000181259,0.0,0.1669074349465065,0.1,0.0036420822143554688,0.06242084503173828,0.0511745,1.0624977,18.797994495089846,0.0,0.29670274100374483,0.0,300,0.20172786712646484,0.08194048918029588,0.04768702440645724,12900,22.21858773918854,0.0
43,1.6127398014068604,17.442741703339262,8.293788250175103,22.234688008605758,3.077480907267349,0.0,0.16711513203994513,0.1,0.003572225570678711,0.08256125450134277,0.0492484,0.4961216,18.66246921591479,0.0,0.23268441548278523,0.0,300,0.04091238975524902,0.21079640618945272,0.2164897875774886,13200,22.217964401411532,0.0
44,1.6250662803649902,16.8407003417354,9.672867199285044,22.617451655914245,0.08846823536666054,0.0,0.1553242829170693,0.1,0.003622293472290039,0.26766276359558105,0.05045397,0.5148342,18.48029232849685,0.0,0.22465617096694637,0.0,300,0.2293992042541504,0.2684367347878031,0.23867933821698442,13500,22.21731004266091,0.0
45,1.6274604797363281,19.850546514930123,3.590008859184501,22.263396576846603,13.672469303124654,0.0,0.15671656580226542,0.1,0.08436775207519531,0.0581207275390625,0.049993157,0.73394036,18.61731774714018,0.0,0.26477766344443576,0.0,300,0.07236242294311523,0.09427023796822229,0.09921488745967388,13800,22.217492204075338,0.0
46,1.635970115661621,19.983475110299434,3.9406788535996182,22.297784927681672,13.158171165995205,0.0,0.1720782885123397,0.1,0.003070354461669922,0.05583930015563965,0.04984222,0.6915994,18.75393348345611,0.0,0.26656044755695774,0.0,300,0.026975393295288086,0.11561376077385363,0.09976225666707787,14100,22.21769697590617,0.0
47,1.5651650428771973,19.489087075712266,4.852377655683146,22.366901489183206,11.084952012416105,0.0,0.1583800177314108,0.1,0.09395956993103027,0.2924339771270752,0.051321846,0.74129903,18.827448842681726,0.0,0.25995820845373374,0.0,300,0.04934835433959961,0.08895494670039504,0.08728667380222692,14400,22.217659685177136,0.0
48,1.5718152523040771,18.25927209664844,6.883801734940431,22.24090994901719,6.33618479586039,0.0,0.15199497916479748,0.1,0.08799052238464355,0.5927700996398926,0.0491839,0.408218,18.7706311680784,0.0,0.24339327276684253,0.0,300,0.028126955032348633,0.24005821207933326,0.21590108570391459,14700,22.217687184027245,0.0
49,1.6093504428863525,22.23816725478282,0.016481381250673752,22.263989890388046,22.22083353618022,0.0,0.16641090914520776,0.1,0.05740690231323242,0.05669116973876953,0.0506145,0.9438163,19.117384776748843,0.0,0.29662085096529267,0.0,300,0.03891420364379883,0.05308845291571481,0.04497196577232347,15000,22.218028532125242,0.0
50,1.6822259426116943,11.16087424660692,11.076645802093061,22.248706926985186,0.06745508607958209,0.0,0.15402442920212356,0.1,0.08665132522583008,0.0825355052947998,0.049634337,0.50946033,18.32173372373465,0.0,0.1489251624907818,0.0,300,0.18101811408996582,0.49332800222967266,0.4114877837897691,15300,22.21781413164121,0.0
51,1.5260586738586426,16.70523004143761,9.574314762058465,22.241505040858655,0.12203530424774342,0.0,0.1516789044615942,0.1,0.004891395568847656,0.10289168357849121,0.050032966,0.5427108,18.160083355504945,0.0,0.2228429246121862,0.0,300,0.047905683517456055,0.1780873364554318,0.1773998514190048,15600,22.217607058747806,0.0
52,1.634321689605713,22.237834194596143,0.019002928570022802,22.270613141157444,22.22430374672732,0.0,0.15392389747461702,0.1,0.08335041999816895,0.0649871826171875,0.049922448,1.3460163,18.567858439414067,0.0,0.29661646327076757,0.0,300,0.020826101303100586,0.09929182816844961,0.06160134394441343,15900,22.21742061414621,0.0
53,1.648315191268921,22.23287954959428,0.012179846023220687,22.251984494956634,22.218369217551093,0.0,0.1643070539897327,0.1,0.015818357467651367,0.06220674514770508,0.049169093,0.6605089,18.93436055043209,0.0,0.2965364349450106,0.0,300,0.15137672424316406,0.05951571851988977,0.040289248901048874,16200,22.21750856632656,0.0
54,1.5904467105865479,22.227759435381145,0.006559542296954172,22.237844654505405,22.219644607040433,0.0,0.1685826376588325,0.1,0.00551295280456543,0.11462974548339844,0.049965844,0.8658588,19.263700438926996,0.0,0.29648224427462366,0.0,300,0.11395692825317383,0.02913133605813805,0.03203909699268903,16500,22.217407563080027,0.0
55,1.4921936988830566,18.465423622937532,6.523509072498259,22.25092913154056,7.166392800719552,0.0,0.1633359884043211,0.1,0.0915834903717041,0.3899717330932617,0.050051913,0.4815394,19.18387275732805,0.0,0.2463199724867488,0.0,300,0.23679089546203613,0.14725398706375228,0.11058515330848519,16800,22.217228233551307,0.0
56,1.6472158432006836,22.279594713772454,0.057965461014023195,22.359618697476815,22.22176846640537,0.0,0.16554218702004392,0.1,0.08042788505554199,0.10351181030273438,0.05060053,0.7198687,19.493444952972492,0.0,0.29717271597552486,0.0,300,0.022129535675048828,0.026924621932139226,0.03102810971870327,17100,22.217131174140665,0.0
57,1.5103533267974854,22.23342740988845,0.01373529325771265,22.252933599860906,22.216680734560214,0.0,0.18192261415601396,0.1,0.17114472389221191,0.2034773826599121,0.049692623,0.8596749,19.767443198664086,0.0,0.29655940496199573,0.0,300,0.040033578872680664,0.02753598075474736,0.0201920337888993,17400,22.217168157415472,0.0
58,2.210340738296509,22.230623764549186,0.009116010259311615,22.242065134857523,22.217902351386954,0.0,0.16618856888409367,0.1,0.0035381317138671875,0.10610151290893555,0.049271606,1.0351957,20.013761255252597,0.0,0.29652275658170446,0.0,300,0.11146211624145508,0.021498006703293115,0.016902440711802316,17700,22.216848326586355,0.0
59,1.6783220767974854,22.21993305912601,0.0012318871677579636,22.22113633166048,22.217901488386605,0.0,0.16815164580186764,0.1,0.0803074836730957,0.2159888744354248,0.050465044,0.85021484,20.23437843563994,0.0,0.2963770970737641,0.0,300,0.2456681728363037,0.03147844101739549,0.029917876059637055,18000,22.216830991489214,0.0
60,1.5691807270050049,22.22766483851436,0.014316521205515622,22.252337134498237,22.217256290401803,0.0,0.1704347196307531,0.1,0.003091096878051758,0.05930733680725098,0.050075773,0.8470431,20.433707075927384,0.0,0.29648194229127,0.0,300,0.2174973487854004,0.044781923731217095,0.034699833153399216,18300,22.216763327013755,0.0
61,1.707448959350586,18.94083059293541,5.698501595683577,22.24169973017013,9.07074713503241,0.0,0.16131133254559404,0.1,0.0032720565795898438,0.06737208366394043,0.04925087,0.47452947,20.284419427628187,0.0,0.25265998311522486,0.0,300,0.04484868049621582,0.12980605927449654,0.10582545134280993,18600,22.216679886681103,0.0
62,1.6917831897735596,22.233033255369634,0.022558913567494357,22.27181601647048,22.21720635114209,0.0,0.17516870243482383,0.1,0.0820469856262207,0.1185605525970459,0.050302338,1.5412123,20.479280810402333,0.0,0.2965509811499737,0.0,300,0.032593727111816406,0.0459568752027769,0.039211558684072285,18900,22.21666885753508,0.0
63,1.6504848003387451,22.28727063920866,0.08827082641399744,22.439424731498043,22.222431014408542,0.0,0.17192970605400149,0.1,0.025376558303833008,0.08110284805297852,0.05057416,1.4849479,20.660079793282968,0.0,0.2972741556376268,0.0,300,0.08636236190795898,0.05995335532520352,0.02809843506242301,19200,22.21664538371667,0.0
64,1.682326316833496,22.226534829243946,0.004353868680097979,22.23327509240057,22.22132428458637,0.0,0.16848876799071943,0.1,0.09283590316772461,0.18226289749145508,0.05021071,0.7742592,20.816725296879063,0.0,0.2964671236561416,0.0,300,0.020989418029785156,0.027531781705145062,0.034154212664080495,19500,22.21663549606677,0.0
65,1.6886279582977295,22.223949219193543,0.005941696063694367,22.23364444196491,22.21899043607121,0.0,0.1624678128758416,0.1,0.08499884605407715,0.16317296028137207,0.05015445,1.1507679,20.95744768911051,0.0,0.296430067858931,0.0,300,0.11846423149108887,0.045260434426638754,0.02845247164030566,19800,22.216564233293266,0.0
66,1.5526213645935059,22.239548322249966,0.016151831169711882,22.261856805634277,22.21756135996629,0.0,0.15848298861794613,0.1,0.08574438095092773,0.09183597564697266,0.05049889,1.6355007,21.085657752424456,0.0,0.2966382169099933,0.0,300,0.09334588050842285,0.025413427978059122,0.01626922725331458,20100,22.216508786618714,0.0
67,1.5921084880828857,22.22008132827694,0.0016547252062561705,22.22202036056078,22.218253909021396,0.0,0.1652459392897027,0.1,0.09672045707702637,0.3265993595123291,0.049602237,0.80749595,21.199100110009702,0.0,0.29638097723144646,0.0,300,0.11461949348449707,0.02993674693378648,0.032079283162442684,20400,22.216457860609157,0.0
68,1.8655846118927002,22.228597986963347,0.005435753384944201,22.232073229014055,22.21920465217427,0.0,0.16725922677884913,0.1,0.07869744300842285,0.841515064239502,0.049893107,1.1184096,21.302049897705068,0.0,0.2964889776373614,0.0,300,0.04311060905456543,0.03336008668593131,0.023490188432321386,20700,22.216430518619692,0.0
69,1.6960985660552979,22.231207003261154,0.012507774242607185,22.24530424004971,22.217378190621528,0.0,0.16321246498325354,0.1,0.0862433910369873,0.24402856826782227,0.050732657,0.65577185,21.39496560826068,0.0,0.2965283434694714,0.0,300,0.0662839412689209,0.029106376731205964,0.029056524043888417,21000,22.21643102124595,0.0
70,1.7008271217346191,22.236480591261316,0.026269126093131024,22.281744443145335,22.217483170781488,0.0,0.1576846348338096,0.1,0.003213644027709961,0.055802345275878906,0.050103802,0.62321,21.479117106560743,0.0,0.29659969958286814,0.0,300,0.04184222221374512,0.015443210095235613,0.013429619914016182,21300,22.216434331544942,0.0
71,1.5852837562561035,22.233434236490105,0.01747784039789363,22.263450055671957,22.221231431149707,0.0,0.1677500921783741,0.1,0.0045413970947265625,0.05895495414733887,0.05045632,0.83173835,21.554548819553677,0.0,0.29655875961123634,0.0,300,0.23963069915771484,0.031399949512645006,0.027278716667292934,21600,22.21645724718542,0.0
72,1.6922564506530762,22.22730069958226,0.00464104348996672,22.23509921539013,22.223648317825436,0.0,0.1738211935958739,0.1,0.08257627487182617,0.13556957244873047,0.050548717,0.7142124,21.621824007556533,0.0,0.2964771058214214,0.0,300,0.2222142219543457,0.017881539285098422,0.017253709624998306,21900,22.216477803790927,0.0
73,1.667398452758789,22.231313088385935,0.011370358199914835,22.244525432102513,22.219596762929207,0.0,0.1698420858210998,0.1,0.0772557258605957,0.07505464553833008,0.049760222,1.2800449,21.68277291563947,0.0,0.2965307513164919,0.0,300,0.08928251266479492,0.029323018376447633,0.02629204716397537,22200,22.216416101167372,0.0
74,1.7284746170043945,22.22589701707691,0.00735650673174786,22.236493437940915,22.21863202221614,0.0,0.16734133993584696,0.1,0.002979755401611328,0.060071706771850586,0.049737982,0.76295865,21.737085325783216,0.0,0.29645640633473935,0.0,300,0.02348494529724121,0.01675130015048471,0.01388098948486717,22500,22.216506849822963,0.0
75,1.6290276050567627,22.24738822026492,0.03871206487460721,22.31352674469692,22.21659111018135,0.0,0.16503752638359367,0.1,0.09427046775817871,0.20154452323913574,0.050724022,0.9372658,21.788115615231387,0.0,0.2967426603595459,0.0,300,0.13024687767028809,0.01954911230953813,0.017787279514389288,22800,22.21657277982297,0.0
76,1.6934657096862793,22.22834032796504,0.009477745978836912,22.2419902839232,22.21805405885884,0.0,0.17559460425538156,0.1,0.0877678394317627,0.3143939971923828,0.05060832,0.9221144,21.832138086504756,0.0,0.2964830569646326,0.0,300,0.07859945297241211,0.025625052921829275,0.022851739660065595,23100,22.21656007323918,0.0
77,1.59623122215271,22.22246025213346,0.007313839881598026,22.235036644936677,22.217158839546137,0.0,0.18178921739054602,0.1,0.0034334659576416016,0.09255599975585938,0.04996889,0.6507479,21.871170303067625,0.0,0.29641162901667384,0.0,300,0.12103390693664551,0.014453049185745097,0.013807007145766827,23400,22.2165351449687,0.0
78,1.788980484008789,22.217821747967992,0.0004986542402368379,22.218603894324865,22.217267317198843,0.0,0.18452036486200868,0.1,0.003543853759765625,0.08302927017211914,0.049736466,0.630155,21.905835447557664,0.0,0.2963508684473194,0.0,300,0.04511737823486328,0.03434870311131331,0.026636868573695346,23700,22.216469746773726,0.0
79,1.7772555351257324,22.224922952882526,0.0047610081283781126,22.23108720696844,22.21864242770022,0.0,0.17426839515307882,0.1,0.003306150436401367,0.06088757514953613,0.049789313,0.63425547,21.93774419809015,0.0,0.2964454747975254,0.0,300,0.22092580795288086,0.010588946512434541,0.011298345079465656,24000,22.216480882889538,0.0
80,1.700486421585083,22.225558382479882,0.012318742669080287,22.246848064041483,22.217616746980177,0.0,0.17109185328689785,0.1,0.003222942352294922,0.057039737701416016,0.04996153,0.80283314,21.966525616529125,0.0,0.2964541081702931,0.0,300,0.09839010238647461,0.017900277369147528,0.01579039517208952,24300,22.216509900902157,0.0
81,1.910421371459961,22.218981317209014,0.0009478781733537348,22.22046832493278,22.218079087537227,0.0,0.16620386956240774,0.1,0.05286383628845215,0.06018877029418945,0.05036973,0.8765129,21.991771186597116,0.0,0.2963656896577191,0.0,300,0.024491071701049805,0.012133127144597992,0.010538515039342824,24600,22.216486958642758,0.0
82,2.1541078090667725,22.225032875881425,0.00511545461354633,22.2303638866281,22.21698019113721,0.0,0.165577431350248,0.1,0.0036551952362060547,0.06254458427429199,0.04942056,1.1700125,22.015097355525548,0.0,0.2964426779663056,0.0,300,0.057417869567871094,0.015444993507016462,0.014953168230837395,24900,22.216498017959708,0.0
83,1.8544392585754395,22.222991009119653,0.0056421705950654875,22.23043316658261,22.217291384109636,0.0,0.15764867690102377,0.1,0.16614675521850586,0.12563753128051758,0.050333753,1.9090663,22.035886720884957,0.0,0.2964099763478929,0.0,300,0.21088385581970215,0.012121894193159581,0.011850574001857397,25200,22.216572296536764,0.0
84,1.788541555404663,22.224637258486005,0.005109449955912857,22.231568400946504,22.21733296060902,0.0,0.1667502886475499,0.1,0.0030379295349121094,0.05896449089050293,0.050500024,1.0051627,22.054761774645062,0.0,0.2964417721996285,0.0,300,0.032297372817993164,0.013845354272525635,0.013313148250093616,25500,22.216540589280203,0.0
85,1.8896000385284424,22.220582902798554,0.004880499923828268,22.228917190833474,22.216500017210638,0.0,0.14682528484015234,0.1,0.0033702850341796875,0.06145310401916504,0.049335185,0.5867104,22.07134388746041,0.0,0.29638777021792195,0.0,300,0.02954697608947754,0.023538402667152042,0.02229486860043515,25800,22.21651231159242,0.0
86,1.6797027587890625,22.227560091006136,0.007382507864570063,22.23779688707415,22.218447571406717,0.0,0.1769301698487064,0.1,0.0032510757446289062,0.061400651931762695,0.05027293,0.5397861,22.086965507814984,0.0,0.29648071544642374,0.0,300,0.05790591239929199,0.031269865252325516,0.0230982980544335,26100,22.216488855477024,0.0
87,1.6090476512908936,19.43439027940034,4.82500128348146,22.221642146764175,11.077243076723,0.0,0.15827132024214033,0.1,0.005503654479980469,0.06401348114013672,0.049633197,0.50095516,21.82170798497352,0.0,0.25923976274685034,0.0,300,0.03644394874572754,0.06717148882761421,0.054792040520944024,26400,22.216559945522942,0.0
88,1.6164965629577637,17.957331576432757,7.388726076550838,22.23056083238501,5.159685222105236,0.0,0.14962065781128475,0.1,0.003228902816772461,0.06017494201660156,0.050480757,0.40952325,21.435270344119445,0.0,0.2395441839797875,0.0,300,0.023743391036987305,0.08553876361361139,0.08306223864766216,26700,22.216472858784925,0.0
89,1.6938881874084473,22.222200915199814,0.0026465578540272893,22.22396536967393,22.21762923164033,0.0,0.17466448161456247,0.1,0.09555935859680176,0.09881901741027832,0.05032694,0.8883788,21.513963401227485,0.0,0.2964090371722136,0.0,300,0.02945995330810547,0.029242429177897742,0.010419660154440147,27000,22.216500713632964,0.0
90,1.6637251377105713,22.233855366701217,0.01581275401717042,22.25839323923062,22.21666267338954,0.0,0.1767525566829271,0.1,0.0034096240997314453,0.05938458442687988,0.05005157,0.8596696,21.58595259777486,0.0,0.29656467442656165,0.0,300,0.018047332763671875,0.028348955245659235,0.01940964251485616,27300,22.216468423717597,0.0
91,1.8163495063781738,22.227943884324226,0.01636284352718629,22.256126228400916,22.216556335338506,0.0,0.15610786364522203,0.1,0.015726804733276367,0.061606645584106445,0.049130786,0.9694738,21.650151726429797,0.0,0.29648551900543507,0.0,300,0.0366208553314209,0.028873897117089018,0.018244755737551525,27600,22.216517275240736,0.0
92,1.6595368385314941,22.21853469033747,0.0019375271328703465,22.221803620301355,22.216761159572986,0.0,0.1621473715682152,0.1,0.003171682357788086,0.06482791900634766,0.049679108,1.0087199,21.706990022820566,0.0,0.2963598762341273,0.0,300,0.14462709426879883,0.026411730907177165,0.015176032246333706,27900,22.21657318947614,0.0
93,1.8682286739349365,22.222980205511696,0.006026134839881779,22.23070373067459,22.217053181252744,0.0,0.1646686158698221,0.1,0.0033071041107177734,0.07349634170532227,0.050090756,0.69995564,21.758589041089678,0.0,0.2964188575060473,0.0,300,0.03412604331970215,0.025517160195922494,0.026476612989963854,28200,22.216630537977434,0.0
94,1.7557954788208008,22.233997069103054,0.025025326460508784,22.2772107430175,22.217386934970662,0.0,0.14778716800809913,0.1,0.0032405853271484375,0.05907416343688965,0.050129596,1.5700884,21.806129843891018,0.0,0.2965663052572998,0.0,300,0.03864097595214844,0.02029053622806367,0.012397839317528945,28500,22.21666374612884,0.0
95,1.6333396434783936,22.218937571150633,0.0031734035907036782,22.224429420972825,22.216895059794698,0.0,0.17129809440858687,0.1,0.0030765533447265625,0.06051993370056152,0.049932655,0.7052971,21.84741061661698,0.0,0.29636582515988447,0.0,300,0.04724264144897461,0.013091478843080604,0.014390147441939834,28800,22.21665401742523,0.0
96,1.637477159500122,22.21796446506026,0.0005945483022683454,22.218550801221983,22.21720744893687,0.0,0.16171193238826626,0.1,0.09279251098632812,0.13261699676513672,0.04977773,1.1778765,21.88446600146131,0.0,0.2963525250376251,0.0,300,0.1452171802520752,0.01510308166612752,0.011300853927320097,29100,22.216577304476967,0.0
97,1.8920342922210693,22.219221442707035,0.0024023973385651222,22.222323491270185,22.216750787485008,0.0,0.16349438502436942,0.1,0.0034089088439941406,0.06013131141662598,0.050050005,0.82711947,21.917941545585883,0.0,0.29636817766273366,0.0,300,0.12149930000305176,0.01815771306270642,0.016483844567464833,29400,22.216604253874518,0.0
98,1.7037034034729004,22.22611176333219,0.014979081996733581,22.252051590432806,22.21707659005422,0.0,0.15181224765638165,0.1,0.09387803077697754,0.1087498664855957,0.049786154,0.9869323,21.948758567360517,0.0,0.296461114779378,0.0,300,0.027120113372802734,0.008590448778193836,0.008541556625938206,29700,22.216621533774234,0.0
99,1.6821930408477783,22.22126329380111,0.003169382637396111,22.225896968052478,22.21695831411593,0.0,0.16275243207782106,0.1,0.005558013916015625,0.06608104705810547,0.049747065,1.0187296,21.976009040004577,0.0,0.29639662164360603,0.0,300,0.04092121124267578,0.014295758055455873,0.013905596876689673,30000,22.216579635729385,0.0
100,1.7159242630004883,22.217828062906406,0.0014236939787635248,22.220275181739332,22.2167597003672,0.0,0.16175438110853965,0.1,0.0032203197479248047,0.06152486801147461,0.050082695,1.5195426,22.00019094229476,0.0,0.29635080760581783,0.0,300,0.03484916687011719,0.01906910735870224,0.015549471742383306,30300,22.216527437379046,0.0
101,1.710972547531128,22.219655375164695,0.003749618737234859,22.226107843793745,22.217050903399322,0.0,0.15962041271382835,0.1,0.0035552978515625,0.06103968620300293,0.050047606,1.1251141,22.022137385581757,0.0,0.2963732363932374,0.0,300,0.04320716857910156,0.016505877540269727,0.016434550062533863,30600,22.216531590560724,0.0
102,1.8283805847167969,22.219129248866444,0.002480067724683205,22.223186243291185,22.216850230908676,0.0,0.1645018975446803,0.1,0.003461599349975586,0.08147764205932617,0.049858723,0.48793283,22.041836571910228,0.0,0.29636837114809567,0.0,300,0.01927638053894043,0.029763439052102793,0.02257224975256113,30900,22.216486739453966,0.0
103,1.6922366619110107,22.2188771271678,0.0011455493333603392,22.220170768959356,22.217293516882215,0.0,0.16547703214391132,0.1,0.0031280517578125,0.06142568588256836,0.04998786,1.4214451,22.059540627435982,0.0,0.2963649148509576,0.0,300,0.024455547332763672,0.022733722482513423,0.02222247298071773,31200,22.21648934968306,0.0
104,1.7706630229949951,22.218464850726797,0.0022214117318499413,22.22228194170512,22.216761180547444,0.0,0.17442482464199824,0.1,0.003064870834350586,0.06127786636352539,0.050297342,0.7938546,22.075433049765063,0.0,0.2963581012917914,0.0,300,0.019185781478881836,0.009718608567600488,0.007616494230728553,31500,22.21645504702116,0.0
105,1.712289571762085,22.220050120148294,0.002012421769682853,22.221517002649197,22.21659492875594,0.0,0.16705990712015628,0.1,0.003583192825317383,0.06434178352355957,0.04938775,0.8954713,22.089894756803385,0.0,0.2963802828187758,0.0,300,0.05996561050415039,0.006318950532708687,0.006227500055487456,31800,22.2165254177448,0.0
106,1.8909473419189453,22.218360404637288,0.0010363275150649751,22.219537361550383,22.21719046928103,0.0,0.16863182930958065,0.1,0.0036847591400146484,0.06186366081237793,0.05068481,0.6076202,22.102741321586777,0.0,0.2963572938564557,0.0,300,0.056409358978271484,0.022455467666110594,0.021205861857444292,32100,22.216553902943804,0.0
107,1.6931121349334717,22.217981942171903,0.001418380800502364,22.220304008015685,22.216683822755563,0.0,0.17882726522227776,0.1,0.09593868255615234,0.31416940689086914,0.049470235,0.64733326,22.11426538364529,0.0,0.2963525549650856,0.0,300,0.01970672607421875,0.020973786375109445,0.01951981264926669,32400,22.21653729306073,0.0
108,1.835080623626709,22.24728231894393,0.05030506211943603,22.334391478487714,22.216844579101924,0.0,0.1732308816356684,0.1,0.0030546188354492188,0.08146405220031738,0.05041181,0.7322899,22.127567077175154,0.0,0.2967425779021835,0.0,300,0.02991938591003418,0.009554306756198755,0.00902020620299656,32700,22.216772655967016,0.0
109,1.8393206596374512,22.22782467152839,0.012084370960616991,22.248289222947438,22.21805479895267,0.0,0.16558287553584633,0.1,0.08599281311035156,0.45351648330688477,0.05074734,0.9661484,22.13759283661048,0.0,0.29648198384385854,0.0,300,0.030199527740478516,0.031817248574187745,0.015888232000392685,33000,22.21655654644886,0.0
110,1.6406834125518799,22.222773933206156,0.007170041876102818,22.234509596772348,22.216732458019273,0.0,0.16626530085563423,0.1,0.0033006668090820312,0.05925178527832031,0.049608525,1.1658055,22.14611094627005,0.0,0.2964167771532359,0.0,300,0.0752878189086914,0.008985787220636548,0.01100083033613829,33300,22.216500307506077,0.0
111,1.658722162246704,22.22324904026175,0.007098444006943925,22.23511343867355,22.217592852869846,0.0,0.16263847782514976,0.1,0.04466104507446289,0.06402707099914551,0.04971335,0.7112378,22.15382475566922,0.0,0.29642302312858054,0.0,300,0.049843549728393555,0.011588369832123606,0.011010416997288854,33600,22.21668074091094,0.0
112,1.843536615371704,22.218174292761802,0.0010993481636239941,22.219706624041006,22.216801173886545,0.0,0.16673424532781514,0.1,0.09317207336425781,0.8218457698822021,0.049428143,0.89578706,22.160259709378476,0.0,0.29635550282905454,0.0,300,0.12560725212097168,0.014825198211177408,0.013289052863987126,33900,22.216524222951197,0.0
113,1.8153221607208252,22.21836493597725,0.0009593352569344887,22.21965519246548,22.216986226103973,0.0,0.17921432189675393,0.1,0.0033674240112304688,0.05736184120178223,0.049453538,0.73226196,22.166070232038354,0.0,0.2963582191421237,0.0,300,0.020893096923828125,0.020119197009238293,0.019573150855746478,34200,22.216520462341617,0.0
114,1.8261642456054688,22.21897940492952,0.002001873514296297,22.221066221707442,22.216828026212575,0.0,0.16772361085081786,0.1,0.09514117240905762,0.3577878475189209,0.050207604,0.9423223,22.17136114932747,0.0,0.2963656847635757,0.0,300,0.03737759590148926,0.013856027643089538,0.01322563032395661,34500,22.216481617192247,0.0
