iteration,time_sampling,stoc_pol_mean,stoc_pol_std,stoc_pol_max,stoc_pol_min,rollout_success,alpha,delta,time_vpg,time_npg,kl_dist,surr_improvement,running_score,rwd_sparse,rwd_dense,success_percentage,num_samples,time_VF,VF_error_before,VF_error_after,env_samples,eval_score,eval_success
0,1.7256791591644287,-17.254846699617612,3.1236186651885136,-10.032785465331681,-25.11661161966103,0.0,0.47798703431041933,0.1,0.04259228706359863,0.12224626541137695,0.051948633,0.21030334,-17.254846699617612,-0.22973860999307938,-0.324120312528365,0.0,2100,0.1876201629638672,0.9994999640673946,0.1438820483615327,2100,-9.286067838625314,0.0
1,1.5829482078552246,-15.845283955348222,3.1482204116083854,-9.892940602667535,-24.80517918390217,0.0,0.7083101038244864,0.1,0.005532979965209961,0.11996269226074219,0.051807098,0.14672233,-17.113890425190675,-0.19206481105497286,-0.29577937077759375,0.0,1979,0.1732935905456543,0.12988286501477858,0.09824458140017707,4079,-8.201367349841853,0.0
2,1.6233203411102295,-14.996170329220034,2.7664315095776177,-8.835075642335305,-21.681876362826404,0.0,0.7344616783233676,0.1,0.005844593048095703,0.12253355979919434,0.049109004,0.1396298,-16.902118415593613,-0.16721877477422295,-0.27913256129361413,0.0,1923,0.1768341064453125,0.09161621141121076,0.06361277998521352,6002,-8.000925363236675,0.0
3,1.6496045589447021,-14.533391085600437,2.5249872941384086,-9.360794705183318,-20.875021348332393,0.0,0.7450430285304825,0.1,0.005453586578369141,0.12070298194885254,0.051079664,0.13392486,-16.665245682594296,-0.15244328660400544,-0.26981301843340555,0.0,1900,0.1690995693206787,0.06000265027222,0.04067590257998114,7902,-5.880901202442091,0.0
4,1.5760536193847656,-13.613470995175822,2.274958174465629,-8.360156970885956,-19.606735390427154,0.0,0.7397993798958183,0.1,0.00545191764831543,0.11768579483032227,0.051655818,0.13577515,-16.36006821385245,-0.1248484653646782,-0.2517629147798192,0.0,1823,0.16134953498840332,0.03871285115265478,0.03160771607948339,9725,-4.620231783398538,0.0
5,1.5450177192687988,-12.732204168468726,2.6060527039348047,-8.223834708180963,-21.823135103173307,0.0,0.6694071711035027,0.1,0.005549192428588867,0.11668276786804199,0.05024305,0.14241229,-15.997281809314078,-0.09446417206109674,-0.2342546939169133,0.0,1749,0.15981531143188477,0.05248335525902034,0.045007309165224996,11474,-3.7098247337950205,0.0
6,1.5032787322998047,-11.266823029385447,1.9704793804009741,-6.90026945576297,-16.93602436990988,0.0,0.6827617858023235,0.1,0.0061681270599365234,0.1255967617034912,0.053682394,0.14566813,-15.524235931321215,-0.04311603234454315,-0.20535330892410342,0.0,1631,0.1445014476776123,0.04880713816519238,0.031093069712350714,13105,-3.695598460456837,0.0
7,1.4928641319274902,-10.79482168327607,2.012616475609543,-7.584675826362742,-16.32808503219429,0.0,0.6484289121523045,0.1,0.005730628967285156,0.12281036376953125,0.05200362,0.1570204,-15.051294506516701,-0.01773322458865099,-0.19617573322750093,0.0,1602,0.1426067352294922,0.03600976672196691,0.03396980391302641,14707,-3.7692977661263445,0.0
8,1.5063815116882324,-9.61782563297974,1.5375239881059997,-6.714227287486521,-15.351429416817478,0.0,0.619755476452525,0.1,0.005428314208984375,0.11973786354064941,0.052844655,0.15454862,-14.507947619163005,0.027003289766880618,-0.17287790003927359,0.0,1482,0.13173675537109375,0.03455704763164715,0.023156690400360534,16189,-3.5976184075534787,0.0
9,1.4705028533935547,-9.071591700854823,1.4723936146526535,-6.657288657537752,-15.329078315124377,0.0,0.655788070283482,0.1,0.007287740707397461,0.15531587600708008,0.051698092,0.1499881,-13.964312027332186,0.05487451573466202,-0.1618278021144756,0.0,1440,0.17712068557739258,0.025815742914395205,0.02367662688607645,17629,-3.731982960189508,0.0
10,1.4368674755096436,-8.618505604911727,1.3117779291065026,-6.230744803270534,-13.271149367524817,0.0,0.6102639390343287,0.1,0.005506753921508789,0.11872243881225586,0.05217771,0.15307824,-13.42973138509014,0.07504061664215594,-0.15313452778113523,0.0,1394,0.12249088287353516,0.022124129016029687,0.02000215304709946,19023,-3.75857212046001,0.0
11,1.4509975910186768,-7.922743672546125,0.8510970947428504,-6.0665160561325155,-10.082548132589165,0.0,0.5980207605871339,0.1,0.0055010318756103516,0.11577081680297852,0.05167506,0.16437356,-12.87903261383574,0.10520601035703654,-0.13960381327723284,0.0,1313,0.11456131935119629,0.018801704627458622,0.010182837958242107,20336,-3.920479945060433,0.0
12,1.4134833812713623,-7.983179628665304,1.115028549306628,-5.427466236241164,-12.346614690813562,0.0,0.6531398374829878,0.1,0.005452394485473633,0.11730098724365234,0.052450083,0.1477579,-12.389447315318696,0.10294569156579787,-0.14077857553995424,0.0,1324,0.11545443534851074,0.01648022698180785,0.015474461709276056,21660,-3.835127186632336,0.0
13,1.377016305923462,-7.367398794422956,0.9562315535756514,-5.901649651889673,-11.080295253916224,0.0,0.585776915287569,0.1,0.005210161209106445,0.11402034759521484,0.052123547,0.15697907,-11.887242463229121,0.13556012853746915,-0.12852728034635455,0.0,1260,0.10900568962097168,0.017988174766674338,0.01267635420435019,22920,-3.4919061789361345,0.0
14,1.3540997505187988,-6.9875623867104215,0.7018304496855083,-5.602132151550355,-9.210736412407618,0.0,0.5886232001188517,0.1,0.005385160446166992,0.1167294979095459,0.052363902,0.1680641,-11.397274455577252,0.15552818492707768,-0.1213471842249319,0.0,1235,0.10917425155639648,0.009466924098612476,0.0073142765098383414,24155,-3.674146140873044,0.0
15,1.34549880027771,-6.7106665974444,0.5870649472514577,-5.707112786835347,-9.412087338941213,0.0,0.5939323045116467,0.1,0.005218505859375,0.11716246604919434,0.05153509,0.1598691,-10.928613669763967,0.1707041997339549,-0.11596963691370817,0.0,1191,0.10318303108215332,0.006561857465538829,0.005555287889983034,25346,-3.554370100494234,0.0
16,1.3839986324310303,-6.572983449401996,0.6470293805755446,-5.409823780106909,-9.039668334118264,0.0,0.5643329063656823,0.1,0.005175113677978516,0.11196494102478027,0.051065803,0.16887532,-10.49305064772777,0.17657716959258085,-0.11333989786380953,0.0,1192,0.1026296615600586,0.006911692550288436,0.0063016062843737584,26538,-3.460071438006712,0.0
17,1.336571455001831,-6.325263397149141,0.5321349143485474,-5.298297115527712,-8.230934952643445,0.0,0.6167535429288881,0.1,0.005480527877807617,0.12097716331481934,0.051400527,0.15074308,-10.076271922669909,0.191841504914217,-0.1085809889902346,0.0,1171,0.1032555103302002,0.005230340825094423,0.0044778737941873915,27709,-3.4435366570812374,0.0
18,1.3554716110229492,-6.122913241258284,0.4847576297433807,-5.069996746836489,-7.772909372008465,0.0,0.5599872065541439,0.1,0.028354167938232422,0.11107611656188965,0.05226463,0.18742265,-9.680936054528747,0.20361294755832438,-0.10456133671796697,0.0,1161,0.10627579689025879,0.004596315959452175,0.0038305471621347697,28870,-3.151587491578504,0.0
19,1.3760566711425781,-5.961429058321722,0.40728258031451686,-5.187214888669314,-7.080378424829659,0.0,0.6121049000996486,0.1,0.029177188873291016,0.11994481086730957,0.051749956,0.16940187,-9.308985354908044,0.21256197580755987,-0.10130413054204546,0.0,1133,0.0972135066986084,0.0034449145153655305,0.00320581594592194,30003,-3.2574308621715105,0.0
20,1.357034683227539,-5.782683372119339,0.4064075160688853,-4.850454119665907,-7.252625905509172,0.0,0.5673427322959912,0.1,0.0052988529205322266,0.11637067794799805,0.051642157,0.17919117,-8.956355156629174,0.2210930914746716,-0.09800391186578546,0.0,1123,0.09920859336853027,0.003212232533791512,0.002887077560674702,31126,-3.01063006657149,0.0
21,1.3570148944854736,-5.697983360274246,0.36875293926724984,-4.975629525455375,-6.596546152272223,0.0,0.625820214933711,0.1,0.0067217350006103516,0.14605140686035156,0.04745164,0.15803772,-8.630517976993682,0.2257931811172352,-0.09632584882824353,0.0,1116,0.13686203956604004,0.003133813969350061,0.0029285625470465604,32242,-2.923225352168406,0.0
22,1.3514864444732666,-5.467925182583372,0.3385671936638152,-4.720552689388798,-6.39255259640273,0.0,0.5798809966682887,0.1,0.00520634651184082,0.11205124855041504,0.04928885,0.16522247,-8.314258697552651,0.2406408497647606,-0.09182028393611137,0.0,1108,0.09829163551330566,0.003799993537326009,0.0028704070910214787,33350,-2.7958254926306205,0.0
23,1.3756663799285889,-5.3830997941222565,0.38488561795283044,-4.195514558929217,-6.284331684053338,0.0,0.6111382891671696,0.1,0.0052111148834228516,0.11478447914123535,0.04588015,0.15445241,-8.021142807209612,0.24506176296976745,-0.09010134134479224,0.0,1119,0.0999600887298584,0.003907889293057077,0.0036109624491021054,34469,-2.776848194420166,0.0
24,1.3427977561950684,-5.305937255557969,0.3835898399871187,-4.377737493794072,-6.698309994912995,0.0,0.5930787550650704,0.1,0.0051724910736083984,0.12095785140991211,0.04435534,0.15302467,-7.749622252044448,0.2498999860738549,-0.08860114385588387,0.0,1111,0.09978508949279785,0.0034965630282432344,0.0032934054568907467,35580,-2.7239937732396338,0.0
25,1.3694641590118408,-5.110526009315115,0.3529939455215123,-3.954204211625244,-5.811969602727439,0.0,0.5941238685542793,0.1,0.0053746700286865234,0.11371088027954102,0.045963954,0.1690706,-7.485712627771514,0.26281225264260905,-0.08487492551423353,0.0,1106,0.09993886947631836,0.0038000087840796572,0.00325628461621295,36686,-2.6358280193629176,0.0
26,1.3737993240356445,-5.075753345963584,0.4578508546517633,-4.263751307782124,-6.787218991626366,0.0,0.5778673436340175,0.1,0.005347251892089844,0.12000441551208496,0.047254506,0.16046515,-7.244716699590722,0.2638888705357459,-0.0839460546406517,0.0,1130,0.10266423225402832,0.005571299106463729,0.00523524524217831,37816,-2.589924167672738,0.0
27,1.3782901763916016,-4.923432983731053,0.32113046376314924,-4.094867343389237,-5.866781742617219,0.0,0.6096730787865127,0.1,0.0052640438079833984,0.11702442169189453,0.047486193,0.1535946,-7.012588328004755,0.2727576622111832,-0.08119953023821251,0.0,1124,0.10178422927856445,0.004049305732779956,0.0034430485877381253,38940,-2.5884880716727903,0.0
28,1.3765037059783936,-4.966346776222335,0.4573551283763505,-3.8913280841331863,-7.5407877272175,0.0,0.6502637163300324,0.1,0.005250453948974609,0.11466550827026367,0.042973958,0.12468668,-6.807964172826513,0.26873041584319707,-0.08201676680493632,0.0,1143,0.10336160659790039,0.006207166855778849,0.00582146611432705,40083,-2.453466759439579,0.0
29,1.3687214851379395,-4.800779021495258,0.38096106147469877,-4.057996624436328,-5.886741574024772,0.0,0.6042931197491602,0.1,0.005089759826660156,0.11156272888183594,0.04820832,0.16518784,-6.6072456576933885,0.27980442840260594,-0.07883155518888041,0.0,1136,0.0975494384765625,0.00521868313769997,0.004254691001340451,41219,-2.4709244909617674,0.0
30,1.3741734027862549,-4.636661191447062,0.35914226284298023,-3.232485671060708,-5.3382231716640955,0.0,0.6123495285171296,0.1,0.005162477493286133,0.11041116714477539,0.045112368,0.17601848,-6.410187211068756,0.2861013325627403,-0.07573300732686805,0.0,1136,0.09708094596862793,0.0041837717899555656,0.003858704463395081,42355,-2.1282000955109805,0.0
31,1.3686091899871826,-4.577190382596645,0.3808364306121929,-2.917697890693475,-5.574490440669881,0.0,0.6753951962625161,0.1,0.005629301071166992,0.1128849983215332,0.048171367,0.15253119,-6.226887528221545,0.28895378118804577,-0.07448337063976175,0.0,1160,0.10502219200134277,0.005011622259535278,0.004814374509322468,43515,-2.053651852418421,0.0
32,1.4840357303619385,-4.420887905359745,0.42947634794322004,-2.8893281516819704,-5.808666695514415,0.0,0.6539611403555776,0.1,0.005215883255004883,0.1121060848236084,0.049212676,0.15899965,-6.046287565935366,0.2980478740798483,-0.07129112005250034,0.0,1146,0.10122561454772949,0.006939869578567326,0.006402418415581787,44661,-1.9108550420579755,0.0
33,1.4121081829071045,-4.439999265387297,0.38927414362303886,-3.259493636638077,-5.377619488950834,0.0,0.679006804752033,0.1,0.005369901657104492,0.11569499969482422,0.047902673,0.13629052,-5.885658735880559,0.29499508831855953,-0.07174916051797545,0.0,1175,0.11449098587036133,0.005331945741797268,0.005209929027337024,45836,-1.8706372342307116,0.0
34,1.3832497596740723,-4.183332835021086,0.41370040778184936,-2.97704154579218,-4.877065135219574,0.0,0.6622090737635188,0.1,0.005623817443847656,0.11404919624328613,0.047569603,0.15312096,-5.715426145794612,0.3134405494362353,-0.0667276409453602,0.0,1203,0.12048935890197754,0.00860455951553397,0.00655394801526452,47039,-1.5517933198269835,0.0
35,1.6561365127563477,-3.9878390395447547,0.5144827367460163,-2.448882225823257,-5.147814131703477,0.0,0.6866788888524291,0.1,0.0053675174713134766,0.11315679550170898,0.046327416,0.14879148,-5.542667435169626,0.32315478593769137,-0.06282950990505448,0.0,1237,0.13113689422607422,0.011100792770717073,0.00977288403144091,48276,-1.5122733248139166,0.0
36,1.6125807762145996,-3.984966405985707,0.6579057238613492,-2.725290322682814,-7.174490242906098,0.0,0.7120890442218255,0.1,0.00538325309753418,0.12600231170654297,0.049202308,0.12948412,-5.386897332251234,0.32237818392583,-0.06259483299431123,0.0,1264,0.13814854621887207,0.01605886930789602,0.015636622219435584,49540,-1.4776964573370086,0.0
37,1.5215349197387695,-3.7457645187792536,0.8044119741161623,-1.030121360964901,-6.369546146848138,0.0,0.7211740395349623,0.1,0.005281209945678711,0.11424684524536133,0.043796558,0.12662485,-5.222784050904036,0.3353796279062979,-0.058009961649506274,0.0,1316,0.1468515396118164,0.02871191027545199,0.02548551512844995,50856,-1.4008108434350235,0.0
38,1.5037550926208496,-3.497726647346918,0.7074745718961616,-0.9252697004263202,-5.630898908202718,0.0,0.7278688674878924,0.1,0.005374908447265625,0.12247800827026367,0.04927486,0.13583167,-5.050278310548324,0.3490632091914447,-0.05324534780470819,0.0,1307,0.15471673011779785,0.025838290588701733,0.02311908677326305,52163,-0.8437683624866377,0.0
39,1.537607192993164,-3.0545212230378787,0.7577693110731445,-0.9393563211662372,-4.2702263654425945,0.0,0.6954839230171491,0.1,0.02871990203857422,0.11705255508422852,0.046650797,0.14992015,-4.8507026017972805,0.37160677311354307,-0.044347189455389936,0.0,1391,0.17013072967529297,0.03725007996665145,0.029894765095735038,53554,-0.20815864829478503,0.0
40,1.5517807006835938,-2.76107560297328,0.8961151667243006,0.6592252986682237,-6.4852389526737015,0.0,0.7228373578729058,0.1,0.008904218673706055,0.12140822410583496,0.04972746,0.1420368,-4.641739901914881,0.3851675912730442,-0.038558760128067186,0.0,1444,0.1795966625213623,0.05387713896309982,0.04729794578767815,54998,1.071766225303925,0.0
41,1.5681838989257812,-2.4950442130567088,1.0583737717133708,0.9608420499020003,-5.712498771271934,0.0,0.7545652077305326,0.1,0.005609035491943359,0.12305474281311035,0.048112955,0.1344514,-4.427070333029064,0.39801521727824757,-0.03318738131898008,0.0,1494,0.19090986251831055,0.07473544180913758,0.06492617420641561,56492,2.8391340210723284,0.0
42,1.625406265258789,-1.977244715022019,1.1727151710782449,2.9534873399274915,-5.1958006379313355,0.0,0.6996013819784191,0.1,0.005709648132324219,0.12495303153991699,0.049100082,0.15755059,-4.18208777122836,0.41501244826695416,-0.022990170778976835,0.0,1615,0.21216177940368652,0.11369695336427472,0.10062037457285132,58107,5.545800545359573,0.0
43,1.680271863937378,8.688648102306745,70.71668122295985,512.7775268055315,-4.3852324527125734,2.0833333333333335,0.6018789723850517,0.1,0.005401134490966797,0.11614465713500977,0.048984893,0.4483338,-2.89501418387485,0.4380542068773867,0.1905480069907197,2.0833333333333335,1716,0.21428203582763672,1.0164885114842284,0.9640810802082699,59823,4.285907490075538,0.0
44,1.6215088367462158,4.687542765418645,59.0433912893282,579.9734746962378,-4.914286926210069,1.0416666666666667,0.6418651137063588,0.1,0.006620645523071289,0.15471124649047852,0.048380245,0.31083432,-2.1367584889455005,0.44499276236082075,0.11040641306428804,1.0416666666666667,1705,0.2691915035247803,0.9902886453356452,0.9794150642964419,61528,3.947985941406204,0.0
45,1.7741296291351318,-1.582982562242248,1.2464812842199107,2.8171854894366826,-3.660904620887226,0.0,0.8055502025363471,0.1,0.005545616149902344,0.12221932411193848,0.04833006,0.11824143,-2.081380896275175,0.4362003051339203,-0.015148700341473672,0.0,1650,0.20354771614074707,11.873231937881629,1.830741566451598,63178,4.749398264627919,0.0
46,1.5380489826202393,3.000135661075229,42.8837514155474,420.79876736618206,-6.326661750432186,1.0416666666666667,0.6029064571186747,0.1,0.005367755889892578,0.11536097526550293,0.049521178,0.38058335,-1.5732292405401347,0.44212760222177144,0.07681999716423048,1.0416666666666667,1773,0.22034215927124023,0.9917551765507934,0.9805886219776477,64951,4.172223169574396,0.0
47,1.5712003707885742,5.934047830519269,61.192480487867634,593.981442602589,-7.567343205249862,1.0416666666666667,0.702061548777134,0.1,0.005552530288696289,0.11832380294799805,0.05091285,0.29650712,-0.8225015334341943,0.4512569346567645,0.1351985118919055,1.0416666666666667,1827,0.23667049407958984,0.9799632774651884,0.9524895542410237,66778,2.879879640671497,0.0
48,1.5581090450286865,2.443374691836603,35.628817144625984,349.3163297671967,-4.831034841535082,0.0,0.734940526605793,0.1,0.0055255889892578125,0.11595654487609863,0.04847892,0.28370175,-0.49591391090711456,0.4474310705615096,0.06570097264819967,0.0,1826,0.2417287826538086,1.0664080260655946,0.9855503739709661,68604,3.470537329396878,0.0
49,1.5496397018432617,5.398204826317873,65.27563091526035,641.4571807751511,-4.152579054510177,1.0416666666666667,0.5906910305502868,0.1,0.0355372428894043,0.11514782905578613,0.04710456,0.32680205,0.09349796281538414,0.4475862659035548,0.12444265185976845,1.0416666666666667,1780,0.23267245292663574,0.9755643307182739,0.9505434283103988,70384,5.556572891948726,0.0
50,1.5568742752075195,7.239163189975014,61.034122655210446,534.6683055093671,-8.485040211525636,1.0416666666666667,0.6463401316006863,0.1,0.0066297054290771484,0.14876508712768555,0.04879043,0.35971662,0.8080644855313471,0.44835566550938416,0.1614127413647827,1.0416666666666667,1860,0.31749463081359863,0.9214709801470339,0.8890732731136936,72244,4.256306196912465,0.0
51,1.5964207649230957,10.517418995530784,69.83174651146653,533.4741588400032,-4.591704744437494,2.0833333333333335,0.7748531299457033,0.1,0.005684852600097656,0.12990236282348633,0.050258312,0.19621812,1.778999936531291,0.45326868577997886,0.22716837025747524,2.0833333333333335,1924,0.2697451114654541,0.89844505078765,0.8864550736921064,74168,6.1022731689765335,0.0
52,1.5975277423858643,8.562206377999736,64.93621066176122,563.0505299176283,-3.7479647747952667,1.0416666666666667,0.6628640116201648,0.1,0.0054285526275634766,0.11693000793457031,0.049888548,0.18719292,2.4573205806781355,0.4493775402674151,0.18792670478674092,1.0416666666666667,1830,0.24444150924682617,0.898709057613376,0.8880368099508211,75998,5.343392779653286,0.0
53,1.5804626941680908,-1.2343509421266563,1.5005372359197209,2.8103267929230062,-6.544478322827509,0.0,0.7410145070381572,0.1,0.005770683288574219,0.11768603324890137,0.05010913,0.120679624,2.088153428397656,0.4449480447375098,-0.008022675234647903,0.0,1794,0.24681544303894043,33.760168833104274,2.4839692276357668,77792,4.66412379132027,0.0
54,1.626664161682129,2.9536608959224107,42.16395207404302,413.73789484672267,-3.697106081926508,1.0416666666666667,0.6409322085817103,0.1,0.005674839019775391,0.12320852279663086,0.048077367,0.26887155,2.1747041751501315,0.44488337788173493,0.0758051886906215,1.0416666666666667,1801,0.24409723281860352,0.9116103932921374,0.8732411102917953,79593,5.484793149997065,0.0
55,1.6632847785949707,20.611549726286196,106.29568503730309,643.1467173225304,-7.098258309613692,4.166666666666667,0.8336678801785721,0.1,0.005600929260253906,0.12366080284118652,0.04965515,0.16292334,4.018388730263738,0.44123639204756165,0.4279699180061323,4.166666666666667,1957,0.2678678035736084,0.9093711150671291,0.8667554264815517,81550,14.778575749021236,0.0
56,1.7346217632293701,18.503811619414044,92.4365100259099,592.6778832326823,-5.6473982137746415,2.0833333333333335,0.710730142829457,0.1,0.005451202392578125,0.12021350860595703,0.050031614,0.15676278,5.4669310191787694,0.4612928950085495,0.3867564078227497,2.0833333333333335,2006,0.27971625328063965,0.8422606096906362,0.8310143479783709,83556,14.620007636894183,0.0
57,1.653940200805664,20.825689894231772,94.13206838423397,474.31564212473904,-6.102871962285587,4.166666666666667,0.7048644485006602,0.1,0.00558018684387207,0.1352989673614502,0.05042902,0.17542753,7.00280690668407,0.46063049570163206,0.43323139367429436,4.166666666666667,2005,0.28827571868896484,0.7788853607518018,0.7534524426498898,85561,16.295214789783074,0.0
58,1.6696007251739502,6.17178172586279,45.01442539931977,410.1442910012338,-5.953295866663504,1.0416666666666667,0.6832360775511496,0.1,0.005490779876708984,0.12048935890197754,0.048868928,0.12768207,6.919704388601941,0.46437511844598794,0.13999083365805395,1.0416666666666667,1986,0.2843959331512451,1.3519416584870654,0.8926084216310524,87547,151.63172279807216,0.0
59,1.681734323501587,24.74328181852987,102.40176322868766,532.8803492754076,-6.803799078014647,4.166666666666667,0.7578021156439863,0.1,0.0057659149169921875,0.12213706970214844,0.049252167,0.15981191,8.702062131594735,0.4610322257941319,0.5104086584064115,4.166666666666667,2073,0.28731679916381836,0.8725494017486515,0.7936744237155529,89620,223.45931589212626,0.0
60,1.7185375690460205,25.111472642658175,103.72265898409705,543.2318658911854,-6.001584042469205,4.166666666666667,0.8047023932526626,0.1,0.005536794662475586,0.12039923667907715,0.04799293,0.12760384,10.343003182701079,0.48885420176797806,0.518957751522023,4.166666666666667,2139,0.2971312999725342,0.8750927450240362,0.8498121632003075,91759,405.46623073119855,0.0
61,1.8082499504089355,24.18813848769364,103.71112489514904,582.8267811203058,-3.836658955539156,4.166666666666667,0.8671247324213051,0.1,0.005650997161865234,0.1283421516418457,0.04914985,0.13825159,11.727516713200336,0.49359050041595737,0.5005022328087726,4.166666666666667,2234,0.31040096282958984,0.8503134814175507,0.8425013288929881,93993,466.2830560959883,100.0
62,1.7787082195281982,36.8282158409977,121.81181859224913,614.0080645483963,-6.374725554644524,4.166666666666667,0.779022711380964,0.1,0.005923271179199219,0.1286473274230957,0.050383512,0.14793867,14.237586625980072,0.4813857044823952,0.7533806526406067,4.166666666666667,2203,0.313892126083374,0.7697338050754517,0.7300361047820731,96196,123.95234324329282,0.0
63,1.8545207977294922,30.303746941308656,128.68941037569616,684.431845017839,-8.778998296700543,5.208333333333333,0.807521994794869,0.1,0.005646705627441406,0.12410354614257812,0.048482917,0.13624173,15.84420265751293,0.48108781127201655,0.6231257498674693,5.208333333333333,2237,0.3091392517089844,0.8137679234623285,0.8005486198703518,98433,123.42587088049218,0.0
64,1.8310465812683105,55.15008770413606,149.21245956409325,735.4081543355395,-7.899457248108888,8.333333333333334,0.8775107301920158,0.1,0.005950927734375,0.13035798072814941,0.04882985,0.11723609,19.774791162175244,0.49528309224290307,1.1199449126863472,8.333333333333334,2425,0.3398594856262207,0.7817775814743574,0.744844220275119,100858,70.80555746710769,0.0
65,1.9050967693328857,40.10262329419297,110.95576130847552,533.5996339596942,-9.248380515917926,5.208333333333333,0.8734989613361839,0.1,0.00571441650390625,0.1290755271911621,0.048078846,0.12305747,21.80757437537702,0.5109763750208107,0.8167068954214954,5.208333333333333,2511,0.35251784324645996,0.783274492174446,0.7456597588169087,103369,19.91282293929129,0.0
66,1.906468391418457,69.77103763633689,172.8916343615326,704.0748368541731,-8.086232665091956,11.458333333333334,0.855641133920626,0.1,0.005650997161865234,0.12872314453125,0.049039252,0.11655579,26.603920701473008,0.5241108550150544,1.4138363638551208,11.458333333333334,2520,0.35396814346313477,0.7706292869025093,0.732010331974413,105889,16.709756454831783,0.0
67,1.9694957733154297,79.97419787583762,157.11566357565113,625.1778475201695,-3.6388688904641913,10.416666666666666,0.5158729453894837,0.1,0.00580286979675293,0.1258680820465088,0.017564738,0.046323735,31.94094841890947,0.5439711894060553,1.6153336589928682,10.416666666666666,2762,0.3891613483428955,0.7277843050602344,0.7053487350799785,108651,15.71383698889176,0.0
68,1.951514482498169,51.3757655670714,121.70751703394689,573.157613420606,-14.903730981625301,5.208333333333333,0.9554804020473588,0.1,0.006188154220581055,0.1383976936340332,0.04899823,0.11542431,33.884430133725665,0.49833555457112694,1.0635566128765024,5.208333333333333,2670,0.3767101764678955,0.7700898393639634,0.7386698986790132,111321,25.824359285237566,0.0
69,2.0860676765441895,80.57335004297676,159.89891271133357,658.2776758000927,-4.269338455522674,9.375,0.7724119579260622,0.1,0.005654811859130859,0.12822246551513672,0.045829408,0.09783533,38.55332212465078,0.5623339935897834,1.6251994463643358,9.375,2961,0.4173405170440674,0.7457884760225386,0.7301148940136937,114282,25.02237435338116,0.0
70,2.0456156730651855,113.30188187258769,186.76090668064953,683.4705315148434,-3.851095483998943,14.583333333333334,0.425824260698859,0.1,0.0057713985443115234,0.12747716903686523,0.032464154,0.04881321,46.02817809944447,0.5509920813530226,2.2810858360051776,14.583333333333334,2940,0.4151284694671631,0.7114677933593619,0.6849622935586718,117222,63.99303893559225,0.0
71,2.1634161472320557,120.19393041884042,181.6471584966884,640.4795316721559,-8.14201605213867,15.625,1.048394466672602,0.1,0.005987405776977539,0.1288766860961914,0.04766089,0.10393318,53.444753331384064,0.5798584768985929,2.4196763189260166,15.625,3183,0.4467892646789551,0.6263131111698786,0.6161394867561212,120405,74.09016688945965,0.0
72,2.074103355407715,137.34831062484318,205.43882752766984,795.6122466586248,-8.561690947563282,16.666666666666668,1.040119508282371,0.1,0.005856752395629883,0.13234949111938477,0.045313403,0.095079884,61.83510906072998,0.577139900087753,2.7621376322256617,16.666666666666668,3075,0.4471285343170166,0.6267278604445861,0.6101855505973961,123480,94.39611423118167,0.0
73,2.174715042114258,148.22735260403155,221.53127338041006,866.4894373717866,-4.450766717179044,19.791666666666668,0.9958037142620157,0.1,0.005833148956298828,0.13636541366577148,0.047515064,0.10061347,70.47433341506013,0.5821250409771493,2.9817322598457063,19.791666666666668,3208,0.46360301971435547,0.6167303182735667,0.6090010955210116,126688,94.35622406413526,0.0
74,2.2247018814086914,101.53035733156725,537.1481264600304,773.3547212228035,-4686.015729667325,20.833333333333332,0.9433257305669976,0.1,0.005987405776977539,0.13667607307434082,0.05295237,0.06588871,73.57993580671084,-1.4399798224740046,2.0472105559433333,20.833333333333332,3291,0.47437429428100586,0.982263641885066,0.9655282024361436,129979,94.32297822556674,0.0
75,2.309985637664795,57.217466878295035,1423.926290752335,973.3978605317652,-13618.056170790853,23.958333333333332,0.9737582611770855,0.1,0.005844593048095703,0.13041329383850098,0.04828464,0.05767203,71.94368891386927,0.5803667957416049,4.0239673190559495,23.958333333333332,3475,0.49855542182922363,1.0004919474242753,0.9975640068035404,133454,93.94234313553186,0.0
76,2.245997905731201,158.34122341819582,206.76883929061663,626.028090077259,-6.373236556855751,21.875,0.8884453556719354,0.1,0.006215572357177734,0.1321711540222168,0.04768243,0.08983566,80.58344236430192,0.5843124498905459,3.1806426137225388,21.875,3210,0.457714319229126,0.7383427600398615,0.601939918343031,136664,104.05663909737639,0.0
77,2.4114198684692383,235.69222447029395,232.06743006155872,772.3176431219532,-8.582775531235875,34.375,0.7906496164431861,0.1,0.007147789001464844,0.16396021842956543,0.026153596,0.053461824,96.09432057490113,0.6103842128730618,4.730560220488678,34.375,3561,0.6359972953796387,0.5522761343907673,0.49678956672230934,140225,104.30509536887936,0.0
78,2.3377065658569336,161.549359613297,255.60945271993708,1024.0980051208844,-1120.6076678003337,18.75,0.5748938685084427,0.1,0.006074190139770508,0.13715553283691406,0.049069684,0.07320284,102.63982447874072,0.07493856037275189,3.2478092583617553,18.75,3263,0.45948076248168945,0.7479547928871377,0.7138574260153953,143488,104.34153254924638,0.0
79,2.4274232387542725,252.44279693831663,232.7857003563329,773.2555394941219,-8.265228984638227,34.375,0.4813127258129652,0.1,0.006093025207519531,0.13216328620910645,0.036548235,0.06073895,117.62012172469832,0.6264159421656345,5.063866525818935,34.375,3500,0.49777770042419434,0.516659834528142,0.46211218552681227,146988,112.97252129504,0.0
80,2.5659708976745605,239.81184678661236,246.36329732556155,845.1247874251374,-8.583125182068947,33.333333333333336,0.48889136343742945,0.1,0.005985260009765625,0.13037538528442383,0.03771818,0.0660763,129.83929423088972,0.6005623904179574,4.811904151469637,33.333333333333336,3488,0.4832437038421631,0.5311809715727789,0.5240565434840706,150476,112.93370603525354,0.0
81,2.2841782569885254,205.18206578198814,210.31394431564394,724.143034004496,-2.6859342136856403,27.083333333333332,0.44057637932628924,0.1,0.005712270736694336,0.1287226676940918,0.044052012,0.061828878,137.37357138599958,0.630436473254527,4.120736791923516,27.083333333333332,3469,0.483227014541626,0.5795898964356647,0.5460773823799365,153945,112.9726803925129,0.0
82,2.3054800033569336,237.84097476843309,268.229228562616,1006.3976259345451,-361.1750341225435,35.416666666666664,0.9128170145737943,0.1,0.005944490432739258,0.12877559661865234,0.051290143,0.088806674,147.42031172424294,0.632171858921296,4.933745050092446,35.416666666666664,3562,0.4922053813934326,0.5699143055740779,0.5564362757578329,157507,113.29519000825209,0.0
83,2.3918941020965576,243.49250169789124,243.8497228984668,792.6107623872191,-6.798926610670577,32.291666666666664,0.7050266922108136,0.1,0.005967378616333008,0.13935565948486328,0.044127416,0.081844695,157.02753072160777,0.6081618981960967,4.887022136245533,32.291666666666664,3576,0.5019221305847168,0.5073700138068585,0.5034006656261976,161083,112.81389620664191,0.0
84,2.360942840576172,310.5404637062519,261.7766407633467,1226.8610887778118,-3.072072849019409,43.75,0.6565372340228761,0.1,0.0060994625091552734,0.13439488410949707,0.04769095,0.068864025,172.37882402007222,0.6426205218706299,6.22663682042938,43.75,3620,0.5116770267486572,0.4618185292049206,0.4395039627697829,164703,113.16905630705062,0.0
85,2.2988014221191406,242.80893234232903,234.4928630914344,823.8225529636436,-32.51877700375499,33.333333333333336,0.9230492263136879,0.1,0.00616145133972168,0.1296534538269043,0.05057572,0.09820296,179.4218348522979,0.5750042156230947,4.872344660435696,33.333333333333336,3370,0.4780123233795166,0.5187251335893435,0.474688373956198,168073,123.0830877464316,0.0
86,2.3193676471710205,312.43197484621976,227.0009673324346,771.2754591571527,-3.407537424187759,43.75,0.4431467845198617,0.1,0.00621485710144043,0.1314084529876709,0.025959713,0.055012986,192.72284885169012,0.6041816859788277,6.264596117715581,43.75,3558,0.5045995712280273,0.4245121415399719,0.3950314137027863,171631,123.09840947631844,0.0
87,2.48258638381958,312.47171346698207,230.5657074468203,894.9839318055733,-5.859471313748659,41.666666666666664,0.8482727366687524,0.1,0.0063092708587646484,0.13864445686340332,0.055059016,0.084530495,204.6977353132193,0.6049499891853145,6.27120408291183,41.666666666666664,3577,0.5037336349487305,0.40321944317432434,0.3983698165896295,175208,113.02618350218377,0.0
88,2.439887523651123,312.41689746825983,225.34862024381417,842.5461014539082,-4.600589259368615,44.791666666666664,0.8521275604862181,0.1,0.005963325500488281,0.14303898811340332,0.05087616,0.08607884,215.46965152872338,0.6523979418452425,6.2749707505588335,44.791666666666664,3585,0.5125772953033447,0.3760634840263899,0.3719193360635955,178793,382.8653323353463,0.0
89,2.475903272628784,310.9472470586433,210.48501184718344,846.43380733322,-4.783668197492533,38.541666666666664,0.8549786351154051,0.1,0.005965232849121094,0.14229369163513184,0.045966826,0.08665671,225.01741108171538,0.6467926172133933,6.235856102583864,38.541666666666664,3576,0.5072920322418213,0.3603542195992232,0.354530619145579,182369,323.0730221974429,0.0
90,2.397062063217163,360.4000427025191,244.44848567927303,1226.3863017130632,-5.000702336514478,47.916666666666664,0.8578669399272236,0.1,0.00586390495300293,0.1255497932434082,0.04829041,0.08817827,238.55567424379575,0.6338110193603835,7.22391721040571,47.916666666666664,3524,0.5110955238342285,0.3742227567875357,0.3560283328498317,185893,372.7962967092861,0.0
91,2.5404038429260254,346.2614923199999,236.49413218755643,743.4323854880274,-687.0011457007295,48.958333333333336,0.5103575175027723,0.1,0.0063381195068359375,0.1373577117919922,0.04815245,0.07040827,249.32625605141618,0.22030524866102072,6.944289760624616,48.958333333333336,3403,0.4963219165802002,0.38024759112485995,0.36501003705262186,189296,372.875273536098,0.0
92,2.4214630126953125,378.82956942840354,208.17424362659466,713.8732080100971,-3.0972199826155555,54.166666666666664,0.6597319684184341,0.1,0.006209373474121094,0.1366586685180664,0.05110194,0.09243328,262.2765873891149,0.6227055993390457,7.591242197324586,54.166666666666664,3584,0.5209641456604004,0.3047211226329285,0.2867460452714601,192880,433.02523252678117,100.0
93,2.4101901054382324,410.7790425229978,245.49193931154426,1003.4572598291971,-2.7199488297333745,62.5,0.9165797604849367,0.1,0.005967617034912109,0.13176941871643066,0.049340382,0.09221881,277.1268329025032,0.6736227492717157,8.232446407377099,62.5,3560,0.5225660800933838,0.2893719121787124,0.278835269725291,196440,433.2658519429347,100.0
94,2.377352476119995,466.29060647490746,226.66864384358195,946.3095926490628,-4.041601680437608,73.95833333333333,0.5710682345940535,0.1,0.0061130523681640625,0.13172316551208496,0.04765231,0.07624408,296.04321025974366,0.6602900859298836,9.342946879512462,73.95833333333333,3471,0.5044839382171631,0.24775046028280193,0.23421640515795258,199911,433.23658716200276,100.0
95,2.2819395065307617,274.5143881567363,1013.8895792141975,983.04534225483,-6902.992494022316,63.541666666666664,0.724128345864222,0.1,0.006307840347290039,0.1461033821105957,0.045299396,0.055869244,293.8903280494429,-1.2004558456371053,7.098023828573012,63.541666666666664,3431,0.4965806007385254,0.9820863246330476,0.9467495979594394,203342,372.746138505187,0.0
96,2.4275870323181152,193.38050789394637,2439.518753594584,1174.4498793632335,-23455.908369329907,65.625,0.386519340651178,0.1,0.0059413909912109375,0.1319108009338379,0.03608707,0.0372469,283.83934603389326,-6.703067675759168,3.8837078761895647,65.625,3522,0.5168640613555908,0.9975024924303652,0.9951038029352239,206864,373.1684218264309,0.0
97,2.398437976837158,408.5276371711236,255.1293285628226,1184.8714274204253,-3.315400089131176,58.333333333333336,0.8862282709247811,0.1,0.005968332290649414,0.12941503524780273,0.04781009,0.09369065,296.30817514761634,0.6458387032909173,8.186514292730566,58.333333333333336,3474,0.5000126361846924,0.5457831275517787,0.30868093474775893,210338,482.3080996054208,100.0
98,2.383512496948242,441.8310653616573,222.0450289180979,912.4760917417087,-4.7143477255783885,69.79166666666667,0.8473552179936968,0.1,0.005836963653564453,0.12980127334594727,0.02905725,0.067799754,310.8604641690204,0.6657528999053041,8.852699918343992,69.79166666666667,3499,0.5007462501525879,0.2505135123101343,0.2415579697441068,213837,532.1284213215848,100.0
99,2.3519537448883057,497.774482232411,180.2985655700732,1023.2554355998976,-6.160859852315976,79.16666666666667,0.7315895866804681,0.1,0.0061800479888916016,0.1314222812652588,0.05056956,0.095159285,329.5518659753595,0.6628017135835274,9.97141742155246,79.16666666666667,3440,0.5016100406646729,0.1752798726571222,0.1589658649171682,217277,571.2811017717156,100.0
100,2.451068162918091,489.88621648731595,254.76359898507025,1346.245960546038,-936.5966152128032,82.29166666666667,0.6901219609289994,0.1,0.006073474884033203,0.13248753547668457,0.04531303,0.114451066,345.58530102655516,0.16101915109630646,9.819372430609139,82.29166666666667,3444,0.500474214553833,0.2750119355924519,0.2683334242098466,220721,571.8750208678413,100.0
101,2.333737373352051,450.9789360626067,246.50018737824368,913.0226355107554,-46.343097960781506,69.79166666666667,0.9094578129553299,0.1,0.006131649017333984,0.13789677619934082,0.046090975,0.0870596,356.1246645301603,0.45110633915928827,9.036558008917575,69.79166666666667,3342,0.4999730587005615,0.2459079340084767,0.241695416920654,224063,568.6155228745147,100.0
102,2.3849775791168213,518.6216432585013,238.01241577404795,1456.865504084773,-3.842884905145745,79.16666666666667,0.9674843852285625,0.1,0.006100177764892578,0.12995624542236328,0.04496689,0.09779663,372.37436240299445,0.6224040490529376,10.387457497808816,79.16666666666667,3397,0.4978022575378418,0.2144010218019904,0.20387667489010103,227460,570.8732529243103,100.0
103,2.489361524581909,531.6113414444233,185.32303681783608,1254.672039053126,3.751444472770121,82.29166666666667,0.5947622413102469,0.1,0.006352901458740234,0.14300298690795898,0.038104057,0.07273887,388.29806030713735,0.6640669364820105,10.68362081782351,82.29166666666667,3335,0.4858715534210205,0.15134141447398447,0.1482309708386058,230795,559.5619864358655,100.0
104,2.2973036766052246,422.6012160516893,1480.454934944498,1335.5644615633687,-13762.407322001767,89.58333333333333,0.501142591782352,0.1,0.005765676498413086,0.12668490409851074,0.055647064,0.04316288,391.72837588159257,-3.4367038855740835,8.468604899294185,89.58333333333333,3386,0.48200392723083496,0.9491631887449979,0.9420531184452544,234181,571.3017281088122,100.0
105,2.2761330604553223,521.3949231365854,197.38186720161278,1155.8860062136237,-5.859030396568386,81.25,0.9815044087468485,0.1,0.0059773921966552734,0.1343238353729248,0.05214373,0.10321052,404.69503060709184,0.6837058707276441,10.473579609101284,81.25,3263,0.46729493141174316,0.21481105848400422,0.15406433814617795,237444,569.3300738121156,100.0
106,2.2797720432281494,572.8269117190373,169.9587344594201,1275.4555787678848,5.107885440794668,91.66666666666667,0.9665511858746664,0.1,0.006046295166015625,0.1352691650390625,0.05036672,0.09895223,421.50821871828634,0.7045608033375839,11.473732687625429,91.66666666666667,3279,0.4725966453552246,0.12065000160241629,0.111525877459709,240723,579.6523855447639,100.0
107,2.283655881881714,558.0544187036011,238.93127263222965,1346.1953272277854,-2.56860713733489,84.375,0.9792011172799299,0.1,0.00625920295715332,0.13497662544250488,0.04679075,0.09506355,435.1628387168179,0.692458213737375,11.17802189407787,84.375,3304,0.4773983955383301,0.1816928469954875,0.1800152010014515,244027,579.0237412084196,100.0
108,2.2204055786132812,552.2686661008803,215.4778693744859,1156.6180850457943,-2.5855247123414347,87.5,0.9533157052463702,0.1,0.005907297134399414,0.13368892669677734,0.04797378,0.107352436,446.87342145522416,0.5487870021298266,11.060884686310573,87.5,3155,0.45320773124694824,0.1599964664832058,0.15877060199405996,247182,579.1233902957848,100.0
109,2.2581982612609863,565.7652804955783,231.15796143650402,1497.3615216088147,5.339951958133393,85.41666666666667,0.941859657104046,0.1,0.006608724594116211,0.13973069190979004,0.04637849,0.08641093,458.7626073592596,0.7007726900416892,11.33057642411321,85.41666666666667,3267,0.46172261238098145,0.17463762941773858,0.1732563118518142,250449,579.0670458497244,100.0
110,2.2697787284851074,567.1920588552043,217.22445473629807,1567.4294319517944,4.283366755707364,89.58333333333333,0.8689728270789134,0.1,0.005972623825073242,0.13384747505187988,0.050727945,0.097145,469.6055525088541,0.6836902292824644,11.362968480693764,89.58333333333333,3220,0.45784592628479004,0.1645070745068337,0.16294864161118267,253669,579.7273898233915,100.0
111,2.3469483852386475,571.3622257818754,401.2136622855175,1425.004437475628,-2787.5683676524914,90.625,0.7004745756647061,0.1,0.005873441696166992,0.13322138786315918,0.048399057,0.059845064,479.7812198361562,-0.6181000248480933,11.443553568082914,90.625,3298,0.46349620819091797,0.4069175895613986,0.404892304850889,256967,529.7257975816659,100.0
112,2.25951886177063,608.3412166368153,258.21026535747046,1547.030082152293,-2.1810960065700504,87.5,0.9920480033059035,0.1,0.005930185317993164,0.13933324813842773,0.046239678,0.09730112,492.6372195162221,0.6738591766807306,12.18379114223417,87.5,3232,0.44548845291137695,0.18292461118684367,0.1768204268263248,260199,569.115921777693,100.0
113,2.260233163833618,597.886158292615,255.83118419417588,1315.6156858257814,1.029101824050941,87.5,0.9771769924408945,0.1,0.0061244964599609375,0.13338255882263184,0.04918627,0.10242607,503.16211339386143,0.6288470931151279,11.974061871131715,87.5,3244,0.4479820728302002,0.1788438205272213,0.1772555257492702,263443,569.1388203526628,100.0
114,2.3361141681671143,612.4643293765179,217.66908900868367,1184.054191866418,0.2035563429251921,89.58333333333333,0.9458228318588735,0.1,0.0060541629791259766,0.13791155815124512,0.048056938,0.10080978,514.0923349921271,0.7049500503572069,12.26573035038201,89.58333333333333,3284,0.457566499710083,0.14050560524698158,0.13846962822760597,266727,569.1010250799131,100.0
115,2.2629644870758057,643.990629438641,239.31565214199054,1778.4420795692783,-11.32831044824089,94.79166666666667,0.9149952161970248,0.1,0.0061566829681396484,0.1351609230041504,0.04481054,0.10588294,527.0821644367785,0.5631802845108708,12.896142600125847,94.79166666666667,3198,0.43981170654296875,0.15448626935598195,0.1503109485656381,269925,579.1780476680161,100.0
116,2.201814889907837,580.1093151152301,176.8164816513397,963.7270208842982,2.7115543546025123,92.70833333333333,0.9479970386213783,0.1,0.006021738052368164,0.13295650482177734,0.04469478,0.15227735,532.3848795046237,0.6962969492939619,11.618581218105817,92.70833333333333,3124,0.43430614471435547,0.1225187366510849,0.10962354356451406,273049,569.4996226488962,100.0
117,2.2457685470581055,643.9535164892422,205.0749230644997,1396.7407990863044,5.506379663151183,94.79166666666667,0.9906490745926202,0.1,0.005892515182495117,0.12974834442138672,0.049620673,0.09529776,543.5417432030855,0.6938177401212418,12.896253792627173,94.79166666666667,3228,0.4411470890045166,0.12353336740531011,0.11430532977622518,276277,568.9102376672556,100.0
118,2.3510124683380127,683.2853095710767,168.45607077704474,1144.366845702596,138.9612653029139,97.91666666666667,1.0050450414439949,0.1,0.006184101104736328,0.12981128692626953,0.04796029,0.09920149,557.5160998398846,0.6803443496413714,13.685712131008989,97.91666666666667,3328,0.46010661125183105,0.08639372273906556,0.07738180235586577,279605,568.90826452348,100.0
119,2.4002525806427,632.8440494118298,256.30349686036726,1497.0514093094228,4.285905543717931,89.58333333333333,1.0098349550733488,0.1,0.0062448978424072266,0.13885283470153809,0.041034676,0.09322511,565.0488947970792,0.7093736778494818,12.673411491645403,89.58333333333333,3326,0.43935656547546387,0.18028114800527895,0.17221582389866466,282931,519.5162445575411,100.0
120,2.2875258922576904,637.48583896616,228.88712822210144,1426.330133323286,4.61700081284255,93.75,0.8888450728217087,0.1,0.005909919738769531,0.13304638862609863,0.049769547,0.11314792,572.2925892139873,0.6896949875216002,12.76652594454508,93.75,3214,0.4331202507019043,0.1459740483768075,0.14441603783307716,286145,461.00651818965025,100.0
121,2.3619415760040283,575.113638864764,497.133136120159,1095.998030602703,-3833.838117908179,93.75,0.8056397553711051,0.1,0.005922079086303711,0.13221526145935059,0.048813324,0.055400506,572.574694179065,-0.5522648604364833,11.51916905749338,93.75,3236,0.433976411819458,0.4775911655663112,0.4697631346154466,289381,570.5636107032711,100.0
122,2.29888653755188,590.9174689245688,249.9044802656255,1264.5819290315485,2.529566180644247,86.45833333333333,0.9605556284921094,0.1,0.00643610954284668,0.13640356063842773,0.049748223,0.108352445,574.4089716536154,0.700983454238536,11.83476027961928,86.45833333333333,3246,0.4330112934112549,0.18064516827351873,0.1731873015969229,292627,518.7783649723561,100.0
123,2.3159232139587402,582.2833680425207,413.4069152579317,1296.4105389460876,-3014.4795324781244,93.75,0.7144827948199187,0.1,0.006595611572265625,0.13051605224609375,0.04913503,0.06575349,575.1964112925059,-0.45192217831030973,11.662247561283522,93.75,3211,0.43253254890441895,0.4308819007603504,0.4273512762321005,295838,518.9506873312829,100.0
124,2.2631995677948,640.9849633806688,187.9343771548534,1447.4664183834436,4.914409070473417,95.83333333333333,0.9574181810407613,0.1,0.006036043167114258,0.14351916313171387,0.05018445,0.10951523,581.7752665013222,0.6968214084485412,12.836138603196607,95.83333333333333,3222,0.4365682601928711,0.11332601163992968,0.10255217253939516,299060,519.3876527592512,100.0
125,2.294767141342163,622.2076965053374,189.09015191823983,1195.6176189433218,2.3652641342534197,93.75,0.7496573955012605,0.1,0.006090879440307617,0.13550353050231934,0.043527182,0.08749689,585.8185095017237,0.700476148220854,12.461105458417341,93.75,3313,0.4452331066131592,0.10849559407571438,0.10566988052899405,302373,519.1051414344255,100.0
126,2.2835803031921387,639.7319722691726,193.36491434944287,1144.4444122471807,75.26084075345167,93.75,1.0208862600123645,0.1,0.005870819091796875,0.1299576759338379,0.047279444,0.09319883,591.2098557784686,0.5529802236930992,12.81111075638031,93.75,3240,0.4382052421569824,0.10563327460006267,0.10386167512975253,305613,519.0431716762055,100.0
127,2.346090078353882,628.3496983921084,216.00032904144442,1167.08753084219,-7.60964171600051,93.75,0.9520730868556823,0.1,0.006098747253417969,0.13178467750549316,0.048662215,0.08930203,594.9238400398327,0.5459974909220359,12.597355222078015,93.75,3216,0.43391847610473633,0.12658743463432626,0.12480789046494475,308829,568.4992961369986,100.0
128,2.319845199584961,647.0181417064605,185.7853739891391,1436.050883902956,4.044976142478976,95.83333333333333,0.9941749403099358,0.1,0.0059986114501953125,0.13789892196655273,0.047448337,0.1069637,600.1332702064955,0.6883390779659763,12.956470163243361,95.83333333333333,3206,0.43045687675476074,0.09753088562790262,0.09563847114635884,312035,568.4600853383715,100.0
129,2.438392400741577,666.3528649079584,224.6460974293877,1243.8630749712288,4.597855320608367,94.79166666666667,0.6731613516043266,0.1,0.005942583084106445,0.13256525993347168,0.048582785,0.09221881,606.7552296766418,0.6462015885618763,13.349023728392163,94.79166666666667,3196,0.4341742992401123,0.1268901801786975,0.1230081646221179,315231,568.4510380902859,100.0
130,2.4593422412872314,643.5687658720825,203.4203774229269,1315.5527351864023,10.432156223725016,94.79166666666667,0.9516278427819734,0.1,0.006255626678466797,0.13372159004211426,0.04777319,0.1015698,610.4365832961859,0.6917085931787567,12.888515296973381,94.79166666666667,3302,0.4350624084472656,0.12171920914230933,0.11861749408671729,318533,529.0652300514546,100.0
131,2.399484395980835,630.770072158341,276.46937125260564,1386.4288354284442,3.119175703533429,87.5,1.022023139348119,0.1,0.006114959716796875,0.1330866813659668,0.049560234,0.10448437,612.4699321824014,0.71047081445596,12.635347739137288,87.5,3253,0.4298429489135742,0.19422347211269303,0.18549930999362002,321786,518.986467995171,100.0
132,2.406198263168335,631.9932593058841,283.1675001134678,1265.8251278786386,-1012.348964838514,89.58333333333333,0.6905890444562522,0.1,0.005882740020751953,0.13407111167907715,0.04341596,0.07802782,614.4222648947497,0.1731630221604621,12.656494641449191,89.58333333333333,3330,0.44895029067993164,0.194407099304815,0.1920482615818415,325116,519.0064836731171,100.0
133,2.3484396934509277,669.1510704785289,227.32079363680344,1426.8285690869664,7.241417763018413,95.83333333333333,0.9781173199968026,0.1,0.006016254425048828,0.1342923641204834,0.049150646,0.1037513,619.8951454531276,0.7145165351435526,13.399645201583432,95.83333333333333,3246,0.4270792007446289,0.1306975397953933,0.12345148786634723,328362,579.1078837404215,100.0
134,2.3600969314575195,673.1704681424814,239.755027632841,1497.174919500145,4.243269030626298,95.83333333333333,0.9990041102503043,0.1,0.005929708480834961,0.1314098834991455,0.04891459,0.10552111,625.2226777220629,0.7089088393292952,13.480267374672096,95.83333333333333,3188,0.427243709564209,0.1320629995991273,0.13022427071275058,331550,579.1228075363452,100.0
135,2.520807981491089,627.51295754033,239.97932788167665,1347.326757433391,2.020213396057021,87.5,0.9770519152043977,0.1,0.005964517593383789,0.13589787483215332,0.049348075,0.12486224,625.4517057038896,0.701848895070707,12.566329420794048,87.5,3283,0.44649839401245117,0.16010444244201966,0.14780188622125456,334833,518.268816940971,100.0
136,2.4157731533050537,700.4592814807128,236.0321834287271,1546.8287866459234,3.4176381763361725,93.75,1.0120744508976731,0.1,0.006323099136352539,0.14048433303833008,0.050352637,0.09672517,632.952463281572,0.7278166897972685,14.026561679963685,93.75,3326,0.44655632972717285,0.12724048138554578,0.11262842550143752,338159,529.0886794214973,100.0
137,2.319579601287842,665.1986884773152,244.43520739272063,1244.7378128689516,4.854908239064466,90.625,1.1269948633785694,0.1,0.005991220474243164,0.13485455513000488,0.047817383,0.08900858,636.1770858011464,0.6974680375497299,13.317142370187932,90.625,3267,0.44728732109069824,0.15046121617021418,0.14070205102814823,341426,518.378043594777,100.0
138,2.326284646987915,704.989320020975,222.59635466502954,1517.8286346884765,6.115852647501872,93.75,1.1218212873157747,0.1,0.0074117183685302734,0.1646420955657959,0.049463987,0.092047304,643.0583092231293,0.7169858436336062,14.116064913264582,93.75,3376,0.5636410713195801,0.1163514266280063,0.11115726830618271,344802,519.0139092460496,100.0
139,2.2391510009765625,650.1709102888725,262.9643255665836,1487.3302202624827,4.038178872645932,88.54166666666667,0.973422759720355,0.1,0.0073468685150146484,0.16769099235534668,0.04989578,0.10258641,643.7695693297037,0.7125146666870915,13.021997037116966,88.54166666666667,3262,0.545098066329956,0.17174142023770875,0.16288691406822384,348064,568.4746148652224,100.0
140,2.323920249938965,637.9144007562273,302.95406529088194,1376.9039973319004,4.066438498737861,85.41666666666667,0.9332372246086196,0.1,0.0062334537506103516,0.13641977310180664,0.050462767,0.10898471,643.1840524723561,0.7105260317412331,12.775515573565988,85.41666666666667,3351,0.45548343658447266,0.2188083171673925,0.21391140820820226,351415,518.3986439662101,100.0
141,2.2797136306762695,665.6397190144895,264.18575662713107,1264.6639337530482,3.044844399660449,89.58333333333333,1.017763597920815,0.1,0.006143093109130859,0.13547134399414062,0.04899622,0.11527246,645.4296191265696,0.7203836232774515,13.329316640594188,89.58333333333333,3313,0.4517197608947754,0.15374252342343742,0.14976198128321383,354728,558.3497707180484,100.0
142,2.2665703296661377,651.9402926561369,233.64113475095758,1486.3647866734957,4.363087544898447,93.75,1.0169280998902996,0.1,0.006009101867675781,0.13812637329101562,0.04918896,0.10442557,646.0806864795264,0.7192621325565192,13.054976928539332,93.75,3227,0.4420788288116455,0.12792316552264318,0.12384837679003566,357955,579.0984879026179,100.0
143,2.320962905883789,672.7496253951253,265.81897830122114,1426.6461335247363,4.73020120214068,89.58333333333333,1.1118188236952518,0.1,0.006338357925415039,0.1449882984161377,0.049618974,0.08855467,648.7475803710863,0.7166403335692184,13.471999065985413,89.58333333333333,3353,0.4533557891845703,0.15084813307900963,0.14917397291489728,361308,579.0834541562613,100.0
144,2.2820017337799072,680.9422644277234,276.6159544479561,1496.598332351615,1.9579665918922027,91.66666666666667,0.9913165144755047,0.1,0.006378889083862305,0.13336920738220215,0.047570016,0.11076176,651.9670487767501,0.6861803900226403,13.634135777736574,91.66666666666667,3322,0.4487290382385254,0.1584738726673618,0.1544364995330869,364630,519.5894746870047,100.0
145,2.3368020057678223,689.9691547800252,269.61318165775106,1578.97718574387,2.514785601217458,92.70833333333333,1.0514602124924206,0.1,0.0059642791748046875,0.13400053977966309,0.045383558,0.095607795,655.7672593770776,0.6547803891882177,13.816472562143417,92.70833333333333,3329,0.4624507427215576,0.1496007647826088,0.14723319893108197,367959,519.394770229732,100.0
146,2.3332815170288086,665.3096299236928,334.41113510146283,1657.2549393920951,0.03343484196489843,84.375,1.1022632790244322,0.1,0.005875825881958008,0.13328146934509277,0.04909057,0.088015445,656.7214964317392,0.6946300056340245,13.323901367000465,84.375,3374,0.46717214584350586,0.21678414060555964,0.21201699242668337,371333,520.1756300263419,100.0
147,2.3986432552337646,745.8284653621386,281.62789516544893,1546.845366983614,-12.795601662296349,96.875,0.833948834764208,0.1,0.005840778350830078,0.13301682472229004,0.031522743,0.06775764,665.6321933247791,0.48459919929791856,14.942028308048412,96.875,3409,0.4673426151275635,0.1589805963886552,0.1399956918825886,374742,567.129346031269,100.0
148,2.3663103580474854,737.5506962256137,271.19251544948213,1375.9021308161425,4.851921532821022,94.79166666666667,1.0919994749502107,0.1,0.00613713264465332,0.13953471183776855,0.049955696,0.09117022,672.8240436148626,0.5889874103968801,14.770442851678572,94.79166666666667,3358,0.4697577953338623,0.13336123881458925,0.130372994484256,378100,579.9093948438912,100.0
149,2.441967487335205,695.6403033315943,369.6679278975126,1518.651525672903,3.775690698775918,82.29166666666667,1.1154991856335437,0.1,0.005990266799926758,0.13276267051696777,0.048016727,0.08639409,675.1056695865358,0.7264429196279939,13.928937075634247,82.29166666666667,3516,0.4862942695617676,0.24492523465316768,0.23580326166636265,381616,508.7856260723291,100.0
150,2.4689207077026367,735.1890317663916,283.10089234994746,1778.4096380589715,6.939100059118986,95.83333333333333,1.004522668932279,0.1,0.0062713623046875,0.1332404613494873,0.048388,0.10677261,681.1140058045213,0.6683584762929787,14.720312352554862,95.83333333333333,3412,0.48033928871154785,0.153611111834723,0.1427051048936931,385028,568.3430205037896,100.0
151,2.458584785461426,714.8306564038712,313.8839089839016,1739.2173104302665,6.976220598935785,90.625,1.0324061492954768,0.1,0.00711369514465332,0.16415119171142578,0.049985535,0.09787744,684.4856708644563,0.5157877022115506,14.313066699601388,90.625,3389,0.5791370868682861,0.18137812837198267,0.1757552488497417,388417,567.1968831999313,100.0
152,2.5286824703216553,719.0890919318978,352.2167703610001,1475.8460884858953,5.992175594078015,82.29166666666667,1.1244022996570335,0.1,0.006249427795410156,0.13741683959960938,0.049612958,0.08774953,687.9460129712005,0.732943925402453,14.398227540403342,82.29166666666667,3501,0.4814028739929199,0.20607359230622083,0.20207664169034972,391918,570.9586121193477,100.0
153,2.496595621109009,795.7240853473573,330.1608090565149,1728.6013303920745,6.036527006687467,91.66666666666667,0.895906127801151,0.1,0.005872011184692383,0.1314711570739746,0.041824978,0.08766639,698.7238202088162,0.6330296790071261,15.930750096950803,91.66666666666667,3554,0.5049600601196289,0.17501194018569782,0.1686239079563593,395472,503.2709392749652,100.0
154,2.446061611175537,753.2681831054693,358.7860062019263,1860.869272261841,2.9169100284763516,87.5,1.0509574118752716,0.1,0.006070375442504883,0.13373041152954102,0.04783082,0.09849712,704.1782564984816,0.6956156583231753,15.083620169137198,87.5,3522,0.49360132217407227,0.1933521424313234,0.18880177811176654,398994,570.913836365137,100.0
155,2.6762311458587646,657.1268235312855,897.7485693389691,1568.570043461112,-7116.742727349103,80.20833333333333,0.6598140512535146,0.1,0.006409168243408203,0.1431899070739746,0.046606127,0.045289967,699.473113201762,0.7226771080220061,14.746937285660032,80.20833333333333,3561,0.5065057277679443,0.6609028173072764,0.649307781645943,402555,565.4371100064519,100.0
156,2.6340885162353516,633.8533781262385,406.57259022204937,1660.1164924195587,0.7059178405740179,70.83333333333333,0.7713966857252144,0.1,0.006177186965942383,0.13503241539001465,0.0280384,0.05845844,692.9111396942096,0.7097661655440751,12.69331912148607,70.83333333333333,3504,0.4804351329803467,0.30828640674900776,0.295229690738347,406059,500.77199580729786,100.0
157,2.601548671722412,707.1161142635506,417.78773018559247,1790.2097412448952,3.80780298996583,79.16666666666667,1.069580034890511,0.1,0.006246805191040039,0.1327955722808838,0.049862888,0.10369714,694.3316371511437,0.5816147445880898,14.158816626227818,79.16666666666667,3516,0.4902937412261963,0.2679977962879187,0.2546775670662592,409575,566.2994544101831,100.0
158,2.5488994121551514,707.214678818024,395.03020343831076,1728.684710933845,-503.0443525178466,83.33333333333333,0.9618913412862621,0.1,0.0060732364654541016,0.13328051567077637,0.04876959,0.081495225,695.6199413178317,0.49424778906232625,14.149430869902332,83.33333333333333,3481,0.4851064682006836,0.25626851250730415,0.2535283053689881,413056,571.0498216590801,100.0
159,2.436398506164551,672.2534375434435,359.89784066743937,1490.2878054277096,2.811231295469849,81.25,1.1070306659212448,0.1,0.005975484848022461,0.13361001014709473,0.047811717,0.09313241,693.2832909403928,0.7162635011446893,13.46115821100679,81.25,3452,0.4803311824798584,0.2344748772081381,0.22407957997027725,416508,519.7895248031352,100.0
160,2.6802961826324463,660.9442919686888,365.1548308101706,1387.312649855024,4.0608896015454246,80.20833333333333,0.9265451984057144,0.1,0.005970954895019531,0.13253498077392578,0.046016667,0.077250905,690.0493910432224,0.5788158749861849,13.235439092633696,80.20833333333333,3453,0.4789707660675049,0.2316716441492671,0.2281228912717958,419961,518.7074471422987,100.0
161,2.4541471004486084,766.9942881194032,332.0508866645853,1558.5483213750701,5.1078252664268575,90.625,1.0950230725686634,0.1,0.005968570709228516,0.1340339183807373,0.047114234,0.08911663,697.7438807508404,0.7267110974551101,15.356747351086034,90.625,3553,0.4930233955383301,0.19844017208094408,0.17141100313356336,423514,580.2976362706403,100.0
162,2.4483540058135986,657.7657857617259,373.6323934953661,1496.556538413985,-1469.112773238263,89.58333333333333,0.926577261819107,0.1,0.00606083869934082,0.13058018684387207,0.047009557,0.07962786,693.7460712519289,0.539156721828088,13.621234715943805,89.58333333333333,3420,0.4776921272277832,0.2818301306999535,0.2593482747481446,426934,519.3476549781869,100.0
163,2.3956167697906494,767.2080323212889,288.37184758627984,1508.2325815413897,3.8887302022263466,93.75,1.1327266758521628,0.1,0.005871772766113281,0.13057351112365723,0.046955485,0.086855,701.092267358865,0.73628039005883,15.361015259155494,93.75,3496,0.47382187843322754,0.14226865964800073,0.12626040622589524,430430,519.6746831431002,100.0
164,2.476803779602051,722.9364465049616,342.40384828123575,1730.8765217102464,4.017551358048023,87.5,1.08957125372996,0.1,0.006153583526611328,0.13311123847961426,0.047456414,0.09171169,703.2766852734746,0.6794988340526639,14.47546498577193,87.5,3548,0.48888683319091797,0.19572763109925873,0.18702836732415107,433978,530.2096157624587,100.0
165,2.3013110160827637,724.2650431824956,296.5534357054022,1547.108388315061,6.273134704929695,90.625,1.169189933256237,0.1,0.00613713264465332,0.12848734855651855,0.049809687,0.0930336,705.3755210643767,0.627197277976984,14.499052875276346,90.625,3402,0.4725229740142822,0.15110679250557532,0.14740801738615383,437380,519.6179278586927,100.0
166,2.362062454223633,739.3513647877402,263.90161324708055,1568.8548092204032,5.770432112903338,92.70833333333333,0.828301390817675,0.1,0.006070375442504883,0.13313603401184082,0.04712611,0.070794016,708.7731054367131,0.7296252407916747,14.804184332835126,92.70833333333333,3499,0.4831380844116211,0.12926952694021202,0.12533523604108768,440879,519.5906539420471,100.0
167,2.298356294631958,670.8168594615718,335.32291856151255,1589.386204625002,4.89516753316441,85.41666666666667,1.0087106927028258,0.1,0.0061833858489990234,0.14069318771362305,0.048495155,0.09896797,704.977480839199,0.7210929266162593,13.43294789037501,85.41666666666667,3351,0.4637272357940674,0.21036899961480368,0.1995946508317442,444230,529.7651724727956,100.0
168,2.3624391555786133,715.5707302105162,296.79753864862414,1710.2824696733385,-5.640541056885768,90.625,1.084493497162868,0.1,0.005997419357299805,0.13014602661132812,0.04790502,0.09586095,706.0368057763308,0.7254450903876828,14.327861067452366,90.625,3558,0.5018236637115479,0.16201799565615216,0.15377342142171602,447788,580.3810567832164,100.0
169,2.3724958896636963,741.8667972616237,299.59014575383554,1490.90226468059,4.395528968741953,91.66666666666667,1.0532801013892419,0.1,0.005924701690673828,0.134354829788208,0.048006736,0.10411932,709.6198049248601,0.7217918970949192,14.85411085419255,91.66666666666667,3460,0.4983201026916504,0.1498438504171022,0.14531264571358884,451248,580.266409805183,100.0
170,2.4175291061401367,786.3277095357944,321.1805842814689,1608.3050947609227,4.425574541800904,93.75,1.032252172280004,0.1,0.005817413330078125,0.13012242317199707,0.048854988,0.08948455,717.2905953859536,0.7268846392070415,15.743133616199112,93.75,3532,0.503126859664917,0.15020916726563074,0.14505002812726794,454780,580.3754365634113,100.0
171,2.44695782661438,778.1593523586683,316.9622716605234,1558.4460564931217,75.32957783617262,90.625,1.1254784508446847,0.1,0.0059871673583984375,0.13821935653686523,0.04942361,0.08926144,723.377471083225,0.7371846707746427,15.578657113473286,90.625,3518,0.4972679615020752,0.15111857030396092,0.14775582040200824,458298,580.3981322575466,100.0
172,2.3404016494750977,741.8792129501039,368.8969853322015,1568.4326413492804,3.9019858973907144,86.45833333333333,0.8889829159475118,0.1,0.006317615509033203,0.13483142852783203,0.040953126,0.07571697,725.227645269913,0.5943385069526488,14.8539306818116,86.45833333333333,3529,0.5086793899536133,0.19066680814704923,0.18556756750806333,461827,508.47038574416865,100.0
173,2.41998028755188,757.9430239223051,328.84096060048114,1677.956890252559,6.20604653792999,89.58333333333333,1.088906693255027,0.1,0.005939483642578125,0.1318354606628418,0.049563788,0.09101149,728.4991831351522,0.5829988118630262,15.175011136250232,89.58333333333333,3530,0.5047247409820557,0.1647323123197553,0.16387575298643736,465357,519.7351976422758,100.0
174,2.4780709743499756,749.7982786273459,366.46687070293467,1650.3888505225057,-79.46002601798341,86.45833333333333,1.0748415621075973,0.1,0.005802631378173828,0.13437843322753906,0.04909754,0.0912216,730.6290926843716,0.7347030566878202,15.146716297650935,86.45833333333333,3598,0.49800610542297363,0.18753786213472495,0.1806161095948811,468955,518.9677415946579,100.0
175,2.4457263946533203,764.7908506460782,381.6332762345142,1680.2493005938204,1.904550539246646,84.375,1.0807063879941883,0.1,0.006234169006347656,0.14204740524291992,0.046888094,0.08794118,734.0452684805423,0.7217602155889087,15.310895339799478,84.375,3548,0.5047903060913086,0.1888389164289737,0.1850125182023515,472503,519.8815892579333,100.0
176,2.3898823261260986,728.6048539954458,355.23630928854124,1921.6906135396512,-538.9520933149537,91.66666666666667,0.978510957655445,0.1,0.006139516830444336,0.13332128524780273,0.049157456,0.11637394,733.5012270320327,0.4606679716608717,14.589169316943483,91.66666666666667,3507,0.4868786334991455,0.19860449631982488,0.18806678096045346,476010,519.513575969541,100.0
177,2.436568260192871,750.1169874131255,321.11226763655776,1618.2453745342634,6.332108033022888,89.58333333333333,1.0809259916222367,0.1,0.005841493606567383,0.13451933860778809,0.04746887,0.0921214,735.162803070142,0.733263601890445,15.017496261569505,89.58333333333333,3496,0.49037766456604004,0.16125822922489555,0.15465586942908524,479506,508.67393171859726,100.0
178,2.5969228744506836,830.7021407802393,477.9185409314786,1558.422091753196,-2355.6642573234585,92.70833333333333,0.8516044351544262,0.1,0.006062507629394531,0.13526272773742676,0.046435535,0.063681334,744.7167368411517,-0.0408622605526742,16.63054643643636,92.70833333333333,3656,0.5180118083953857,0.26638122425548316,0.2584290956285532,483162,569.5705626199863,100.0
179,2.595240354537964,829.3438645691517,345.6872436608537,1497.2876116757793,7.554942252378428,90.625,1.14656018297721,0.1,0.006151437759399414,0.14120936393737793,0.047088847,0.08665178,753.1794496139518,0.7200297209245408,16.60671794919905,90.625,3664,0.5155014991760254,0.15030793760220343,0.147387512926028,486826,519.5942001493161,100.0
180,2.606788396835327,833.549977540766,375.8847261413929,1690.8025740817477,4.585944819387659,90.625,1.1368098510902354,0.1,0.0071926116943359375,0.1669909954071045,0.0494306,0.101643816,761.2165024066333,0.7425421583105729,16.69119269825546,90.625,3593,0.6325819492340088,0.16084679504452234,0.15837021464495038,490419,508.85452437956747,100.0
181,2.6343271732330322,853.86163456061,343.19978055338305,1667.4670743225256,6.959703243238399,92.70833333333333,0.9690972057408442,0.1,0.006045341491699219,0.1358201503753662,0.040158417,0.072083786,770.481015622031,0.7436778038751819,17.093456679221955,92.70833333333333,3696,0.5139949321746826,0.14270596315646122,0.13894712908051193,494115,569.7909651053012,100.0
182,2.6131362915039062,833.8181022218943,381.8084791923361,1568.5375876822568,2.523239182192466,88.54166666666667,1.0117656427949075,0.1,0.007299661636352539,0.1658174991607666,0.04622827,0.088653505,776.8147242820173,0.7398077122841266,16.705381773068943,88.54166666666667,3642,0.6310303211212158,0.16860470232021538,0.16490899262559475,497757,519.5859071723025,100.0
183,2.720017671585083,935.1840380122659,402.6978199629196,1860.5817805557524,5.055593611561284,91.66666666666667,1.1151085726986638,0.1,0.0060291290283203125,0.13492608070373535,0.04778768,0.09220744,792.6516556550422,0.7495272840055973,18.730627728411395,91.66666666666667,3765,0.5301108360290527,0.1485597760682655,0.14315586789196125,501522,519.9564784345635,100.0
184,2.4111168384552,818.3524653434497,363.7542125843462,1718.8544773857323,4.967242827080274,89.58333333333333,0.8901400461313199,0.1,0.006125926971435547,0.13479924201965332,0.040927753,0.07619741,795.221736623883,0.7413808650285473,16.387186499612266,89.58333333333333,3561,0.5062193870544434,0.1778778668356805,0.15567837076038926,505083,559.4702161242992,100.0
185,2.4948904514312744,892.9318122091736,394.3036452180296,1600.353663090698,3.6690256676725195,88.54166666666667,0.947808633903296,0.1,0.0061070919036865234,0.13393568992614746,0.04236881,0.084477976,804.9927441824121,0.7493396842485377,17.872767916218038,88.54166666666667,3716,0.534912109375,0.15332043563880937,0.14732298027339402,508799,519.7749732976898,100.0
186,2.463212013244629,841.3532026542006,400.269245746664,1790.4317688210488,4.918612988848378,88.54166666666667,1.0527564742499476,0.1,0.00601959228515625,0.13602852821350098,0.048852153,0.091441475,808.6287900295911,0.7405819853601256,16.84370503872393,88.54166666666667,3655,0.5224332809448242,0.1739549737129456,0.1694785523038343,512454,569.7577475091085,100.0
187,2.5593454837799072,921.2254075783559,396.6647793310922,1761.008087589619,6.7559576022753225,89.58333333333333,1.236684198199545,0.1,0.0059814453125,0.13715577125549316,0.04932431,0.079566166,819.8884517844676,0.7555503258793338,18.42686696278101,89.58333333333333,3778,0.5524427890777588,0.15395729822366355,0.14702012702204892,516232,530.2846839245575,100.0
188,2.5907058715820312,907.6359989610534,415.5781332902861,1800.3273057395127,4.589833683549846,87.5,1.1726027572431073,0.1,0.0061109066009521484,0.14422893524169922,0.049668197,0.08633361,828.6632065021263,0.749175234721247,18.167987822573952,87.5,3849,0.5651707649230957,0.15481602680174056,0.15095337325540245,520081,529.7993541802855,100.0
189,2.537921905517578,881.4301292150349,417.1630043825708,1789.7317584154687,10.204736897135618,87.5,1.1929675342184087,0.1,0.006066322326660156,0.1357107162475586,0.049666096,0.081176504,833.9398987734171,0.7514827739453661,17.641716930665492,87.5,3806,0.5426583290100098,0.17681499831401837,0.17179743507481962,523887,529.7191378735617,100.0
190,2.5745811462402344,831.1269072775943,442.1537002973452,1789.757667411765,4.8127232614726445,82.29166666666667,1.2281549888562417,0.1,0.00681304931640625,0.13540959358215332,0.04810963,0.08019638,833.6585996238348,0.7444672818012243,16.63780203030571,82.29166666666667,3774,0.5558912754058838,0.19406835449591064,0.18499857926585117,527661,520.2132092998752,100.0
191,2.5193533897399902,934.5095675630055,405.38167714812954,1872.0253139232825,4.8414495238966335,92.70833333333333,1.1810388559777116,0.1,0.0069980621337890625,0.14157509803771973,0.048854124,0.08486266,843.743696417752,0.6207863757447306,18.706784315160295,92.70833333333333,3774,0.539142370223999,0.16253151240888633,0.14439169379586805,531435,509.72276514276143,100.0
192,2.591543674468994,903.0743316195353,463.01528530361975,1729.404045373796,-420.4872722455634,85.41666666666667,1.1130652591253885,0.1,0.00664210319519043,0.13902807235717773,0.047307137,0.08843782,849.6767599379303,0.4177591027542307,18.077726360680753,85.41666666666667,3831,0.552361011505127,0.20126975518513235,0.1874895893527382,535266,569.6786028545497,100.0
193,2.568626880645752,859.2654223884164,448.9715314706854,1619.4159408478506,6.821639196033273,81.25,1.1314709366552809,0.1,0.006186246871948242,0.13620352745056152,0.047697634,0.08335829,850.635626182979,0.7523568430741688,17.20674838591645,81.25,3785,0.5344808101654053,0.19096591834504711,0.1865245068629937,539051,530.1584401911542,100.0
194,2.6119582653045654,950.7904337274734,412.7024460334438,1765.934186155695,6.446276013484434,89.58333333333333,1.2483341289567393,0.1,0.0063018798828125,0.13391613960266113,0.047218043,0.076671,860.6511069374285,0.7578007189282946,19.031200310419095,89.58333333333333,3880,0.5500345230102539,0.15956559747198626,0.14411365274877544,542931,579.619832385897,100.0
195,2.5816304683685303,1023.4131007714074,423.50929741905037,1860.7154143635034,6.923295747098858,87.5,1.1905199939970015,0.1,0.006188869476318359,0.13793134689331055,0.04996502,0.087438956,876.9273063208265,0.7471348385362503,20.470656741342903,87.5,3937,0.5574507713317871,0.1366450508978452,0.13367045512606734,546868,580.2059995296734,100.0
196,2.6075026988983154,955.9527998471539,470.177835080456,1760.6727932824995,6.965650869070645,83.33333333333333,1.1880261735367559,0.1,0.006002187728881836,0.13486456871032715,0.048522253,0.07967604,884.8298556734592,0.7572754813889094,19.13428442710878,83.33333333333333,3864,0.5346612930297852,0.17601801428245412,0.16390734915082794,550732,580.2480248578836,100.0
197,2.5745785236358643,1002.2915937753614,395.52632551169177,1675.6065772294025,9.994653768887211,92.70833333333333,1.1906720171297747,0.1,0.006121397018432617,0.1346282958984375,0.04702661,0.076785915,896.5760294836494,0.7594251319331665,20.06182269803462,92.70833333333333,3846,0.5447719097137451,0.11908379127840489,0.11648178098400534,554578,579.5166378205473,100.0
198,2.6540255546569824,1087.8161942627744,434.26115661518526,1810.3218352455344,8.827077026653406,91.66666666666667,1.2105896026228582,0.1,0.0062482357025146484,0.14617919921875,0.04849233,0.08085818,915.700045961562,0.763236137322914,21.77131434496049,91.66666666666667,3966,0.5569610595703125,0.12593878004236253,0.11828343703453788,558544,519.9416557342471,100.0
199,2.7116611003875732,1002.9781847913172,502.8271988481871,1800.601951221517,6.238326910747844,80.20833333333333,1.2131164019147307,0.1,0.006100654602050781,0.13615107536315918,0.04934354,0.07715371,924.4278598445375,0.764515818588539,20.075623342266923,80.20833333333333,3912,0.5432288646697998,0.17806825190908473,0.16948765222933593,562456,580.1824766509527,100.0
200,2.731649875640869,997.9300336822535,444.52768741665585,1811.4298313307334,6.43929997267005,89.58333333333333,1.2125755960734173,0.1,0.005975008010864258,0.13471198081970215,0.04728773,0.079579115,931.778077228309,0.7584658830489873,19.974995892098047,89.58333333333333,3892,0.5380487442016602,0.14877637872404728,0.14426425182538466,566348,530.0304531208396,100.0
201,2.608200788497925,1037.4732613923222,373.53782222303937,1680.4511184564126,5.2856807740068685,95.83333333333333,1.1909647218574666,0.1,0.006159067153930664,0.13573527336120605,0.048589926,0.079062395,942.3475956447104,0.7641868520214207,20.76487740506025,95.83333333333333,3859,0.5460093021392822,0.09871919846154535,0.09631978501443048,570207,580.7131439581567,100.0
202,2.678978443145752,1133.5561527885536,382.68463861487305,1861.783352369465,181.34096516300963,95.83333333333333,1.1553809403793986,0.1,0.006354093551635742,0.13775348663330078,0.05018722,0.08428275,961.4684513590947,0.7640825514665318,22.686471495036955,95.83333333333333,4001,0.5648312568664551,0.10210221050255448,0.0968909214116037,574208,520.0525529786551,100.0
203,2.676142930984497,1075.136318582284,438.8664952585466,1861.0224490420321,5.26846605102219,86.45833333333333,1.2562523798746095,0.1,0.006143093109130859,0.14069604873657227,0.049771238,0.07760021,972.8352380814138,0.7722791063362449,21.51854236620343,86.45833333333333,3965,0.5540502071380615,0.12653675344766635,0.11993248363454907,578173,520.0367706039398,100.0
204,2.662824869155884,1118.1773405157637,406.7552733499524,1798.9934046743626,139.83113640371843,93.75,1.167203601985704,0.1,0.006132602691650391,0.13961100578308105,0.048255827,0.087644964,987.3694483248488,0.7666199314356001,22.518908251411926,93.75,3968,0.5587797164916992,0.11284204941802603,0.10868867261444894,582141,520.8066645271309,100.0
205,2.6876015663146973,1163.7060596802423,439.687500551227,1911.7988548401402,6.667529903256888,91.66666666666667,1.2105077886358677,0.1,0.0062940120697021484,0.14106488227844238,0.04897566,0.08098164,1005.0031094603883,0.7732504727960104,23.27646489410453,91.66666666666667,4017,0.5584118366241455,0.11481648308688937,0.11036538190277363,586158,508.6080140450986,100.0
206,2.6392643451690674,1081.1396947039884,483.1653967040027,1850.2557371950277,3.416624587480679,86.45833333333333,1.2172842298719717,0.1,0.006258249282836914,0.14578509330749512,0.04766937,0.07722403,1012.6167679847483,0.766386854211876,21.638763158620634,86.45833333333333,3957,0.5627486705780029,0.1414517379296445,0.1369289145954251,590115,509.89025553762275,100.0
207,2.5985710620880127,1125.1303730103803,404.19575957760406,1779.408900480082,4.702996224921198,92.70833333333333,1.1936717900549165,0.1,0.00608515739440918,0.13621950149536133,0.048158716,0.0794943,1023.8681284873115,0.7707845065001919,22.518807956303913,92.70833333333333,3958,0.5659403800964355,0.10024559208565668,0.09550420137341255,594073,520.1693734938867,100.0
208,2.6075687408447266,1122.2849981806185,455.5988562674179,1911.0743788749985,5.445507065461302,91.66666666666667,1.1002579857607804,0.1,0.006288290023803711,0.1363511085510254,0.047378425,0.08881676,1033.7098154566422,0.6607681147487411,22.461620953776702,91.66666666666667,3867,0.5536885261535645,0.12348814765810642,0.12147766548186929,597940,520.2977835388732,100.0
209,2.6661036014556885,1110.201533783903,387.7317590538427,1728.623272394864,6.448401380256964,93.75,1.1162306590266875,0.1,0.006602287292480469,0.152815580368042,0.048164707,0.3147598,1041.3589872893683,0.7557108796251989,22.219837613805964,93.75,3943,0.5637009143829346,0.09124813872826333,0.08885213167662313,601883,520.3054728490066,100.0
210,2.690873384475708,1171.5140819706405,354.75121150136346,1791.2933777132741,5.034165369337929,95.83333333333333,1.177320072773871,0.1,0.006131887435913086,0.13783502578735352,0.04995588,0.12671903,1054.3744967574955,0.7242349762494049,23.44655156272314,95.83333333333333,3998,0.5591390132904053,0.07803725464622131,0.0744582923633763,605881,531.1696098634371,100.0
211,2.716662883758545,1161.7227456800395,435.2916282363896,1911.055006081772,59.15519586428124,89.58333333333333,1.1693590065103079,0.1,0.006825685501098633,0.14086580276489258,0.048831936,0.08497942,1065.10932164975,0.7760742359644438,23.25042181937666,89.58333333333333,4034,0.5742387771606445,0.10729937101755577,0.1049457142277876,609915,592.1118674495608,100.0
212,2.7647125720977783,1151.2595883881147,427.81167043542064,1981.6320165264565,8.50694243631886,90.625,1.2601315844477152,0.1,0.00664520263671875,0.14023947715759277,0.04867018,0.07530474,1073.7243483235866,0.7756976751397016,23.041199682716282,90.625,4102,0.5942952632904053,0.10640561981211448,0.10207753737086933,614017,582.7629609988692,100.0
213,2.72426700592041,1212.9230881148349,421.7884492737467,1932.753997742123,16.745482133141575,91.66666666666667,1.1832146342752627,0.1,0.006057262420654297,0.13763952255249023,0.047883518,0.079653025,1087.6442223027113,0.780305962135423,24.274357220731257,91.66666666666667,4114,0.5834982395172119,0.08878301364384489,0.08333329167371675,618131,582.4860791343649,100.0
214,2.7619283199310303,1181.6226770191413,428.9437095422717,1986.5521780247345,29.723340093148742,90.625,1.2616518809885553,0.1,0.006240367889404297,0.14078330993652344,0.048841495,0.07722321,1097.0420677743543,0.7731344531217493,23.634788125435524,90.625,4101,0.5985057353973389,0.10124041234171241,0.09866258753340965,622232,582.4244562290614,100.0
215,2.6587209701538086,1223.9035554818845,383.36785618955463,1800.8945076486066,106.57098019738517,96.875,1.2220967599071666,0.1,0.006194114685058594,0.14136385917663574,0.047961917,0.15681173,1109.7282165451074,0.7777943798508565,24.490786201255958,96.875,4026,0.5741317272186279,0.07585511776293107,0.07409069025192819,626258,642.9387932343519,100.0
216,2.6923959255218506,1170.3239310609463,412.52663251579764,1912.106995964097,12.063147738231775,92.70833333333333,1.281809454647393,0.1,0.006287574768066406,0.13577651977539062,0.0489089,0.07585708,1115.7877879966913,0.7723878258960427,23.40881918176261,92.70833333333333,4027,0.5667502880096436,0.09356399363748902,0.08887749053671369,630285,593.4559368069439,100.0
217,2.7524867057800293,1194.350336862616,415.4461891271863,1860.714284298857,7.593225017515544,93.75,1.27508694790156,0.1,0.006234645843505859,0.13967061042785645,0.04673274,0.0704075,1123.6440428832839,0.6488656145839842,23.902888982322736,93.75,4031,0.5751545429229736,0.09520708489989008,0.09199789113858398,634316,643.3199363047345,100.0
218,2.7877891063690186,1224.8584900360536,382.69277086270205,1859.2697478794187,6.184015812143885,95.83333333333333,1.2482025459435648,0.1,0.006357908248901367,0.13568854331970215,0.043647267,0.06855962,1133.7654875985609,0.743156583064614,24.499730658930662,95.83333333333333,4014,0.5706706047058105,0.07633503019739296,0.07391950038412957,638330,582.6477928404443,100.0
219,2.9331250190734863,1233.9639971636527,426.0936260495985,1921.610004338029,6.314198785648075,94.79166666666667,1.1936892777888977,0.1,0.006324291229248047,0.1423017978668213,0.04970057,0.08690166,1143.78533855507,0.7762188705194312,24.694930571967024,94.79166666666667,4121,0.5818111896514893,0.08850102349388018,0.08636991634356499,642451,643.7049376897186,100.0
220,2.9113423824310303,1198.6341549353738,436.11977803128315,1870.7586002571363,79.09078722020058,92.70833333333333,1.2321120176949827,0.1,0.005853891372680664,0.13341403007507324,0.049429763,0.0718648,1149.2702201931004,0.7756357278298028,23.98859798659494,92.70833333333333,3978,0.5635552406311035,0.10181752106543208,0.09762550126684558,646429,654.4269025388734,100.0
221,2.6967456340789795,1141.5720235943493,504.05131790570505,1911.165789739816,6.891393100876153,85.41666666666667,1.1985477816528614,0.1,0.006155729293823242,0.13493824005126953,0.04500139,0.07870967,1148.5004005332253,0.7703462403431275,22.833701965865345,85.41666666666667,4000,0.5546698570251465,0.1263740643946598,0.11990061031422886,650429,511.19082739785523,100.0
222,2.6427924633026123,1264.493843842902,428.4921253700833,1921.505649974514,7.594400779754565,92.70833333333333,1.211031473256801,0.1,0.006031990051269531,0.13968515396118164,0.048705813,0.077834755,1160.0997448641929,0.7685176600461968,25.305855655771143,92.70833333333333,4017,0.5697708129882812,0.08916388170584998,0.08009052783040153,654446,583.0854431843682,100.0
223,2.657378673553467,1164.7036839045188,449.5846017209099,1987.2893088017956,-1.1391222601543074,89.58333333333333,1.1994707892432106,0.1,0.006136894226074219,0.14076948165893555,0.047759414,0.07367228,1160.5601387682254,0.7677764068611829,23.296408348813177,89.58333333333333,4029,0.566298246383667,0.10240037251877314,0.09478649198625559,658475,664.3705032146612,100.0
224,2.7031586170196533,1255.6285646394551,426.10904077031734,1971.8646310119275,69.97764897071727,91.66666666666667,1.3362454776894914,0.1,0.006235837936401367,0.1403827667236328,0.04806909,0.0712596,1170.0669813553484,0.7762475700907486,25.128478078586483,91.66666666666667,4088,0.5766785144805908,0.09084781805701027,0.08343748110972518,662563,725.0371308126156,100.0
225,2.6675431728363037,1242.069143434795,401.0230443435495,1849.7667313250731,79.4140931242613,93.75,1.3154571878824983,0.1,0.00596165657043457,0.13277196884155273,0.046005517,0.0704163,1177.267197563293,0.7771736769313708,24.85720997774925,93.75,3972,0.5562262535095215,0.08566832778653366,0.08319550126488362,666535,786.0008645898788,100.0
226,2.6994423866271973,1188.9749909454656,446.92066949866,2097.254800598825,7.957841085594255,91.66666666666667,1.0817361398507233,0.1,0.006041049957275391,0.13629150390625,0.048075486,0.18262178,1178.4379769015104,0.7721877031908426,23.781950705563734,91.66666666666667,3972,0.5595095157623291,0.10542262161066666,0.10273690692986147,670507,715.1318948492923,100.0
227,2.670257568359375,1212.5479047356396,439.03071872135473,1910.8017354668846,18.536806017871374,90.625,1.1618689975669043,0.1,0.006463050842285156,0.14705777168273926,0.048221827,0.096121356,1181.8489696849233,0.774655448943658,24.265725421955562,90.625,4032,0.5800371170043945,0.09480858314531417,0.08782321967102581,674539,714.9602060130908,100.0
228,2.684130907058716,1255.2516258245987,383.6752651463989,1911.7307185685133,138.04795564095176,92.70833333333333,1.1978084877894113,0.1,0.006532192230224609,0.13857460021972656,0.048314255,0.08903163,1189.189235298891,0.7759426909797894,25.107252916051063,92.70833333333333,4026,0.5532369613647461,0.07255719844375533,0.07083689473901107,678565,715.1180470984424,100.0
229,2.711578130722046,1216.1422678422796,410.42928915799797,1972.290049331339,119.58445389703289,92.70833333333333,1.2812735387719427,0.1,0.006429433822631836,0.13764595985412598,0.046981975,0.07298199,1191.8845385532297,0.7814556249145523,24.338790905672024,92.70833333333333,4041,0.5643815994262695,0.08381195010880155,0.0807391882603288,682606,714.977187991426,100.0
230,2.6874210834503174,1204.5901055191925,410.4037296921838,2032.5222892970694,126.75188564535492,91.66666666666667,1.2952344444469623,0.1,0.00650334358215332,0.1418142318725586,0.04833096,0.07535921,1193.155095249826,0.7802343957845242,24.094249569919644,91.66666666666667,4036,0.5634665489196777,0.08612103644451821,0.08481082142419417,686642,715.1420659311195,100.0
231,2.7647604942321777,1327.104479015279,314.19156582475665,1910.8913767189688,127.0442934007202,98.95833333333333,1.3343444233635937,0.1,0.010423660278320312,0.14348435401916504,0.048787396,0.072127454,1206.5500336263713,0.787353919515092,26.55791885949917,98.95833333333333,4064,0.5762383937835693,0.053785701455778295,0.04495067383070554,690706,715.3859195092031,100.0
232,2.6722524166107178,1260.6310275611197,430.9651233684273,2047.1220622930937,78.10234669784512,95.83333333333333,1.169697552033424,0.1,0.006433963775634766,0.13631939888000488,0.04854901,0.07917645,1211.9581330198462,0.7777208902608356,25.214871636097545,95.83333333333333,4012,0.5494682788848877,0.08847048712703258,0.08473569966515947,694718,725.4990578737217,100.0
233,2.7991490364074707,1318.5923229765979,391.9752550616045,1981.8141646415463,180.04250028372786,94.79166666666667,1.228861928521255,0.1,0.00615692138671875,0.140305757522583,0.048437476,0.076935604,1222.6215520155215,0.7783773526494521,26.374073343410004,94.79166666666667,4136,0.5650632381439209,0.0790241852978653,0.07621650086918912,698854,786.3203272141928,100.0
234,2.8039228916168213,1351.0731716105372,441.23165230384865,2047.6340750547622,56.10307687439393,91.66666666666667,1.2911800230391077,0.1,0.006203889846801758,0.1450953483581543,0.0493573,0.088323146,1235.4667139750231,0.7899471488934529,27.010106910508828,91.66666666666667,4157,0.5774366855621338,0.08356023313073006,0.07815690356612841,703011,715.273722550191,100.0
235,2.9043397903442383,1356.749519171002,418.38632625795725,1972.165424077199,87.93924669307415,94.79166666666667,1.2985031054882477,0.1,0.0061702728271484375,0.1414201259613037,0.04906403,0.07185921,1247.594994494621,0.7881394861216071,27.15079474644742,94.79166666666667,4179,0.571784496307373,0.0702274793901894,0.0689198379132774,707190,775.979443211578,100.0
236,2.832231283187866,1313.3202414094585,406.6040038432438,2097.5110627787626,28.54789796180511,94.79166666666667,1.1446303017919437,0.1,0.006187915802001953,0.14274072647094727,0.048496503,0.08090856,1254.1675191861048,0.7882351069555934,26.282438077668516,94.79166666666667,4139,0.5738837718963623,0.06953619540644772,0.06675032757065096,711329,786.2173304442528,100.0
237,2.9596176147460938,1373.6187145852157,409.0706054785053,1901.2686477979496,51.66187321689786,94.79166666666667,1.3544957622069207,0.1,0.006231546401977539,0.1420915126800537,0.04482333,0.06632118,1266.1126387260158,0.7918147713537408,27.488169629756126,94.79166666666667,4255,0.5870425701141357,0.06762711938673013,0.06537155975501116,715584,725.7665903156982,100.0
238,2.977940320968628,1383.5273252726522,481.4473906031974,2097.1024578966526,50.831372713514185,89.58333333333333,1.3074334150862221,0.1,0.007329463958740234,0.16828489303588867,0.047095202,0.065837815,1277.8541073806796,0.7885361605634517,27.683163111048135,89.58333333333333,4250,0.7246513366699219,0.08664120319169503,0.08734694266549102,719834,776.0943030613521,100.0
239,2.6869864463806152,1349.11895084576,394.5850389541649,1932.5529988661215,170.19606931389995,95.83333333333333,1.341522494455091,0.1,0.007626056671142578,0.1725473403930664,0.049550105,0.070210084,1284.9805917271876,0.7867137068200294,26.99828466245248,95.83333333333333,4153,0.70054030418396,0.07273376131136633,0.06803065085305032,723987,785.8587878270657,100.0
240,2.749986171722412,1392.675788733206,412.4331889792211,2047.0200357208444,112.15964229904387,93.75,1.2125322937775014,0.1,0.00763392448425293,0.17562580108642578,0.045371886,0.07283593,1295.7501114277895,0.7921210773339654,27.852667363701215,93.75,4185,0.7015993595123291,0.07364242345469309,0.07082106462774168,728172,785.7771289616581,100.0
241,2.7780256271362305,1364.1743169956114,400.8544502656034,2032.179104474333,20.7073459356224,94.79166666666667,1.2085502020368855,0.1,0.00662541389465332,0.14401888847351074,0.048989695,0.09849885,1302.5925319845717,0.7857429787778086,27.299146782720424,94.79166666666667,4160,0.5685882568359375,0.06671587313923413,0.06368330142698979,732332,725.8340506328831,100.0
242,2.745418071746826,1374.378321478531,362.71681218915285,2038.0711500637613,160.1582145359646,96.875,1.259727084468736,0.1,0.006018400192260742,0.13393950462341309,0.04649239,0.07207666,1309.7711109339675,0.7915246568826647,27.50332233259014,96.875,4162,0.5546493530273438,0.05922346163849204,0.05475121053449261,736494,775.6561552963007,100.0
243,2.8006348609924316,1452.6112006454625,360.5856479502846,2047.1610141632236,169.3518668426147,96.875,1.2750738578144434,0.1,0.0062868595123291016,0.14464473724365234,0.04934474,0.076204695,1324.0551199051172,0.7248110514963452,29.05349450851003,96.875,4272,0.5685098171234131,0.05179597134724708,0.0500389866896147,740766,786.9969036381407,100.0
244,2.727888822555542,1404.4532255933525,441.8727594792913,2036.892210291635,90.84686784635917,91.66666666666667,1.2148896352910068,0.1,0.006135463714599609,0.13669729232788086,0.049113967,0.07214515,1332.0949304739406,0.7938112280148024,28.09026754162745,91.66666666666667,4232,0.563819408416748,0.07390952838638468,0.0703936769865583,744998,775.9969056664203,100.0
245,2.754817008972168,1406.9170500525859,390.66234689155715,2047.901531125573,168.79444592150207,95.83333333333333,0.9852533790045862,0.1,0.007426023483276367,0.169297456741333,0.046725575,1.2045991,1339.5771424318052,0.7844445005735508,28.154534579043425,95.83333333333333,4241,0.710709810256958,0.06060938327672456,0.057994966943523275,749239,847.5192017278416,100.0
246,2.8207530975341797,1269.8500757731838,1610.4116351014966,1921.9369436819443,-14030.569711235436,95.83333333333333,0.7337841586780193,0.1,0.006227254867553711,0.1474759578704834,0.047865305,0.040858116,1332.604435765943,-3.1137955392223264,25.412865862576094,95.83333333333333,4273,0.5709736347198486,0.7517778894707392,0.7386229647431716,753512,907.6564282667493,100.0
247,2.781907320022583,1465.8282493358354,377.7913975715186,2032.9448541093282,120.30965320332103,94.79166666666667,1.3382125724167266,0.1,0.005910634994506836,0.1377120018005371,0.048747238,0.06633319,1345.9268171229323,0.7996103678841401,29.332329807268636,94.79166666666667,4272,0.5706791877746582,0.10215347784164532,0.05267940531817299,757784,847.28622300627,100.0
248,2.7905867099761963,1464.4895158272273,429.99868718609224,2037.0690751959485,169.2119664618082,93.75,1.1784335292289356,0.1,0.006237506866455078,0.13900375366210938,0.04902152,0.07453095,1357.7830869933618,0.7965859078645717,29.27837655486339,93.75,4241,0.587456226348877,0.06713132189793639,0.06599148137363557,762025,786.535066286493,100.0
249,2.8060576915740967,1443.4147874583887,366.3104778321328,2147.5620547940866,150.6424174855233,97.91666666666667,1.228967089434485,0.1,0.006222724914550781,0.13982272148132324,0.049505856,0.07522164,1366.3462570398647,0.794375833846266,28.884719620478545,97.91666666666667,4266,0.5759561061859131,0.05276422601524401,0.05045021051936575,766291,847.4307564596922,100.0
250,2.776944637298584,1451.2928532928242,383.4458746223631,2032.5933522673056,169.56623900685116,95.83333333333333,1.229407038968489,0.1,0.0059316158294677734,0.13593482971191406,0.048739575,0.075334825,1374.8409166651609,0.7940648277656758,29.04067903654143,95.83333333333333,4243,0.5651466846466064,0.05853069335433326,0.05613462490337554,770534,846.6158987177249,100.0
251,2.8418667316436768,1414.7798397672796,393.27765391558825,2097.371086381685,211.71771328062232,95.83333333333333,1.3399361138809411,0.1,0.0059680938720703125,0.1391279697418213,0.049582724,0.069562405,1378.8348089753729,0.796570617172668,28.311408062524293,95.83333333333333,4231,0.57004714012146,0.06019424688751348,0.058943990086593866,774765,917.6631666860922,100.0
252,2.8994290828704834,1500.279328523814,375.2543142197147,2032.1330017755013,142.0406300330847,95.83333333333333,1.3507124464755675,0.1,0.006175994873046875,0.13712120056152344,0.049613673,0.06739047,1390.979260930217,0.800980515206668,30.021319693042013,95.83333333333333,4288,0.5885889530181885,0.04903802073222153,0.04667938354163296,779053,977.7350830071189,100.0
253,2.784970283508301,1534.0989695867422,315.5431910854648,2097.774007838493,131.15417990147216,98.95833333333333,1.3540209640694583,0.1,0.006312370300292969,0.14935922622680664,0.04896733,0.07185551,1405.2912317958694,0.8028407913840473,30.697676883359275,98.95833333333333,4271,0.585451602935791,0.034888685340975535,0.03251853319342514,783324,978.411916694818,100.0
254,2.7990572452545166,1510.471657790509,385.1988072738959,2093.335905890612,87.27712492315473,94.79166666666667,1.265308316655581,0.1,0.006135463714599609,0.1391894817352295,0.049350597,0.07059263,1415.8092743953334,0.8009592013209907,30.2251705611172,94.79166666666667,4346,0.6017532348632812,0.04609169291101869,0.04488152852012954,787670,1038.5137171917522,100.0
255,2.780824661254883,1524.7214673761916,361.2774987990862,2147.5806440411047,49.20212452395119,97.91666666666667,1.311217433883041,0.1,0.006168365478515625,0.1413278579711914,0.04907046,0.0707297,1426.7004936934193,0.8011895710414022,30.496658435055647,97.91666666666667,4279,0.5824882984161377,0.041962675644908125,0.040874136948762074,791949,1169.4015373663392,100.0
256,2.7166318893432617,1352.972905344508,607.215903289397,2147.156601880492,80.55289576538974,82.29166666666667,1.2368793453882347,0.1,0.0060787200927734375,0.13946318626403809,0.047309626,0.081048705,1419.3277348585282,0.7884470201461914,27.048134254990188,82.29166666666667,4211,0.5792591571807861,0.1494377746889156,0.12414227695613132,796160,1039.2113014261015,100.0
257,2.833379030227661,1579.6563472966052,434.3673592719144,2147.684523447531,148.06553260597565,94.79166666666667,1.2518404058041823,0.1,0.006108999252319336,0.143585205078125,0.049153455,0.07251787,1435.3605961023359,0.8026736695766331,31.60882090272777,94.79166666666667,4396,0.5996203422546387,0.0727008036648817,0.060270387926798265,800556,979.1318487654839,100.0
258,2.818016290664673,1541.8420231122363,450.86666509653276,2097.5148307722943,110.31896687786153,92.70833333333333,1.22764862187554,0.1,0.005987882614135742,0.13989043235778809,0.049013335,0.07508776,1446.0087388033262,0.8009360422689117,30.825569807913613,92.70833333333333,4394,0.5946578979492188,0.06233075189400241,0.06023583442766093,804950,897.9791502172508,100.0
259,2.8513004779815674,1565.7162453139845,404.77663038117106,2097.5352447282708,137.74636474213338,95.83333333333333,1.237774723933529,0.1,0.006360292434692383,0.13978147506713867,0.049417753,0.070340574,1457.979489454392,0.802865762814524,31.33003244788505,95.83333333333333,4379,0.6093428134918213,0.05115496164939032,0.04973058602468642,809329,958.1781846330615,100.0
260,2.873090982437134,1590.1717354597513,392.2416039209896,2097.8164390467555,201.6014594796666,97.91666666666667,1.2478704404879324,0.1,0.006026506423950195,0.1353602409362793,0.049005534,0.0770948,1471.198714054928,0.7184692386492239,31.792077134249297,97.91666666666667,4408,0.5919578075408936,0.047253982076943424,0.04699499572701436,813737,979.1749933895809,100.0
261,2.913423538208008,1568.268487531436,414.08200491268076,2097.7997766710937,134.03692077304376,95.83333333333333,1.275431141708113,0.1,0.006454944610595703,0.14324164390563965,0.0496285,0.07674817,1480.9056914025787,0.8044001227254333,31.366466133018168,95.83333333333333,4425,0.5946807861328125,0.05632988779893692,0.052473862633471736,818162,918.9465457571858,100.0
262,2.835167169570923,1543.0415229005466,397.7593686385368,2098.315786075963,181.8536798621936,96.875,1.2375735037744484,0.1,0.00616455078125,0.14063811302185059,0.050193653,0.07794051,1487.1192745523754,0.803584048220686,30.863077604812606,96.875,4392,0.586235523223877,0.0499890113979538,0.048152990780507714,822554,1110.0303528503728,100.0
263,2.9091246128082275,1637.8941914121804,423.7065577939803,2148.7638779486338,127.89313037048866,94.79166666666667,1.311031496135627,0.1,0.006180763244628906,0.1439368724822998,0.049836446,0.068886116,1502.196766238356,0.8053300002954481,32.7464031482934,94.79166666666667,4474,0.5958259105682373,0.0473622241671948,0.044665109356761344,827028,1170.7830542527654,100.0
264,2.969174385070801,1529.5654412938466,489.48913502893276,2158.2684205598393,162.6537514878097,92.70833333333333,1.236345288794722,0.1,0.0061397552490234375,0.1427624225616455,0.04933574,0.07374718,1504.9336337439051,0.7963649790251385,30.606019381751295,92.70833333333333,4441,0.5910258293151855,0.07662446508040203,0.0716531792614711,831469,1180.758754937255,100.0
265,2.9685921669006348,1597.7183631520347,416.0494402308699,2099.0888455968857,99.88677901733905,95.83333333333333,1.2740800737051727,0.1,0.006242036819458008,0.140336275100708,0.048774567,0.068864316,1514.212106684718,0.8048980259964775,31.91580671572986,95.83333333333333,4459,0.5910239219665527,0.05019004704987111,0.047198272553730165,835928,979.5782669162589,100.0
266,2.9211394786834717,1629.395660590683,361.6217045829088,2097.4014523224796,336.08494412782545,96.875,1.3464744107752118,0.1,0.006380319595336914,0.15093016624450684,0.048040196,0.06635734,1525.7304620753146,0.8080946934441338,32.59018481294775,96.875,4484,0.59425950050354,0.041567505106604154,0.040703391764474926,840412,1291.664904068961,100.0
267,2.9786288738250732,1691.5153556215864,391.49481483834876,2098.2030113864653,170.2045671337607,96.875,1.0562178006144622,0.1,0.006497621536254883,0.13811826705932617,0.04881919,0.2911679,1542.3089514299418,0.8079865329561997,33.80533362136044,96.875,4520,0.6085784435272217,0.046274040526510844,0.04145072837436626,844932,1511.2670116405745,100.0
268,3.0199923515319824,1610.072023128722,484.88642676142393,2147.4209504467485,98.53817182458111,92.70833333333333,1.4011082010098745,0.1,0.006192684173583984,0.14073634147644043,0.04943445,0.06423442,1549.08525859982,0.8053355964095074,32.15052760769993,92.70833333333333,4532,0.600820779800415,0.06523745631928984,0.06259775888440257,849464,1050.3317467211464,100.0
269,3.004645586013794,1661.7747674693558,312.98405230295475,2147.5296770956224,180.54534447415563,98.95833333333333,1.2180113918425726,0.1,0.006120204925537109,0.13660120964050293,0.049130682,0.2097165,1560.3542094867737,0.8088705074760778,33.25084872451012,98.95833333333333,4436,0.5770516395568848,0.032154507262419973,0.027944753458037857,853900,1110.66957578133,100.0
270,3.0915610790252686,1579.8287423072964,382.42261934214525,2098.296499331155,454.418392287868,98.95833333333333,1.160809661896971,0.1,0.00666499137878418,0.14549779891967773,0.050226662,0.08211413,1562.3016627688262,0.8041760717529192,31.59904986586501,98.95833333333333,4423,0.5944468975067139,0.04444385452589395,0.04035965663740235,858323,1561.2348300324268,100.0
271,2.898841619491577,1642.244172991762,406.91591977613433,2148.135249492821,213.53527746975954,95.83333333333333,1.3515944644321605,0.1,0.00610804557800293,0.1427624225616455,0.048629284,0.069421224,1570.2959137911198,0.8080377566164003,32.84385693780015,95.83333333333333,4515,0.594097375869751,0.04828072139500674,0.046932125142567185,862838,1511.2306244554488,100.0
272,2.9347751140594482,1615.5819872982756,435.0351095786358,2146.4084970954286,151.06677513745308,94.79166666666667,1.3274542970533114,0.1,0.006299495697021484,0.1448228359222412,0.04883631,0.06380576,1574.8245211418355,0.8072836490207216,32.2699494092756,94.79166666666667,4526,0.5946199893951416,0.05192319500844513,0.04897710292458026,867364,1170.1611920826974,100.0
273,2.9510440826416016,1702.126638140505,335.1930360065348,2157.79980073276,315.80469663138683,98.95833333333333,1.3301495405371517,0.1,0.006439208984375,0.13523197174072266,0.049438074,0.070959754,1587.5547328417024,0.8105386466482029,34.041629692642864,98.95833333333333,4459,0.5802388191223145,0.04048789027808401,0.033661557095700734,871823,1522.0548098619026,100.0
274,2.9090564250946045,1661.2707162430404,376.1892655349185,2208.3773425698287,629.7542711523116,100.0,1.3263312658723747,0.1,0.0063021183013916016,0.14907526969909668,0.049178995,0.0667785,1594.9263311818363,0.8105285382692838,33.19728502137984,100.0,4512,0.5947451591491699,0.03966597359878663,0.037975149455044266,876335,1522.1370924294886,100.0
275,3.0606110095977783,1750.9039792713827,348.6338736584765,2108.5729218811653,110.52767832074872,98.95833333333333,1.2976826743735708,0.1,0.006521940231323242,0.1548151969909668,0.04804068,0.070133835,1610.524095990791,0.8113446611138139,35.006636024724585,98.95833333333333,4521,0.6020526885986328,0.033638428933067004,0.029114476419776613,880856,1572.2040337348506,100.0
276,2.8815226554870605,1647.0051768832793,408.2513960685901,2158.4934001939623,137.54536736573738,97.91666666666667,1.2384153404576654,0.1,0.0063076019287109375,0.13800787925720215,0.047201876,0.073010005,1614.1722040800398,0.8049725435495234,32.93914033831363,97.91666666666667,4459,0.5909233093261719,0.05295431252137049,0.04548089629422507,885315,1412.0179755964077,100.0
277,2.9085164070129395,1664.678854227548,397.0248251471497,2098.382720763225,100.505967664997,96.875,1.2719731714244882,0.1,0.006540775299072266,0.14696049690246582,0.04730733,0.06509226,1619.2228690947907,0.808785485368622,33.2904865683662,96.875,4496,0.6103603839874268,0.037136585510462686,0.03610912096310709,889811,1231.8336676576705,100.0
278,2.8981387615203857,1639.158441766592,310.25343885794183,2147.906988592848,584.8315564162943,100.0,1.1945652171831527,0.1,0.0077478885650634766,0.17163372039794922,0.048791,0.082429476,1621.216426361971,0.805336648892997,32.795819653090966,100.0,4445,0.7461907863616943,0.032290380136919865,0.028309498180652565,894256,1422.2488595551065,100.0
279,2.998539447784424,1731.7532288443626,459.0798083644199,2148.5968171611034,162.34350717460282,94.79166666666667,1.3304119331529873,0.1,0.0063436031341552734,0.1387183666229248,0.049587175,0.06993544,1632.2701066102102,0.8118042909060792,34.57990430775962,94.79166666666667,4517,0.6092584133148193,0.05147340384317372,0.04717383387571672,898773,1533.1485128000425,100.0
280,2.935952663421631,1644.9648670146591,424.5820731379443,2158.7279163889834,275.6262302227448,96.875,1.2976528394697662,0.1,0.00609898567199707,0.14087533950805664,0.048399903,0.07142484,1633.5395826506551,0.8065563393084375,32.86091354141119,96.875,4508,0.620415210723877,0.055074866409680234,0.051918143257775905,903281,1423.1237872936115,100.0
281,2.9460694789886475,1733.878785230728,376.4259411554361,2158.9730305235794,366.39610785824595,98.95833333333333,1.3566484348003154,0.1,0.0061910152435302734,0.14000177383422852,0.049506392,0.07079777,1643.5735029086622,0.8072939628826403,34.63501946589062,98.95833333333333,4566,0.6204087734222412,0.04454516499118948,0.04161576718050784,907847,1483.1342136513808,100.0
282,2.962338447570801,1684.707640353723,434.36887549424415,2148.6711760153407,142.7843961420866,95.83333333333333,1.2661374038632034,0.1,0.0064258575439453125,0.14229226112365723,0.048663054,0.0688816,1647.6869166531683,0.8056764018027766,33.67960919683731,95.83333333333333,4535,0.6134178638458252,0.0486451573643398,0.04637502959843819,912382,1363.073824967246,100.0
283,3.0280494689941406,1708.6610240696039,379.25702897682663,2148.8178891011294,265.80964448672944,98.95833333333333,0.9787353884587893,0.1,0.006390094757080078,0.14134788513183594,0.028249824,0.38709825,1653.784327394812,0.8074829571603344,34.12134154434213,98.95833333333333,4549,0.6269927024841309,0.042114215028956944,0.03818360088924171,916931,1362.4217416475396,100.0
284,3.146430253982544,1748.3545262851803,425.8222004639518,2157.5999450636605,139.80985590083594,96.875,1.3325460753863163,0.1,0.0063970088958740234,0.14454030990600586,0.048093166,0.06421961,1663.2413472838489,0.8095476080010379,34.91081037822818,96.875,4586,0.6125590801239014,0.047819540390548095,0.04520880062313615,921517,1362.419966712134,100.0
285,3.0552940368652344,1658.8647042375599,484.98508366614055,2157.772442722552,117.48085700570948,94.79166666666667,1.3853607156733048,0.1,0.007947206497192383,0.1737966537475586,0.050195668,0.07260559,1662.80368297922,0.8056701196516874,33.14845382891155,94.79166666666667,4534,0.7512111663818359,0.05940116256809174,0.05639516987375299,926051,1182.8299964429482,100.0
286,3.189143180847168,1665.125191615388,378.6873323539876,2157.2617272383304,158.15045518283745,97.91666666666667,1.3322534801506238,0.1,0.006272554397583008,0.14298725128173828,0.049000468,0.06685903,1663.0358338428368,0.8083615647438386,33.30169144747195,97.91666666666667,4549,0.6094379425048828,0.03973789786931327,0.0378355924779483,930600,1303.091679867577,100.0
287,2.941679000854492,1682.9249837318384,369.3080089864648,2157.697082989894,473.82495416181285,97.91666666666667,1.2437424388584002,0.1,0.0065021514892578125,0.14258670806884766,0.048213065,0.07262552,1665.024748831737,0.8088631017420086,33.657769527430474,97.91666666666667,4588,0.6240105628967285,0.036179547539175,0.03553505224402353,935188,1302.4246903336705,100.0
288,3.019651174545288,1666.3489191636734,457.12496330789855,2157.4352751657025,141.27600893922505,96.875,1.1583754877218086,0.1,0.006207942962646484,0.1402113437652588,0.025502596,0.37041715,1665.157165864931,0.807535353324722,33.30214362353585,96.875,4566,0.6186397075653076,0.052083780341437624,0.04995179885316863,939754,1232.9316987425898,100.0
289,2.968153715133667,1668.4860233156414,407.85249759997816,2159.1421744400604,274.153346498998,97.91666666666667,0.5282629972380444,0.1,0.006335735321044922,0.1407032012939453,0.033243243,3.3251836,1665.490051610002,0.8051500317909278,33.314686210535115,97.91666666666667,4581,0.6075990200042725,0.04833863881336352,0.04580642198443876,944335,1232.2890500740057,100.0
290,2.9999945163726807,1651.4244044463903,439.2735181853279,2158.0659413950375,174.04071244970925,97.91666666666667,1.3099037964922284,0.1,0.0061762332916259766,0.14153409004211426,0.04682892,0.06654629,1664.0834868936408,0.8049767965349789,32.986976746805915,97.91666666666667,4514,0.6105039119720459,0.054479743203199746,0.05242096060215443,948849,1544.0456120146375,100.0
291,2.9473464488983154,1660.424366170161,492.8561485163275,2157.7502405337827,171.48171294487855,91.66666666666667,1.3061445126511662,0.1,0.006154060363769531,0.14304208755493164,0.048274577,0.06631946,1663.717574821293,0.8070789108145874,33.18039452190189,91.66666666666667,4563,0.6083893775939941,0.0582448919347842,0.054832724039200836,953412,1363.1422347485304,100.0
292,2.9221737384796143,1711.546883333298,396.6627179405237,2157.8064980600634,88.93323033958745,97.91666666666667,1.207278397734344,0.1,0.0063512325286865234,0.1430213451385498,0.049598426,0.06911644,1668.5005056724938,0.8072182508561889,34.202863650453246,97.91666666666667,4521,0.6109991073608398,0.042687908363877626,0.03914093320394696,957933,1413.8828168941304,100.0
293,2.9351186752319336,1718.026125555143,399.82458073054374,2148.3936369289677,110.51064408980783,96.875,1.3052230328769234,0.1,0.0063626766204833984,0.14777898788452148,0.049175914,0.0671962,1673.4530676607587,0.8098407936700434,34.3084147529801,96.875,4583,0.6216354370117188,0.04066325850368781,0.03872240575135202,962516,1423.7791621814954,100.0
294,2.9566726684570312,1712.9610140576945,448.09036033501667,2158.6771855439056,183.01345081284572,96.875,1.2264494166441604,0.1,0.006122112274169922,0.13898944854736328,0.04883726,0.07058379,1677.4038623004524,0.8093021792529548,34.22478718404376,96.875,4613,0.6294417381286621,0.04958488136529324,0.04776733227124868,967129,1424.3991866957658,100.0
295,2.9518985748291016,1739.0555816748747,392.4094818368194,2158.3965821628444,163.70536940953582,97.91666666666667,1.238532952549375,0.1,0.006129026412963867,0.14565110206604004,0.050176777,0.07400618,1683.5690342378946,0.8102628362407852,34.75613257629299,97.91666666666667,4578,0.6291930675506592,0.03704639684639727,0.03641069146524876,971707,1232.6175302802903,100.0
296,2.9782168865203857,1743.9861483187312,390.9753330965229,2157.4167181029006,13.959333251905568,97.91666666666667,1.249744080740287,0.1,0.006577491760253906,0.14858698844909668,0.04980852,0.068688534,1689.6107456459783,0.8090887983395785,34.86512989743038,97.91666666666667,4633,0.6550517082214355,0.03329379882970712,0.03263222986116777,976340,1534.5488452506959,100.0
297,2.982687473297119,1767.7621529628232,304.4566590995339,2158.731247409178,485.3589355472156,98.95833333333333,1.2170252763082807,0.1,0.006085395812988281,0.14085125923156738,0.04782065,0.07418075,1697.425886377663,0.8133395659269184,35.33038784610299,98.95833333333333,4584,0.6405472755432129,0.026231090382201144,0.024576340496041956,980924,1704.71153088573,100.0
298,3.001258373260498,1765.155686087134,303.1528798712742,2158.1238721921213,675.843688682805,100.0,1.1770263160294758,0.1,0.006512880325317383,0.1413586139678955,0.04924038,0.10359954,1704.1988663486102,0.8121823977541105,35.28767245806765,100.0,4609,0.6557486057281494,0.022781514371263134,0.021324205245251634,985533,1694.052590180302,100.0
299,3.0617005825042725,1842.8663562912946,316.9475783943141,2206.9111286009343,495.60528941666814,98.95833333333333,1.3326634143480434,0.1,0.007658720016479492,0.17556166648864746,0.04930906,0.07643789,1718.0656153428786,0.8139440947277833,36.83039538382834,98.95833333333333,4631,0.8013019561767578,0.030072165756442445,0.0284465979980726,990164,1804.7129557140117,100.0
300,3.0602474212646484,1813.644439099992,407.90109641984367,2208.994784426527,159.29201906589307,97.91666666666667,1.36694243122347,0.1,0.007468700408935547,0.17264056205749512,0.0483382,0.0636787,1727.62349771859,0.8120245086776028,36.23118343390795,97.91666666666667,4648,0.8037357330322266,0.03903907773518631,0.0360271409237957,994812,1815.3110310178317,100.0
301,3.2282168865203857,1802.8053619289676,411.86566013578243,2158.8800168613657,110.73122601751344,98.95833333333333,1.3322108912563615,0.1,0.0060536861419677734,0.13952326774597168,0.04786238,0.06443747,1735.1416841396278,0.8131906205058819,36.00813625805317,98.95833333333333,4644,0.6475687026977539,0.03471739365042839,0.03392288257499735,999456,1926.2023155621173,100.0
302,2.990286350250244,1824.9949141866698,319.270846233715,2208.3048136727984,590.7419527042861,100.0,1.1903082143564598,0.1,0.006573915481567383,0.15463948249816895,0.0485804,0.075971365,1744.127007144332,0.8131044501603567,36.43128542565112,100.0,4674,0.665022611618042,0.029435067938002567,0.027711662912542474,1004130,1876.1394981884846,100.0
303,2.987823724746704,1858.038074905312,378.3431761813371,2208.1808479060774,184.2531823754949,98.95833333333333,1.233950181098667,0.1,0.006331682205200195,0.14585351943969727,0.048970103,0.06911849,1755.51811392043,0.8148392434112003,37.12864949647109,98.95833333333333,4718,0.6765105724334717,0.032385414544540005,0.03001317979288385,1008848,1936.8434035957516,100.0
304,3.00136399269104,1806.5932419714484,373.38372488507093,2209.728909362812,117.79546016939786,96.875,1.2491873841133134,0.1,0.006235599517822266,0.14535975456237793,0.04853454,0.06793843,1760.625626725532,0.8110551330059618,36.056988188602176,96.875,4675,0.6666364669799805,0.03043885281997461,0.02930990136296549,1013523,1765.1774046460932,100.0
305,2.9819881916046143,1796.7627285581784,343.5949322308171,2158.5662314715705,180.75992373381973,98.95833333333333,1.1953575614640173,0.1,0.007391214370727539,0.1723029613494873,0.050584327,0.090935655,1764.2393369087965,0.8090698211515447,35.90844444490138,98.95833333333333,4636,0.8000771999359131,0.03096510969131509,0.029360604885829526,1018159,1987.0186918991526,100.0
306,3.0443978309631348,1875.9743042591642,324.9547417954509,2158.709776441022,590.8176432240454,100.0,1.3381369172983126,0.1,0.006379365921020508,0.14866924285888672,0.047271572,0.068098255,1775.4128336438332,0.8144364589228553,37.476763129384246,100.0,4676,0.64408278465271,0.027331890115684796,0.024571819263619274,1022835,1815.3615111263098,100.0
307,3.126013994216919,1847.8484056719924,389.5977807091609,2157.9522397482256,150.3667097505622,97.91666666666667,1.2639972928097531,0.1,0.006604671478271484,0.14925765991210938,0.047930658,0.066936,1782.6563908466492,0.8140446228197381,36.90281030158353,97.91666666666667,4673,0.6435725688934326,0.02895307752277359,0.027969230448503402,1027508,1926.3778703578998,100.0
308,3.1421120166778564,1880.3301072597642,254.47575762791644,2158.700200704167,930.7757378230299,100.0,1.3018638705988024,0.1,0.006552934646606445,0.15354013442993164,0.050038017,0.08775075,1792.4237624879609,0.8136926211204288,37.60266868237722,100.0,4688,0.6415979862213135,0.01624956860603579,0.014627289728138064,1032196,1926.268699786901,100.0
309,3.1296370029449463,1896.0660970138254,225.18671066863223,2158.444556526574,1077.5563208225724,100.0,1.379598409182737,0.1,0.006684064865112305,0.14737558364868164,0.04780718,0.0713179,1802.7879959405473,0.8137646061566133,37.85057731029577,100.0,4707,0.6483123302459717,0.014202953976875671,0.013522690512481133,1036903,2036.9773921871838,100.0
310,3.1023333072662354,1865.3676823098474,305.448926809439,2159.0309854795537,615.9338133333735,100.0,1.3024120196154172,0.1,0.006556272506713867,0.14443707466125488,0.048264407,0.07087126,1809.0459645774774,0.8131373129736209,37.22502524120892,100.0,4721,0.6411316394805908,0.024073751873468843,0.02304374640128033,1041624,1826.20963321794,100.0
311,2.964550733566284,1794.9950146636265,350.0322038348315,2158.442438139191,626.3548058497291,100.0,1.3925166810500238,0.1,0.006133317947387695,0.14171195030212402,0.046153296,0.06035396,1807.6408695860925,0.8131546455791026,35.860243183915166,100.0,4632,0.6331462860107422,0.03527712853489105,0.03276820956731602,1046256,1715.2796985240675,100.0
312,3.0697803497314453,1838.0852304477742,339.698400835052,2208.4448347951657,584.281471464035,100.0,1.3167866427295185,0.1,0.006360054016113281,0.14382624626159668,0.049029555,0.07206018,1810.6853056722607,0.8154608279744787,36.750377550145735,100.0,4691,0.6420607566833496,0.03022710725876202,0.028020692556517582,1050947,1876.0452115902522,100.0
313,3.100973129272461,1940.262356525849,256.3549565299256,2158.9819168396925,941.1876128914754,100.0,1.2766882100536385,0.1,0.0063076019287109375,0.1459362506866455,0.04807998,0.07021014,1823.6430107576198,0.8187246803692344,38.7260455628108,100.0,4691,0.631610631942749,0.01740943272740657,0.015016935614455848,1055638,1876.0422959583411,100.0
314,3.1050755977630615,1892.2629640870146,312.7530525657961,2158.9243741519203,695.926159657791,100.0,1.3030238236895184,0.1,0.006187915802001953,0.13966751098632812,0.052140553,0.066409886,1830.5050060905594,0.815165371102539,37.751391151162075,100.0,4715,0.626136302947998,0.023506825950014142,0.02166497360691694,1060353,2097.6015401720697,100.0
315,3.244852066040039,1890.9586976504233,325.5719260513535,2208.4775863387786,875.9059257200793,100.0,1.2829525281508232,0.1,0.006540775299072266,0.1445622444152832,0.04984443,0.07237425,1836.5503752465459,0.8167425394822766,37.749391229797105,100.0,4712,0.6437399387359619,0.022956376414353014,0.022333699002227068,1065065,1865.289925689963,100.0
316,3.0523438453674316,1885.8223165405932,349.24452377950587,2158.815503417488,128.36026303009584,98.95833333333333,0.7497897669205967,0.1,0.006519794464111328,0.14916276931762695,0.044190105,0.054744907,1841.4775693759507,0.7977042192437,37.61223155134757,98.95833333333333,4691,0.6384403705596924,0.02853430662949234,0.026919943607962744,1069756,1865.2968716254222,100.0
317,2.9924256801605225,1849.768277591999,341.5389585263761,2159.0524904249846,142.27470325145404,98.95833333333333,1.2977798046985278,0.1,0.006481647491455078,0.14898395538330078,0.049788512,0.069621004,1842.3066401975557,0.8150061594206278,36.99563508586649,98.95833333333333,4686,0.6358506679534912,0.027196342280332155,0.02498114019401851,1074442,2036.9724754522363,100.0
318,3.0681276321411133,1915.8824637866626,245.92512973357321,2159.0732973850963,836.855416402594,100.0,1.2711942101993632,0.1,0.0065174102783203125,0.14439916610717773,0.049329977,0.07695966,1849.6642225564665,0.8178527140905082,38.236369534890535,100.0,4705,0.6462204456329346,0.017952487774164465,0.01631698455762007,1079147,2026.1138797722306,100.0
319,3.0572643280029297,1852.064910653335,325.51295952924767,2208.75117846995,736.6788081148767,100.0,1.372435959639217,0.1,0.0066165924072265625,0.14304304122924805,0.04855136,0.066457085,1849.9042913661533,0.8161195873632484,36.98194120050371,100.0,4706,0.649909496307373,0.02633782409104685,0.024573390204959123,1083853,2026.176343340951,100.0
320,3.0206029415130615,1893.1819834551868,345.56720397307174,2159.09673037575,375.1495834730777,98.95833333333333,1.3863585195842507,0.1,0.006692647933959961,0.14325618743896484,0.050308004,0.06850326,1854.2320605750565,0.8150607768563902,37.75215769078779,98.95833333333333,4687,0.6487960815429688,0.02747807223112177,0.02599581359220366,1088540,2026.0384061016262,100.0
321,3.037903308868408,1942.4463518468729,264.3658202240381,2208.907767265363,836.2321277526286,100.0,1.2790950231513538,0.1,0.006772041320800781,0.14763426780700684,0.048589487,0.06943483,1863.053489702238,0.8200550004744951,38.75312845581741,100.0,4742,0.6554055213928223,0.016586677445495617,0.015637979938527013,1093282,1936.7031095404388,100.0
322,3.028172492980957,1922.5065241743032,334.6509423116234,2158.9271924248155,586.9443484474311,100.0,1.3011817185618986,0.1,0.006474018096923828,0.1698765754699707,0.049450606,0.063078396,1868.9987931494445,0.6176715793752088,38.42506256712503,100.0,4695,0.6472537517547607,0.02752062852215011,0.026409281775376058,1097977,2047.4437031125951,100.0
323,3.0514724254608154,1918.4913648676375,312.7553204188836,2208.562411309593,635.1777237388527,100.0,1.3624859219052723,0.1,0.006578922271728516,0.1425788402557373,0.050221812,0.0639368,1873.948050321264,0.8183579815914287,38.27695461527071,100.0,4721,0.6538763046264648,0.021308511449947123,0.02057067929665667,1102698,1887.4058298823916,100.0
324,3.054497480392456,1877.82844912578,322.7789273343291,2208.7732641936295,655.293122536055,100.0,1.32288712212839,0.1,0.007748603820800781,0.1924610137939453,0.048191145,0.06660372,1874.3360902017155,0.8163997729268463,37.47318443458659,100.0,4720,0.7882742881774902,0.025897056227412903,0.024704573335214367,1107418,2036.8452834043528,100.0
325,3.1062769889831543,1874.6393975126373,332.9754371751442,2208.818486725672,172.76775575301818,98.95833333333333,1.2783254013831087,0.1,0.006205558776855469,0.1378002166748047,0.048863873,0.070290715,1874.3664209328076,0.8165517524190263,37.41255870176761,98.95833333333333,4710,0.6292638778686523,0.0264014440675779,0.025156511800475293,1112128,2025.8759850345523,100.0
326,3.102234363555908,1960.5586486179036,232.25062952098173,2159.4650427475945,801.4142109780204,100.0,1.1264503895410651,0.1,0.006753444671630859,0.13913226127624512,0.04852532,0.057963863,1882.9856437013173,0.8184060978304624,39.1580639925945,100.0,4705,0.6350665092468262,0.013242345498934141,0.011499471780470663,1116833,2025.7416228973616,100.0
327,3.279093027114868,1933.374671721067,302.8123339256634,2208.070170107359,683.1093120263598,100.0,1.3241449270717225,0.1,0.006211996078491211,0.14179015159606934,0.04856365,0.14883304,1888.0245465032922,0.8190122219969015,38.612172790915295,100.0,4694,0.6329236030578613,0.021323191398354386,0.01954090624997175,1121527,2025.8743555379158,100.0
328,3.0826609134674072,1847.132588665565,357.3460155912846,2158.8207970004833,483.3625631212744,98.95833333333333,1.3597114537503034,0.1,0.0062313079833984375,0.14137578010559082,0.049742986,0.06190616,1883.9353507195196,0.8160007513012425,36.89684162204429,98.95833333333333,4664,0.6263067722320557,0.03036820813153811,0.02910254793293428,1126191,2086.6349406239083,100.0
329,3.2532339096069336,1899.130151011472,309.7829390854617,2208.4386743396794,716.4574283041562,100.0,1.352887642848376,0.1,0.006295204162597656,0.1436154842376709,0.050091963,0.07695114,1885.454830748715,0.8182390056528316,37.91689817059959,100.0,4683,0.6303277015686035,0.020895507505281605,0.018978219409988718,1130874,2025.8232415591483,100.0
330,2.9765660762786865,1940.1557434579008,262.0761318789713,2209.4922014048366,956.2724286778251,100.0,1.2382070186210679,0.1,0.00637364387512207,0.1450057029724121,0.048676793,0.07015234,1890.9249220196336,0.8185760790893196,38.70933324036081,100.0,4728,0.6109051704406738,0.016514946851971534,0.014167268305842305,1135602,1996.8967987039746,100.0
331,3.068068265914917,1956.0194508335542,286.44119129564893,2208.8562158095865,531.4773573963838,100.0,1.185959980337206,0.1,0.006654024124145508,0.14309334754943848,0.04433636,0.056273494,1897.4343749010259,0.819194528335666,39.05054149601267,100.0,4709,0.6107728481292725,0.019217335306955886,0.01734645349988085,1140311,1936.3481121334748,100.0
