iteration,time_sampling,stoc_pol_mean,stoc_pol_std,stoc_pol_max,stoc_pol_min,rollout_success,alpha,delta,time_vpg,time_npg,kl_dist,surr_improvement,running_score,rwd_sparse,rwd_dense,success_percentage,num_samples,time_VF,VF_error_before,VF_error_after,env_samples,eval_score,eval_success
0,1.1030442714691162,0.009897573149165933,0.004986990427900281,0.017943302111840444,0.0047632150660816336,0.0,0.1454710126100394,0.1,0.03258323669433594,0.051805734634399414,0.05276513,0.96179414,0.009897573149165933,0.0,0.00019771473388269098,0.0,200,0.013234853744506836,272.3836774396307,24.990065697426825,200,0.008015087654907601,0.0
1,0.9811961650848389,0.01077590216907761,0.0031196647612239904,0.015001168058401857,0.007183488219794957,0.0,0.1390750733850617,0.1,0.0027327537536621094,0.052025794982910156,0.047667146,0.64985365,0.0099854060511571,0.0,0.0002101078980366539,0.0,200,0.014691352844238281,22.814529253862297,14.196142868400504,400,0.007314071603130623,0.0
2,1.0408174991607666,0.0055747766948837495,0.004003695139865135,0.012302268755552903,0.0023476587857410775,0.0,0.1663466056232546,0.1,0.0026934146881103516,0.05292654037475586,0.06551407,0.7470486,0.009544343115529765,0.0,0.00011027856545772713,0.0,200,0.014833211898803711,51.36019102465027,52.17829318394021,600,0.006858550914573648,0.0
3,0.9469337463378906,0.021383042541619473,0.015395298007390293,0.04753867696844194,0.008537568842922373,0.0,0.14703571631430085,0.1,0.002735614776611328,0.05222272872924805,0.05419828,1.0332402,0.010728213058138735,0.0,0.0004266542824418804,0.0,200,0.013786554336547852,1.4147343835762798,0.5830471501604951,800,0.010612677524940902,0.0
4,1.0023236274719238,0.021077049921246472,0.015827029403779485,0.04815881442671088,0.00970044752331462,0.0,0.14624583042783418,0.1,0.0027306079864501953,0.05290818214416504,0.048064288,0.92228854,0.01176309674444951,0.0,0.00042127035971714904,0.0,200,0.01412200927734375,0.6759317304921618,0.8518137778663252,1000,0.0138405253241334,0.0
5,1.0127854347229004,0.016792292696189814,0.009755875885250447,0.02912246928174054,0.006084399201295393,0.0,0.1455367975636711,0.1,0.002647876739501953,0.051940202713012695,0.05353075,0.9189074,0.012266016339623542,0.0,0.0003284396757929538,0.0,200,0.013548135757446289,0.8671926518106106,1.1062401515743545,1200,0.017828968198970663,0.0
6,1.0176568031311035,0.013897349067102526,0.010568518301601168,0.028278392387919817,0.002407491981069342,0.0,0.14878507934553847,0.1,0.0027265548706054688,0.05333352088928223,0.051776085,1.1364958,0.01242914961237144,0.0,0.00027743044810274366,0.0,200,0.013294696807861328,1.2241874038362328,0.9794566977104725,1400,0.019635381044976887,0.0
7,1.041430950164795,0.011591290629169604,0.004989576577328417,0.019312371617117394,0.006796527392834698,0.0,0.14448650794725776,0.1,0.0027077198028564453,0.052686214447021484,0.048428874,0.7179492,0.012345363714051257,0.0,0.00022427294567608526,0.0,200,0.01370692253112793,0.8829439870775012,0.4835489141475507,1600,0.02083823548302195,0.0
8,1.0062923431396484,0.039687785740688486,0.04583251987299635,0.11602411151909021,0.0022702604288962476,0.0,0.13901318697533063,0.1,0.0027883052825927734,0.05227041244506836,0.05023038,1.8716187,0.015079605916714981,0.0,0.0007930199183254885,0.0,200,0.02106308937072754,0.860483894694009,0.7059864246706159,1800,0.033812629022740855,0.0
9,1.02156400680542,0.01643983288345804,0.01790994258113164,0.04694945681573883,0.0010012069597063074,0.0,0.1454287478841833,0.1,0.002726316452026367,0.05245709419250488,0.051956102,1.1158442,0.015215628613389287,0.0,0.00032299856046927745,0.0,200,0.013935089111328125,0.8177246731554614,1.1112588656254387,2000,0.02980873434934234,0.0
10,1.0710265636444092,0.026456589943241227,0.030172489831479514,0.0780952893900538,0.003990676317570509,0.0,0.14022720072458864,0.1,0.0032596588134765625,0.05255627632141113,0.048352133,1.5839096,0.016339724746374483,0.0,0.0005289502986831303,0.0,200,0.013583660125732422,0.7621203771890157,0.6955753161807688,2200,0.027334473086207556,0.0
11,0.9582722187042236,0.024937368342829398,0.014108820096324198,0.04236108784439593,0.007001668901378464,0.0,0.1433789044644174,0.1,0.0028836727142333984,0.052201032638549805,0.050266877,1.1832939,0.017199489106019976,0.0,0.000496223355668975,0.0,200,0.013761758804321289,0.4417143912238473,0.3822722751513859,2400,0.03105601812884566,0.0
12,1.0168287754058838,0.045330772877513276,0.025637039573621345,0.08381432297684419,0.012958308878489224,0.0,0.14495310186969376,0.1,0.002656221389770508,0.05295133590698242,0.051188856,1.2704853,0.020012617483169307,0.0,0.0009031015955411972,0.0,200,0.013369083404541016,0.528798392190296,0.4809730753278621,2600,0.04511736284947886,0.0
13,1.0003533363342285,0.01624739881797189,0.012878298188726114,0.036453339946440746,0.004839047247862252,0.0,0.13906401801044835,0.1,0.0028831958770751953,0.052530527114868164,0.049168456,1.1887698,0.019636095616649564,0.0,0.000324032389396631,0.0,200,0.013658761978149414,0.8116116226582738,0.8442610918249809,2800,0.04771133184664445,0.0
14,1.09660005569458,0.11884043114731611,0.13466846311150124,0.3435070751438401,0.014130000793799424,0.0,0.14044392455681604,0.1,0.0027923583984375,0.053180694580078125,0.04955995,1.49745,0.02955652916971622,0.0,0.0023673326023405735,0.0,200,0.013499736785888672,0.8550187785483149,0.7102055854046241,3000,0.04906519679883792,0.0
15,1.0544683933258057,0.043775985880862574,0.030276998162044034,0.08338844848189034,0.011474813050702918,0.0,0.1363516944782879,0.1,0.0026743412017822266,0.05751681327819824,0.050513066,1.1113237,0.030978474840830855,0.0,0.0008547991017370794,0.0,200,0.014034748077392578,0.5749357064806045,1.0159959357715989,3200,0.060174603149893195,0.0
16,1.086186170578003,0.04825533215877764,0.028120957500844118,0.08514291737772806,0.017759952954066113,0.0,0.14458573107689376,0.1,0.0027239322662353516,0.0529024600982666,0.049295317,1.2938064,0.032706160572625535,0.0,0.0009475390986780105,0.0,200,0.012940406799316406,0.7175821005411261,0.4148067680926838,3400,0.06168623652476901,0.0
17,1.1031343936920166,0.07283775644391999,0.022853408794214814,0.09608342178339438,0.04208657909526245,0.0,0.14724534257133864,0.1,0.002669095993041992,0.052843570709228516,0.050141286,0.7792463,0.03671932015975498,0.0,0.001451823274680946,0.0,200,0.013303518295288086,0.21994462201593776,0.26989469797538546,3600,0.0603545998639552,0.0
18,1.1923599243164062,0.19681102481924465,0.2102931278806981,0.5348594121593359,0.007923714322673879,0.0,0.1326092879268041,0.1,0.0029478073120117188,0.05587148666381836,0.0495405,1.6451004,0.05272849062570395,0.0,0.0039060088266099353,0.0,200,0.013134002685546875,0.8182514194392707,0.6677907509059313,3800,0.05476857260735423,0.0
19,1.0772924423217773,0.10273088013504454,0.07131420257439103,0.22477753313636034,0.0523637573088915,0.0,0.14793165933254368,0.1,0.0027112960815429688,0.05174541473388672,0.050026413,1.1243423,0.05772872957663801,0.0,0.002041332750052792,0.0,200,0.013188600540161133,0.3960233188936776,0.6086397302733678,4000,0.058311206360997424,0.0
20,1.065856695175171,0.09204251859119646,0.090125923561041,0.23322088672637237,0.009770879822685496,0.0,0.14081407341974522,0.1,0.002561807632446289,0.05170798301696777,0.049261056,1.2745306,0.061160108478093854,0.0,0.0018384417731694244,0.0,200,0.013715744018554688,0.8347339907818494,0.6478773120199066,4200,0.05893277705984967,0.0
21,1.064441204071045,0.12026267036789075,0.14454351603706037,0.36837377576368524,0.006332770500476794,0.0,0.13053988096329108,0.1,0.002605438232421875,0.051828861236572266,0.050099038,2.3288348,0.06707036466707354,0.0,0.002364651938742525,0.0,200,0.013090372085571289,0.676510504234227,0.6611273677442092,4400,0.09302035581668087,0.0
22,1.1117751598358154,0.2030394993154306,0.2964001139755356,0.7152777849999553,0.0033497357430363945,0.0,0.14043581476483266,0.1,0.002655029296875,0.05247640609741211,0.049495477,1.749646,0.08066727813190926,0.0,0.00404632183696146,0.0,200,0.013134479522705078,0.8030201606171667,0.7772115167900304,4600,0.1519863735885045,0.0
23,1.0976643562316895,0.23958880188362308,0.27196352450906974,0.7071970202293726,0.03434986323652109,0.0,0.137717382087228,0.1,0.0028765201568603516,0.05254983901977539,0.05008214,1.9627502,0.09655943050708064,0.0,0.004787385935202977,0.0,200,0.013630867004394531,0.7365146717731939,0.6317056373509017,4800,0.17067002925947658,0.0
24,1.0173194408416748,0.06462263297830201,0.061106260875795314,0.1631835106688153,0.011474321918622285,0.0,0.14069637236100194,0.1,0.0028142929077148438,0.05248117446899414,0.04902426,1.0597224,0.09336575075420278,0.0,0.0012758351664527079,0.0,200,0.01381993293762207,2.74224429042403,2.6225221604631095,5000,0.1611054745090093,0.0
25,0.9817218780517578,0.03501742494664624,0.022735790613935363,0.07306467420831303,0.014385375272885598,0.0,0.1373956290199089,0.1,0.002772808074951172,0.05245351791381836,0.048711725,3.7721946,0.08753091817344713,0.0,0.0006908020079556783,0.0,200,0.015285015106201172,16.564438816720898,3.966640043433956,5200,0.14990528435286943,0.0
26,1.1035778522491455,0.05758353860043258,0.039626141333559566,0.10517505511509562,0.009053314255750459,0.0,0.1354500435410138,0.1,0.0027658939361572266,0.052324533462524414,0.0497118,0.982687,0.08453618021614567,0.0,0.0011476466964380557,0.0,200,0.014393806457519531,0.8164050247622265,0.4485836309321784,5400,0.23790320883555346,0.0
27,1.0569038391113281,0.055314136871604115,0.05376302668238586,0.14760689631354684,0.01365810159509125,0.0,0.13735944307091433,0.1,0.005796670913696289,0.05244922637939453,0.049291134,1.4803555,0.08161397588169152,0.0,0.001105007165931203,0.0,200,0.013677835464477539,0.5602250648189667,0.8170903564868733,5600,0.21295628585872647,0.0
28,1.0747833251953125,0.07936816417484777,0.055773556797424816,0.15421411352113007,0.018044350684428518,0.0,0.13183426703706702,0.1,0.0027942657470703125,0.05316615104675293,0.04989274,1.3114628,0.08138939471100715,0.0,0.0015735853352246425,0.0,200,0.013691425323486328,0.8225811081377842,0.8286684480174714,5800,0.43390180945416973,0.0
29,1.109487533569336,0.29676474489096616,0.24972095604321537,0.6949417829869894,0.005173827974022256,0.0,0.14560451911486932,0.1,0.002883434295654297,0.05385184288024902,0.050386142,1.1291941,0.10292692972900305,0.0,0.0059278035201100416,0.0,200,0.014534950256347656,0.9452072736881435,0.834251400014517,6000,0.663409746016294,0.0
30,1.1209869384765625,0.13187347100424457,0.08007794661004934,0.23358521033794258,0.011516086264751292,0.0,0.1530247726443483,0.1,0.0028498172760009766,0.05324387550354004,0.05101197,0.83618546,0.10582158385652721,0.0,0.0026373048452048324,0.0,200,0.014363765716552734,0.5608722405888282,0.38862294651792034,6200,0.6949130051229474,0.0
31,1.075139045715332,0.06008367991643512,0.02677412200991527,0.09721117852439393,0.026583841522488227,0.0,0.1391690349717138,0.1,0.002758502960205078,0.05286765098571777,0.04996789,0.8801619,0.10124779346251801,0.0,0.001197864426614302,0.0,200,0.013418436050415039,0.6159096951597154,1.2095619255701453,6400,1.0611447348986582,0.0
32,1.0707168579101562,0.1466480239326536,0.070554191026353,0.2563210414964201,0.0626802014420053,0.0,0.1322409932383715,0.1,0.0029098987579345703,0.0525209903717041,0.04901571,1.3256129,0.10578781650953156,0.0,0.002866821321413379,0.0,200,0.013838529586791992,0.3031246225853413,0.2846666183901505,6600,1.2710079987380707,0.0
33,1.077953577041626,0.1749082207511786,0.15264983107439878,0.42045443688638245,0.023809913186618462,0.0,0.14702807733546278,0.1,0.002851247787475586,0.056236982345581055,0.04864332,1.2037311,0.11269985693369627,0.0,0.0034759920560927205,0.0,200,0.013840675354003906,0.5394985334737967,0.5210003424418271,6800,1.5757607460615837,0.0
34,1.0982897281646729,0.11631153822760912,0.05717978357303284,0.17790670953955448,0.023679974611273767,0.0,0.13758329685990792,0.1,0.0026929378509521484,0.05330085754394531,0.049281377,1.019606,0.11306102506308757,0.0,0.0023171875628344466,0.0,200,0.014661073684692383,0.3925611485127384,0.39535953009255786,7000,0.9574687138597321,0.0
35,1.132347583770752,0.1729293923493074,0.1813352391516053,0.4601948964368394,0.013322146601877574,0.0,0.13511434927450156,0.1,0.002741575241088867,0.05253291130065918,0.049440652,1.7304019,0.11904786179170956,0.0,0.003452404629012977,0.0,200,0.016036033630371094,0.614256400447055,0.6113060313865929,7200,0.7880141986542452,0.0
36,1.1476011276245117,0.19766396615266135,0.16204216319560102,0.451842653280004,0.014938630160151237,0.0,0.13724412832579985,0.1,0.0026824474334716797,0.05405688285827637,0.051086634,1.7322552,0.12690947222780474,0.0,0.003937838776775024,0.0,200,0.013761758804321289,0.5030873874930626,0.4901060336045468,7400,1.2287744924392883,0.0
37,1.111623764038086,0.12881739400848471,0.05695384064210419,0.22306383113720113,0.08277458545755453,0.0,0.14145113142837284,0.1,0.0027256011962890625,0.052535295486450195,0.049852803,1.1759528,0.12710026440587274,0.0,0.0025747848149384046,0.0,200,0.013877391815185547,0.40556777221969076,0.38634301629820217,7600,0.911612707828533,0.0
38,1.1742753982543945,0.12018259778310161,0.04259164631476358,0.1611760519766654,0.04906711736887717,0.0,0.14056828313310943,0.1,0.002667665481567383,0.05258631706237793,0.048843373,0.9551981,0.12640849774359564,0.0,0.002385168304421998,0.0,200,0.012100696563720703,0.33451629787569126,0.23573861617496378,7800,1.5395656793408994,0.0
39,1.1414380073547363,0.27640632331808507,0.18340010053708183,0.5290488919481712,0.01841866953120468,0.0,0.13005050558920705,0.1,0.002668142318725586,0.0527806282043457,0.050053444,1.4755983,0.14140828030104458,0.0,0.005512649348686225,0.0,200,0.01341390609741211,0.5375729388790226,0.5045587680764215,8000,1.4629941107736002,0.0
40,1.1187169551849365,0.13294007584811934,0.07601209832986303,0.21245447902878806,0.009245857949027702,0.0,0.14072290793145695,0.1,0.005803585052490234,0.0553131103515625,0.049312845,1.1790127,0.14056145985575208,0.0,0.002649864959824305,0.0,200,0.013818740844726562,0.35824773532882515,0.41736526549969366,8200,1.7984106488753404,0.0
41,1.1099209785461426,0.13281827853609737,0.08787254516361989,0.2314257266271012,0.01681088733399721,0.0,0.13904914486848366,0.1,0.0027649402618408203,0.05121874809265137,0.049569942,1.0941917,0.13978714172378662,0.0,0.00265255515905397,0.0,200,0.013007402420043945,0.4766500270781436,0.45323423745618757,8400,1.0370167066626355,0.0
42,1.057297706604004,0.334898818124287,0.21751654273853532,0.6787474828933349,0.07733935322898602,0.0,0.137350521516278,0.1,0.0028061866760253906,0.052309513092041016,0.048785333,1.453187,0.15929830936383665,0.0,0.006691073064159329,0.0,200,0.013705968856811523,0.49517155911648514,0.4199983836151797,8600,1.3482550640699351,0.0
43,1.0250487327575684,0.7679064868100753,0.3445164391218672,1.2748035194600094,0.40114285643640957,0.0,0.13693878548187535,0.1,0.002756834030151367,0.05228400230407715,0.04943025,1.4237665,0.22015912710846053,0.0,0.015350392579387655,0.0,200,0.012922525405883789,0.6371618714740684,0.4053600168394735,8800,1.8203527708254226,0.0
44,1.0493428707122803,0.34801017079969687,0.270250638644061,0.7394992149071089,0.07697180880732431,0.0,0.13875468682702102,0.1,0.0027446746826171875,0.05704212188720703,0.050142597,1.3401068,0.23294423147758417,0.0,0.006877450769375423,0.0,200,0.012897014617919922,0.4684550949511498,0.709616054493651,9000,1.6752017505469532,0.0
45,1.0618884563446045,0.15776281521218166,0.09771544983011513,0.3164955205671583,0.06698915753520901,0.0,0.13373231464037463,0.1,0.0027697086334228516,0.05181264877319336,0.04954037,1.3270782,0.2254260898510439,0.0,0.0031548418423686868,0.0,200,0.014199256896972656,7.034836553597201,3.02603695901339,9200,2.378188384182415,0.0
46,1.0818142890930176,0.26841691003595863,0.16497612388763422,0.46760735962602956,0.010496129139946896,0.0,0.13590575612532102,0.1,0.0036728382110595703,0.05209088325500488,0.04988457,0.87094384,0.2297251718695354,0.0,0.005345031699273159,0.0,200,0.01427769660949707,0.49622648380329576,0.34866652681030974,9400,1.8725327165290155,0.0
47,1.0996575355529785,0.4176045520042703,0.1681905970564314,0.5773015536926672,0.13495255507237622,0.0,0.13016466384178343,0.1,0.002691984176635742,0.05365252494812012,0.0502156,1.1410205,0.2485131098830089,0.0,0.008279161714700157,0.0,200,0.014047384262084961,0.2921816747308038,0.3734055605065048,9600,1.700142038983622,0.0
48,1.1434972286224365,0.4631642460275496,0.22997411316553368,0.6924336970431162,0.08475296923797579,0.0,0.1332029716981852,0.1,0.0027704238891601562,0.05224943161010742,0.050228745,1.130554,0.269978223497463,0.0,0.009261908984976447,0.0,200,0.013754606246948242,0.4611022603969899,0.4432215471987716,9800,1.6250571179680786,0.0
49,1.1264724731445312,0.40891147494822416,0.2239942319054536,0.7638146760481606,0.20919226354842685,0.0,0.1283764290457986,0.1,0.002713918685913086,0.05400514602661133,0.04935988,1.9079962,0.2838715486425391,0.0,0.008038234296016852,0.0,200,0.013820886611938477,0.4451425937930856,0.3820250622581071,10000,1.7041163153436205,0.0
50,1.1093053817749023,0.44081028591433574,0.2319385227718476,0.8205134059144454,0.1966282476803101,0.0,0.12953660857048863,0.1,0.00264739990234375,0.05190229415893555,0.049702667,1.7440141,0.2995654223697188,0.0,0.008812671907633652,0.0,200,0.014757156372070312,0.3760778709289019,0.3058030041810731,10200,1.179508799200603,0.0
51,1.1296055316925049,0.28562563206739483,0.15164964506404455,0.47384278208380565,0.11081516497081477,0.0,0.13717455932183428,0.1,0.002692699432373047,0.051741838455200195,0.050408937,1.1534829,0.2981714433394864,0.0,0.005712131704253429,0.0,200,0.014148235321044922,0.34900733084153357,0.4267430420251799,10400,1.5143977807653475,0.0
52,1.1525099277496338,0.179652941051743,0.09571739780133245,0.2885817132936319,0.030492139860822266,0.0,0.12768835684804933,0.1,0.002786874771118164,0.05396223068237305,0.050592337,0.6556734,0.2863195931107121,0.0,0.003530966679379464,0.0,200,0.013641357421875,1.3573602631594308,1.0830348423939113,10600,1.422988436065291,0.0
53,1.0966715812683105,0.6946149514476678,0.38059399496765717,0.9594578570946631,0.037194705726712886,0.0,0.1315742927785598,0.1,0.0026259422302246094,0.0515139102935791,0.0495675,1.0190797,0.3271491289444077,0.0,0.013874627581865646,0.0,200,0.013269424438476562,0.44636719838765176,0.42118707823283147,10800,1.341145354632376,0.0
54,1.1154680252075195,0.37045749337742506,0.10158371001410997,0.47527128846776073,0.22629647026039226,0.0,0.13191890905591044,0.1,0.0026557445526123047,0.052463531494140625,0.049655125,0.91734827,0.3314799653877094,0.0,0.007342786396179772,0.0,200,0.013612031936645508,0.13991379188098377,0.15017639608268285,11000,0.9189389419050458,0.0
55,1.1636559963226318,0.3079211316617027,0.23942185295455098,0.6815779091209428,0.031754339014682935,0.0,0.1252638937760704,0.1,0.002809286117553711,0.05250811576843262,0.04961829,1.4809661,0.32912408201510873,0.0,0.005879060853186582,0.0,200,0.01378488540649414,0.5221775994302471,0.5164939222251037,11200,1.080871188488736,0.0
56,1.1080255508422852,0.1707293653355404,0.11715474235229816,0.34019705128181543,0.020691944582204816,0.0,0.14140582852430103,0.1,0.002794981002807617,0.0525660514831543,0.04942877,0.9042111,0.3132846103471519,0.0,0.0033417195592033615,0.0,200,0.013138771057128906,1.9838271065267268,1.1785954797608227,11400,1.0754738945268483,0.0
57,1.1813042163848877,0.9547361639571086,0.8044906745777171,2.2486684542710487,0.036076852461536045,0.0,0.1310834543000315,0.1,0.0028188228607177734,0.052861928939819336,0.04900314,1.8755718,0.37742976570814757,0.0,0.01907148744063014,0.0,200,0.013143301010131836,0.6906658435757485,0.6661946386665029,11600,1.2941110738352213,0.0
58,1.1529903411865234,0.3851820523913797,0.1952212234731791,0.5801147184021516,0.09628268117180944,0.0,0.13439375692502678,0.1,0.0027534961700439453,0.051717519760131836,0.04879777,0.9951831,0.37820499437647076,0.0,0.007701973789827099,0.0,200,0.01371145248413086,0.23994606252611717,0.2639148368111377,11800,1.916965394679618,0.0
59,1.0594842433929443,0.33492108759887596,0.13483931149806194,0.4786872424029835,0.11347687770952815,0.0,0.13152681101241204,0.1,0.002817869186401367,0.05328059196472168,0.049588446,1.0807804,0.3738766036987113,0.0,0.006655419817607429,0.0,200,0.014983654022216797,0.2727040802442006,0.27870423715775516,12000,2.057853087357485,0.0
60,1.0645909309387207,0.2636527466601566,0.15558993648603492,0.452226432765829,0.019345017783187236,0.0,0.13527124841681204,0.1,0.0028390884399414062,0.05663299560546875,0.04982481,0.8544875,0.36285421799485584,0.0,0.005265934852204562,0.0,200,0.014737129211425781,0.683075715910594,0.46848115120101574,12200,2.255583830795104,0.0
61,1.0879993438720703,0.6030416447415373,0.2719323844933546,0.9982763601225229,0.32056299878502476,0.0,0.1303219730388933,0.1,0.002815723419189453,0.05231642723083496,0.05048389,1.3698047,0.38687296066952404,0.0,0.012047982515106864,0.0,200,0.014211893081665039,0.3153119288746059,0.319401855673457,12400,2.1771596007196132,0.0
62,1.074859857559204,0.6361064692885137,0.3184727180452575,0.9844694318921405,0.30614142308229597,0.0,0.12815970339230195,0.1,0.002756834030151367,0.05201363563537598,0.049591675,1.403267,0.41179631153142304,0.0,0.012719945136173685,0.0,200,0.013687849044799805,0.3600534519854882,0.3242483372895643,12600,2.3232514592148403,0.0
63,1.0798399448394775,0.6413305486756719,0.9285095870631938,2.2485077053567095,0.05686971743666918,0.0,0.1367569222182846,0.1,0.0027985572814941406,0.05217552185058594,0.05028076,2.5345995,0.434749735245848,0.0,0.012703927285687876,0.0,200,0.0143585205078125,0.7320779930672486,0.7036434106886272,12800,1.9330560211931764,0.0
64,1.0879807472229004,0.32256243282675034,0.24425825758307707,0.7166721108333478,0.06171798930746711,0.0,0.1259735493863504,0.1,0.0028116703033447266,0.05248713493347168,0.050262075,1.7378212,0.4235310050039382,0.0,0.0064389603562225875,0.0,200,0.013658761978149414,0.5990828333194643,0.6374097425282165,13000,1.8536723724417488,0.0
65,1.0834200382232666,0.5167260980625268,0.21753988683832076,0.7878144622776395,0.18827042348020942,0.0,0.13699016269117098,0.1,0.0028209686279296875,0.052559614181518555,0.049858224,0.8800491,0.43285051430979704,0.0,0.010323069553357676,0.0,200,0.01705479621887207,0.2308999118405454,0.2184664081177905,13200,1.045764732471985,0.0
66,1.0826623439788818,0.6230585944605318,0.23073996104691832,0.9800789411405134,0.3445459617792504,0.0,0.13106096467002745,0.1,0.0027599334716796875,0.05193924903869629,0.049929872,1.324224,0.4518713223248705,0.0,0.01239599808801408,0.0,200,0.013869285583496094,0.23666112220345656,0.2222378533030258,13400,1.0503716912208354,0.0
67,1.1103184223175049,0.4113937806813131,0.3656513406255467,1.0348029913299668,0.10003918114695828,0.0,0.12816069711410263,0.1,0.0028846263885498047,0.05298781394958496,0.05034149,1.9039698,0.4478235681605147,0.0,0.008216861526642572,0.0,200,0.015183448791503906,0.5228711534604998,0.5059599613096079,13600,0.9994956613990387,0.0
68,1.105882167816162,0.15277443728952372,0.11376758363093074,0.34712249367771786,0.05792895266462426,0.0,0.13366589827657463,0.1,0.0028676986694335938,0.05311393737792969,0.049838062,0.83401686,0.4183186550734156,0.0,0.0030492433396869757,0.0,200,0.013189315795898438,4.038681387161422,2.075418530350836,13800,1.0120904154302686,0.0
69,1.1180098056793213,0.5579905272240188,0.33453312183754697,1.00662920361799,0.2331121165468712,0.0,0.1348825687804268,0.1,0.0027811527252197266,0.052666425704956055,0.0502257,1.0604925,0.43228584228847594,0.0,0.011040788571629302,0.0,200,0.013480901718139648,0.4050971852734157,0.4362029853958038,14000,0.8324926236544967,0.0
70,1.1200027465820312,0.3112241408477847,0.2239957466566555,0.5612365165652831,0.0822657603677469,0.0,0.13116561371281915,0.1,0.002715587615966797,0.05173683166503906,0.04975722,0.9700194,0.4201796721444068,0.0,0.006199337474759517,0.0,200,0.013308286666870117,0.3754863431480993,0.3676103628415928,14200,1.0741041551593569,0.0
71,1.141552448272705,1.0610223508639098,1.1343475615315046,3.0029030049026373,0.13491892500123845,0.0,0.11827714698654186,0.1,0.0027208328247070312,0.051751136779785156,0.04982945,3.1626105,0.48426394001635714,0.0,0.020624134597058308,0.0,200,0.013354778289794922,0.769475120596468,0.7008875492227725,14400,1.3027831202010383,0.0
72,1.1025362014770508,0.6461154923993616,0.3626392208712253,1.0914811045320243,0.08234241379856075,0.0,0.13346780252316492,0.1,0.002663850784301758,0.05180478096008301,0.04923071,1.2812462,0.5004490952546575,0.0,0.01264730285423923,0.0,200,0.013169288635253906,0.29977035180138967,0.24921654354731473,14600,2.3053908308216364,0.0
73,1.1318495273590088,0.2671112294426616,0.15635480584954603,0.5311317349805708,0.14485350163491093,0.0,0.13335842699508896,0.1,0.002826213836669922,0.05180764198303223,0.049379617,1.0411304,0.4771153086734579,0.0,0.0052876769020541855,0.0,200,0.01295161247253418,1.8750613065280206,1.9396959649485603,14800,2.7029746044628538,0.0
74,1.0979437828063965,0.5553848301617015,0.3345740398376676,1.1328145288604043,0.32960473495160914,0.0,0.13014604930829113,0.1,0.002618551254272461,0.05159783363342285,0.049367033,2.2009318,0.48494226082228226,0.0,0.011090212353273456,0.0,200,0.013037681579589844,0.3880122232032267,0.3453559844879645,15000,2.5010417154265414,0.0
75,1.11336088180542,0.3537102820687586,0.2001942277767829,0.6308377320458738,0.14185137839376127,0.0,0.13472766969310204,0.1,0.0050508975982666016,0.05228543281555176,0.05000416,1.1281705,0.47181906294692993,0.0,0.007047361661473007,0.0,200,0.012887716293334961,0.704891381704601,0.41946971951871953,15200,2.3893170512681645,0.0
76,1.0630741119384766,0.5818298511369202,0.31942265105635365,1.0315431715064693,0.20313787876124406,0.0,0.14131929612062774,0.1,0.002843141555786133,0.05348944664001465,0.04991302,1.0750846,0.48282014176592897,0.0,0.011610699137666426,0.0,200,0.013334989547729492,0.3119656424220932,0.3441103989493867,15400,1.8969696136453462,0.0
77,1.069864273071289,0.27135159454098223,0.20772524882295568,0.569961020691617,0.008488296611225283,0.0,0.13985510670551232,0.1,0.0027811527252197266,0.052614688873291016,0.05018307,0.85415435,0.4616732870434343,0.0,0.005373144208298405,0.0,200,0.013872623443603516,0.5858415064196535,0.49586859747870565,15600,1.8332151847176485,0.0
78,1.0839204788208008,0.6182617992177722,0.3587581639151335,1.2219296500407764,0.27816137156119225,0.0,0.1332287247634592,0.1,0.002768278121948242,0.05268383026123047,0.04953422,1.5804076,0.4773321382608681,0.0,0.01235081482007793,0.0,200,0.013655424118041992,0.39974458853013767,0.40809585444643415,15800,1.6540185152830171,0.0
79,1.0909709930419922,0.40098157104826376,0.06549347067447,0.5026934467780105,0.3404560247680954,0.0,0.13460168490613716,0.1,0.00274658203125,0.052480459213256836,0.050709203,1.1256465,0.4696970815396077,0.0,0.007909630418577639,0.0,200,0.01381063461303711,0.09080112751737542,0.08475719454543704,16000,1.8547570501214736,0.0
80,1.0908007621765137,0.9621178444722347,0.7192740166079882,2.000325426497964,0.16265300354387072,0.0,0.11980967297195222,0.1,0.0027065277099609375,0.05227923393249512,0.05013962,1.999933,0.5189391578328704,0.0,0.019139836183083393,0.0,200,0.013786077499389648,0.6098459854633413,0.5513884223683648,16200,2.112208225122474,0.0
81,1.0823683738708496,0.39276103058938266,0.38839009347748615,1.049265975597437,0.04058504499203177,0.0,0.14024080453510723,0.1,0.0027494430541992188,0.05315589904785156,0.049822427,1.3415673,0.5063213451085217,0.0,0.007784252176015446,0.0,200,0.013820648193359375,0.5742213698185584,0.6260333935394229,16400,2.521301404739084,0.0
82,1.0742955207824707,0.6554646432652992,0.2475267012037985,0.95924780312205,0.3200346530689146,0.0,0.13448893779828847,0.1,0.0027801990509033203,0.053238868713378906,0.049736366,1.2256645,0.5212356749241994,0.0,0.01310580380735183,0.0,200,0.014727115631103516,0.18398003188221188,0.1649731289978759,16600,2.957217344088138,0.0
83,1.0971832275390625,0.48890514592567946,0.22152250173660512,0.7729522742100926,0.1986487898742151,0.0,0.13476793027806627,0.1,0.00286865234375,0.05226778984069824,0.0503639,1.0479412,0.5180026220243474,0.0,0.009402574725654663,0.0,200,0.014605045318603516,0.2541783562605105,0.2681049948105043,16800,2.1444325554298014,0.0
84,1.0685861110687256,0.46682953351017203,0.16463489687594007,0.7421470275815281,0.31125695259366465,0.0,0.13654097984231275,0.1,0.002814769744873047,0.053012847900390625,0.049760953,1.1210407,0.51288531317293,0.0,0.009204701326445618,0.0,200,0.013543844223022461,0.29600545824572483,0.24466721526167495,17000,2.0574390661215207,0.0
85,1.121455430984497,0.6424504788977579,0.38409514852131893,1.269159182560011,0.24989254414284084,0.0,0.1310166528154539,0.1,0.0027549266815185547,0.0520169734954834,0.049726196,1.7408372,0.5258418297454127,0.0,0.012749843291281794,0.0,200,0.013550281524658203,0.316982977933231,0.31979562198999273,17200,1.7819883742585712,0.0
86,1.116901159286499,1.0176061203481412,0.47985290548157755,1.6423395108734438,0.33696017362285324,0.0,0.13067392848740048,0.1,0.0028221607208251953,0.052911996841430664,0.049431562,1.0893487,0.5750182588056856,0.0,0.020254487106847203,0.0,200,0.013099431991577148,0.406132651143092,0.35716559524818303,17400,2.225859793720478,0.0
87,1.118401050567627,0.3356578715780001,0.15014570297032284,0.550220413291081,0.13336550088125265,0.0,0.13371812960403226,0.1,0.0027358531951904297,0.051727294921875,0.04987443,1.1297857,0.5510822200829171,0.0,0.006580323593517001,0.0,200,0.014249324798583984,0.7810950167717057,0.8919846531215022,17600,1.9901562952207208,0.0
88,1.1492218971252441,0.709374871922011,0.36030436148418277,1.167739503897966,0.33622827011571926,0.0,0.13205288402132276,0.1,0.0027475357055664062,0.052590131759643555,0.04945099,1.3922015,0.5669114852668264,0.0,0.014182793301995256,0.0,200,0.013394832611083984,0.25889008230213706,0.2573785784079232,17800,1.8393747138841912,0.0
89,1.146277904510498,0.6231472193269447,0.48915347212982374,1.3711694430505905,0.055059116754603156,0.0,0.12753154924059992,0.1,0.0028111934661865234,0.05285787582397461,0.050293945,2.0610156,0.5725350586728383,0.0,0.012460222298486182,0.0,200,0.013546466827392578,0.39943520940325244,0.3892606625321615,18000,1.9580949847018205,0.0
90,1.0845975875854492,0.49038300008911573,0.2830359062151137,0.8310640620801245,0.05448404717272402,0.0,0.13294371074970704,0.1,0.0027894973754882812,0.05259060859680176,0.05013461,0.8791409,0.564319852814466,0.0,0.009705803661071844,0.0,200,0.016078948974609375,0.3800870734900237,0.3338518363137195,18200,1.7062976365957165,0.0
91,1.0836782455444336,0.2912924893079084,0.27422337982176925,0.753707397488143,0.03509763091200742,0.0,0.13964256690470056,0.1,0.0027806758880615234,0.05354142189025879,0.049897965,1.0985062,0.5370171164638102,0.0,0.005709089675858941,0.0,200,0.014589786529541016,1.013503301543354,0.7699905775383181,18400,2.5813204876836138,0.0
92,1.0971391201019287,0.9261709692814029,0.42198258918526754,1.453571956210815,0.29833638044425603,0.0,0.13571086041368874,0.1,0.00269317626953125,0.05628824234008789,0.04969718,0.98096496,0.5759325017455695,0.0,0.018388564073912844,0.0,200,0.014542818069458008,0.3953420539607192,0.3858946774422487,18600,1.6912899510149735,0.0
93,1.0753319263458252,0.9725220766344287,0.7560890318172744,2.1299894000536472,0.031996972110507026,0.0,0.12743106086867212,0.1,0.0027124881744384766,0.0527186393737793,0.04953139,1.392818,0.6155914592344555,0.0,0.01891434744842181,0.0,200,0.013723373413085938,0.5938790222314692,0.5039193449151741,18800,2.0621576593307767,0.0
94,1.0947768688201904,0.36660952141391434,0.09379864834147707,0.4970167035033045,0.2473964112744752,0.0,0.13249076122227602,0.1,0.0027446746826171875,0.05214333534240723,0.050309893,0.8697374,0.5906932654524013,0.0,0.007323634447668829,0.0,200,0.013683557510375977,0.5089610173181192,0.8063119884152679,19000,2.1396748807896384,0.0
95,1.1066031455993652,0.495431327868062,0.3663790925222039,1.1281069710376699,0.2581461275133301,0.0,0.1284693590519191,0.1,0.0027544498443603516,0.05218911170959473,0.049291898,1.9300456,0.5811670716939674,0.0,0.0098894153831342,0.0,200,0.01343679428100586,0.571133642283572,0.5189414792844093,19200,1.1925937066694345,0.0
96,1.1231930255889893,1.2258117144230198,0.7055222542312618,2.0865643923981203,0.12174582060326486,0.0,0.13072895014476063,0.1,0.0028133392333984375,0.052068471908569336,0.0505213,1.4967949,0.6456315359668726,0.0,0.024469253995569477,0.0,200,0.013662099838256836,0.4403739431249324,0.4155000963573245,19400,0.9231236221818474,0.0
97,1.1215994358062744,1.142933799449338,0.7578295774758564,2.3249717472316207,0.36799328184103386,0.0,0.12131559569093381,0.1,0.0027570724487304688,0.05316567420959473,0.050174646,3.399953,0.6953617623151191,0.0,0.02274794704526821,0.0,200,0.01382589340209961,0.4537781138155366,0.39377449862010944,19600,0.643374361532543,0.0
98,1.1314852237701416,1.145683968963972,0.7304301452508859,2.0377180717258634,0.09138625157811874,0.0,0.12823394480982125,0.1,0.0027463436126708984,0.052039146423339844,0.050040904,1.206511,0.7403939829800045,0.0,0.022892816365219715,0.0,200,0.013205766677856445,0.3480872313031,0.3071005411634137,19800,0.35809562379832244,0.0
99,1.1394200325012207,0.5611120883891144,0.3143832553786434,1.0648303397598418,0.2646035975869149,0.0,0.13604660691472464,0.1,0.002767324447631836,0.05263090133666992,0.050185326,0.90319085,0.7224657935209154,0.0,0.011172194390134917,0.0,200,0.013410568237304688,0.9907657080059818,0.880396794614555,20000,1.9063406172215205,0.0
100,1.1995770931243896,0.33681772858527786,0.2837883156528107,0.7881400935706411,0.08429019726138427,0.0,0.1311826346631077,0.1,0.0028409957885742188,0.05227828025817871,0.049984444,0.76092046,0.6839009870273517,0.0,0.006726321924768534,0.0,200,0.0136260986328125,3.327025539215721,1.4559230260032094,20200,1.919725558385699,0.0
101,1.1466012001037598,0.5625048829308015,0.2878606278328938,0.9708310385593868,0.2889673555437018,0.0,0.13112349074489166,0.1,0.002759218215942383,0.05405235290527344,0.05032986,0.8553805,0.6717613766176966,0.0,0.011214413250786173,0.0,200,0.01352238655090332,0.3470628428551645,0.2405025089537493,20400,1.6533649746569383,0.0
102,1.1449394226074219,0.28249000733177043,0.10381286157551585,0.4241314153773628,0.13166342103050416,0.0,0.13096926851736787,0.1,0.0026674270629882812,0.05464053153991699,0.05083221,0.73520553,0.632834239689104,0.0,0.005632596377076619,0.0,200,0.013313055038452148,0.8237936195018893,0.2734449578028491,20600,1.27735470596544,0.0
103,1.1334896087646484,0.6124826584640268,0.3642906520201937,1.1905034417301212,0.21727339952399533,0.0,0.13083267710936755,0.1,0.002804279327392578,0.05256080627441406,0.04975541,1.5291617,0.6307990815665963,0.0,0.012237090942448021,0.0,200,0.013101339340209961,0.4331884623570516,0.47279331383258083,20800,1.9873126794433336,0.0
104,1.1463673114776611,0.4132790984003269,0.0624114388421892,0.5188001300181754,0.36455990720183457,0.0,0.12867955866296188,0.1,0.002809286117553711,0.05175971984863281,0.049189404,1.0527141,0.6090470832499693,0.0,0.008261064840613414,0.0,200,0.013909578323364258,0.1744662874192573,0.14696447202811122,21000,1.7293982391560985,0.0
105,1.169257640838623,0.7168089899862284,0.4951943501849766,1.445547500233636,0.15615959008806654,0.0,0.13338498890585057,0.1,0.00283050537109375,0.05275583267211914,0.050368372,1.3655765,0.6198232739235952,0.0,0.014301225165283194,0.0,200,0.01284646987915039,0.555562397976991,0.5193548198154351,21200,1.1091843878843533,0.0
106,1.1103129386901855,0.675141874785655,0.535647072536253,1.5391250480044276,0.19498096144800267,0.0,0.12595300227941186,0.1,0.0028874874114990234,0.0535883903503418,0.048984736,2.1935546,0.6253551340098011,0.0,0.013493961649115352,0.0,200,0.013821125030517578,0.5897900129918842,0.543803136357494,21400,1.4410333751276454,0.0
107,1.1048929691314697,1.1211207031032282,0.6719791853656497,2.146315917580328,0.28609736664992924,0.0,0.12955049921217876,0.1,0.00283050537109375,0.061595916748046875,0.050228585,1.8214293,0.6749316909191438,0.0,0.02234150876846073,0.0,200,0.014650106430053711,0.5863797389807507,0.5106371654774492,21600,1.4615738377738319,0.0
108,1.1055309772491455,0.7693494455576856,0.383825309992281,1.2057501702777205,0.25581403192324587,0.0,0.12677655216105416,0.1,0.002859830856323242,0.052315473556518555,0.049873605,1.5973564,0.684373466382998,0.0,0.015380414548433492,0.0,200,0.013167619705200195,0.3177969763658191,0.2595139871345217,21800,1.8309027703385965,0.0
109,1.0895681381225586,0.5496486692777062,0.462999053356104,1.3402449671536851,0.15942829988055304,0.0,0.13212959872540445,0.1,0.005009651184082031,0.05229520797729492,0.049685292,1.645999,0.6709009866724688,0.0,0.0109446162850114,0.0,200,0.013869762420654297,0.49112710178134833,0.5497960228743359,22000,1.4466973878968308,0.0
110,1.122680902481079,1.0040636767649846,0.62498235814151,2.0315483491478386,0.4580820278517988,0.0,0.1369822321138854,0.1,0.002794504165649414,0.05219435691833496,0.049793955,1.5980263,0.7042172556817203,0.0,0.020067853779425937,0.0,200,0.013395071029663086,0.37553222379414747,0.3489495504104841,22200,1.2413594369590746,0.0
111,1.1186957359313965,0.7014828624674649,0.3082583247617367,1.0213828530732039,0.30582139144726533,0.0,0.12945164129243078,0.1,0.0026929378509521484,0.05203676223754883,0.0500275,1.067736,0.7039438163602948,0.0,0.01386223843156951,0.0,200,0.013397216796875,0.27650604125230743,0.28976234998384576,22400,1.3833126732842305,0.0
112,1.1077728271484375,0.31316286798565107,0.12240708223696978,0.4356528687863234,0.1572066953870551,0.0,0.13124606278164686,0.1,0.00269317626953125,0.05201268196105957,0.04949185,0.8383515,0.6648657215228304,0.0,0.006197753486283862,0.0,200,0.013469457626342773,2.6426355508260095,1.7753153854614225,22600,1.4646314635773834,0.0
113,1.1149592399597168,0.7205788089556692,0.4465673825474274,1.275900839163363,0.26919440791084814,0.0,0.1353673668847976,0.1,0.0027942657470703125,0.05270099639892578,0.050538637,1.1038376,0.6704370302661142,0.0,0.014381338661784607,0.0,200,0.013636112213134766,0.304690681715984,0.30796317989113764,22800,0.9027627606131485,0.0
114,1.1152217388153076,0.7352844574874955,0.348102913415267,1.3366079608489385,0.4946878423322921,0.0,0.12745085424263694,0.1,0.002857208251953125,0.05240511894226074,0.049968958,1.8166226,0.6769217729882523,0.0,0.014502497095001069,0.0,200,0.014057397842407227,0.21742198301139842,0.22625709923153692,23000,1.4184417632768167,0.0
115,1.1356852054595947,1.1436150417907927,0.6244689645376057,2.0926072840015566,0.3425055303626444,0.0,0.1261052138753884,0.1,0.0028374195098876953,0.0543818473815918,0.049514394,1.7326907,0.7235910998685063,0.0,0.02281105542903888,0.0,200,0.013119697570800781,0.444287892566068,0.4155984845849751,23200,1.1612921747335214,0.0
116,1.158820629119873,0.4978799318742795,0.3268316493460434,0.9870764762432785,0.07979423270162236,0.0,0.11950797634387926,0.1,0.002813577651977539,0.05209541320800781,0.050293338,1.5730096,0.7010199830690838,0.0,0.009835744073271153,0.0,200,0.013396024703979492,0.44313695913924794,0.497917260050358,23400,0.7969416229457131,0.0
117,1.1500883102416992,0.7660647820458619,0.5906001845354865,1.4651601342997342,0.11345606650789235,0.0,0.12793404601077085,0.1,0.0027632713317871094,0.05211520195007324,0.04985631,1.0961919,0.7075244629667616,0.0,0.015223114417421682,0.0,200,0.013968467712402344,0.4012196079099617,0.39859126826650226,23600,0.8942273420025267,0.0
118,1.1408946514129639,1.0624417895483649,0.5924606514617949,1.697879821543073,0.16979762810670448,0.0,0.12879997247494412,0.1,0.0028378963470458984,0.05285310745239258,0.04962597,1.069199,0.743016195624922,0.0,0.021129731428427438,0.0,200,0.013343334197998047,0.3167290537536972,0.29426181341281793,23800,0.8280998090346913,0.0
119,1.1648585796356201,0.8579001189628777,0.6479527615302845,1.9450803762719675,0.2583728239062557,0.0,0.12196557403453416,0.1,0.002798318862915039,0.05278921127319336,0.049196817,2.8615143,0.7545045879587177,0.0,0.017140499661950775,0.0,200,0.013536930084228516,0.3960382773058237,0.3918367086889916,24000,0.7684644705588296,0.0
120,1.1525511741638184,0.6547359217090396,0.2202205608743665,0.9048974261980626,0.2999098745014218,0.0,0.12465221000128188,0.1,0.0029892921447753906,0.05372881889343262,0.04955188,1.051416,0.7445277213337499,0.0,0.01306365887855785,0.0,200,0.013254165649414062,0.225807209046135,0.21601912514411492,24200,1.0738295306578036,0.0
121,1.2027904987335205,1.333324592665554,0.4418654477627951,1.8482064904664408,0.7462543816130958,0.0,0.1300817720760756,0.1,0.002743959426879883,0.05611252784729004,0.05008052,1.10666,0.8034074084669303,0.0,0.026486363112792764,0.0,200,0.013087749481201172,0.2701926304745693,0.2367101748569517,24400,1.2162719226398873,0.0
122,1.1550867557525635,0.47279138350870276,0.31080818050976056,0.9827421159405582,0.2064566089332748,0.0,0.13292135318726284,0.1,0.0026972293853759766,0.05164289474487305,0.050255354,0.8067137,0.7703458059711076,0.0,0.009400491095784395,0.0,200,0.012583732604980469,0.9104574829916213,0.8915214007212714,24600,1.914114361553626,0.0
123,1.1608171463012695,0.39002300425537567,0.10234711890728965,0.48904256847317357,0.2418353928150809,0.0,0.12834160767892877,0.1,0.0028014183044433594,0.05250883102416992,0.049866393,0.9676824,0.7323135257995343,0.0,0.007790109541312162,0.0,200,0.013763904571533203,1.717032087907358,0.9249753741475929,24800,2.143389903278568,0.0
124,1.1560664176940918,1.1585412487230449,1.0810847871241174,2.762089089643617,0.1145018849206895,0.0,0.1272926567959391,0.1,0.0027985572814941406,0.05255270004272461,0.049573813,1.332847,0.7749362980918855,0.0,0.02303982116510172,0.0,200,0.013270378112792969,0.5421212430087907,0.5562385437402909,25000,1.7208527706096295,0.0
125,1.1765024662017822,0.6891345040994676,0.620486007783792,1.762896413182961,0.2971133613631507,0.0,0.12571592447799315,0.1,0.0033698081970214844,0.053206443786621094,0.04996615,1.814075,0.7663561186926438,0.0,0.013722033456268755,0.0,200,0.013207435607910156,0.4775991564068506,0.4760316117341555,25200,1.2583294897186796,0.0
126,1.1413462162017822,0.7904013075742797,0.48035736983188854,1.4273363209700785,0.32313951128458224,0.0,0.1279446109732268,0.1,0.09317517280578613,0.06878662109375,0.050464954,1.2612194,0.7687606375808074,0.0,0.015709118687749386,0.0,200,0.014227867126464844,0.35699747455679004,0.3491016502127748,25400,1.4519462664862253,0.0
127,1.1310107707977295,0.852048493819641,0.2000661291666759,1.0393654653555877,0.5166160406129594,0.0,0.13117891564133333,0.1,0.0027649402618408203,0.05249810218811035,0.04979891,0.93490064,0.7770894232046908,0.0,0.01661253479972593,0.0,200,0.013615131378173828,0.11288141922025469,0.10165662518755054,25600,1.0986303019401389,0.0
128,1.1259217262268066,0.8509950304143407,0.49864245792148326,1.5977154591538516,0.213609800467811,0.0,0.12532016568294072,0.1,0.002761363983154297,0.052518367767333984,0.050638143,1.5920601,0.7844799839256558,0.0,0.017012048480343274,0.0,200,0.013557195663452148,0.3210519409578559,0.3220714763377034,25800,2.2628657518855233,0.0
129,1.1362361907958984,1.0977778393716449,0.3613858873034507,1.539918555944632,0.5335282525477885,0.0,0.1322950821313549,0.1,0.0027518272399902344,0.05253911018371582,0.050075904,0.94569093,0.8158097694702547,0.0,0.021886090128548398,0.0,200,0.013427734375,0.18381110142578924,0.15626424453737886,26000,2.4518777026414256,0.0
130,1.1440112590789795,0.5050658150373764,0.17298595892485905,0.6714333612335699,0.21525041134143752,0.0,0.12247214535083066,0.1,0.0028820037841796875,0.05758070945739746,0.0496498,0.77200913,0.7847353740269669,0.0,0.01004343535154643,0.0,200,0.014403581619262695,0.6742910487371759,0.6460069271746731,26200,2.136583685911116,0.0
131,1.1532235145568848,0.6632812073182756,0.4992660221153767,1.4077311335837486,0.09658520027450866,0.0,0.12820686540549456,0.1,0.002735137939453125,0.05647468566894531,0.050688166,1.163395,0.7725899573560978,0.0,0.013251440166548023,0.0,200,0.015451192855834961,0.45115240785785976,0.40428905961467637,26400,1.871098779002981,0.0
132,1.15570068359375,1.154869983250322,0.43704704522762766,1.5579333322327105,0.41765084798478125,0.0,0.13061164991184213,0.1,0.0027849674224853516,0.05259346961975098,0.049915954,0.83571297,0.8108179599455202,0.0,0.02290001747515312,0.0,200,0.013350725173950195,0.24435837239943672,0.24491675950553812,26600,2.008472350935505,0.0
133,1.1654658317565918,0.47183111645258347,0.32970741133125736,0.9827296193315491,0.06339154025219905,0.0,0.12352636031407593,0.1,0.0028009414672851562,0.05317401885986328,0.050206114,0.88379973,0.7769192755962265,0.0,0.00942602769142198,0.0,200,0.01363229751586914,0.723701893307477,0.6521481601205853,26800,2.866618289996494,0.0
134,1.1625041961669922,0.6411754763818016,0.283525711541744,0.9410483515824737,0.19309311765414777,0.0,0.12304299078881707,0.1,0.002852201461791992,0.05232381820678711,0.05023613,1.220885,0.763344895674784,0.0,0.012472927937802476,0.0,200,0.01394510269165039,0.22023847494435664,0.20124455041545425,27000,3.0186899545304584,0.0
135,1.1803083419799805,0.37106688615599764,0.15233516161357888,0.5476778226098272,0.13467572062242203,0.0,0.13177940439655195,0.1,0.0028085708618164062,0.052626609802246094,0.049366895,0.6500267,0.7241170947229054,0.0,0.007411345653032321,0.0,200,0.013602495193481445,0.8266619159312582,0.5524261379776014,27200,3.4573167399911937,0.0
