iteration,time_sampling,stoc_pol_mean,stoc_pol_std,stoc_pol_max,stoc_pol_min,rollout_success,alpha,delta,time_vpg,time_npg,kl_dist,surr_improvement,running_score,rwd_sparse,rwd_dense,success_percentage,num_samples,time_VF,VF_error_before,VF_error_after,env_samples,eval_score,eval_success
0,1.6174583435058594,1.2241959753444,0.004869622898019623,1.230916777209636,1.2175023716128115,0.0,0.15731267973731067,0.1,0.13412213325500488,1.721909761428833,0.05398968,1.5063328,1.2241959753444,0.0,0.016937652138416276,0.0,300,0.2974386215209961,0.8254735374712169,0.6305194232599728,300,1.219425766234101,0.0
1,1.3341131210327148,1.2338420684914895,0.02222711841710707,1.272229627865996,1.2189608591558865,0.0,0.15519021955921702,0.1,0.10343289375305176,1.7157728672027588,0.05233531,1.5990248,1.225160584659109,0.0,0.01707482119284161,0.0,300,0.2782707214355469,0.6181178909520914,0.43213620530094954,600,1.2176975472824998,0.0
2,1.2700350284576416,1.2246017934108488,0.007647235824056983,1.2321567727866445,1.21212061531351,0.0,0.15906637065922902,0.1,0.10297060012817383,1.726616382598877,0.054519158,1.6754577,1.225104705534283,0.0,0.016946650706352876,0.0,300,0.3009772300720215,0.4625402369059181,0.2475119026772183,900,1.221019565537803,0.0
3,1.334768295288086,1.249553052496492,0.04528256734638935,1.3264738576564765,1.210034873826944,0.0,0.1497397553381414,0.1,0.10677385330200195,1.7014153003692627,0.05376123,1.9753665,1.2275495402305039,0.0,0.01727953244210891,0.0,300,0.2934892177581787,0.23477329303618186,0.0992493856726976,1200,1.2203513528098846,0.0
4,1.3170087337493896,1.2419458992107142,0.014616576655023448,1.2648998908928437,1.226938991785505,0.0,0.1399077813409742,0.1,0.10722827911376953,1.6494903564453125,0.052218318,5.2459593,1.228989176128525,0.0,0.017160028622564785,0.0,300,0.02117443084716797,0.10240523002208171,0.09793213059916003,1500,1.2177553145384343,0.0
5,1.3591818809509277,1.2470555254219753,0.01815949366795534,1.2601878046631028,1.2161708015143489,0.0,0.12663522690556187,0.1,0.0921471118927002,1.5689308643341064,0.05291101,26.678852,1.23079581105787,0.0,0.01724667461039045,0.0,300,0.2729203701019287,0.08991069508623409,0.06948586075819084,1800,1.2155161059193405,0.0
6,1.385488748550415,1.2416242415496157,0.02562336551011548,1.2833221345281032,1.2145754730151992,0.0,0.14864821549341087,0.1,0.10358071327209473,1.6118993759155273,0.04750669,3.0459933,1.2318786541070446,0.0,0.017137256724981537,0.0,300,0.27171921730041504,0.08090374067590865,0.059394169117817384,2100,1.2236236825295081,0.0
7,1.4241011142730713,1.2261453262020892,0.007201776879535348,1.2361570727385536,1.2182432095675264,0.0,0.11472935664834778,0.1,0.10399103164672852,1.71848464012146,0.044288073,40.996593,1.231305321316549,0.0,0.016961701365229766,0.0,300,0.27328968048095703,0.052571436018643,0.05249856872752911,2400,1.2254900195588705,0.0
8,1.3473846912384033,1.2423857167491434,0.035468442900544225,1.303059434154808,1.2133151774566124,0.0,0.15065211471257722,0.1,0.09335684776306152,1.571021318435669,0.05152163,6.5250697,1.2324133608598085,0.0,0.01717585764522848,0.0,300,0.2759363651275635,0.05484492631388795,0.042358784927826056,2700,1.2245735995788731,0.0
9,1.4079868793487549,1.237324271014797,0.007393333698401076,1.2497282158447434,1.2307249375599467,0.0,0.1375123493151436,0.1,0.09867501258850098,1.5904579162597656,0.049833853,38.271683,1.2329044518753074,0.0,0.017117894407719554,0.0,300,0.2730388641357422,0.047077837204348834,0.04009354505495316,3000,1.232972564703527,0.0
10,1.4111964702606201,1.2370923894543204,0.02362822770113369,1.2768291032854568,1.217723940391283,0.0,0.12683013090869608,0.1,0.09341216087341309,1.4607064723968506,0.04825401,18.10401,1.2333232456332086,0.0,0.01710534157658406,0.0,300,0.2727055549621582,0.033312850783437764,0.02775740473417275,3300,1.2188733973375823,0.0
11,1.4893324375152588,1.226110170862165,0.005783439344684065,1.2346233862588452,1.2184606967999445,0.0,0.15122494776649006,0.1,0.09756684303283691,1.6112964153289795,0.05326954,23.718433,1.2326019381561042,0.0,0.01695844601730224,0.0,300,0.2735593318939209,0.030528678934631813,0.025433295869213567,3600,1.2190486274173298,0.0
12,1.423257827758789,1.2475391665785676,0.033466830373682345,1.3043821436914294,1.2182061507756983,0.0,0.1506897667477672,0.1,0.10313177108764648,0.9876754283905029,0.046881255,12.172406,1.2340956609983507,0.0,0.01724689348760378,0.0,300,0.019404172897338867,0.0336939018765927,0.028326595117104385,3900,1.2343289823624386,0.0
13,1.3906123638153076,1.2584804087513213,0.043767490232408425,1.3281165603960103,1.2192582967131504,0.0,0.14618800980945573,0.1,0.10062861442565918,1.6007559299468994,0.051726088,42.591633,1.2365341357736477,0.0,0.01736426824583793,0.0,300,0.28241944313049316,0.032000222488373545,0.026674905889293794,4200,1.292524635024325,0.0
14,1.4161229133605957,1.2836255632854336,0.06312984248577529,1.3892967017055717,1.224021187287788,0.0,0.15108740489428965,0.1,0.10837149620056152,1.7081801891326904,0.050459243,4.130647,1.2412432785248262,0.0,0.017711005545998217,0.0,300,0.28302931785583496,0.04291226469328217,0.03582296567312454,4500,1.30097991526149,0.0
15,1.4199235439300537,1.264784407656311,0.03343955995481736,1.3105879291066331,1.2206203632059383,0.0,0.14408761148294225,0.1,0.0952153205871582,0.519740104675293,0.049418382,17.388885,1.2435973914379748,0.0,0.01746962731699392,0.0,300,0.2718641757965088,0.020828715308399474,0.017341656270010736,4800,1.4077891422097062,0.0
16,1.4306855201721191,1.2460361420393768,0.014673450584518327,1.269075823705907,1.2320680086022193,0.0,0.15201020169834728,0.1,0.10276389122009277,1.6614727973937988,0.050949033,15.181498,1.243841266498115,0.0,0.017219847754767346,0.0,300,0.297426700592041,0.019733615870218667,0.015194104380820158,5100,1.3603274459452706,0.0
17,1.4113826751708984,1.2568129846012692,0.04226508797266958,1.3281861201692102,1.219514196790427,0.0,0.16058623358009017,0.1,0.10097670555114746,1.7258977890014648,0.051416248,3.5451057,1.2451384383084305,0.0,0.017363358466723766,0.0,300,0.017985820770263672,0.015479095846145041,0.011496594397237872,5400,1.323270243876394,0.0
18,1.4323127269744873,1.2523847804852408,0.025692300348541613,1.29650260276477,1.2334876980951286,0.0,0.17185135700030446,0.1,0.10002684593200684,1.6829938888549805,0.05133309,1.7519926,1.2458630725261115,0.0,0.017287131290840883,0.0,300,0.29291272163391113,0.011966322448209143,0.008615413766537995,5700,1.2969590108254465,0.0
19,1.4543254375457764,1.2418251725952938,0.02537660546325991,1.2855430650238329,1.2238589677432985,0.0,0.1586289304743356,0.1,0.09300804138183594,1.576780080795288,0.049406864,4.411537,1.2454592825330297,0.0,0.01718090740350701,0.0,300,0.27324628829956055,0.010395668048330368,0.009044234745845777,6000,1.382744091477796,0.0
20,1.4522788524627686,1.2480814162915896,0.013016240392836245,1.2688404599095466,1.2335246332043335,0.0,0.17303658399343766,0.1,0.09531354904174805,1.5681297779083252,0.05009062,1.1268294,1.2457214959088856,0.0,0.017236474091858547,0.0,300,0.26727867126464844,0.013159679308725044,0.011126258715492726,6300,1.3904234726004032,0.0
21,1.4796721935272217,1.253742784147581,0.021779662250417164,1.2745327294978352,1.2173956581252194,0.0,0.1633822143752752,0.1,0.10151338577270508,1.1305019855499268,0.050413013,1.8695154,1.2465236247327551,0.0,0.017299261020840145,0.0,300,0.01972651481628418,0.014271316415237812,0.008933000605130382,6600,1.4720911658554563,0.0
22,1.476999282836914,1.293041619161814,0.07014831064086642,1.3666773489221764,1.2190525722455638,0.0,0.174676952310975,0.1,0.10297298431396484,0.8337535858154297,0.049342304,1.8656118,1.2511754241756612,0.0,0.01784651942873905,0.0,300,0.01787877082824707,0.0315652664657489,0.026182250291503343,6900,1.381055785294728,0.0
23,1.4607694149017334,1.2402437694049173,0.01806857765461341,1.2666726646214697,1.219847464443374,0.0,0.17001014849216434,0.1,0.10499835014343262,1.6147634983062744,0.050857615,1.039603,1.250082258698587,0.0,0.01715687043521544,0.0,300,0.27368736267089844,0.03491607053930003,0.02080538935167173,7200,1.3729363801031889,0.0
24,1.476668119430542,1.465593900255891,0.3380512405098184,2.0485643052407387,1.2247301170325955,0.0,0.18504446088175838,0.1,0.10168981552124023,1.5836372375488281,0.049994975,1.049015,1.2716334228543174,0.0,0.02011385092469056,0.0,300,0.2748126983642578,0.3798245506133105,0.2921057902857269,7500,1.4401188607916986,0.0
25,1.5100641250610352,1.2358031273004118,0.014116623908827475,1.2507720442806365,1.2187338843287876,0.0,0.17743615101176624,0.1,0.09346342086791992,1.5666992664337158,0.051061224,1.6051712,1.2680503932989269,0.0,0.017100228208758547,0.0,300,0.21819615364074707,0.5602865482014361,0.045245564920773744,7800,1.5884213351366616,0.0
26,1.4944376945495605,1.2340216079843644,0.02372366435908632,1.274540622667662,1.2168251511438786,0.0,0.1753602954570017,0.1,0.10460853576660156,1.573150873184204,0.04938527,1.1819866,1.2646475147674705,0.0,0.017073397412436662,0.0,300,0.271914005279541,0.045258373803865236,0.11251028623971078,8100,1.4318539467896245,0.0
27,1.489103078842163,1.2432519607738304,0.0231929099430116,1.2831903838337448,1.2277362730708425,0.0,0.17055126382340668,0.1,0.10229682922363281,1.628814458847046,0.049853496,1.0717363,1.2625079593681066,0.0,0.0171926773572437,0.0,300,0.035041093826293945,0.10066992991756801,0.011951014994848816,8400,1.5114372768556823,0.0
28,1.4744441509246826,1.2485765988748307,0.02276026065186976,1.2762386343044931,1.2203228366400656,0.0,0.15934279226314874,0.1,0.002721071243286133,0.060240983963012695,0.050126176,1.9642282,1.261114823318779,0.0,0.017256756190702605,0.0,300,0.017348766326904297,0.016307944528683962,0.03443269577174728,8700,1.769353897158749,0.0
29,2.2481768131256104,1.268501954940009,0.06147187861577226,1.371727681004521,1.2105997168737768,0.0,0.17108353125879605,0.1,0.1026449203491211,0.9331772327423096,0.049934685,0.8367112,1.261853536480902,0.0,0.017467248344091257,0.0,300,0.016953706741333008,0.04225708228473238,0.022465641592378436,9000,1.522239044645348,0.0
30,1.3932008743286133,1.2606711215946333,0.02976062117623288,1.300149931951301,1.2196732556880998,0.0,0.1588122734017996,0.1,0.10082721710205078,1.6130728721618652,0.049070347,3.9229794,1.2617352949922753,0.0,0.01742516671482014,0.0,300,0.2715628147125244,0.013523576450152792,0.0187053845906342,9300,1.4337404118319397,0.0
31,1.439742088317871,1.2670632113749978,0.021699758339092955,1.3028650716349872,1.2449670447244165,0.0,0.17944550499480014,0.1,0.09822678565979004,1.6351912021636963,0.050679963,1.3164566,1.2622680866305476,0.0,0.017513143480221652,0.0,300,0.27159833908081055,0.01576342654178122,0.012879289439554112,9600,1.3369180757713524,0.0
32,1.4018974304199219,1.2525263150883734,0.018595607506140765,1.272765155682174,1.2304578003450313,0.0,0.1825566896610343,0.1,0.09913468360900879,0.48438072204589844,0.05044513,1.0338582,1.2612939094763302,0.0,0.017310221165752385,0.0,300,0.017102718353271484,0.014198627620643044,0.013300105217490277,9900,1.3256981363616234,0.0
33,1.4116425514221191,1.2723455660154426,0.02360772320523897,1.3115572046844897,1.2534051783464761,0.0,0.17035042191814878,0.1,0.09292745590209961,0.3630187511444092,0.049362477,4.3228674,1.2623990751302414,0.0,0.017573100037520255,0.0,300,0.01828742027282715,0.011293372088081243,0.01016994393872133,10200,1.4177888815422364,0.0
34,1.438044786453247,1.2264097908234195,0.010691502103862325,1.2410128402430816,1.215161943981671,0.0,0.16396428743748062,0.1,0.09477639198303223,1.5668647289276123,0.049464196,2.2571661,1.2588001466995593,0.0,0.016974137721797636,0.0,300,0.27209925651550293,0.014864054426157692,0.012052952817447294,10500,2.217515342380892,0.0
35,1.4134938716888428,1.2818473178300591,0.06176479164845329,1.3734055317415097,1.2172623245191938,0.0,0.15466925402289444,0.1,0.10458064079284668,1.5966017246246338,0.05067165,4.465142,1.2611048638126092,0.0,0.017662944979493604,0.0,300,0.2701389789581299,0.018639086599596736,0.014382704468238,10800,2.675851638515137,0.0
36,1.4537615776062012,1.5796569879490931,0.4828725457018546,2.412051958798749,1.2323980341472733,0.0,0.15478841390290812,0.1,0.07364845275878906,0.0570828914642334,0.047523998,19.849747,1.2929600762262576,0.0,0.02141212384465662,0.0,300,0.017895221710205078,0.4463728769420301,0.3315067090903232,11100,3.1303910203388363,0.0
37,1.4643793106079102,1.2930564658840502,0.02964877101567454,1.342853300662335,1.2661099763085695,0.0,0.16036272387853434,0.1,0.09363961219787598,1.5895981788635254,0.04925631,1.8307949,1.292969715192037,0.0,0.017739430435670677,0.0,300,0.2713148593902588,0.2597101060213221,0.07258304937536776,11400,2.6617581329861935,0.0
38,1.4508016109466553,1.3155279943939657,0.0543933543142254,1.384225807078776,1.261359380297458,0.0,0.16897678840861388,0.1,0.09757709503173828,0.9292633533477783,0.04989078,2.1172562,1.29522554311223,0.0,0.01814257313135623,0.0,300,0.019052743911743164,0.0747459366826253,0.07564462866538606,11700,1.5032072378778951,0.0
39,1.4412457942962646,1.2952443881324007,0.026256812838064237,1.3386170524269168,1.2736975621418194,0.0,0.16464351914158815,0.1,0.09400558471679688,0.6773116588592529,0.04892296,1.4567477,1.295227427614247,0.0,0.017855339255423215,0.0,300,0.01734638214111328,0.07381453717933091,0.05508599014785216,12000,1.4088158676982896,0.0
40,1.496978998184204,1.2953907817140002,0.07648593978527266,1.425115096204963,1.2394250896893455,0.0,0.17629854882168572,0.1,0.09737896919250488,1.5690422058105469,0.050086353,1.0529733,1.2952437630242224,0.0,0.017861572807419828,0.0,300,0.27385616302490234,0.060556044118665095,0.01960597931915282,12300,1.3552033329687383,0.0
41,1.386352300643921,1.3153586436005136,0.0928632142302289,1.4754238611384494,1.2475354146603836,0.0,0.17221506601237338,0.1,0.10170674324035645,1.644035816192627,0.050835665,2.000188,1.2972552510818514,0.0,0.01797765028137949,0.0,300,0.08838629722595215,0.03131487041195118,0.04042813922551048,12600,1.2448828286967095,0.0
42,1.378955364227295,1.2606852884487085,0.048964275784021606,1.3452987833112462,1.2287070701264138,0.0,0.18170398900624612,0.1,0.10163307189941406,1.5822160243988037,0.05034886,0.8657153,1.2935982548185372,0.0,0.017350336946766774,0.0,300,0.2693183422088623,0.05509860729728193,0.02120120563007852,12900,1.3129556249552472,0.0
43,1.4046821594238281,1.399417333692187,0.17684941425930142,1.7050506339312903,1.2804434755932437,0.0,0.18371065459982353,0.1,0.0954124927520752,0.6183323860168457,0.049597587,1.2785642,1.3041801627059022,0.0,0.019194266821619007,0.0,300,0.017992496490478516,0.07811108841699649,0.06834854005001798,13200,1.4373624848367152,0.0
44,1.509481430053711,1.6127529584648688,0.22052009881900475,1.8394938684720212,1.3075394703892314,0.0,0.2020436216660307,0.1,0.09678483009338379,1.5760257244110107,0.049957905,0.7672468,1.335037442281799,0.0,0.02198903704023613,0.0,300,0.27756524085998535,0.16532757025225275,0.09030874589526278,13500,1.32750034171808,0.0
45,1.415039300918579,1.3328123256184725,0.041128890499556536,1.3809227516267486,1.274668646264068,0.0,0.17086540140502626,0.1,0.09396624565124512,1.581939697265625,0.049420193,0.55523187,1.3348149306154664,0.0,0.018364745044226825,0.0,300,0.27291274070739746,0.14679975461072092,0.05970664481619311,13800,1.338663990815977,0.0
46,1.4162101745605469,1.2749273690962264,0.033748139996862124,1.3158548721419225,1.2307695685790552,0.0,0.15565547766952137,0.1,0.09554171562194824,1.577953815460205,0.049563702,7.5698423,1.3288261744635423,0.0,0.017590215225906182,0.0,300,0.2677757740020752,0.08803781071047848,0.037973204658629404,14100,1.6286542962297113,0.0
47,1.4322071075439453,1.3909755242612558,0.14913377842161563,1.6293567284590813,1.2444150785219312,0.0,0.1719100739203647,0.1,0.10323238372802734,1.2689006328582764,0.04964473,1.2799175,1.3350411094433137,0.0,0.01914822118837914,0.0,300,0.01862168312072754,0.07145534264946612,0.05945405457034801,14400,1.6901691447952596,0.0
48,1.4684011936187744,1.345314554164831,0.04485365263716384,1.4004274152962015,1.278033387784928,0.0,0.17311263886973755,0.1,0.0995328426361084,1.5973107814788818,0.049764764,1.7613938,1.3360684539154655,0.0,0.018540053100415555,0.0,300,0.2691361904144287,0.04380932270375411,0.012576271966916207,14700,1.6879557299864267,0.0
49,1.4722249507904053,1.3921527885253533,0.033698446136209356,1.4355748980511172,1.3517983829733293,0.0,0.1802417982134578,0.1,0.09376382827758789,1.577909231185913,0.04976788,1.1346498,1.3416768873764544,0.0,0.019161766025333777,0.0,300,0.2728390693664551,0.017847567347031638,0.023046219523462242,15000,1.5764775829733997,0.0
50,1.5024185180664062,1.5262651928370814,0.3392111586213572,2.098615412392026,1.2238042901363948,0.0,0.16625640887216825,0.1,0.09449338912963867,0.09424281120300293,0.049975827,2.2313168,1.360135717922517,0.0,0.020948605797522647,0.0,300,0.017237186431884766,0.14286813568404505,0.12220937914116553,15300,1.5331399367951566,0.0
51,1.4644653797149658,1.3597938050506344,0.0747052230762845,1.475206195259103,1.2661855204524184,0.0,0.16771258207099815,0.1,0.0028581619262695312,0.05537986755371094,0.049498156,1.4320225,1.360101526635329,0.0,0.01873764481522841,0.0,300,0.0175020694732666,0.06886045431398949,0.031570278385209954,15600,1.5735058285760675,0.0
52,1.4918482303619385,1.4220557444416433,0.12429368294134668,1.6095640929917168,1.3041417967283129,0.0,0.17863729799273584,0.1,0.002816915512084961,0.055405378341674805,0.050256863,0.9819812,1.3662969484159604,0.0,0.019517098008419984,0.0,300,0.017750263214111328,0.044867546378182264,0.05336258845817078,15900,1.8520543861471703,0.0
53,1.4167120456695557,1.4657790761406493,0.17246388404016624,1.7504565580511375,1.2867207015576703,0.0,0.177518765507231,0.1,0.10366630554199219,1.5694959163665771,0.049390245,1.0369507,1.3762451611884294,0.0,0.02014580321937441,0.0,300,0.2724621295928955,0.05315929977295645,0.04322207545171135,16200,2.3077976853073183,0.0
54,1.5210037231445312,1.4189879748321241,0.11619914622162561,1.5726930751230288,1.2688895360884904,0.0,0.17354135687171718,0.1,0.09335517883300781,1.577237844467163,0.04918468,1.3559003,1.380519442552799,0.0,0.019527986533209318,0.0,300,0.27354955673217773,0.03127422297754257,0.031245954231125913,16500,2.4081884504707856,0.0
55,1.481079339981079,1.3242508483822462,0.06287014669171245,1.4321584366811333,1.2807198622239457,0.0,0.16101501210648445,0.1,0.10752153396606445,1.5769217014312744,0.05038119,0.66178566,1.3748925831357437,0.0,0.018270970573301168,0.0,300,0.01760077476501465,0.03766206122954838,0.015081856527804135,16800,2.39135672421397,0.0
56,1.4652190208435059,1.4174126606465955,0.1755938204770185,1.7170776875092775,1.2923797107293036,0.0,0.16764488235165892,0.1,0.09342384338378906,1.566591501235962,0.049239084,4.0366483,1.379144590886829,0.0,0.01943317397160129,0.0,300,0.2716066837310791,0.1352003898558557,0.12758983351472294,17100,1.6794189275303182,0.0
57,1.5325767993927002,1.6481996531806873,0.5093478885557814,2.50515928528044,1.256548277423133,0.0,0.20052124914164193,0.1,0.09363961219787598,0.8801038265228271,0.04968272,1.0708663,1.4060500971162146,0.0,0.022580495569156075,0.0,300,0.015822172164916992,0.2682419151760381,0.22046639680966726,17400,1.4692908593703675,0.0
58,1.5020227432250977,1.7691151217977146,0.551382529688639,2.7137898570951746,1.3226835305995313,0.0,0.1889817151343454,0.1,0.09380507469177246,1.5713634490966797,0.049996417,1.1821522,1.4423565995843648,0.0,0.02420839761461524,0.0,300,0.2788393497467041,0.21929987464666353,0.19994385036044257,17700,1.5964621229238556,0.0
59,1.5154919624328613,1.5987375060560465,0.18494642415746637,1.7251315151182751,1.2793994176067551,0.0,0.18437118624197774,0.1,0.09747123718261719,0.7916531562805176,0.050047316,0.5809584,1.457994690231533,0.0,0.02154571062879514,0.0,300,0.017089128494262695,0.1575325836976608,0.06470928499979126,18000,1.479951880502081,0.0
60,1.5901377201080322,1.4458812313370673,0.2889431997645949,1.9451272072535974,1.2624264762544906,0.0,0.1769758710226452,0.1,0.10058045387268066,1.643458604812622,0.05068078,0.8747993,1.4567833443420866,0.0,0.019692579957180142,0.0,300,0.2936718463897705,0.12344481192405957,0.13784788592765676,18300,1.2476027062824586,0.0
61,1.5411412715911865,2.253290327453186,0.9418412092517833,3.7539739506301544,1.2783497761071088,0.0,0.19220867658514493,0.1,0.09543013572692871,0.9521210193634033,0.04930606,0.83891076,1.5364340426531966,0.0,0.03065389684562971,0.0,300,0.021456480026245117,0.5515523588156005,0.32089303567910066,18600,1.2528615535376364,0.0
62,1.4649696350097656,1.8282949469656864,0.22495571307827975,2.1404348605118475,1.5362482882353483,0.0,0.17033306366176137,0.1,0.0029494762420654297,0.056645870208740234,0.0497419,1.1769146,1.5656201330844457,0.0,0.02496012392032696,0.0,300,0.017208576202392578,0.09831072146984637,0.14895166955475278,18900,1.2612721399369455,0.0
63,1.4776644706726074,1.628952844254976,0.3531241909301248,2.1945812174416193,1.2826376600156209,0.0,0.17582453479319257,0.1,0.09346151351928711,1.5657968521118164,0.04914568,1.0483285,1.5719534042014989,0.0,0.02233053766835549,0.0,300,0.27286458015441895,0.41525166025202226,0.14865519627995644,19200,1.273470572776745,0.0
64,1.4757542610168457,1.342965425000926,0.07861016692818523,1.4409723298276034,1.2593061697101016,0.0,0.1701231643481253,0.1,0.09404850006103516,0.09305500984191895,0.049963124,0.8202405,1.5490546062814416,0.0,0.018528531031684968,0.0,300,0.01765918731689453,0.058209279618197066,0.06276886392865452,19500,1.2256578271995178,0.0
65,1.4845821857452393,1.7436972133161213,0.3060021743642793,2.2001718841997744,1.3696696055413253,0.0,0.17419581040443718,0.1,0.09091043472290039,0.8281369209289551,0.0507713,1.0465221,1.5685188669849097,0.0,0.023864620322056815,0.0,300,0.017276763916015625,0.24846664760041534,0.2082728671333084,19800,1.2351772358730755,0.0
66,1.5060467720031738,1.5596095969761343,0.278077322802045,2.019099236805054,1.2728950256574891,0.0,0.17493564545648693,0.1,0.10404706001281738,1.6912474632263184,0.04903812,1.1317499,1.5676279399840323,0.0,0.021391617095561297,0.0,300,0.27861666679382324,0.15830939546043896,0.10278201483472024,20100,1.2212158764023606,0.0
67,1.5066888332366943,2.1055366192338183,0.6069185891622696,3.0378160211243626,1.3879660094462944,0.0,0.17821752426237264,0.1,0.10275864601135254,1.601670265197754,0.05026942,1.402038,1.621418807909011,0.0,0.028623151284471297,0.0,300,0.30060577392578125,0.3146128123227478,0.1791730964494871,20400,1.2195592619686322,0.0
68,1.5364701747894287,1.593645697749987,0.25534213968370656,1.9553753990659544,1.349989288511361,0.0,0.16854388721135413,0.1,0.10290026664733887,1.622392177581787,0.04988893,0.45917225,1.6186414968931089,0.0,0.021802410272583603,0.0,300,0.276897668838501,0.2142084153670684,0.22885461096430632,20700,1.223445039232581,0.0
69,1.56850266456604,2.199555193177667,0.9253053516770762,3.7251909056387276,1.2420096252319894,0.0,0.1646945175483576,0.1,0.014222145080566406,0.057465553283691406,0.04916883,2.3956769,1.6767328665215646,0.0,0.029949910830606018,0.0,300,0.022706031799316406,0.34724504616843077,0.3328302850436213,21000,1.2184294144849022,0.0
70,1.5841925144195557,1.8125620803068583,0.48819981770762794,2.655446930825331,1.4683280696809269,0.0,0.17721857571456684,0.1,0.09323596954345703,1.5673770904541016,0.049865775,0.95982766,1.690315787900094,0.0,0.024768363774198103,0.0,300,0.274564266204834,0.17499064840007378,0.16673193371374956,21300,1.226121536220562,0.0
71,1.560239553451538,1.6310643907843265,0.2121306442852097,1.942752954349466,1.3588029586097372,0.0,0.1693470496898082,0.1,0.09337973594665527,1.5986361503601074,0.05054232,0.8106088,1.6843906481885174,0.0,0.02234919839488415,0.0,300,0.27815818786621094,0.10527632688037683,0.04771354636841242,21600,1.2183718093448146,0.0
72,1.592245101928711,2.521864034070834,0.8716929125842736,3.681327314189949,1.5092379184690272,0.0,0.17310673308549482,0.1,0.09857773780822754,0.30963802337646484,0.049147572,1.5779625,1.768137986776749,0.0,0.034235988943673946,0.0,300,0.017167329788208008,0.3295531781185456,0.2422744907697038,21900,1.2148966626264674,0.0
73,1.5716848373413086,2.1128178332598844,0.7648100691583449,3.142241531616472,1.3660538200829393,0.0,0.17545526237950043,0.1,0.0945427417755127,0.11594653129577637,0.049687225,1.1325479,1.8026059714250628,0.0,0.028792610781122926,0.0,300,0.0176999568939209,0.2105304104480553,0.23433166313435347,22200,1.2128600478093055,0.0
74,1.5843315124511719,1.8515275135337115,0.3068861334140753,2.2354828223910745,1.3948232222713501,0.0,0.17712536187572106,0.1,0.09339165687561035,1.5644967555999756,0.04918145,0.75764173,1.8074981256359277,0.0,0.02528874420489302,0.0,300,0.2729330062866211,0.3417337635697086,0.10881746623280188,22500,1.210550039025054,0.0
75,1.6103644371032715,2.4412586504484053,0.706400554750477,3.6528087101511697,1.9125670816972746,0.0,0.1798559875857284,0.1,0.09494733810424805,1.5662157535552979,0.04887845,1.1657588,1.8708741781171756,0.0,0.03314726492248843,0.0,300,0.2784881591796875,0.20379463863574906,0.2037902042316715,22800,1.2110410492130532,0.0
76,1.6161012649536133,2.104284537116548,0.517941185401041,2.979614001021927,1.6422636477984816,0.0,0.1829274238798671,0.1,0.10827279090881348,1.3429489135742188,0.049485803,0.77130944,1.894215214017113,0.0,0.02866337738134824,0.0,300,0.01696634292602539,0.17078117415490884,0.16242665501793577,23100,1.210195651573607,0.0
77,1.6341571807861328,2.458945517483377,1.0514340149839143,4.00754111565566,1.21547004399527,0.0,0.1788269311763607,0.1,0.0065937042236328125,0.0546417236328125,0.049014125,2.252145,1.9506882443637394,0.0,0.033409533264053895,0.0,300,0.017345666885375977,0.27725753577793244,0.26427228301539923,23400,1.2102939977372429,0.0
78,1.4689714908599854,2.056691593885616,0.5447667967676831,2.9587292520161776,1.495345330372784,0.0,0.18870480104370288,0.1,0.0030641555786132812,0.0565948486328125,0.049754456,0.80880827,1.9612885793159271,0.0,0.02803091533575882,0.0,300,0.017742395401000977,0.20763569875315416,0.17123397913026936,23700,1.2100560533141225,0.0
79,1.4785535335540771,2.7240601247010185,1.1902204738991657,4.420584869284394,1.5826193756808644,0.0,0.17637495279076643,0.1,0.10212326049804688,0.25893449783325195,0.049870074,0.8423317,2.037565733854436,0.0,0.03663176901950345,0.0,300,0.020031452178955078,0.3705734555950419,0.32158991111367113,24000,1.209843658918227,0.0
80,1.5604753494262695,2.297019901988756,0.8478818938589463,3.7170340397130746,1.5210186724765669,0.0,0.1764883395338958,0.1,0.09957385063171387,1.60025954246521,0.049850874,1.1216613,2.063511150667868,0.0,0.031242532548402896,0.0,300,0.2736079692840576,0.25475213490570386,0.2501417518581529,24300,1.2105357436255095,0.0
81,1.537123680114746,2.565952754937656,0.6449976516302748,3.443839091487373,1.7120708585316209,0.0,0.17289624553288374,0.1,0.10270285606384277,1.5820958614349365,0.049477134,0.88356566,2.113755311094847,0.0,0.034832914532762556,0.0,300,0.2681286334991455,0.11130348463667443,0.10650701823200796,24600,1.2111941497426189,0.0
82,1.5544617176055908,2.3226507048703278,0.7933745483218126,3.4666890638014785,1.2246865907421618,0.0,0.16504052196998478,0.1,0.10252928733825684,1.6793270111083984,0.050094,1.343459,2.134644850472395,0.0,0.03159039688006557,0.0,300,0.28850245475769043,0.22219101545689954,0.2133316499121453,24900,1.2129515228315975,0.0
83,1.535323143005371,3.0111988747535334,1.0218671072551515,4.700757355828445,1.952880458779716,0.0,0.19660362833886763,0.1,0.09632515907287598,1.5749826431274414,0.05053188,0.87471026,2.222300252900509,0.0,0.040682226503633664,0.0,300,0.07269406318664551,0.28466314395785197,0.2144942785106636,25200,1.2119780717905324,0.0
84,1.515491008758545,1.4745700104223414,0.16121192776289106,1.7094517981642314,1.255498808519999,0.0,0.18689520408188695,0.1,0.09586167335510254,1.167829990386963,0.049652148,0.51440275,2.1475272286526925,0.0,0.020285195307845942,0.0,300,0.01755833625793457,2.094028444089274,0.853796393028778,25500,1.2122127740923312,0.0
85,1.5409884452819824,2.5995220095398817,1.180743949691794,4.007037273991354,1.4107745034534835,0.0,0.17902652608173153,0.1,0.10053634643554688,1.5768556594848633,0.049415503,0.92871034,2.1927267067414116,0.0,0.035282668939618136,0.0,300,0.27370786666870117,0.3307831993125646,0.40258327343145145,25800,1.2119346713364636,0.0
86,1.552154541015625,2.0986973636630344,0.9532187920964306,3.740096124986076,1.383767190675758,0.0,0.18362103577521197,0.1,0.09798693656921387,1.5821142196655273,0.050609913,0.9885797,2.183323772433574,0.0,0.028607065836601213,0.0,300,0.27204394340515137,0.35882815543303553,0.3557328532529648,26100,1.2119774307225704,0.0
87,1.60080885887146,1.8800972184848588,0.5688206644871593,2.8598102304802278,1.4627561201608406,0.0,0.17282321358998487,0.1,0.09323954582214355,1.5727272033691406,0.050842553,0.92044777,2.1530011170387024,0.0,0.025685841171026978,0.0,300,0.2714064121246338,0.18541380460841902,0.17909310548727844,26400,1.2119524054924768,0.0
88,1.6457629203796387,2.291445329291126,0.5080265889508981,3.0877312339372227,1.7458478187404893,0.0,0.18244923342142247,0.1,0.09950065612792969,1.6218647956848145,0.050468884,0.9663194,2.166845538263945,0.0,0.03106926458734205,0.0,300,0.2728874683380127,0.13092126066578647,0.09708896639332229,26700,1.2108344369596507,0.0
89,1.584066390991211,1.7733808614087283,0.511102782918351,2.500162020932971,1.2276292855483468,0.0,0.17713323229261643,0.1,0.0936739444732666,1.4742915630340576,0.049956292,0.5048918,2.1274990705784234,0.0,0.0242664380050198,0.0,300,0.30893397331237793,0.24568051268815533,0.24659725073031638,27000,1.2115458576651152,0.0
90,1.63816237449646,2.7101973266333657,0.9771593760331971,4.1580585929333385,1.5500361864101402,0.0,0.16762478942247194,0.1,0.10904288291931152,1.582301139831543,0.048934776,1.2984056,2.1857688961839177,0.0,0.036733124340843,0.0,300,0.24133706092834473,0.2787434903818628,0.23923866708392214,27300,1.2110189205621391,0.0
91,1.5460846424102783,2.5418328347878925,2.0238639783576877,6.046583106569828,1.3106024252613773,0.0,0.17568714047273898,0.1,0.09946608543395996,1.579303503036499,0.049625903,1.1202971,2.2213752900443153,0.0,0.034509358511517166,0.0,300,0.292525053024292,0.562796756317511,0.5327710754684966,27600,1.210491674339812,0.0
92,1.5451061725616455,2.5004860010937024,0.30825765700601504,2.6905826953784575,1.9668927443779498,0.0,0.18242370343845113,0.1,0.10124635696411133,1.6922626495361328,0.05009184,0.55257565,2.249286361149254,0.0,0.03393339278815379,0.0,300,0.29337215423583984,0.055984623103931985,0.07565105922444317,27900,1.2100965295912827,0.0
93,1.5361762046813965,1.7041033014291898,0.18623932289290976,1.8821104711491292,1.3984777587964448,0.0,0.17339976902224088,0.1,0.09906435012817383,1.591639518737793,0.050460264,0.5703711,2.194768055177248,0.0,0.02327531915735652,0.0,300,0.2768535614013672,1.2067901767271212,0.24556296941105263,28200,1.2103085090478611,0.0
94,1.5726375579833984,2.7998275849068515,1.0821714998388168,3.9410924735642032,1.2955768692127354,0.0,0.16982657572026258,0.1,0.10219359397888184,1.665546178817749,0.050017044,0.83345467,2.2552740081502085,0.0,0.037870615056511264,0.0,300,0.29132556915283203,0.2944284737242335,0.34824157421668156,28500,1.2103989281005316,0.0
95,1.549102544784546,2.017902699305032,0.35240231498814667,2.4260183896075174,1.6024086531396873,0.0,0.17089735577897697,0.1,0.10270857810974121,1.6580934524536133,0.049943805,0.7479738,2.231536877265691,0.0,0.027391855402941055,0.0,300,0.17059922218322754,0.09800254281807447,0.0928669953087682,28800,1.2102781409415464,0.0
96,1.5774149894714355,3.139211339586789,0.6590453751725404,3.8759494731337045,2.3299365133196237,0.0,0.17075813570414644,0.1,0.09534764289855957,0.36133241653442383,0.04927394,1.179201,2.322304323497801,0.0,0.0424532888829712,0.0,300,0.017934083938598633,0.2751780054314399,0.16087291832676232,29100,1.2103689854219337,0.0
97,1.5930821895599365,2.2159266857814877,0.3775928096654772,2.67314742888508,1.7977159869182755,0.0,0.1656024649752558,0.1,0.002930164337158203,0.055571556091308594,0.05006273,0.6759436,2.3116665597261696,0.0,0.030139717995534894,0.0,300,0.016983985900878906,0.11817562960834462,0.20267779077844247,29400,1.2100717434776862,0.0
98,1.565201997756958,2.8234367475944557,0.37124715788272794,3.211110542941893,2.3207004518782877,0.0,0.16968361711312274,0.1,0.10838103294372559,1.5991554260253906,0.049479764,0.800977,2.362843578512998,0.0,0.038232968048074384,0.0,300,0.2750518321990967,0.04456121045717956,0.0406399423353381,29700,1.2103856656468341,0.0
99,1.5946450233459473,2.827038398974694,0.5096877208279338,3.4313453384116865,2.161165728400604,0.0,0.16992273554981116,0.1,0.09368014335632324,1.4712560176849365,0.04928789,0.9958505,2.409263060559168,0.0,0.03831269070096011,0.0,300,0.2723274230957031,0.06392416680234927,0.062318359131870706,30000,1.2101571139065328,0.0
100,1.5996084213256836,2.2446872029931004,0.45149196060479474,2.8768531053787796,1.6375366128280833,0.0,0.181451570863597,0.1,0.09184813499450684,1.5753412246704102,0.049480435,0.4958732,2.3928054748025613,0.0,0.030502090549459508,0.0,300,0.2729170322418213,0.2137918337256233,0.12912581531802675,30300,1.2100663237409157,0.0
101,1.5784199237823486,2.4999083180924857,0.8678706111006682,3.882328187508186,1.4825156476623877,0.0,0.17009044550653998,0.1,0.0030541419982910156,0.05785536766052246,0.049370363,0.53056,2.4035157591315537,0.0,0.03392510683967781,0.0,300,0.017271041870117188,0.19485727429212013,0.19965262003247347,30600,1.210564421694956,0.0
102,1.6209604740142822,3.8964688305460218,1.2643487235633954,4.89701592882282,1.7847732721880718,0.0,0.18292792737750632,0.1,0.10314083099365234,1.10365891456604,0.04985787,0.65978265,2.5528110662730006,0.0,0.05252574973957841,0.0,300,0.017801761627197266,0.38441078530166983,0.2531195469993297,30900,1.2109424047664166,0.0
103,1.623131275177002,3.6615760783762505,1.4375592873885832,5.475193449313083,2.2414592901017194,0.0,0.1694913293761301,0.1,0.10874342918395996,1.6078929901123047,0.04962627,1.0615947,2.6636875674833256,0.0,0.04941505637199803,0.0,300,0.27187657356262207,0.24942100137352188,0.2247404628888778,31200,1.212319931024615,0.0
104,1.6191520690917969,2.15409351145659,0.5193370340694311,2.5655073969430697,1.2740460766452,0.0,0.17279292213176176,0.1,0.09857535362243652,1.5748987197875977,0.050258804,0.53823197,2.612728161880652,0.0,0.02929078103691422,0.0,300,0.016063451766967773,1.460889567194563,0.4374966124955514,31500,1.2127541703565894,0.0
105,1.6716229915618896,2.188216119867021,0.3357597394069491,2.5167663898828083,1.6855329507459853,0.0,0.17568158779336812,0.1,0.0029578208923339844,0.05673336982727051,0.050022364,0.55605704,2.570276957679289,0.0,0.029767332532253887,0.0,300,0.017673730850219727,0.3448078672602921,0.07062993410102772,31800,1.2123201553213308,0.0
106,1.622246503829956,2.191977835034779,0.7109091156061902,3.3057994135388533,1.4599551171534573,0.0,0.16134909989268192,0.1,0.0027840137481689453,0.05451011657714844,0.049840163,0.88175416,2.532447045414838,0.0,0.029825681219042117,0.0,300,0.01854109764099121,0.18272964001158146,0.2442072399969105,32100,1.2119324955892379,0.0
107,1.698049783706665,3.862663391992894,0.7192065909163796,4.315781129373461,2.618437541931099,0.0,0.17973903555930182,0.1,0.0029473304748535156,0.05729198455810547,0.04990243,0.8251858,2.6654686800726437,0.0,0.0521026868160346,0.0,300,0.017504215240478516,0.4441513206502194,0.35252215594147585,32400,1.2139343524865667,0.0
108,1.6886231899261475,3.7765623061868063,1.5774156119439129,5.8634119326552,2.088016182810351,0.0,0.18521890210035202,0.1,0.09326004981994629,0.14557337760925293,0.04993015,0.7936013,2.77657804268406,0.0,0.050956266125429,0.0,300,0.3003730773925781,0.465262956975989,0.2859196883885299,32700,1.2123503308727692,0.0
109,1.626882791519165,1.7667039420057655,0.3612084684768754,2.3502029807469746,1.4479816780002006,0.0,0.1793957513205125,0.1,0.09928512573242188,1.5937283039093018,0.049458575,0.53837764,2.6755906326162306,0.0,0.02417494468354179,0.0,300,0.07833480834960938,0.7286844796979938,1.1607437136516414,33000,1.2153222459125204,0.0
110,1.6090927124023438,2.391234248969262,0.8965585550028347,3.907710535023353,1.6087580445323524,0.0,0.17112674857818763,0.1,0.101715087890625,1.6418228149414062,0.049427107,0.49639007,2.647154994251534,0.0,0.03250560077883527,0.0,300,0.2910587787628174,0.3632344964301936,0.26922388219679055,33300,1.2124213023642145,0.0
111,1.5981841087341309,2.764029260153773,1.0073949814478322,4.293844665095904,1.7715662471039497,0.0,0.15761347169088544,0.1,0.10350728034973145,0.576012372970581,0.050004173,1.6904663,2.658842420841758,0.0,0.03746449720439039,0.0,300,0.018341541290283203,0.22775681959251623,0.23113774693881228,33600,1.2394144575556842,0.0
112,1.5948798656463623,2.478701651486686,1.0778570278194297,4.319160194265818,1.715798618796821,0.0,0.1790265944827396,0.1,0.10271191596984863,1.56943678855896,0.049471088,1.030864,2.640828343906251,0.0,0.03366567370217721,0.0,300,0.27678370475769043,0.30245892663560836,0.29949663717667174,33900,1.2103320594314113,0.0
113,1.5992481708526611,3.5763669229440067,1.8590638279474518,6.4753695976543115,1.890729853587746,0.0,0.17698549266181335,0.1,0.09450554847717285,1.5780518054962158,0.049595684,1.0486739,2.7343822018100266,0.0,0.04828120561865947,0.0,300,0.27425479888916016,0.4087071029354379,0.3688508190005837,34200,1.3164351350713743,0.0
114,1.6828231811523438,2.1074562494472104,0.7461874426470948,3.0031662703463273,1.3570949805966424,0.0,0.16424957884560826,0.1,0.10468149185180664,1.5307176113128662,0.05076305,0.7443157,2.671689606573745,0.0,0.02871232788834757,0.0,300,0.274616003036499,0.32861644867234263,0.3804091688130044,34500,1.4292940344008478,0.0
115,1.656172752380371,5.744658183345373,3.54127902430214,11.376667814803398,1.658833955454688,0.0,0.1531589933031975,0.1,0.0030181407928466797,0.056879281997680664,0.049910955,3.6024446,2.9789864642509083,0.0,0.0772151416324659,0.0,300,0.01859450340270996,0.5934857772992411,0.4745358291001944,34800,1.2168525338885485,0.0
116,1.6274149417877197,2.5225161505080393,1.2329009089229268,4.599882951518978,1.463858687322779,0.0,0.16919353519276206,0.1,0.10022354125976562,1.5299572944641113,0.050169516,0.66913146,2.9333394328766214,0.0,0.034247596723575434,0.0,300,0.016250133514404297,0.6418241276200753,0.8169004196660303,35100,1.2126809070179463,0.0
117,1.7132766246795654,3.1686896314519215,1.357026737859813,4.64717309558244,1.7344859409091868,0.0,0.1663022208548209,0.1,0.002902984619140625,0.05676627159118652,0.049149428,1.3822272,2.9568744527341515,0.0,0.03950292961563867,0.0,300,0.017497539520263672,0.6130996077457826,0.473972982218812,35400,1.2137364287066141,0.0
118,1.6757841110229492,2.901840612008259,0.7484210389071813,3.588231358606278,1.6413286939953562,0.0,0.1797743971120991,0.1,0.09386849403381348,1.5735301971435547,0.049834285,0.47470295,2.951371068661562,0.0,0.03929160601202504,0.0,300,0.2700495719909668,0.17196277367909932,0.125804136608063,35700,1.2145042573070781,0.0
119,1.592693567276001,1.7157314938499748,0.3467729701424711,2.0716663276937206,1.3313795132570516,0.0,0.16996965041318168,0.1,0.09320068359375,1.5892674922943115,0.049840253,0.581977,2.8278071111804035,0.0,0.023482739420601507,0.0,300,0.04413962364196777,0.9787744934079889,0.39887089195978737,36000,1.2124011963215493,0.0
120,1.7110261917114258,2.940434815346507,0.7865263966497016,4.23268242992159,2.10800129968572,0.0,0.18241314568556083,0.1,0.09345793724060059,1.5851249694824219,0.049995434,1.0988715,2.839069881597014,0.0,0.03979961824905193,0.0,300,0.27466893196105957,0.1818151031260505,0.21479813337256265,36300,1.213072411017743,0.0
121,1.7221312522888184,3.2317994138285147,1.4476224285645718,5.511226755649091,1.8168350593760667,0.0,0.18300542799284172,0.1,0.10702204704284668,1.5814487934112549,0.04939696,1.1097348,2.878342834820164,0.0,0.04362138392430262,0.0,300,0.12318301200866699,0.4120338173128088,0.3655657955215006,36600,1.2192976595038927,0.0
122,1.7154757976531982,3.2539376285549864,1.7844673355967726,6.251335673187857,1.661005509738234,0.0,0.1664715144537139,0.1,0.002740621566772461,0.057781219482421875,0.050201736,1.2865083,2.9159023141936466,0.0,0.04393334873491927,0.0,300,0.016781330108642578,0.402237293134701,0.35118670881351227,36900,1.2112833721320189,0.0
123,1.7112858295440674,2.120451078904627,0.45537127522453275,2.719943776198908,1.5791310579955746,0.0,0.17258205003367183,0.1,0.09370160102844238,0.09571313858032227,0.04967515,0.89751965,2.8363571906647445,0.0,0.028779248346782103,0.0,300,0.017077207565307617,0.2686389095587875,0.3217235761485144,37200,1.210955518964623,0.0
124,1.6599061489105225,2.3700866752176064,0.13267027036296722,2.552077738294024,2.1887384582714926,0.0,0.16289674654221872,0.1,0.003056764602661133,0.056920766830444336,0.049922187,0.8799461,2.7897301391200306,0.0,0.03217998719285842,0.0,300,0.28574681282043457,0.0956927111474186,0.05838710249627299,37500,1.2107935856236005,0.0
125,1.6535329818725586,2.7594563901982694,1.7956251794072822,5.806283344920758,1.231051386370532,0.0,0.17142922871692426,0.1,0.10396671295166016,1.702237606048584,0.05015149,1.1727861,2.786702764227855,0.0,0.03740907641027248,0.0,300,0.29172849655151367,0.5071570968215577,0.5034120840269997,37800,1.2114749810499148,0.0
126,1.6466224193572998,2.2871376126958345,0.4455863121897418,2.823230274648608,1.6444343373189578,0.0,0.1653856963639711,0.1,0.10375738143920898,1.6400666236877441,0.050001577,1.5310327,2.7367462490746526,0.0,0.031112393462369773,0.0,300,0.2715747356414795,0.11260301145715026,0.09957221035969029,38100,1.2128734086107218,0.0
127,1.6750984191894531,3.3379735286862315,1.9449415282087135,5.940242923567945,1.4420861708590913,0.0,0.17266385157539688,0.1,0.10122227668762207,1.5895695686340332,0.049585015,1.0059777,2.796868977035811,0.0,0.04512878857987042,0.0,300,0.2706563472747803,0.4331730821094014,0.42397005851779496,38400,1.2233408530073497,0.0
128,1.6916718482971191,2.041349455770667,0.578329348473948,3.029672514782092,1.627144050696005,0.0,0.16928727554927003,0.1,0.09931731224060059,1.585841417312622,0.050135065,0.68909985,2.7213170249092964,0.0,0.02784034844400183,0.0,300,0.016805410385131836,0.2866204569388391,0.2903874230183013,38700,1.224396828613569,0.0
129,1.6802978515625,3.625861757338994,1.8821869495921768,6.724599255117744,1.646863011778003,0.0,0.16996410145677787,0.1,0.003137826919555664,0.05860447883605957,0.04932219,1.6646104,2.811771498152266,0.0,0.04895344386210063,0.0,300,0.017644405364990234,0.41588563579028925,0.38077018337128754,39000,1.2126849789637464,0.0
130,1.6682276725769043,2.170253061409978,0.5490593113449393,2.886729202352858,1.4510334769312063,0.0,0.16937176479600038,0.1,0.09609460830688477,1.1318297386169434,0.049494293,0.6517704,2.7476196544780374,0.0,0.0295537290075787,0.0,300,0.018147945404052734,0.2277272937724896,0.27774335672209427,39300,1.2183441718491326,0.0
131,1.6617417335510254,2.6937781250297923,1.8362649277980214,5.838699721109266,1.4131950526772354,0.0,0.17581197866386636,0.1,0.0028667449951171875,0.05685138702392578,0.049606774,1.4399451,2.7422355015332127,0.0,0.03652891436695506,0.0,300,0.017328977584838867,0.4925023661333254,0.48435385726105473,39600,1.220573308988299,0.0
132,1.7224485874176025,3.057330228669163,1.109397080413988,4.61986462413857,1.4915915714960146,0.0,0.18434898590286986,0.1,0.10210132598876953,1.606379747390747,0.049858633,0.6848795,2.773744974246808,0.0,0.041387294487953016,0.0,300,0.27033185958862305,0.2378813262855816,0.2373036691272053,39900,1.2168703224753543,0.0
133,1.7082412242889404,3.109616458958735,1.3638614018561124,5.450754559145324,2.1341779306609996,0.0,0.18017917532482047,0.1,0.09362530708312988,1.219956636428833,0.05059884,1.1945995,2.807332122718001,0.0,0.04205506148071171,0.0,300,0.017944812774658203,0.26910885178757743,0.25782710130558517,40200,1.2278537942298935,0.0
134,1.6662523746490479,3.472637631910937,2.2737848774603147,7.264199868393297,1.4140169653934853,0.0,0.17757807352565214,0.1,0.09633922576904297,1.5797467231750488,0.049670212,1.3580729,2.8738626736372948,0.0,0.04689087580898535,0.0,300,0.27428364753723145,0.44934455224113967,0.42118425382566455,40500,1.2417794005112888,0.0
135,1.6476185321807861,2.8615747430902467,1.2582845510179128,4.549034378125303,1.31196828342018,0.0,0.17978961585654776,0.1,0.10711908340454102,1.6019136905670166,0.04994736,0.5979257,2.87263388058259,0.0,0.038638175499360924,0.0,300,0.2705662250518799,0.24387276649018233,0.2584943146244736,40800,1.2989665215811583,0.0
136,1.7019286155700684,3.0026858877760962,1.034532167102769,4.705977955435349,1.9338817485330484,0.0,0.17068303050133926,0.1,0.09350180625915527,1.5633161067962646,0.049419418,0.81535554,2.8856390813019406,0.0,0.04060087969156093,0.0,300,0.2728302478790283,0.24014604859822145,0.224376469681857,41100,1.2868830761902428,0.0
137,1.7208406925201416,2.0055066333292815,0.6494271696792444,2.938210390577803,1.335070537705365,0.0,0.1755192417220579,0.1,0.09433197975158691,0.431215763092041,0.04988299,0.5974314,2.7976258365046744,0.0,0.027344839394598953,0.0,300,0.27446961402893066,1.005399566615865,0.47563492520241174,41400,1.2808818999405707,0.0
138,1.6761884689331055,4.142504216858775,1.0854390218553174,5.292419853617712,2.7535304889043695,0.0,0.17386742176719916,0.1,0.10026979446411133,1.5919573307037354,0.050091643,1.800002,2.9321136745400844,0.0,0.05576994791203228,0.0,300,0.27569103240966797,0.2830728716618491,0.2813852291770211,41700,1.324479545766623,0.0
139,1.6492726802825928,3.125541756402953,1.1949519457283062,4.59539029993947,1.408099296153315,0.0,0.1691665780118922,0.1,0.09637737274169922,1.5838210582733154,0.049211603,0.725884,2.951456482726371,0.0,0.04227083955454039,0.0,300,0.28113746643066406,0.26131219081073903,0.20695413564246595,42000,1.247654946758457,0.0
140,1.687135934829712,4.0094666292210706,1.1058585542696613,5.484343201143347,2.3670016326071432,0.0,0.178197223642637,0.1,0.09862160682678223,1.5786035060882568,0.049360774,0.7916237,3.0572574973758413,0.0,0.053978162637209705,0.0,300,0.15113139152526855,0.1958330111192497,0.1434562743176219,42300,1.2779099396690672,0.0
141,1.7220392227172852,2.217577051829235,0.6627714195705091,3.1834630267580497,1.5568495273598113,0.0,0.1726950145638296,0.1,0.09390616416931152,1.5599331855773926,0.049373876,0.6181753,2.9732894528211804,0.0,0.030157785258093178,0.0,300,0.27359700202941895,0.82237158529367,0.7760767857259642,42600,1.216917698856442,0.0
142,1.7029321193695068,2.5212597130652514,1.4632613983947746,5.011142304284794,1.3798228499744893,0.0,0.1732143006708055,0.1,0.10374569892883301,1.5957543849945068,0.049543932,1.0112389,2.9280864788455876,0.0,0.03423255971800874,0.0,300,0.2718050479888916,0.5256489000018072,0.4146231270926412,42900,1.223971331275917,0.0
143,1.6719074249267578,2.695331667368057,0.9546666888022763,3.9427256924123086,1.3445282090790287,0.0,0.18070339535360197,0.1,0.10293006896972656,1.6905877590179443,0.05012191,0.8262505,2.9048109976978345,0.0,0.036556263746737774,0.0,300,0.2744715213775635,0.20554556738843838,0.19836705446480069,43200,1.329518708584285,0.0
144,1.7487192153930664,3.791523410153634,1.498428577628672,5.071549500849254,1.3380295219735547,0.0,0.17160659411426038,0.1,0.09450268745422363,0.2198030948638916,0.049588,0.6993474,2.9934822389434146,0.0,0.05115878112036807,0.0,300,0.017296552658081055,0.3173595973195009,0.2922904679792126,43500,1.299559380107912,0.0
145,1.7249834537506104,2.7257001557840947,1.2983115945278696,4.855377738242072,1.4540666002519855,0.0,0.17091414912161987,0.1,0.002927541732788086,0.05551409721374512,0.0504889,1.2799329,2.966704030627483,0.0,0.036955688827529455,0.0,300,0.01728343963623047,0.31722511740565884,0.32570735556363467,43800,1.3820343136673159,0.0
146,1.7311248779296875,2.1291427283954625,0.5668418125526429,2.918264862938483,1.3215205747646916,0.0,0.16815491620996836,0.1,0.09403824806213379,1.565875768661499,0.049755562,0.6198079,2.8829479004042806,0.0,0.02900314785573654,0.0,300,0.279543399810791,0.4248668000012578,0.36150328445010244,44100,1.391682688121931,0.0
147,1.7672796249389648,2.0154309273685835,0.6946611070805057,3.0840366148814238,1.377081785038593,0.0,0.17581258114113507,0.1,0.09318065643310547,0.9070956707000732,0.0498272,0.57217705,2.796196203100711,0.0,0.027488975041171218,0.0,300,0.017296552658081055,0.5102156851266206,0.36231796209757344,44400,1.4308136125151483,0.0
148,1.7457387447357178,3.82262858942184,1.9192143576453373,6.320302082057078,1.3709303726146922,0.0,0.17456999954153182,0.1,0.09366059303283691,1.5724050998687744,0.050296325,2.057192,2.898839441732824,0.0,0.05158710767685405,0.0,300,0.27237534523010254,0.41162563302104294,0.4067870704040818,44700,1.3602707809908614,0.0
149,1.7561941146850586,2.4393389763584286,0.6559678556025945,3.0579752601528374,1.3423375284108838,0.0,0.1741653395003739,0.1,0.09376716613769531,1.5716142654418945,0.049070757,0.62096375,2.852889395195384,0.0,0.033125335525465094,0.0,300,0.01731133460998535,0.08486757719801974,0.0914190904774248,45000,1.346771008120658,0.0
150,1.7785303592681885,3.920294301633251,2.4542706462645407,8.138813491329001,2.0272174761770225,0.0,0.16004194519954668,0.1,0.09328866004943848,1.6563847064971924,0.048182264,1.7694792,2.9596298858391714,0.0,0.052868430732818064,0.0,300,0.2919580936431885,0.45830419520113597,0.4141686530947834,45300,1.3310805438597881,0.0
151,1.837404489517212,4.010653511076147,1.0626672744785257,5.542187440980407,2.5378398410833993,0.0,0.185518251620789,0.1,0.09912490844726562,1.6496903896331787,0.05016086,0.66625625,3.064732248362869,0.0,0.05407315649448783,0.0,300,0.2187354564666748,0.21092133708892905,0.14581891056140445,45600,1.362428616221598,0.0
152,1.733304500579834,2.4741704570030505,0.7939865033919569,3.6999494985105046,1.4953327564337724,0.0,0.1747000774956531,0.1,0.0934286117553711,1.563962459564209,0.049928848,0.70378983,3.005676069226887,0.0,0.033551487813117224,0.0,300,0.2721405029296875,0.5026156108900081,0.49914087181743666,45900,1.7594907991066675,0.0
153,1.785205364227295,4.238793692797795,1.3903712131433859,6.5051817888642995,2.7635854879573145,0.0,0.16555084048820104,0.1,0.09298586845397949,1.2808845043182373,0.049379446,0.9786666,3.128987831583978,0.0,0.05708224362513968,0.0,300,0.021219253540039062,0.20407764212510893,0.1981248015921612,46200,1.688094919009152,0.0
154,1.794538974761963,2.8750264565148425,0.47927559420430066,3.509080268719791,2.2760004246917203,0.0,0.1638946056676754,0.1,0.10658764839172363,1.6538546085357666,0.04973608,2.0949671,3.1035916940770645,0.0,0.038927285084780563,0.0,300,0.06901431083679199,0.2704597730802557,0.22778396812225585,46500,1.5864975292745622,0.0
155,1.678612232208252,2.6921639995096758,0.9867389922067289,4.004094201239535,1.7365159862404385,0.0,0.170449558687654,0.1,0.09375667572021484,1.5655508041381836,0.050087508,0.68810385,3.0624489246203255,0.0,0.03649896681140113,0.0,300,0.27077817916870117,0.29836033105729715,0.23426342636203693,46800,1.4033242888438011,0.0
156,1.6786246299743652,4.1987298340776,1.85169825500219,7.006930581970561,2.244241825563713,0.0,0.17229233469100366,0.1,0.09330463409423828,0.37523674964904785,0.049753927,2.9958532,3.1760770155660527,0.0,0.056575069181428364,0.0,300,0.01804804801940918,0.2710094761452314,0.2636938040444434,47100,1.4906267650719915,0.0
157,1.7744274139404297,3.225329792114223,1.1270524806843298,4.273590473779373,1.4617337949643947,0.0,0.176079074024765,0.1,0.09312963485717773,0.7879612445831299,0.04997454,0.8422095,3.18100229322087,0.0,0.04361921748003168,0.0,300,0.017047405242919922,0.15371079444209385,0.15417297839388963,47400,1.4122973931980194,0.0
158,1.6830193996429443,3.158534695175655,1.1858124208622598,4.741755830956847,1.6844082488974017,0.0,0.17407520479462027,0.1,0.10272431373596191,1.1522610187530518,0.049697645,0.88289124,3.1787555334163486,0.0,0.04272778707619675,0.0,300,0.016986608505249023,0.2785454101937567,0.26531110026687094,47700,1.3190038735438459,0.0
159,1.701303482055664,2.8632400939977853,1.536349700344619,5.480103089689913,1.5384924654854044,0.0,0.1719311055773375,0.1,0.09573817253112793,0.5825657844543457,0.04980904,0.9273313,3.1472039894744928,0.0,0.03878585845561244,0.0,300,0.01764082908630371,0.35656138940156945,0.3335116206630619,48000,1.3586090217510762,0.0
160,1.6874449253082275,3.3334912043094547,1.7633107820635476,6.242609986608473,1.509651323409658,0.0,0.1656088429217237,0.1,0.09355425834655762,1.1722519397735596,0.050333127,1.0862504,3.165832710957989,0.0,0.04494742030033173,0.0,300,0.2461073398590088,0.31849473292212843,0.3179649299410541,48300,1.3583704722168923,0.0
161,1.7210981845855713,6.0189056441781235,0.4748065380442084,6.577001166268968,5.286097738911733,0.0,0.1805852889898554,0.1,0.10165548324584961,0.6783099174499512,0.049630724,0.5889998,3.4511400042800027,0.0,0.08085759853429417,0.0,300,0.015197038650512695,0.35552535865126994,0.2187138032973676,48600,1.2982644705369393,0.0
162,1.7138288021087646,2.6270942840339115,0.5083480359536667,3.3996472169502083,2.0905534329941693,0.0,0.17481863728205327,0.1,0.0029497146606445312,0.055333852767944336,0.050240695,0.5481315,3.3687354322553937,0.0,0.035588456529504604,0.0,300,0.016955137252807617,0.4625512058518257,0.6805438915490278,48900,1.3512111675831344,0.0
163,1.7467167377471924,4.412394121147968,2.0614167079418744,7.636195248928657,2.3999991199348214,0.0,0.17946833006612725,0.1,0.0940396785736084,1.5721185207366943,0.050236538,0.95875365,3.473101301144651,0.0,0.05917746716648707,0.0,300,0.17260408401489258,0.2666881426792456,0.26509215258190333,49200,1.3658637646414447,0.0
164,1.7341516017913818,4.636284459404186,2.3209627243559314,7.369686593640227,1.432772843064315,0.0,0.1731114081904968,0.1,0.10450482368469238,0.9349818229675293,0.0496964,0.7623819,3.5894196169706047,0.0,0.06241157048523159,0.0,300,0.0197908878326416,0.3045727348554681,0.2951698567260581,49500,1.287122238736867,0.0
165,1.756028652191162,4.958875430481453,2.4849213670145764,8.819363593658709,2.1072498354800024,0.0,0.17189256150685198,0.1,0.10648441314697266,1.603337049484253,0.05008185,1.1238495,3.7263651983216897,0.0,0.06659920609538444,0.0,300,0.2688298225402832,0.2931994366150375,0.2759033276687184,49800,1.3060867390951219,0.0
166,1.7818186283111572,3.974811085016597,1.3876963721134157,5.915632999850884,2.373406561923752,0.0,0.16846685969290207,0.1,0.10175275802612305,1.6112542152404785,0.049987283,0.71275085,3.7512097869911805,0.0,0.0535487717649011,0.0,300,0.2695624828338623,0.1943862374044344,0.177538668727955,50100,1.2728935424905834,0.0
167,1.7969930171966553,2.368183034525395,0.7186140516217614,3.3076155812950674,1.4649366903216394,0.0,0.16813189138050103,0.1,0.09946727752685547,1.4608995914459229,0.049870733,0.6498935,3.612907111744602,0.0,0.03214462030662374,0.0,300,0.2728140354156494,1.3676394983066376,0.5238197390902384,50400,1.257994178552948,0.0
168,1.7576143741607666,3.3153023848357965,0.6387003242460351,4.414541558578666,2.8342530017116894,0.0,0.17804505186922104,0.1,0.0931694507598877,1.5947530269622803,0.049549516,0.7295665,3.583146639053721,0.0,0.04482521220049092,0.0,300,0.016920804977416992,0.07918410541991296,0.08702837157049362,50700,1.2757138288163523,0.0
169,1.774496078491211,4.832241472546833,2.215043454134737,7.407757906143405,1.3300971948809182,0.0,0.16704759727660382,0.1,0.09778308868408203,1.6300523281097412,0.049569882,0.7306807,3.7080561224030326,0.0,0.06495721972963069,0.0,300,0.03974127769470215,0.3797461117072237,0.353385724717311,51000,1.2987444945426092,0.0
170,1.7638189792633057,4.458304509427894,1.818239239780071,6.10227922832508,1.4185530739704,0.0,0.17501484663079384,0.1,0.10100245475769043,1.6425211429595947,0.050444294,0.60304,3.7830809611055187,0.0,0.060006651937224785,0.0,300,0.27742528915405273,0.3217689439955669,0.24594101389670095,51300,1.2599920345297728,0.0
171,1.7270262241363525,2.4059126867541583,0.748153903169427,3.3924670276233733,1.3048809637130145,0.0,0.16720550841068965,0.1,0.1051170825958252,1.611072301864624,0.050226748,0.6017662,3.645364133670383,0.0,0.032682590762784805,0.0,300,0.2743551731109619,0.7325776795744221,0.8114755493121854,51600,1.2669514726103628,0.0
172,1.726119041442871,3.588668101636482,0.9918313536829682,4.895959384752473,2.2155337283477516,0.0,0.15915135077661172,0.1,0.09916234016418457,1.6787474155426025,0.050023727,1.2471561,3.639694530466993,0.0,0.04841580545080466,0.0,300,0.300853967666626,0.12094155827553528,0.1136563866807737,51900,1.2422454706238375,0.0
173,1.749319076538086,3.7801157523283697,1.8875775547288771,7.019820814865639,2.29869231147023,0.0,0.17547468521991744,0.1,0.10142946243286133,1.6436660289764404,0.050093517,1.2798804,3.653736652653131,0.0,0.05097845399147741,0.0,300,0.27388811111450195,0.31316449342304675,0.31310477890418614,52200,1.2531120918918295,0.0
174,1.705871820449829,3.4789975013222962,1.8031885152091662,6.452582471875622,1.6982638196404487,0.0,0.17475357576542608,0.1,0.1002647876739502,1.5763521194458008,0.049402747,0.86353636,3.6362627375200476,0.0,0.04690802195617854,0.0,300,0.2774951457977295,0.3543070782885149,0.3517161915139815,52500,1.2579779875158812,0.0
175,1.753385066986084,4.1193509443883105,1.2418358540586714,5.944318460342422,2.455656111110366,0.0,0.16080284832738423,0.1,0.1107947826385498,1.1843819618225098,0.04944287,0.87049204,3.684571558206874,0.0,0.05552250110926163,0.0,300,0.26935839653015137,0.1491183211645712,0.13768732660599764,52800,1.2670054823746673,0.0
176,1.7218756675720215,3.082655706383994,0.4424860044559814,3.799429116750928,2.5905205550135806,0.0,0.1681159671103159,0.1,0.10543632507324219,1.5777974128723145,0.05091029,0.8437161,3.6243799730245865,0.0,0.04165118487626829,0.0,300,0.2741713523864746,0.11517237007372068,0.11360404067982058,53100,1.2668514661981847,0.0
177,1.7241857051849365,3.1436753464575586,1.2846617889402687,5.256324155384155,1.8796325218056917,0.0,0.16182404983201254,0.1,0.10307717323303223,1.6103975772857666,0.04919027,0.80451494,3.5763095103678837,0.0,0.042480334492102936,0.0,300,0.2812633514404297,0.23507738038009338,0.21852943811661643,53400,1.2395492221876585,0.0
178,1.7677278518676758,3.372025055326216,2.0114368091631523,6.786755865018446,1.6110268594802941,0.0,0.1787678821954264,0.1,0.09150099754333496,1.5787179470062256,0.049336415,0.9293855,3.555881064863717,0.0,0.045566714046828334,0.0,300,0.24466466903686523,0.41644478575387406,0.41316693340357474,53700,1.2503998564216139,0.0
179,1.7363762855529785,4.052847883567786,1.3432138173466872,6.258138646734212,2.6196254677297586,0.0,0.1816754465280563,0.1,0.09762954711914062,1.4735462665557861,0.049754024,0.81359255,3.6055777467341237,0.0,0.054646241947935006,0.0,300,0.01729416847229004,0.21231353147374638,0.2072861840785923,54000,1.2666611699937644,0.0
180,1.787611484527588,3.404428617648762,1.1019415702512074,4.96926284776816,1.9234920502672626,0.0,0.16780111547219892,0.1,0.002958059310913086,0.055727243423461914,0.049629573,1.0824395,3.585462833825588,0.0,0.04600038365940203,0.0,300,0.01699352264404297,0.15541625694691302,0.1546123768919829,54300,1.2768740323296732,0.0
181,1.71793532371521,4.805003814943038,1.7275754069471274,7.429237995621162,2.5748087131391317,0.0,0.16382041087118956,0.1,0.0028514862060546875,0.05704641342163086,0.049846034,0.9538052,3.707416931937333,0.0,0.0646492295712171,0.0,300,0.016722440719604492,0.24703415270329795,0.2018406963695543,54600,1.340031415599103,0.0
182,1.7599060535430908,6.251135075303541,2.382826475619093,7.7967951184034385,2.1310050712548776,0.0,0.169475073769377,0.1,0.0917670726776123,1.5746946334838867,0.049877442,0.7142547,3.9617887462739536,0.0,0.0838485269302949,0.0,300,0.13958144187927246,0.3169699189522208,0.18367403861301998,54900,1.511005779175527,0.0
183,1.750138759613037,5.307894073205012,1.4455955892428287,7.477964169501493,3.4077181608846887,0.0,0.16565170472221352,0.1,0.10427474975585938,1.6379764080047607,0.049499456,0.98702526,4.096399278967059,0.0,0.07136412399626857,0.0,300,0.2738022804260254,0.11619538138902408,0.16352878492569944,55200,1.5129062219966365,0.0
184,1.7431550025939941,3.7280603678120627,1.465559423050355,5.204350316814043,1.3061474401757656,0.0,0.17025261684679827,0.1,0.09435462951660156,1.5724563598632812,0.05001966,0.5502146,4.05956538785156,0.0,0.05029781966739327,0.0,300,0.28165483474731445,0.86987576271127,0.4144405363010171,55500,1.6027712161826662,0.0
185,1.7569324970245361,1.9679101627387352,0.6735229567109945,2.861495412778822,1.2539694414244578,0.0,0.1605402829398416,0.1,0.10206937789916992,1.1792168617248535,0.05033206,0.60185796,3.8503998653402776,0.0,0.02682575531306646,0.0,300,0.01935720443725586,4.3864301532653664,1.0400648682193676,55800,1.504453746376383,0.0
