Iter | Sampling Pol | Evaluation Pol | Best (Sampled) 
   0  0.02  0.02 -100000000.00 
   1  0.02  0.01  0.02 
   2  0.01  0.01  0.02 
   3  0.04  0.02  0.02 
   4  0.04  0.02  0.04 
   5  0.03  0.04  0.04 
   6  0.04  0.04  0.04 
   7  0.02  0.05  0.04 
   8  0.07  0.06  0.04 
   9  0.03  0.05  0.07 
  10  0.06  0.06  0.07 
  11  0.07  0.07  0.07 
  12  0.06  0.12  0.07 
  13  0.04  0.18  0.07 
  14  0.13  0.21  0.07 
  15  0.08  0.25  0.13 
  16  0.07  0.28  0.13 
  17  0.14  0.29  0.13 
  18  0.19  0.30  0.14 
  19  0.19  0.35  0.19 
  20  0.09  0.32  0.19 
  21  0.10  0.35  0.19 
  22  0.18  0.60  0.19 
  23  0.23  0.58  0.19 
  24  0.18  0.63  0.23 
  25  0.10  0.47  0.23 
  26  0.12  0.53  0.23 
  27  0.12  0.52  0.23 
  28  0.11  0.46  0.23 
  29  0.21  0.56  0.23 
  30  0.31  0.49  0.23 
  31  0.22  0.60  0.31 
  32  0.21  0.59  0.31 
  33  0.27  0.40  0.31 
  34  0.22  0.58  0.31 
  35  0.15  0.71  0.31 
  36  0.17  0.80  0.31 
  37  0.16  0.81  0.31 
  38  0.28  0.66  0.31 
  39  0.20  0.48  0.31 
  40  0.30  0.48  0.31 
  41  0.32  0.44  0.31 
  42  0.24  0.41  0.32 
  43  0.36  0.82  0.32 
  44  0.25  0.83  0.36 
  45  0.36  0.43  0.36 
  46  0.22  0.70  0.36 
  47  0.36  0.91  0.36 
  48  0.25  0.44  0.36 
  49  0.32  0.38  0.36 
  50  0.29  0.34  0.36 
  51  0.29  0.49  0.36 
  52  0.26  1.14  0.36 
  53  0.28  0.40  0.36 
  54  0.31  0.77  0.36 
  55  0.26  1.02  0.36 
  56  0.30  0.87  0.36 
  57  0.26  0.89  0.36 
  58  0.15  1.06  0.36 
  59  0.22  0.97  0.36 
  60  0.22  1.00  0.36 
  61  0.44  0.81  0.36 
  62  0.27  1.05  0.44 
  63  0.31  0.94  0.44 
  64  0.17  0.90  0.44 
  65  0.42  0.92  0.44 
  66  0.30  0.95  0.44 
  67  0.22  0.95  0.44 
  68  0.32  0.24  0.44 
  69  0.46  0.32  0.44 
  70  0.43  0.28  0.46 
  71  0.41  0.27  0.46 
  72  0.55  0.75  0.46 
  73  0.28  0.36  0.55 
  74  0.26  0.21  0.55 
  75  0.37  0.24  0.55 
  76  0.24  0.26  0.55 
  77  0.31  0.44  0.55 
  78  0.49  0.46  0.55 
  79  0.49  0.36  0.55 
  80  0.57  0.41  0.55 
  81  0.42  0.50  0.57 
  82  0.39  0.80  0.57 
  83  0.51  0.76  0.57 
  84  0.40  0.51  0.57 
  85  0.42  1.23  0.57 
  86  0.44  1.13  0.57 
  87  0.38  0.67  0.57 
  88  0.61  0.95  0.57 
  89  0.32  1.07  0.61 
  90  0.52  1.08  0.61 
  91  0.21  0.49  0.61 
  92  0.26  0.67  0.61 
  93  0.50  0.58  0.61 
  94  0.41  0.61  0.61 
  95  0.46  0.58  0.61 
  96  0.47  0.55  0.61 
  97  0.42  1.05  0.61 
  98  0.46  0.99  0.61 
  99  0.51  0.75  0.61 
 100  0.45  0.66  0.61 
 101  0.42  0.79  0.61 
 102  0.52  0.72  0.61 
 103  0.58  0.50  0.61 
 104  0.33  1.10  0.61 
 105  0.37  1.06  0.61 
 106  0.48  1.03  0.61 
 107  0.56  1.09  0.61 
 108  0.64  0.89  0.61 
 109  0.49  0.77  0.64 
 110  0.56  0.82  0.64 
 111  0.59  0.98  0.64 
 112  0.18  0.58  0.64 
 113  0.50  0.81  0.64 
 114  0.68  0.60  0.64 
 115  0.56  0.35  0.68 
 116  0.51  0.74  0.68 
 117  0.44  0.45  0.68 
 118  0.47  0.44  0.68 
 119  0.44  0.35  0.68 
 120  0.44  0.07  0.68 
 121  0.35  0.30  0.68 
 122  0.48  0.11  0.68 
 123  0.50  0.45  0.68 
 124  0.67  0.09  0.68 
 125  0.36  0.06  0.68 
 126  0.44  0.04  0.68 
 127  0.56  0.06  0.68 
 128  0.66  0.07  0.68 
 129  0.50  0.08  0.68 
 130  0.58  0.11  0.68 
 131  0.44  0.10  0.68 
 132  0.58  0.10  0.68 
 133  0.60  0.12  0.68 
 134  0.57  0.10  0.68 
 135  0.36  0.05  0.68 
 136  0.47  0.08  0.68 
 137  0.49  0.10  0.68 
 138  0.64  0.05  0.68 
 139  0.48  0.12  0.68 
 140  0.48  0.21  0.68 
 141  0.35  0.14  0.68 
 142  0.43  0.08  0.68 
 143  0.53  0.10  0.68 
 144  0.56  0.07  0.68 
 145  0.55  0.10  0.68 
 146  0.42  0.13  0.68 
 147  0.42  0.21  0.68 
 148  0.63  0.16  0.68 
 149  0.43  0.22  0.68 
 150  0.67  0.20  0.68 
 151  0.56  0.21  0.68 
 152  0.79  0.17  0.68 
 153  0.68  0.18  0.79 
 154  0.64  0.15  0.79 
 155  0.49  0.68  0.79 
 156  0.66  0.82  0.79 
 157  0.58  0.25  0.79 
 158  0.39  0.23  0.79 
 159  0.58  0.16  0.79 
 160  0.42  0.18  0.79 
 161  0.79  0.18  0.79 
 162  0.58  0.17  0.79 
 163  0.65  0.18  0.79 
 164  0.72  0.27  0.79 
 165  0.67  0.55  0.79 
 166  0.71  0.52  0.79 
 167  0.62  0.68  0.79 
 168  0.54  0.40  0.79 
 169  0.59  0.32  0.79 
 170  0.61  0.20  0.79 
 171  0.60  0.30  0.79 
 172  0.53  0.25  0.79 
 173  0.66  0.23  0.79 
 174  0.58  0.21  0.79 
 175  0.56  0.22  0.79 
 176  0.75  0.22  0.79 
 177  0.68  0.30  0.79 
 178  0.62  0.29  0.79 
 179  0.48  0.34  0.79 
 180  0.45  0.48  0.79 
 181  0.51  0.28  0.79 
 182  0.55  0.23  0.79 
 183  0.62  0.26  0.79 
 184  0.46  0.21  0.79 
 185  0.67  0.26  0.79 
 186  0.62  0.23  0.79 
 187  0.67  0.19  0.79 
 188  0.51  0.18  0.79 
 189  0.66  0.15  0.79 
 190  0.68  0.27  0.79 
 191  0.59  0.18  0.79 
 192  0.42  0.18  0.79 
 193  0.36  0.23  0.79 
 194  0.63  0.25  0.79 
 195  0.36  0.50  0.79 
 196  0.53  0.68  0.79 
 197  0.54  0.25  0.79 
 198  0.43  0.29  0.79 
 199  0.51  0.25  0.79 
 200  0.40  0.24  0.79 
 201  0.83  0.13  0.79 
 202  0.65  0.05  0.83 
 203  0.39  0.17  0.83 
 204  0.65  0.20  0.83 
 205  0.42  0.22  0.83 
 206  0.58  0.22  0.83 
 207  0.52  0.18  0.83 
 208  0.52  0.14  0.83 
 209  0.64  0.17  0.83 
 210  0.63  0.16  0.83 
 211  0.59  0.16  0.83 
 212  0.53  0.19  0.83 
 213  0.66  0.15  0.83 
 214  0.62  0.19  0.83 
 215  0.59  0.10  0.83 
 216  0.76  0.12  0.83 
 217  0.69  0.18  0.83 
 218  0.69  0.34  0.83 
 219  0.74  0.36  0.83 
 220  0.57  0.22  0.83 
 221  0.67  0.30  0.83 
 222  0.72  0.22  0.83 
 223  0.78  0.25  0.83 
 224  0.68  0.32  0.83 
 225  0.70  0.06  0.83 
 226  0.71  0.03  0.83 
 227  0.35  0.13  0.83 
 228  0.44  0.34  0.83 
 229  0.50  0.29  0.83 
 230  0.51  0.40  0.83 
 231  0.69  0.18  0.83 
 232  0.47  0.25  0.83 
 233  0.63  0.80  0.83 
 234  0.75  0.81  0.83 
 235  0.73  0.99  0.83 
 236  0.89  0.37  0.83 
 237  0.68  0.45  0.89 
 238  0.46  0.43  0.89 
 239  0.67  0.48  0.89 
 240  0.71  0.39  0.89 
 241  0.75  0.60  0.89 
 242  0.95  0.51  0.89 
 243  0.96  0.68  0.95 
 244  0.75  0.73  0.96 
 245  0.61  0.54  0.96 
 246  0.81  0.25  0.96 
 247  0.46  0.55  0.96 
 248  0.72  0.24  0.96 
 249  0.66  0.22  0.96 
 250  0.83  0.17  0.96 
 251  0.70  0.21  0.96 
 252  0.76  0.22  0.96 
 253  0.58  0.39  0.96 
 254  0.60  0.19  0.96 
 255  0.87  0.21  0.96 
 256  0.83  0.29  0.96 
 257  0.64  0.46  0.96 
 258  0.70  0.45  0.96 
 259  0.67  0.99  0.96 
 260  0.68  0.65  0.96 
 261  0.62  0.59  0.96 
 262  0.73  1.01  0.96 
 263  0.63  0.78  0.96 
 264  1.03  1.12  0.96 
 265  0.90  0.92  1.03 
 266  0.78  1.06  1.03 
 267  0.95  0.82  1.03 
 268  0.72  1.19  1.03 
 269  0.68  0.89  1.03 
 270  0.69  0.80  1.03 
 271  0.71  1.00  1.03 
 272  0.77  1.19  1.03 
 273  0.32  0.79  1.03 
 274  0.86  0.94  1.03 
 275  0.74  0.70  1.03 
 276  0.71  0.62  1.03 
 277  0.62  0.72  1.03 
 278  0.89  0.80  1.03 
 279  0.85  0.87  1.03 
 280  0.75  1.15  1.03 
 281  0.93  1.28  1.03 
 282  0.92  1.48  1.03 
 283  0.86  1.12  1.03 
 284  1.06  1.08  1.03 
 285  0.43  0.26  1.06 
 286  0.58  0.49  1.06 
 287  0.86  0.89  1.06 
 288  0.67  0.70  1.06 
 289  0.93  0.65  1.06 
 290  0.92  0.46  1.06 
 291  0.81  0.93  1.06 
 292  0.64  0.85  1.06 
 293  0.74  0.66  1.06 
 294  0.66  0.79  1.06 
 295  0.69  1.23  1.06 
 296  0.68  1.13  1.06 
 297  0.73  1.19  1.06 
 298  0.66  1.30  1.06 
 299  0.56  1.35  1.06 
 300  0.81  0.93  1.06 
 301  0.71  1.26  1.06 
 302  0.90  0.80  1.06 
 303  0.63  1.23  1.06 
 304  0.61  0.76  1.06 
 305  0.89  0.74  1.06 
 306  0.38  0.92  1.06 
 307  1.14  0.84  1.06 
 308  0.99  0.72  1.14 
 309  0.62  1.17  1.14 
 310  0.74  1.20  1.14 
 311  0.76  1.32  1.14 
 312  0.70  1.14  1.14 
 313  0.53  0.66  1.14 
 314  0.90  0.80  1.14 
 315  0.76  1.28  1.14 
 316  0.79  1.16  1.14 
 317  0.83  1.18  1.14 
 318  0.72  1.33  1.14 
 319  1.03  1.29  1.14 
 320  0.59  1.27  1.14 
 321  0.99  1.29  1.14 
 322  0.96  1.31  1.14 
 323  0.74  0.83  1.14 
 324  0.86  1.32  1.14 
 325  0.66  1.22  1.14 
 326  0.42  1.01  1.14 
 327  0.72  1.26  1.14 
 328  0.58  1.26  1.14 
 329  0.84  1.03  1.14 
 330  0.68  0.60  1.14 
 331  0.77  1.28  1.14 
 332  0.85  1.13  1.14 
 333  0.89  0.94  1.14 
 334  0.91  0.89  1.14 
 335  0.81  0.72  1.14 
 336  0.90  0.64  1.14 
 337  0.98  1.06  1.14 
 338  0.95  0.82  1.14 
 339  0.72  0.89  1.14 
 340  0.78  1.13  1.14 
 341  0.66  1.25  1.14 
 342  0.78  0.74  1.14 
 343  0.55  1.08  1.14 
 344  0.61  1.05  1.14 
 345  0.83  1.16  1.14 
 346  0.65  1.15  1.14 
 347  0.90  0.76  1.14 
 348  0.86  1.04  1.14 
 349  0.75  0.86  1.14 
 350  0.75  0.51  1.14 
 351  0.75  0.54  1.14 
 352  0.65  0.96  1.14 
 353  0.69  1.31  1.14 
 354  1.10  1.05  1.14 
 355  0.76  0.89  1.14 
 356  0.72  1.26  1.14 
 357  0.96  0.90  1.14 
 358  0.70  0.96  1.14 
 359  0.86  1.06  1.14 
 360  0.88  0.80  1.14 
 361  0.75  0.88  1.14 
 362  0.87  0.69  1.14 
 363  0.84  0.64  1.14 
 364  0.87  1.17  1.14 
 365  0.85  1.39  1.14 
 366  0.71  0.87  1.14 
 367  1.08  1.13  1.14 
 368  0.94  1.22  1.14 
 369  0.51  1.07  1.14 
 370  0.76  1.18  1.14 
 371  0.82  1.30  1.14 
 372  0.95  0.71  1.14 
 373  0.61  1.28  1.14 
 374  0.77  1.19  1.14 
 375  0.88  1.26  1.14 
 376  0.84  1.42  1.14 
 377  1.02  1.33  1.14 
 378  0.79  1.17  1.14 
 379  0.79  1.21  1.14 
 380  0.66  1.24  1.14 
 381  0.90  1.32  1.14 
 382  0.66  1.25  1.14 
 383  0.67  1.34  1.14 
 384  0.89  1.20  1.14 
 385  0.64  1.30  1.14 
 386  0.57  1.16  1.14 
 387  0.71  1.24  1.14 
 388  0.50  1.20  1.14 
 389  0.89  0.66  1.14 
 390  0.67  1.10  1.14 
 391  0.61  1.17  1.14 
 392  0.67  1.18  1.14 
 393  0.73  1.29  1.14 
 394  0.81  1.38  1.14 
 395  0.85  1.37  1.14 
 396  0.96  1.25  1.14 
 397  0.90  1.10  1.14 
 398  0.70  1.07  1.14 
 399  0.99  1.01  1.14 
 400  0.83  1.26  1.14 
 401  0.75  1.25  1.14 
 402  1.00  1.16  1.14 
 403  0.73  1.24  1.14 
 404  0.86  1.12  1.14 
 405  0.98  1.12  1.14 
 406  0.97  1.17  1.14 
 407  0.77  1.39  1.14 
 408  0.94  1.43  1.14 
 409  1.00  1.33  1.14 
 410  0.50  1.27  1.14 
 411  0.74  1.26  1.14 
 412  1.13  1.33  1.14 
 413  1.07  1.28  1.14 
 414  0.77  1.53  1.14 
 415  1.08  1.67  1.14 
 416  0.83  1.24  1.14 
 417  0.64  1.51  1.14 
 418  1.10  1.29  1.14 
 419  0.93  1.17  1.14 
 420  1.00  1.24  1.14 
 421  1.15  1.29  1.14 
 422  0.81  1.32  1.15 
 423  0.74  1.37  1.15 
 424  0.99  1.13  1.15 
 425  1.03  0.94  1.15 
 426  1.22  0.89  1.15 
 427  1.06  1.03  1.22 
 428  1.15  0.75  1.22 
 429  0.90  1.26  1.22 
 430  0.98  0.79  1.22 
 431  0.93  1.16  1.22 
 432  0.79  1.07  1.22 
 433  1.02  0.71  1.22 
 434  1.04  1.34  1.22 
 435  0.82  0.82  1.22 
 436  1.00  1.18  1.22 
 437  0.82  1.32  1.22 
 438  0.84  1.24  1.22 
 439  0.77  1.19  1.22 
 440  0.81  1.45  1.22 
 441  1.06  1.36  1.22 
 442  1.10  1.30  1.22 
 443  0.98  1.36  1.22 
 444  1.00  1.47  1.22 
 445  1.19  1.19  1.22 
 446  1.01  1.21  1.22 
 447  0.83  1.23  1.22 
 448  0.67  1.25  1.22 
 449  0.81  1.34  1.22 
 450  1.26  1.28  1.22 
 451  1.00  1.13  1.26 
 452  1.07  1.27  1.26 
 453  1.07  1.25  1.26 
 454  0.80  1.25  1.26 
 455  1.03  1.12  1.26 
 456  1.06  1.21  1.26 
 457  0.98  1.18  1.26 
 458  0.88  1.36  1.26 
 459  0.87  1.68  1.26 
 460  1.15  1.39  1.26 
 461  1.05  1.53  1.26 
 462  1.05  1.14  1.26 
 463  1.04  1.23  1.26 
 464  0.98  0.88  1.26 
 465  0.91  1.26  1.26 
 466  1.01  1.45  1.26 
 467  1.07  1.35  1.26 
 468  0.69  1.49  1.26 
 469  0.93  1.28  1.26 
 470  1.02  1.43  1.26 
 471  0.72  1.63  1.26 
 472  1.12  1.35  1.26 
 473  1.01  1.07  1.26 
 474  0.85  0.97  1.26 
 475  1.01  0.92  1.26 
 476  0.98  0.89  1.26 
 477  0.81  0.98  1.26 
 478  0.79  1.25  1.26 
 479  1.08  1.44  1.26 
 480  0.83  1.41  1.26 
 481  0.96  1.04  1.26 
 482  1.21  0.99  1.26 
 483  0.79  0.96  1.26 
 484  1.15  0.97  1.26 
 485  1.17  0.84  1.26 
 486  1.12  1.05  1.26 
 487  1.12  1.42  1.26 
 488  1.07  1.12  1.26 
 489  1.07  1.22  1.26 
 490  0.98  1.43  1.26 
 491  1.04  1.02  1.26 
 492  1.10  1.44  1.26 
 493  1.03  1.12  1.26 
 494  1.01  1.31  1.26 
 495  0.92  1.31  1.26 
 496  1.10  1.13  1.26 
 497  1.25  1.16  1.26 
 498  1.02  1.06  1.26 
 499  1.12  1.51  1.26 
 500  0.70  0.95  1.26 
 501  0.94  1.90  1.26 
 502  1.14  1.78  1.26 
 503  1.19  1.40  1.26 
 504  1.00  1.21  1.26 
 505  0.86  1.24  1.26 
 506  0.93  1.23  1.26 
 507  1.15  1.67  1.26 
 508  1.14  1.53  1.26 
 509  0.83  1.59  1.26 
 510  0.89  1.78  1.26 
 511  0.89  1.23  1.26 
 512  1.04  1.34  1.26 
 513  0.86  1.04  1.26 
 514  0.99  1.01  1.26 
 515  1.08  1.05  1.26 
 516  0.80  1.12  1.26 
 517  0.97  1.44  1.26 
 518  1.35  1.04  1.26 
 519  1.07  1.15  1.35 
 520  1.15  1.37  1.35 
 521  1.17  1.64  1.35 
 522  0.93  1.51  1.35 
 523  0.81  1.14  1.35 
 524  1.09  0.96  1.35 
 525  1.14  1.42  1.35 
 526  1.00  1.45  1.35 
 527  0.86  1.62  1.35 
 528  0.89  1.74  1.35 
 529  1.24  1.18  1.35 
 530  1.11  1.46  1.35 
 531  1.14  1.48  1.35 
 532  0.96  1.84  1.35 
 533  1.23  1.78  1.35 
 534  1.13  1.65  1.35 
 535  1.08  1.82  1.35 
 536  0.98  1.27  1.35 
 537  0.93  1.64  1.35 
 538  0.88  1.59  1.35 
 539  1.07  1.52  1.35 
 540  0.94  1.02  1.35 
 541  0.82  1.20  1.35 
 542  1.06  1.31  1.35 
 543  1.09  1.73  1.35 
 544  1.13  0.91  1.35 
 545  0.99  0.86  1.35 
 546  0.70  0.75  1.35 
 547  0.82  1.03  1.35 
 548  0.80  1.14  1.35 
 549  1.26  1.38  1.35 
 550  1.03  1.18  1.35 
 551  1.16  1.59  1.35 
 552  0.79  1.18  1.35 
 553  0.97  1.14  1.35 
 554  0.92  1.69  1.35 
 555  1.17  1.69  1.35 
 556  1.01  1.61  1.35 
 557  1.31  1.41  1.35 
 558  1.16  1.31  1.35 
 559  1.08  1.74  1.35 
 560  1.30  1.48  1.35 
 561  0.99  1.32  1.35 
 562  1.01  1.77  1.35 
 563  1.10  0.84  1.35 
 564  1.28  1.01  1.35 
 565  1.31  0.75  1.35 
 566  1.05  0.90  1.35 
 567  0.98  0.97  1.35 
 568  1.14  1.26  1.35 
 569  1.11  0.90  1.35 
 570  1.09  0.94  1.35 
 571  1.07  0.92  1.35 
 572  0.92  1.04  1.35 
 573  0.99  0.84  1.35 
 574  1.07  1.40  1.35 
 575  1.23  0.78  1.35 
 576  1.22  0.98  1.35 
 577  1.10  1.08  1.35 
 578  1.04  1.11  1.35 
 579  1.15  1.15  1.35 
 580  1.29  0.93  1.35 
 581  1.05  1.21  1.35 
 582  1.23  0.97  1.35 
 583  0.97  0.95  1.35 
 584  0.75  1.23  1.35 
 585  1.20  1.21  1.35 
 586  1.24  1.88  1.35 
 587  1.16  1.79  1.35 
 588  1.35  1.62  1.35 
 589  1.22  1.26  1.35 
 590  1.21  1.53  1.35 
 591  1.30  1.63  1.35 
 592  1.29  1.46  1.35 
 593  1.09  1.28  1.35 
 594  1.18  1.33  1.35 
 595  1.07  1.54  1.35 
 596  1.06  1.55  1.35 
 597  0.96  1.83  1.35 
 598  1.02  1.65  1.35 
 599  0.87  1.35  1.35 
 600  0.97  1.15  1.35 
 601  0.87  1.26  1.35 
 602  0.86  0.87  1.35 
 603  1.02  1.32  1.35 
 604  0.96  1.26  1.35 
 605  1.36  1.22  1.35 
 606  1.31  1.37  1.36 
 607  1.34  1.40  1.36 
 608  1.44  0.77  1.36 
 609  1.10  0.64  1.44 
 610  1.22  0.74  1.44 
 611  1.04  0.72  1.44 
 612  1.02  0.68  1.44 
 613  0.96  0.96  1.44 
 614  1.01  1.20  1.44 
 615  1.24  0.99  1.44 
 616  1.12  0.85  1.44 
 617  1.37  0.82  1.44 
 618  1.04  0.73  1.44 
 619  0.87  0.70  1.44 
 620  1.21  0.76  1.44 
 621  1.05  0.65  1.44 
 622  1.12  0.77  1.44 
 623  1.16  0.73  1.44 
 624  1.10  0.58  1.44 
 625  0.98  0.65  1.44 
 626  1.07  0.74  1.44 
 627  1.08  0.66  1.44 
 628  1.17  0.77  1.44 
 629  0.88  0.64  1.44 
 630  1.16  0.59  1.44 
 631  1.10  0.70  1.44 
 632  1.06  0.81  1.44 
 633  0.93  0.94  1.44 
 634  1.17  1.04  1.44 
 635  0.94  1.12  1.44 
 636  1.23  0.96  1.44 
 637  1.07  0.88  1.44 
 638  1.08  0.99  1.44 
 639  1.21  1.04  1.44 
 640  0.93  0.96  1.44 
 641  1.36  0.99  1.44 
 642  1.22  0.97  1.44 
 643  1.17  1.03  1.44 
 644  0.72  0.94  1.44 
 645  0.97  1.06  1.44 
 646  1.10  1.22  1.44 
 647  1.06  1.43  1.44 
 648  1.26  1.38  1.44 
 649  1.26  1.23  1.44 
 650  1.03  0.93  1.44 
 651  1.05  0.98  1.44 
 652  1.15  1.06  1.44 
 653  0.91  0.99  1.44 
 654  0.93  1.34  1.44 
 655  1.06  1.10  1.44 
 656  1.03  1.18  1.44 
 657  1.19  0.99  1.44 
 658  1.18  1.20  1.44 
 659  0.89  1.22  1.44 
 660  1.13  1.07  1.44 
 661  0.95  0.81  1.44 
 662  1.09  0.89  1.44 
 663  1.15  0.89  1.44 
 664  0.84  0.63  1.44 
 665  1.03  0.72  1.44 
 666  1.10  0.85  1.44 
 667  0.99  0.76  1.44 
 668  1.08  0.94  1.44 
 669  0.96  0.92  1.44 
 670  0.72  0.96  1.44 
 671  0.96  0.95  1.44 
 672  1.42  1.00  1.44 
 673  1.06  1.00  1.44 
 674  1.18  0.98  1.44 
 675  1.27  1.17  1.44 
 676  1.24  1.49  1.44 
 677  1.07  0.96  1.44 
 678  1.04  1.05  1.44 
 679  1.29  1.44  1.44 
 680  1.13  1.53  1.44 
 681  1.15  1.05  1.44 
 682  1.06  0.99  1.44 
 683  1.06  1.28  1.44 
 684  1.14  0.93  1.44 
 685  1.18  1.14  1.44 
 686  1.07  0.87  1.44 
 687  1.10  0.92  1.44 
 688  1.01  0.92  1.44 
 689  1.26  0.88  1.44 
 690  1.37  0.96  1.44 
 691  0.80  0.89  1.44 
 692  0.94  0.79  1.44 
 693  1.14  0.80  1.44 
 694  1.05  0.87  1.44 
 695  0.85  1.03  1.44 
 696  1.07  0.79  1.44 
 697  1.12  0.88  1.44 
 698  0.92  1.11  1.44 
 699  1.31  0.99  1.44 
 700  0.97  0.81  1.44 
 701  1.14  0.86  1.44 
 702  1.27  0.66  1.44 
 703  1.06  0.86  1.44 
 704  1.08  0.84  1.44 
 705  1.29  0.73  1.44 
 706  1.00  0.84  1.44 
 707  1.22  0.83  1.44 
 708  1.24  0.84  1.44 
 709  1.16  0.84  1.44 
 710  0.86  0.81  1.44 
 711  1.17  0.81  1.44 
 712  1.06  0.79  1.44 
 713  1.14  0.90  1.44 
 714  0.96  1.00  1.44 
 715  1.28  1.30  1.44 
 716  1.18  0.92  1.44 
 717  0.73  1.19  1.44 
 718  0.94  0.91  1.44 
 719  1.34  0.99  1.44 
 720  1.13  0.90  1.44 
 721  1.16  0.90  1.44 
 722  1.04  0.82  1.44 
 723  0.96  0.85  1.44 
 724  1.07  0.79  1.44 
 725  1.19  0.75  1.44 
 726  1.37  0.83  1.44 
 727  1.05  0.80  1.44 
 728  1.15  1.02  1.44 
 729  0.94  0.72  1.44 
 730  1.19  0.74  1.44 
 731  1.26  0.69  1.44 
 732  1.20  0.90  1.44 
 733  1.11  0.94  1.44 
 734  0.76  0.91  1.44 
 735  1.11  0.94  1.44 
 736  1.18  0.87  1.44 
 737  1.24  0.81  1.44 
 738  1.09  0.96  1.44 
 739  1.26  0.81  1.44 
 740  1.32  0.86  1.44 
 741  1.16  0.91  1.44 
 742  0.84  0.85  1.44 
 743  1.45  0.87  1.44 
 744  0.94  0.91  1.45 
 745  1.11  0.84  1.45 
 746  1.20  1.42  1.45 
 747  1.23  0.88  1.45 
 748  1.14  0.83  1.45 
 749  1.01  1.03  1.45 
 750  1.05  1.55  1.45 
 751  0.99  1.23  1.45 
 752  1.23  1.65  1.45 
 753  1.14  1.02  1.45 
 754  1.18  1.03  1.45 
 755  1.31  1.15  1.45 
 756  1.39  1.00  1.45 
 757  1.00  1.04  1.45 
 758  0.95  1.36  1.45 
 759  1.00  1.04  1.45 
 760  1.13  1.24  1.45 
 761  1.36  1.39  1.45 
 762  1.00  1.03  1.45 
 763  0.93  1.07  1.45 
 764  0.92  1.25  1.45 
 765  0.97  1.28  1.45 
 766  1.14  1.26  1.45 
 767  1.22  1.58  1.45 
 768  1.22  1.63  1.45 
 769  0.98  1.52  1.45 
 770  1.07  1.41  1.45 
 771  0.88  1.43  1.45 
 772  1.04  1.47  1.45 
 773  1.43  1.36  1.45 
 774  0.98  1.38  1.45 
 775  1.20  1.62  1.45 
 776  0.94  1.42  1.45 
 777  1.27  1.48  1.45 
 778  1.06  1.40  1.45 
 779  1.19  1.34  1.45 
 780  1.42  1.57  1.45 
 781  0.91  1.36  1.45 
 782  0.98  1.43  1.45 
 783  1.11  1.33  1.45 
 784  1.28  0.98  1.45 
 785  1.18  1.04  1.45 
 786  1.38  1.06  1.45 
 787  1.09  1.15  1.45 
 788  0.83  0.94  1.45 
 789  1.25  0.94  1.45 
 790  0.73  1.55  1.45 
 791  1.13  1.54  1.45 
 792  1.35  1.58  1.45 
 793  1.31  1.39  1.45 
 794  1.34  1.31  1.45 
 795  1.08  1.83  1.45 
 796  1.10  1.37  1.45 
 797  1.35  1.36  1.45 
 798  1.32  1.54  1.45 
 799  1.28  1.31  1.45 
 800  1.23  1.30  1.45 
 801  1.23  1.23  1.45 
 802  1.37  1.56  1.45 
 803  1.00  1.46  1.45 
 804  1.49  1.51  1.45 
 805  1.24  1.54  1.49 
 806  0.87  1.15  1.49 
 807  1.20  1.82  1.49 
 808  1.15  1.34  1.49 
 809  1.25  1.55  1.49 
 810  1.28  1.44  1.49 
 811  1.08  1.57  1.49 
 812  1.19  1.52  1.49 
 813  1.07  1.55  1.49 
 814  0.80  1.47  1.49 
 815  1.04  1.50  1.49 
 816  1.26  1.55  1.49 
 817  1.07  1.57  1.49 
 818  1.25  1.54  1.49 
 819  1.06  1.12  1.49 
 820  1.30  1.21  1.49 
 821  1.30  1.15  1.49 
 822  1.46  1.54  1.49 
 823  1.34  1.19  1.49 
 824  1.33  1.17  1.49 
 825  1.23  1.20  1.49 
 826  1.27  1.14  1.49 
 827  0.91  1.19  1.49 
 828  1.13  1.08  1.49 
 829  1.03  1.21  1.49 
 830  0.91  1.37  1.49 
 831  1.21  1.20  1.49 
 832  0.65  1.45  1.49 
 833  1.23  1.21  1.49 
 834  1.45  1.24  1.49 
 835  1.23  1.35  1.49 
 836  1.05  1.20  1.49 
 837  1.21  1.40  1.49 
 838  1.19  1.16  1.49 
 839  1.01  1.04  1.49 
 840  1.32  1.35  1.49 
 841  1.23  1.29  1.49 
 842  1.19  1.38  1.49 
 843  1.24  1.28  1.49 
 844  1.13  1.26  1.49 
 845  1.34  1.44  1.49 
 846  0.80  1.27  1.49 
 847  1.25  1.11  1.49 
 848  1.23  0.98  1.49 
 849  1.05  1.31  1.49 
 850  1.20  0.99  1.49 
 851  1.43  1.24  1.49 
 852  1.00  1.31  1.49 
 853  1.37  1.34  1.49 
 854  1.29  1.29  1.49 
 855  1.32  1.33  1.49 
 856  0.85  1.33  1.49 
 857  1.34  1.32  1.49 
 858  1.10  1.35  1.49 
 859  1.34  1.36  1.49 
 860  1.19  1.17  1.49 
 861  1.17  1.55  1.49 
 862  1.28  1.20  1.49 
 863  1.28  1.40  1.49 
 864  1.20  1.27  1.49 
 865  1.40  1.30  1.49 
 866  1.18  1.43  1.49 
 867  1.17  1.09  1.49 
 868  0.88  1.14  1.49 
 869  1.08  0.96  1.49 
 870  1.29  1.12  1.49 
 871  1.18  0.93  1.49 
 872  1.25  1.27  1.49 
 873  0.91  1.28  1.49 
 874  1.02  1.25  1.49 
 875  1.23  1.28  1.49 
 876  1.30  0.95  1.49 
 877  1.26  1.07  1.49 
 878  1.07  0.89  1.49 
 879  1.34  1.16  1.49 
 880  1.01  1.52  1.49 
 881  1.03  1.32  1.49 
 882  1.22  1.36  1.49 
 883  1.04  1.54  1.49 
 884  1.31  1.58  1.49 
 885  1.38  0.97  1.49 
 886  1.25  1.12  1.49 
 887  1.24  1.20  1.49 
 888  1.27  1.10  1.49 
 889  1.32  1.35  1.49 
 890  1.13  1.46  1.49 
 891  1.13  1.33  1.49 
 892  1.28  1.41  1.49 
 893  1.26  1.37  1.49 
 894  1.17  1.22  1.49 
 895  1.26  1.16  1.49 
 896  1.20  1.22  1.49 
 897  1.26  1.45  1.49 
 898  1.44  1.40  1.49 
 899  1.18  1.42  1.49 
 900  1.02  1.64  1.49 
 901  1.26  1.48  1.49 
 902  1.23  1.22  1.49 
 903  1.35  1.23  1.49 
 904  1.20  1.32  1.49 
 905  1.36  1.28  1.49 
 906  1.38  1.12  1.49 
 907  0.94  1.26  1.49 
 908  1.22  1.17  1.49 
 909  0.94  1.38  1.49 
 910  1.01  1.48  1.49 
 911  1.03  1.40  1.49 
 912  1.42  1.50  1.49 
 913  1.38  1.42  1.49 
 914  1.28  1.37  1.49 
 915  1.33  1.18  1.49 
 916  1.04  1.82  1.49 
 917  1.33  1.40  1.49 
 918  1.28  1.86  1.49 
 919  1.08  1.32  1.49 
 920  0.84  1.26  1.49 
 921  1.08  1.45  1.49 
 922  1.39  1.26  1.49 
 923  1.13  1.37  1.49 
 924  1.19  1.24  1.49 
 925  1.30  1.21  1.49 
 926  1.18  1.40  1.49 
 927  1.35  1.28  1.49 
 928  0.69  1.45  1.49 
 929  1.28  1.56  1.49 
 930  1.22  1.42  1.49 
 931  1.21  1.46  1.49 
 932  1.02  1.41  1.49 
 933  1.06  1.55  1.49 
 934  0.92  1.33  1.49 
 935  1.03  1.28  1.49 
 936  1.21  1.38  1.49 
 937  1.35  1.46  1.49 
 938  1.02  1.38  1.49 
 939  0.92  0.95  1.49 
 940  1.12  1.32  1.49 
 941  1.40  1.15  1.49 
 942  1.15  1.39  1.49 
 943  1.04  1.23  1.49 
 944  1.07  0.86  1.49 
 945  0.91  1.05  1.49 
 946  1.16  1.14  1.49 
 947  1.17  1.37  1.49 
 948  1.22  1.07  1.49 
 949  1.06  1.01  1.49 
 950  1.23  1.52  1.49 
 951  1.38  1.19  1.49 
 952  1.07  1.29  1.49 
 953  0.96  1.44  1.49 
 954  1.28  1.19  1.49 
 955  1.40  1.41  1.49 
 956  1.17  1.36  1.49 
 957  1.05  1.16  1.49 
 958  0.89  1.18  1.49 
 959  1.21  1.29  1.49 
 960  0.87  1.29  1.49 
 961  1.06  1.29  1.49 
 962  1.22  1.46  1.49 
 963  1.10  1.35  1.49 
 964  1.16  1.33  1.49 
 965  1.20  1.87  1.49 
 966  1.23  1.26  1.49 
 967  1.10  1.22  1.49 
 968  1.32  1.18  1.49 
 969  1.17  1.31  1.49 
 970  1.25  1.31  1.49 
 971  1.16  1.29  1.49 
 972  1.12  1.37  1.49 
 973  1.45  1.04  1.49 
 974  1.29  1.06  1.49 
 975  1.26  1.19  1.49 
 976  1.16  1.17  1.49 
 977  1.02  1.25  1.49 
 978  1.31  1.18  1.49 
 979  1.29  1.17  1.49 
 980  1.07  1.24  1.49 
 981  1.11  1.13  1.49 
 982  1.41  1.36  1.49 
 983  1.27  1.08  1.49 
 984  1.55  1.21  1.49 
 985  1.17  1.12  1.55 
 986  1.17  1.61  1.55 
 987  1.22  1.55  1.55 
 988  0.96  1.13  1.55 
 989  1.49  1.31  1.55 
 990  1.20  0.85  1.55 
 991  1.33  0.91  1.55 
 992  1.19  1.01  1.55 
 993  0.97  1.02  1.55 
 994  1.06  0.97  1.55 
 995  1.28  1.15  1.55 
 996  1.32  1.01  1.55 
 997  1.19  0.90  1.55 
 998  1.43  1.01  1.55 
 999  0.91  1.19  1.55 
1000  1.30  1.09  1.55 
1001  1.33  0.94  1.55 
1002  1.27  0.96  1.55 
1003  1.29  0.99  1.55 
1004  1.14  0.89  1.55 
1005  1.04  0.97  1.55 
1006  1.18  1.10  1.55 
1007  1.14  0.96  1.55 
1008  1.32  0.82  1.55 
1009  1.19  0.99  1.55 
1010  1.35  1.04  1.55 
1011  1.05  1.00  1.55 
1012  1.15  0.97  1.55 
1013  0.59  0.84  1.55 
1014  1.21  0.86  1.55 
1015  1.20  0.97  1.55 
1016  1.12  0.92  1.55 
1017  1.35  0.93  1.55 
1018  1.05  1.00  1.55 
1019  1.20  0.75  1.55 
1020  1.51  0.94  1.55 
1021  1.14  0.66  1.55 
1022  1.07  0.75  1.55 
1023  1.11  0.76  1.55 
1024  0.97  0.84  1.55 
1025  1.11  0.60  1.55 
1026  0.85  0.79  1.55 
1027  1.04  0.97  1.55 
1028  0.93  0.86  1.55 
1029  1.19  0.73  1.55 
1030  1.07  0.78  1.55 
1031  1.21  0.86  1.55 
1032  1.14  0.84  1.55 
1033  1.07  0.80  1.55 
1034  1.31  0.86  1.55 
1035  1.23  0.86  1.55 
1036  1.24  0.90  1.55 
1037  1.01  0.81  1.55 
1038  1.24  0.80  1.55 
1039  1.39  0.61  1.55 
1040  1.33  0.88  1.55 
1041  1.38  0.99  1.55 
1042  1.37  0.94  1.55 
1043  1.31  0.88  1.55 
1044  1.01  1.03  1.55 
1045  1.31  1.08  1.55 
1046  1.22  1.00  1.55 
1047  0.73  1.09  1.55 
1048  1.20  1.02  1.55 
1049  1.26  0.88  1.55 
1050  1.45  1.08  1.55 
1051  1.21  1.02  1.55 
1052  1.26  1.06  1.55 
1053  1.19  0.91  1.55 
1054  1.18  1.03  1.55 
1055  1.35  1.05  1.55 
1056  1.22  1.07  1.55 
1057  1.54  0.99  1.55 
1058  1.10  1.13  1.55 
1059  1.17  1.08  1.55 
1060  1.23  1.02  1.55 
1061  1.06  1.05  1.55 
1062  0.96  1.02  1.55 
1063  1.15  1.04  1.55 
1064  1.19  1.07  1.55 
1065  1.10  1.08  1.55 
1066  1.27  1.01  1.55 
1067  1.37  1.25  1.55 
1068  1.15  1.29  1.55 
1069  1.02  1.08  1.55 
1070  1.04  1.19  1.55 
1071  0.88  1.07  1.55 
1072  1.33  1.17  1.55 
1073  1.28  1.11  1.55 
1074  1.26  1.48  1.55 
1075  1.07  1.30  1.55 
1076  1.40  1.28  1.55 
1077  1.24  1.16  1.55 
1078  1.15  1.32  1.55 
1079  1.26  1.22  1.55 
1080  1.17  1.17  1.55 
1081  1.15  1.12  1.55 
1082  1.21  1.16  1.55 
1083  1.32  1.08  1.55 
1084  1.15  1.14  1.55 
1085  1.16  1.28  1.55 
1086  1.08  1.08  1.55 
1087  0.94  1.18  1.55 
1088  1.36  1.28  1.55 
1089  1.17  1.18  1.55 
1090  1.10  1.21  1.55 
1091  1.08  1.25  1.55 
1092  1.12  1.12  1.55 
1093  0.87  1.09  1.55 
1094  1.18  1.08  1.55 
1095  1.37  1.25  1.55 
1096  1.12  1.08  1.55 
1097  1.39  1.12  1.55 
1098  1.39  1.10  1.55 
1099  0.91  1.18  1.55 
1100  1.29  1.04  1.55 
1101  1.09  1.11  1.55 
1102  1.30  1.14  1.55 
1103  1.14  1.17  1.55 
1104  1.16  1.10  1.55 
1105  1.13  1.16  1.55 
1106  1.14  1.26  1.55 
1107  1.31  1.29  1.55 
1108  1.20  1.12  1.55 
1109  1.40  1.23  1.55 
1110  1.33  1.19  1.55 
1111  1.27  1.35  1.55 
1112  1.04  1.37  1.55 
1113  1.28  1.20  1.55 
1114  1.21  1.37  1.55 
1115  0.89  1.25  1.55 
1116  1.21  1.23  1.55 
1117  1.21  1.16  1.55 
1118  1.20  1.05  1.55 
1119  1.27  1.03  1.55 
1120  1.25  1.13  1.55 
1121  1.24  1.02  1.55 
1122  1.19  1.08  1.55 
1123  1.12  1.11  1.55 
1124  1.18  1.23  1.55 
1125  1.33  1.05  1.55 
1126  1.28  0.89  1.55 
1127  1.34  0.91  1.55 
1128  1.30  0.54  1.55 
1129  1.32  0.47  1.55 
1130  1.21  0.39  1.55 
1131  1.29  0.49  1.55 
1132  1.07  0.35  1.55 
1133  1.13  0.36  1.55 
1134  1.16  0.46  1.55 
1135  1.10  0.40  1.55 
1136  1.18  0.42  1.55 
1137  0.89  0.37  1.55 
1138  0.95  0.49  1.55 
1139  0.95  0.52  1.55 
1140  1.16  0.77  1.55 
1141  1.16  0.48  1.55 
1142  1.28  0.44  1.55 
1143  0.94  0.45  1.55 
1144  0.97  0.44  1.55 
1145  1.18  0.45  1.55 
1146  0.96  0.48  1.55 
1147  1.21  0.45  1.55 
1148  1.19  0.44  1.55 
1149  1.18  0.42  1.55 
1150  1.39  0.42  1.55 
1151  1.09  0.44  1.55 
1152  1.22  0.45  1.55 
1153  1.35  0.45  1.55 
1154  1.30  0.46  1.55 
1155  0.95  0.82  1.55 
1156  1.24  0.50  1.55 
1157  1.38  0.48  1.55 
1158  1.23  0.42  1.55 
1159  1.09  0.28  1.55 
1160  1.49  0.34  1.55 
1161  1.29  0.81  1.55 
1162  0.92  0.35  1.55 
1163  0.76  0.38  1.55 
1164  1.13  0.37  1.55 
1165  0.77  0.47  1.55 
1166  0.96  0.16  1.55 
1167  1.05  0.56  1.55 
1168  1.34  0.41  1.55 
1169  0.85  0.41  1.55 
1170  0.98  0.48  1.55 
1171  1.12  0.80  1.55 
1172  0.91  0.57  1.55 
1173  1.20  0.95  1.55 
1174  1.10  0.91  1.55 
1175  1.14  0.34  1.55 
1176  1.19  0.28  1.55 
1177  1.27  0.61  1.55 
1178  1.24  0.40  1.55 
1179  1.15  0.57  1.55 
1180  1.36  0.45  1.55 
1181  1.33  0.44  1.55 
1182  1.32  0.67  1.55 
1183  1.15  0.75  1.55 
1184  1.32  0.48  1.55 
1185  1.36  0.41  1.55 
1186  1.09  0.13  1.55 
1187  1.01  0.15  1.55 
1188  1.33  0.51  1.55 
1189  0.94  0.50  1.55 
1190  1.06  0.51  1.55 
1191  1.27  0.47  1.55 
1192  0.94  0.45  1.55 
1193  1.40  0.43  1.55 
1194  0.98  0.34  1.55 
1195  1.21  0.33  1.55 
1196  1.33  0.35  1.55 
1197  1.00  0.53  1.55 
1198  0.97  0.71  1.55 
1199  1.07  0.36  1.55 
1200  1.07  0.82  1.55 
1201  0.89  0.36  1.55 
1202  1.38  0.40  1.55 
1203  1.29  0.53  1.55 
1204  1.50  0.53  1.55 
1205  1.16  0.67  1.55 
1206  1.48  0.44  1.55 
1207  1.19  0.32  1.55 
1208  1.26  0.38  1.55 
1209  0.99  0.30  1.55 
1210  1.18  0.36  1.55 
1211  1.30  0.37  1.55 
1212  1.17  0.41  1.55 
1213  1.22  0.38  1.55 
1214  1.35  0.60  1.55 
1215  1.33  0.55  1.55 
1216  1.12  0.84  1.55 
1217  1.25  0.39  1.55 
1218  1.27  0.46  1.55 
1219  0.90  0.44  1.55 
1220  1.42  1.06  1.55 
1221  1.36  0.93  1.55 
1222  1.42  0.94  1.55 
1223  1.25  1.15  1.55 
1224  1.14  0.54  1.55 
1225  1.11  0.88  1.55 
1226  0.97  0.66  1.55 
1227  1.33  0.56  1.55 
1228  1.12  0.61  1.55 
1229  1.39  1.01  1.55 
1230  1.37  0.81  1.55 
1231  1.35  0.94  1.55 
1232  1.27  0.72  1.55 
1233  1.41  1.17  1.55 
1234  1.10  0.42  1.55 
1235  1.18  0.47  1.55 
1236  1.11  0.96  1.55 
1237  1.13  1.19  1.55 
1238  1.54  1.16  1.55 
1239  1.28  1.06  1.55 
1240  1.15  1.08  1.55 
1241  1.31  1.03  1.55 
1242  1.28  1.03  1.55 
1243  1.37  1.11  1.55 
1244  0.94  1.12  1.55 
1245  1.12  1.20  1.55 
1246  1.41  0.93  1.55 
1247  1.27  0.58  1.55 
1248  1.08  1.15  1.55 
1249  1.04  1.25  1.55 
1250  1.43  1.23  1.55 
1251  1.25  1.16  1.55 
1252  1.21  1.21  1.55 
1253  0.95  1.25  1.55 
1254  1.37  1.12  1.55 
1255  0.91  1.05  1.55 
1256  1.40  1.08  1.55 
1257  0.92  1.15  1.55 
1258  1.32  1.20  1.55 
1259  0.95  1.17  1.55 
1260  1.21  1.15  1.55 
1261  1.15  1.22  1.55 
1262  1.27  1.17  1.55 
1263  1.35  1.27  1.55 
1264  1.22  1.11  1.55 
1265  1.40  1.17  1.55 
1266  1.35  1.11  1.55 
1267  1.22  1.19  1.55 
1268  1.42  1.01  1.55 
1269  1.42  1.22  1.55 
1270  1.03  1.22  1.55 
1271  1.46  1.45  1.55 
1272  1.19  1.11  1.55 
1273  1.05  1.52  1.55 
1274  1.15  1.13  1.55 
1275  1.32  1.51  1.55 
1276  1.46  1.13  1.55 
1277  1.31  1.45  1.55 
1278  1.07  1.51  1.55 
1279  1.33  1.29  1.55 
1280  1.35  1.11  1.55 
1281  1.44  1.27  1.55 
1282  1.10  1.31  1.55 
1283  1.02  1.14  1.55 
1284  1.12  1.37  1.55 
1285  1.28  1.62  1.55 
1286  1.15  1.23  1.55 
1287  1.20  1.58  1.55 
1288  1.02  1.18  1.55 
1289  1.10  1.15  1.55 
1290  1.19  1.00  1.55 
1291  1.30  1.04  1.55 
1292  1.25  1.15  1.55 
1293  1.36  1.12  1.55 
1294  1.17  1.05  1.55 
1295  1.25  1.03  1.55 
1296  1.24  1.05  1.55 
1297  1.18  1.03  1.55 
1298  1.06  1.24  1.55 
1299  1.40  1.12  1.55 
1300  1.34  1.14  1.55 
1301  1.46  1.08  1.55 
1302  0.92  1.08  1.55 
1303  1.34  1.12  1.55 
1304  1.38  1.06  1.55 
1305  1.40  1.09  1.55 
1306  1.10  0.94  1.55 
1307  1.21  1.04  1.55 
1308  1.37  1.06  1.55 
1309  1.24  1.11  1.55 
1310  1.41  1.18  1.55 
1311  1.22  0.96  1.55 
1312  1.08  0.94  1.55 
1313  1.22  1.00  1.55 
1314  1.46  1.11  1.55 
1315  1.19  1.11  1.55 
1316  1.42  1.04  1.55 
1317  1.28  1.13  1.55 
1318  1.15  1.19  1.55 
1319  0.73  1.12  1.55 
1320  1.36  1.55  1.55 
1321  1.03  1.43  1.55 
1322  1.15  1.16  1.55 
1323  1.16  1.16  1.55 
1324  1.12  1.23  1.55 
1325  1.28  1.13  1.55 
1326  1.34  1.16  1.55 
1327  1.03  1.50  1.55 
1328  1.42  1.24  1.55 
1329  1.31  1.11  1.55 
1330  1.17  1.00  1.55 
1331  1.45  1.28  1.55 
1332  1.34  1.28  1.55 
1333  1.11  1.19  1.55 
1334  1.30  1.28  1.55 
1335  1.30  1.14  1.55 
1336  1.19  1.19  1.55 
1337  1.34  1.27  1.55 
1338  1.41  1.35  1.55 
1339  1.02  1.30  1.55 
1340  1.44  1.61  1.55 
1341  0.99  1.47  1.55 
1342  1.05  1.19  1.55 
1343  1.28  1.13  1.55 
1344  1.44  1.41  1.55 
1345  1.48  1.32  1.55 
1346  1.16  1.14  1.55 
1347  1.26  1.24  1.55 
1348  1.24  1.39  1.55 
1349  1.08  1.14  1.55 
1350  1.17  1.19  1.55 
1351  1.09  1.18  1.55 
1352  1.42  1.10  1.55 
1353  0.97  1.20  1.55 
1354  1.45  1.57  1.55 
1355  1.24  1.44  1.55 
1356  1.32  1.26  1.55 
1357  1.04  1.04  1.55 
1358  1.27  1.45  1.55 
1359  1.38  1.47  1.55 
1360  1.12  1.61  1.55 
1361  1.23  1.59  1.55 
1362  1.42  1.36  1.55 
1363  1.18  1.58  1.55 
1364  1.40  1.68  1.55 
1365  0.83  1.11  1.55 
1366  1.57  1.54  1.55 
1367  1.35  1.62  1.57 
1368  1.23  1.37  1.57 
1369  1.10  1.54  1.57 
1370  0.93  1.24  1.57 
1371  1.38  1.40  1.57 
1372  1.40  1.31  1.57 
1373  1.46  1.71  1.57 
1374  1.38  1.57  1.57 
1375  1.24  1.19  1.57 
1376  1.28  1.27  1.57 
1377  1.27  1.72  1.57 
1378  1.40  1.69  1.57 
1379  1.39  1.16  1.57 
1380  1.31  1.33  1.57 
1381  1.25  1.10  1.57 
1382  1.32  1.31  1.57 
1383  1.17  1.66  1.57 
1384  1.17  1.73  1.57 
1385  1.41  1.56  1.57 
1386  1.48  1.77  1.57 
1387  1.34  1.65  1.57 
1388  1.28  1.82  1.57 
1389  1.42  1.55  1.57 
1390  1.21  1.54  1.57 
1391  1.28  1.60  1.57 
1392  1.21  1.45  1.57 
1393  1.13  1.70  1.57 
1394  1.11  1.64  1.57 
1395  1.33  1.43  1.57 
1396  1.26  1.46  1.57 
1397  0.98  1.48  1.57 
1398  1.36  1.67  1.57 
1399  1.13  1.64  1.57 
1400  1.19  1.64  1.57 
1401  1.19  1.50  1.57 
1402  1.30  1.06  1.57 
1403  1.29  1.36  1.57 
1404  0.97  0.90  1.57 
1405  1.05  1.60  1.57 
1406  1.56  1.77  1.57 
1407  1.25  1.71  1.57 
1408  1.23  1.21  1.57 
1409  1.05  1.57  1.57 
1410  1.48  1.50  1.57 
1411  1.13  1.57  1.57 
1412  1.30  1.65  1.57 
1413  0.97  1.63  1.57 
1414  1.58  1.56  1.57 
1415  1.31  1.69  1.58 
1416  1.13  1.46  1.58 
1417  1.27  0.93  1.58 
1418  1.30  0.80  1.58 
1419  1.26  1.44  1.58 
1420  1.24  1.48  1.58 
1421  1.22  1.32  1.58 
1422  1.29  1.41  1.58 
1423  1.43  1.34  1.58 
1424  1.27  1.26  1.58 
1425  1.39  1.31  1.58 
1426  1.35  1.24  1.58 
1427  1.35  1.13  1.58 
1428  1.23  1.32  1.58 
1429  1.39  1.21  1.58 
1430  1.26  1.22  1.58 
1431  1.05  1.67  1.58 
1432  1.37  1.66  1.58 
1433  1.36  1.58  1.58 
1434  1.33  1.77  1.58 
1435  1.03  1.83  1.58 
1436  1.33  1.84  1.58 
1437  1.31  1.92  1.58 
1438  1.25  1.30  1.58 
1439  1.37  1.75  1.58 
1440  1.19  1.18  1.58 
1441  1.21  1.31  1.58 
1442  1.28  1.38  1.58 
1443  1.44  1.12  1.58 
1444  1.43  1.40  1.58 
1445  1.41  1.71  1.58 
1446  1.20  1.20  1.58 
1447  1.33  1.73  1.58 
1448  1.14  1.10  1.58 
1449  1.19  1.38  1.58 
1450  1.36  1.64  1.58 
1451  1.47  1.46  1.58 
1452  1.20  1.72  1.58 
1453  1.36  1.35  1.58 
1454  1.39  1.64  1.58 
1455  1.43  1.56  1.58 
1456  1.14  1.67  1.58 
1457  1.08  1.53  1.58 
1458  1.16  1.34  1.58 
1459  1.43  1.46  1.58 
1460  1.74  1.58  1.58 
1461  1.45  1.66  1.74 
1462  1.30  1.67  1.74 
1463  1.45  1.62  1.74 
1464  1.30  1.66  1.74 
1465  1.40  1.33  1.74 
1466  1.11  1.23  1.74 
1467  1.09  1.67  1.74 
1468  1.18  1.78  1.74 
1469  1.39  1.36  1.74 
1470  1.38  1.35  1.74 
1471  1.31  1.44  1.74 
1472  1.36  1.51  1.74 
1473  1.33  1.10  1.74 
1474  0.95  1.46  1.74 
1475  1.11  1.34  1.74 
1476  1.08  1.16  1.74 
1477  1.18  1.12  1.74 
1478  1.37  1.26  1.74 
1479  1.29  1.58  1.74 
1480  1.22  1.06  1.74 
1481  1.26  1.08  1.74 
1482  1.25  1.85  1.74 
1483  1.61  1.42  1.74 
1484  1.56  1.46  1.74 
1485  1.40  1.57  1.74 
1486  1.47  1.60  1.74 
1487  1.19  1.46  1.74 
1488  1.37  1.84  1.74 
1489  1.37  2.17  1.74 
1490  1.11  2.31  1.74 
1491  1.23  1.92  1.74 
1492  1.21  1.99  1.74 
1493  1.06  1.31  1.74 
1494  1.34  1.27  1.74 
1495  1.31  1.25  1.74 
1496  1.30  1.35  1.74 
1497  1.02  1.58  1.74 
1498  1.17  1.38  1.74 
1499  1.11  1.25  1.74 
1500  1.37  1.27  1.74 
1501  1.13  1.29  1.74 
1502  1.14  1.58  1.74 
1503  1.04  1.74  1.74 
1504  1.39  1.42  1.74 
1505  1.35  1.52  1.74 
1506  0.94  1.49  1.74 
1507  1.49  1.51  1.74 
1508  1.19  1.51  1.74 
1509  1.06  1.46  1.74 
1510  1.06  1.51  1.74 
1511  1.10  1.28  1.74 
1512  1.25  1.29  1.74 
1513  1.21  1.96  1.74 
1514  1.44  1.41  1.74 
1515  1.15  1.50  1.74 
1516  1.30  1.38  1.74 
1517  0.95  1.61  1.74 
1518  1.28  1.53  1.74 
1519  1.03  1.96  1.74 
1520  1.19  1.52  1.74 
1521  1.14  1.35  1.74 
1522  1.34  1.71  1.74 
1523  1.32  1.51  1.74 
1524  1.07  1.31  1.74 
1525  1.30  1.40  1.74 
1526  1.34  1.46  1.74 
1527  1.05  1.37  1.74 
1528  1.56  1.38  1.74 
1529  1.10  1.41  1.74 
1530  1.21  1.63  1.74 
1531  1.12  1.66  1.74 
1532  1.17  1.46  1.74 
1533  1.25  1.61  1.74 
1534  1.33  1.52  1.74 
1535  1.41  1.27  1.74 
1536  0.92  1.29  1.74 
1537  1.46  1.54  1.74 
1538  1.18  1.51  1.74 
1539  1.28  1.35  1.74 
1540  1.50  1.37  1.74 
1541  1.30  1.39  1.74 
1542  1.04  1.39  1.74 
1543  1.42  1.63  1.74 
1544  1.30  1.63  1.74 
1545  1.35  1.32  1.74 
1546  1.52  1.56  1.74 
1547  1.28  1.60  1.74 
1548  1.36  1.69  1.74 
1549  1.11  1.56  1.74 
1550  1.37  1.51  1.74 
1551  1.31  1.61  1.74 
1552  1.05  1.55  1.74 
1553  1.33  1.49  1.74 
1554  1.44  1.67  1.74 
1555  1.33  1.68  1.74 
1556  1.27  1.66  1.74 
1557  1.40  1.76  1.74 
1558  1.41  1.66  1.74 
1559  1.12  1.34  1.74 
1560  1.26  1.49  1.74 
1561  1.20  1.45  1.74 
1562  1.30  1.63  1.74 
1563  0.91  1.88  1.74 
1564  1.22  1.47  1.74 
1565  1.27  1.52  1.74 
1566  1.09  1.51  1.74 
1567  1.29  1.44  1.74 
1568  0.84  1.08  1.74 
1569  1.49  2.14  1.74 
1570  1.46  1.43  1.74 
1571  1.12  1.49  1.74 
1572  1.07  1.30  1.74 
1573  1.40  1.52  1.74 
1574  1.21  1.16  1.74 
1575  1.22  1.50  1.74 
1576  1.10  1.17  1.74 
1577  1.51  1.43  1.74 
1578  1.40  1.43  1.74 
1579  1.49  1.41  1.74 
1580  1.26  1.19  1.74 
1581  1.45  1.88  1.74 
1582  1.19  1.37  1.74 
1583  1.08  1.22  1.74 
1584  1.21  1.36  1.74 
1585  0.99  1.42  1.74 
1586  1.21  1.42  1.74 
1587  1.49  1.67  1.74 
1588  1.01  1.49  1.74 
1589  1.11  1.35  1.74 
1590  1.11  1.58  1.74 
1591  1.27  1.21  1.74 
1592  1.54  1.42  1.74 
1593  1.35  1.21  1.74 
1594  1.09  1.47  1.74 
1595  1.34  1.42  1.74 
1596  1.07  1.60  1.74 
1597  1.32  1.35  1.74 
1598  1.36  1.28  1.74 
1599  1.31  1.45  1.74 
1600  1.27  1.65  1.74 
1601  1.36  1.16  1.74 
1602  1.18  1.34  1.74 
1603  1.30  1.46  1.74 
1604  1.21  2.32  1.74 
1605  1.03  1.79  1.74 
1606  1.43  1.91  1.74 
1607  1.39  1.55  1.74 
1608  1.32  1.51  1.74 
1609  1.14  1.37  1.74 
1610  1.32  1.41  1.74 
1611  1.26  1.42  1.74 
1612  1.50  1.43  1.74 
1613  1.36  1.37  1.74 
1614  1.22  1.21  1.74 
1615  0.97  1.53  1.74 
1616  1.30  1.69  1.74 
1617  1.30  1.13  1.74 
1618  1.08  1.54  1.74 
1619  1.57  1.43  1.74 
1620  1.33  1.40  1.74 
1621  1.05  1.32  1.74 
1622  1.21  1.35  1.74 
1623  1.56  1.47  1.74 
1624  1.55  1.51  1.74 
1625  1.23  1.47  1.74 
1626  1.20  1.33  1.74 
1627  1.11  1.33  1.74 
1628  1.34  1.44  1.74 
1629  1.07  1.49  1.74 
1630  1.08  1.21  1.74 
1631  1.35  1.53  1.74 
1632  1.21  1.38  1.74 
1633  1.10  1.33  1.74 
1634  1.34  1.45  1.74 
1635  1.41  1.42  1.74 
1636  1.42  1.08  1.74 
1637  1.06  1.41  1.74 
1638  1.45  1.21  1.74 
1639  1.15  1.25  1.74 
1640  1.07  1.47  1.74 
1641  1.43  1.43  1.74 
1642  1.18  1.21  1.74 
1643  1.32  1.31  1.74 
1644  1.21  1.69  1.74 
1645  1.18  1.50  1.74 
1646  1.36  1.58  1.74 
1647  1.33  1.01  1.74 
1648  1.45  1.28  1.74 
1649  1.08  1.03  1.74 
1650  1.48  1.07  1.74 
1651  1.41  1.27  1.74 
1652  1.18  1.32  1.74 
1653  0.96  1.14  1.74 
1654  1.56  1.00  1.74 
1655  1.06  0.88  1.74 
1656  1.31  1.26  1.74 
1657  1.20  1.42  1.74 
1658  1.44  1.39  1.74 
1659  1.53  1.50  1.74 
1660  1.38  1.49  1.74 
1661  1.42  1.38  1.74 
1662  1.51  1.12  1.74 
1663  1.36  1.51  1.74 
1664  1.37  1.67  1.74 
1665  1.36  1.60  1.74 
1666  1.32  1.49  1.74 
1667  1.31  1.50  1.74 
1668  1.45  1.47  1.74 
1669  1.11  1.50  1.74 
1670  1.30  1.45  1.74 
1671  1.45  1.50  1.74 
1672  1.41  1.40  1.74 
1673  1.27  1.77  1.74 
1674  1.15  1.45  1.74 
1675  1.54  1.82  1.74 
1676  1.19  1.60  1.74 
1677  1.14  1.50  1.74 
1678  1.17  1.88  1.74 
1679  1.00  1.30  1.74 
1680  1.11  1.47  1.74 
1681  1.59  1.47  1.74 
1682  1.45  1.55  1.74 
1683  1.64  1.61  1.74 
1684  1.27  1.46  1.74 
1685  1.16  1.52  1.74 
1686  0.98  1.48  1.74 
1687  1.17  1.37  1.74 
1688  1.25  1.86  1.74 
1689  1.26  1.43  1.74 
1690  1.29  1.50  1.74 
1691  1.47  1.38  1.74 
1692  1.49  1.20  1.74 
1693  1.32  1.44  1.74 
1694  1.37  1.53  1.74 
1695  1.04  1.43  1.74 
1696  1.06  1.38  1.74 
1697  1.05  1.43  1.74 
1698  1.29  1.47  1.74 
1699  1.28  1.38  1.74 
1700  1.37  1.22  1.74 
1701  1.36  0.96  1.74 
1702  0.98  0.96  1.74 
1703  1.01  1.70  1.74 
1704  1.23  1.10  1.74 
1705  1.31  1.60  1.74 
1706  1.01  1.30  1.74 
1707  1.32  1.54  1.74 
1708  1.28  1.38  1.74 
1709  1.45  1.62  1.74 
1710  1.33  1.37  1.74 
1711  1.58  1.22  1.74 
1712  1.23  1.44  1.74 
1713  1.31  1.20  1.74 
1714  0.97  1.33  1.74 
1715  1.08  1.20  1.74 
1716  1.12  1.15  1.74 
1717  1.30  1.31  1.74 
1718  0.91  1.76  1.74 
1719  1.27  1.18  1.74 
1720  1.14  1.54  1.74 
1721  1.47  1.42  1.74 
1722  1.28  1.39  1.74 
1723  1.28  1.18  1.74 
1724  1.58  1.47  1.74 
1725  1.48  1.72  1.74 
1726  1.54  1.02  1.74 
1727  1.41  1.54  1.74 
1728  1.38  1.61  1.74 
1729  1.13  1.34  1.74 
1730  0.92  1.48  1.74 
1731  1.50  1.62  1.74 
1732  1.35  1.58  1.74 
1733  1.33  1.59  1.74 
1734  1.25  1.52  1.74 
1735  1.28  1.42  1.74 
1736  1.57  1.43  1.74 
1737  1.38  1.17  1.74 
1738  1.05  1.17  1.74 
1739  1.38  1.28  1.74 
1740  1.29  1.65  1.74 
1741  1.38  1.40  1.74 
1742  1.26  1.52  1.74 
1743  1.26  1.40  1.74 
1744  1.20  1.39  1.74 
1745  1.35  1.25  1.74 
1746  1.57  1.44  1.74 
1747  1.09  1.30  1.74 
1748  1.20  1.30  1.74 
1749  1.20  1.44  1.74 
1750  1.31  1.15  1.74 
1751  1.42  1.57  1.74 
1752  1.36  1.52  1.74 
1753  1.45  1.39  1.74 
1754  1.41  1.44  1.74 
1755  1.18  1.53  1.74 
1756  1.32  1.62  1.74 
1757  1.07  1.56  1.74 
1758  0.87  1.52  1.74 
1759  1.11  1.59  1.74 
1760  1.37  1.53  1.74 
1761  1.31  0.96  1.74 
1762  1.13  1.24  1.74 
1763  1.56  1.38  1.74 
1764  1.56  1.39  1.74 
1765  1.32  1.16  1.74 
1766  1.05  1.43  1.74 
1767  1.24  2.11  1.74 
1768  1.32  1.43  1.74 
1769  1.58  1.79  1.74 
1770  1.15  1.64  1.74 
1771  1.26  1.55  1.74 
1772  1.47  1.55  1.74 
1773  0.96  1.61  1.74 
1774  1.50  1.49  1.74 
1775  1.50  1.67  1.74 
1776  1.29  1.52  1.74 
1777  1.40  1.63  1.74 
1778  1.12  1.53  1.74 
1779  1.19  1.50  1.74 
1780  1.49  1.52  1.74 
1781  1.22  1.39  1.74 
1782  1.39  1.33  1.74 
1783  1.18  1.31  1.74 
1784  1.30  1.23  1.74 
1785  1.30  1.85  1.74 
1786  1.31  1.50  1.74 
1787  1.33  1.42  1.74 
1788  1.58  1.54  1.74 
1789  0.98  1.56  1.74 
1790  1.29  1.12  1.74 
1791  1.15  1.13  1.74 
1792  1.11  1.48  1.74 
1793  1.44  1.09  1.74 
1794  1.57  1.50  1.74 
1795  1.08  0.95  1.74 
1796  1.23  1.50  1.74 
1797  1.39  1.11  1.74 
1798  1.27  1.69  1.74 
1799  1.40  1.69  1.74 
1800  1.00  1.91  1.74 
1801  1.38  1.48  1.74 
1802  1.54  1.57  1.74 
1803  1.43  1.49  1.74 
1804  1.32  1.41  1.74 
1805  1.13  1.45  1.74 
1806  1.34  1.62  1.74 
1807  1.63  1.47  1.74 
1808  1.15  1.67  1.74 
1809  1.34  1.56  1.74 
1810  1.40  1.27  1.74 
1811  1.14  1.47  1.74 
1812  0.90  1.57  1.74 
1813  1.51  1.64  1.74 
1814  1.43  1.62  1.74 
1815  1.40  1.58  1.74 
1816  1.11  1.59  1.74 
1817  1.19  1.57  1.74 
1818  1.14  1.57  1.74 
1819  1.48  1.72  1.74 
1820  1.32  1.38  1.74 
1821  1.06  1.49  1.74 
1822  1.27  1.57  1.74 
1823  1.26  1.47  1.74 
1824  1.56  1.52  1.74 
1825  1.08  1.19  1.74 
1826  1.31  1.24  1.74 
1827  1.17  1.44  1.74 
1828  1.36  1.40  1.74 
1829  1.40  1.51  1.74 
1830  1.31  1.31  1.74 
1831  1.32  1.29  1.74 
1832  1.38  1.69  1.74 
1833  1.43  1.28  1.74 
1834  1.25  1.58  1.74 
1835  1.41  1.67  1.74 
1836  1.08  1.45  1.74 
1837  1.32  1.86  1.74 
1838  1.42  1.71  1.74 
1839  1.53  1.46  1.74 
1840  1.23  1.38  1.74 
1841  1.07  1.52  1.74 
1842  0.88  1.60  1.74 
1843  1.23  1.51  1.74 
1844  1.22  1.12  1.74 
1845  1.45  1.25  1.74 
1846  1.35  1.35  1.74 
1847  1.56  1.48  1.74 
1848  1.32  1.38  1.74 
1849  1.36  1.59  1.74 
1850  1.68  1.35  1.74 
1851  1.43  1.47  1.74 
1852  1.33  1.50  1.74 
1853  1.19  1.53  1.74 
1854  1.13  1.36  1.74 
1855  1.06  1.43  1.74 
1856  1.41  1.69  1.74 
1857  1.37  1.59  1.74 
1858  1.29  1.61  1.74 
1859  1.38  1.50  1.74 
1860  1.16  1.61  1.74 
1861  1.53  1.75  1.74 
1862  1.04  1.61  1.74 
1863  1.45  1.25  1.74 
1864  1.03  1.79  1.74 
1865  1.23  1.58  1.74 
1866  1.33  1.54  1.74 
1867  1.51  1.51  1.74 
1868  1.49  1.43  1.74 
1869  1.34  1.61  1.74 
1870  1.12  1.55  1.74 
1871  1.30  1.78  1.74 
1872  1.49  1.24  1.74 
1873  1.35  1.51  1.74 
1874  1.30  1.27  1.74 
1875  1.49  1.19  1.74 
1876  1.12  1.28  1.74 
1877  1.40  1.39  1.74 
1878  1.45  1.26  1.74 
1879  1.43  1.38  1.74 
1880  1.28  1.19  1.74 
1881  1.16  1.09  1.74 
1882  1.34  1.07  1.74 
1883  1.44  1.28  1.74 
1884  1.33  1.03  1.74 
1885  1.45  1.27  1.74 
1886  1.09  0.87  1.74 
1887  1.48  0.89  1.74 
1888  1.39  0.80  1.74 
1889  1.07  1.01  1.74 
1890  1.35  1.11  1.74 
1891  1.07  1.08  1.74 
1892  1.49  1.14  1.74 
1893  1.40  1.24  1.74 
1894  1.02  1.13  1.74 
1895  1.35  1.27  1.74 
1896  1.46  1.35  1.74 
1897  1.62  1.34  1.74 
1898  1.12  1.37  1.74 
1899  1.38  1.50  1.74 
1900  1.06  1.25  1.74 
1901  1.16  1.13  1.74 
1902  1.18  1.13  1.74 
1903  1.24  1.20  1.74 
1904  1.35  1.12  1.74 
1905  1.53  1.01  1.74 
1906  1.43  1.07  1.74 
1907  1.11  0.93  1.74 
1908  1.29  0.99  1.74 
1909  0.96  1.06  1.74 
1910  1.24  1.09  1.74 
1911  1.38  1.02  1.74 
1912  1.24  0.80  1.74 
1913  1.25  0.83  1.74 
1914  1.37  0.73  1.74 
1915  1.50  0.74  1.74 
1916  0.98  0.99  1.74 
1917  1.01  0.94  1.74 
1918  1.16  0.91  1.74 
1919  1.34  0.97  1.74 
1920  1.28  0.86  1.74 
1921  1.22  1.01  1.74 
1922  1.00  1.04  1.74 
1923  1.31  0.85  1.74 
1924  1.09  1.11  1.74 
1925  1.42  1.09  1.74 
1926  1.23  1.17  1.74 
1927  1.50  1.24  1.74 
1928  1.43  1.71  1.74 
1929  1.39  1.14  1.74 
1930  1.17  1.58  1.74 
1931  1.33  1.63  1.74 
1932  1.36  1.32  1.74 
1933  1.41  1.54  1.74 
1934  1.51  1.64  1.74 
1935  1.37  1.68  1.74 
1936  1.44  1.05  1.74 
1937  1.41  1.25  1.74 
1938  1.23  1.16  1.74 
1939  1.46  1.62  1.74 
1940  1.47  1.25  1.74 
1941  1.15  1.27  1.74 
1942  1.31  0.95  1.74 
1943  1.48  1.68  1.74 
1944  1.16  1.40  1.74 
1945  1.33  1.54  1.74 
1946  1.43  1.34  1.74 
1947  1.44  1.43  1.74 
1948  1.17  1.35  1.74 
1949  0.92  1.10  1.74 
1950  1.26  1.73  1.74 
1951  1.31  1.74  1.74 
1952  1.14  1.56  1.74 
1953  1.36  1.24  1.74 
1954  1.39  1.74  1.74 
1955  1.13  1.61  1.74 
1956  1.24  1.74  1.74 
1957  1.55  1.69  1.74 
1958  1.53  2.01  1.74 
1959  1.17  1.70  1.74 
1960  1.11  1.88  1.74 
1961  1.09  1.44  1.74 
1962  1.47  1.37  1.74 
1963  0.84  1.61  1.74 
1964  1.36  1.61  1.74 
1965  1.23  1.53  1.74 
1966  1.43  1.51  1.74 
1967  0.98  1.66  1.74 
1968  0.96  1.65  1.74 
1969  1.35  1.71  1.74 
1970  1.35  1.80  1.74 
1971  1.45  1.67  1.74 
1972  1.12  1.65  1.74 
1973  1.56  1.79  1.74 
1974  1.08  1.76  1.74 
1975  1.11  1.39  1.74 
1976  1.32  2.21  1.74 
1977  1.62  1.52  1.74 
1978  1.22  1.82  1.74 
1979  1.51  1.33  1.74 
1980  1.42  1.61  1.74 
1981  1.43  1.52  1.74 
1982  1.50  1.79  1.74 
1983  1.10  1.54  1.74 
1984  1.37  1.60  1.74 
1985  1.53  1.93  1.74 
1986  1.31  1.33  1.74 
1987  1.47  1.54  1.74 
1988  1.04  1.49  1.74 
1989  1.39  1.44  1.74 
1990  1.40  1.57  1.74 
1991  1.45  1.41  1.74 
1992  1.55  1.16  1.74 
1993  1.30  1.66  1.74 
1994  1.25  1.58  1.74 
1995  1.56  1.72  1.74 
1996  1.09  1.44  1.74 
1997  1.37  1.56  1.74 
1998  1.41  1.61  1.74 
1999  1.21  1.86  1.74 
2000  1.31  1.46  1.74 
2001  1.19  1.81  1.74 
2002  1.20  1.76  1.74 
2003  1.34  1.44  1.74 
2004  1.47  1.85  1.74 
2005  1.49  1.78  1.74 
2006  1.58  1.52  1.74 
2007  1.43  1.85  1.74 
2008  1.32  1.79  1.74 
2009  1.48  1.76  1.74 
2010  1.33  1.79  1.74 
2011  1.26  1.61  1.74 
2012  1.44  1.80  1.74 
2013  1.56  1.29  1.74 
2014  1.35  1.83  1.74 
2015  1.09  1.56  1.74 
2016  1.43  1.83  1.74 
2017  1.30  1.60  1.74 
2018  1.12  1.60  1.74 
2019  1.39  1.50  1.74 
2020  1.04  1.72  1.74 
2021  1.15  1.39  1.74 
2022  1.50  1.55  1.74 
2023  1.19  1.64  1.74 
2024  1.41  1.36  1.74 
2025  1.49  1.31  1.74 
2026  1.32  1.75  1.74 
2027  1.43  1.71  1.74 
2028  1.00  1.48  1.74 
2029  1.14  1.59  1.74 
2030  1.40  1.63  1.74 
2031  1.25  1.49  1.74 
2032  1.50  1.60  1.74 
2033  1.24  1.26  1.74 
2034  1.48  1.47  1.74 
2035  1.29  1.56  1.74 
2036  1.18  1.75  1.74 
2037  1.57  1.76  1.74 
2038  1.44  1.67  1.74 
2039  1.29  1.87  1.74 
2040  1.42  1.63  1.74 
2041  1.18  1.60  1.74 
2042  1.44  1.51  1.74 
2043  1.15  1.74  1.74 
2044  1.40  1.44  1.74 
2045  1.25  1.44  1.74 
2046  1.52  1.38  1.74 
2047  1.50  1.35  1.74 
2048  1.57  1.38  1.74 
2049  1.39  1.43  1.74 
2050  1.27  1.41  1.74 
2051  1.46  1.45  1.74 
2052  1.31  1.61  1.74 
2053  1.54  1.46  1.74 
2054  1.54  1.31  1.74 
2055  1.51  1.54  1.74 
2056  1.16  1.27  1.74 
2057  1.40  1.74  1.74 
2058  1.37  1.38  1.74 
2059  1.22  1.50  1.74 
2060  1.32  1.65  1.74 
2061  1.06  1.62  1.74 
2062  1.50  1.60  1.74 
2063  1.42  1.49  1.74 
2064  1.60  1.38  1.74 
2065  1.37  1.52  1.74 
2066  1.29  1.13  1.74 
2067  1.17  1.26  1.74 
2068  1.31  1.64  1.74 
2069  1.52  1.48  1.74 
2070  1.37  1.52  1.74 
2071  1.40  1.63  1.74 
2072  1.05  1.52  1.74 
2073  1.52  1.60  1.74 
2074  1.66  1.25  1.74 
2075  1.35  1.24  1.74 
2076  1.25  1.59  1.74 
2077  1.24  1.62  1.74 
2078  1.36  1.58  1.74 
2079  1.62  1.82  1.74 
2080  1.07  1.79  1.74 
2081  1.46  1.69  1.74 
2082  1.42  1.52  1.74 
2083  1.47  1.68  1.74 
2084  1.44  1.70  1.74 
2085  1.42  1.64  1.74 
2086  1.42  1.52  1.74 
2087  1.48  1.55  1.74 
2088  1.28  1.52  1.74 
2089  1.46  1.35  1.74 
2090  1.05  1.51  1.74 
2091  1.17  1.74  1.74 
2092  1.24  1.69  1.74 
2093  1.44  1.90  1.74 
2094  1.12  1.89  1.74 
2095  1.40  1.93  1.74 
2096  1.62  1.88  1.74 
2097  1.43  1.62  1.74 
2098  1.50  1.52  1.74 
2099  1.05  1.68  1.74 
2100  1.34  1.67  1.74 
2101  1.44  1.24  1.74 
2102  1.40  1.76  1.74 
2103  1.36  1.59  1.74 
2104  1.50  1.62  1.74 
2105  1.47  1.89  1.74 
2106  1.16  1.70  1.74 
2107  1.50  1.58  1.74 
2108  1.62  1.59  1.74 
2109  1.47  1.44  1.74 
2110  1.25  1.33  1.74 
2111  1.45  1.78  1.74 
2112  1.36  1.50  1.74 
2113  1.17  1.88  1.74 
2114  1.30  1.57  1.74 
2115  1.24  1.70  1.74 
2116  1.24  1.57  1.74 
2117  1.39  1.62  1.74 
2118  1.32  1.62  1.74 
2119  1.37  1.46  1.74 
2120  1.21  1.35  1.74 
2121  1.33  1.73  1.74 
2122  1.29  1.39  1.74 
2123  1.39  1.16  1.74 
2124  1.49  1.70  1.74 
2125  1.36  1.57  1.74 
2126  1.15  1.56  1.74 
2127  1.47  1.61  1.74 
2128  1.47  1.71  1.74 
2129  1.14  1.82  1.74 
2130  1.41  1.80  1.74 
2131  1.27  1.56  1.74 
2132  1.14  1.65  1.74 
2133  1.37  1.82  1.74 
2134  1.44  1.64  1.74 
2135  1.28  1.68  1.74 
2136  1.31  1.64  1.74 
2137  1.55  1.59  1.74 
2138  1.51  1.62  1.74 
2139  1.40  1.79  1.74 
2140  1.33  1.58  1.74 
2141  1.05  1.64  1.74 
2142  1.49  1.86  1.74 
2143  1.63  1.64  1.74 
2144  1.32  1.75  1.74 
2145  1.48  1.80  1.74 
2146  1.38  1.47  1.74 
2147  1.41  1.77  1.74 
2148  1.12  1.56  1.74 
2149  1.33  1.69  1.74 
2150  1.47  1.67  1.74 
2151  1.40  1.66  1.74 
2152  1.29  1.48  1.74 
2153  1.10  1.64  1.74 
2154  1.45  1.67  1.74 
2155  1.51  1.68  1.74 
2156  1.17  1.54  1.74 
2157  1.32  1.62  1.74 
2158  1.32  1.62  1.74 
2159  1.33  1.66  1.74 
2160  1.41  1.62  1.74 
2161  1.25  1.65  1.74 
2162  1.26  1.72  1.74 
2163  1.30  1.64  1.74 
2164  1.45  1.51  1.74 
2165  1.42  1.73  1.74 
2166  1.22  1.64  1.74 
2167  1.53  1.62  1.74 
2168  1.04  1.57  1.74 
2169  1.46  1.49  1.74 
2170  1.50  1.42  1.74 
2171  1.32  1.74  1.74 
2172  1.43  1.49  1.74 
2173  1.32  1.23  1.74 
2174  1.39  1.30  1.74 
2175  1.40  1.69  1.74 
2176  1.40  1.55  1.74 
2177  1.36  1.59  1.74 
2178  1.50  1.43  1.74 
2179  1.48  1.56  1.74 
2180  1.19  1.59  1.74 
2181  1.43  1.60  1.74 
2182  1.26  1.47  1.74 
2183  1.27  1.57  1.74 
2184  1.51  1.82  1.74 
2185  1.46  1.40  1.74 
2186  1.51  1.67  1.74 
2187  1.20  1.48  1.74 
2188  1.43  1.52  1.74 
2189  1.28  1.47  1.74 
2190  1.45  1.68  1.74 
2191  1.65  1.79  1.74 
2192  1.34  1.70  1.74 
2193  1.25  1.74  1.74 
2194  1.28  1.46  1.74 
2195  1.22  1.69  1.74 
2196  1.60  1.67  1.74 
2197  1.14  1.80  1.74 
2198  1.30  1.63  1.74 
2199  1.28  1.70  1.74 
2200  1.31  2.05  1.74 
2201  1.42  1.84  1.74 
2202  1.43  1.72  1.74 
2203  1.27  1.48  1.74 
2204  1.37  1.86  1.74 
2205  1.30  2.16  1.74 
2206  1.32  1.58  1.74 
2207  1.27  1.72  1.74 
2208  1.42  1.55  1.74 
2209  1.65  1.78  1.74 
2210  1.40  1.46  1.74 
2211  1.04  1.77  1.74 
2212  1.23  1.71  1.74 
2213  1.33  1.72  1.74 
2214  1.33  1.88  1.74 
2215  1.19  1.66  1.74 
2216  1.23  1.63  1.74 
2217  1.26  2.03  1.74 
2218  1.20  1.65  1.74 
2219  1.25  1.74  1.74 
2220  1.38  1.63  1.74 
2221  1.53  1.57  1.74 
2222  1.29  1.38  1.74 
2223  1.45  1.88  1.74 
2224  1.42  1.41  1.74 
2225  1.53  1.48  1.74 
2226  1.47  1.72  1.74 
2227  1.42  1.83  1.74 
2228  1.52  1.77  1.74 
2229  1.42  1.45  1.74 
2230  1.22  1.34  1.74 
2231  1.36  1.60  1.74 
2232  1.47  1.76  1.74 
2233  1.25  1.58  1.74 
2234  1.21  1.50  1.74 
2235  1.29  1.36  1.74 
2236  1.13  1.69  1.74 
2237  1.16  1.65  1.74 
2238  1.45  1.78  1.74 
2239  1.00  1.93  1.74 
2240  1.15  1.52  1.74 
2241  1.30  1.96  1.74 
2242  1.32  1.73  1.74 
2243  1.32  1.39  1.74 
2244  1.19  1.87  1.74 
2245  1.25  1.75  1.74 
2246  1.43  1.75  1.74 
2247  1.52  2.00  1.74 
2248  1.18  1.84  1.74 
2249  1.22  1.60  1.74 
2250  1.36  1.24  1.74 
2251  1.26  1.76  1.74 
2252  1.51  1.71  1.74 
2253  1.44  1.99  1.74 
2254  1.47  1.61  1.74 
2255  1.38  2.02  1.74 
2256  1.40  2.27  1.74 
2257  1.41  1.79  1.74 
2258  1.18  1.93  1.74 
2259  0.93  1.60  1.74 
2260  1.16  1.86  1.74 
2261  1.34  1.83  1.74 
2262  0.95  1.87  1.74 
2263  1.50  2.05  1.74 
2264  1.01  1.78  1.74 
2265  1.46  1.87  1.74 
2266  1.27  1.68  1.74 
2267  1.35  1.65  1.74 
2268  1.11  1.87  1.74 
2269  1.34  1.76  1.74 
2270  1.23  1.68  1.74 
2271  1.33  1.47  1.74 
2272  1.29  1.80  1.74 
2273  1.33  1.51  1.74 
2274  1.36  1.95  1.74 
2275  1.43  1.68  1.74 
2276  1.45  1.88  1.74 
2277  1.54  1.63  1.74 
2278  1.47  1.86  1.74 
2279  1.15  1.60  1.74 
2280  1.38  1.67  1.74 
2281  1.20  1.54  1.74 
2282  1.31  1.60  1.74 
2283  1.43  1.74  1.74 
2284  1.31  1.77  1.74 
2285  1.54  1.82  1.74 
2286  1.22  1.72  1.74 
2287  1.36  1.89  1.74 
2288  1.49  1.69  1.74 
2289  1.52  1.86  1.74 
2290  1.42  1.76  1.74 
2291  1.36  1.61  1.74 
2292  1.41  1.71  1.74 
2293  1.29  1.71  1.74 
2294  1.23  1.74  1.74 
2295  1.16  1.34  1.74 
2296  1.09  1.79  1.74 
2297  1.39  1.54  1.74 
2298  1.32  1.45  1.74 
2299  1.43  1.72  1.74 
2300  1.42  1.50  1.74 
2301  1.49  1.93  1.74 
2302  1.44  1.86  1.74 
2303  1.16  2.44  1.74 
2304  1.14  1.90  1.74 
2305  1.29  1.87  1.74 
2306  1.45  1.82  1.74 
2307  1.51  2.02  1.74 
2308  1.22  1.85  1.74 
2309  1.43  1.76  1.74 
2310  1.49  1.90  1.74 
2311  1.18  1.74  1.74 
2312  1.05  1.70  1.74 
2313  1.35  2.01  1.74 
2314  1.03  2.11  1.74 
2315  1.28  1.96  1.74 
2316  1.34  1.84  1.74 
2317  1.45  2.10  1.74 
2318  1.25  1.65  1.74 
2319  1.62  1.89  1.74 
2320  1.36  1.37  1.74 
2321  1.34  1.61  1.74 
2322  1.30  1.89  1.74 
2323  1.34  1.88  1.74 
2324  1.31  1.51  1.74 
2325  1.34  1.68  1.74 
2326  1.16  1.31  1.74 
2327  1.26  1.13  1.74 
2328  1.40  1.44  1.74 
2329  1.55  1.76  1.74 
2330  1.49  1.37  1.74 
2331  1.45  1.87  1.74 
2332  1.22  1.45  1.74 
2333  1.17  1.80  1.74 
2334  1.35  1.74  1.74 
2335  1.35  1.63  1.74 
2336  1.37  1.57  1.74 
2337  1.22  1.71  1.74 
2338  1.39  1.49  1.74 
2339  1.31  1.67  1.74 
2340  1.39  1.87  1.74 
2341  1.59  1.88  1.74 
2342  1.30  1.32  1.74 
2343  1.40  1.43  1.74 
2344  1.25  1.58  1.74 
2345  1.33  1.32  1.74 
2346  1.24  1.56  1.74 
2347  1.52  1.66  1.74 
2348  1.26  1.69  1.74 
2349  1.44  1.69  1.74 
2350  1.26  1.87  1.74 
2351  1.28  1.54  1.74 
2352  1.31  1.64  1.74 
2353  1.38  2.00  1.74 
2354  1.27  1.61  1.74 
2355  1.39  1.64  1.74 
2356  1.37  1.30  1.74 
2357  1.24  1.42  1.74 
2358  1.44  1.70  1.74 
2359  1.33  1.70  1.74 
2360  1.31  1.60  1.74 
2361  1.51  1.54  1.74 
2362  1.33  1.67  1.74 
2363  1.21  1.45  1.74 
2364  1.25  1.85  1.74 
2365  1.39  1.26  1.74 
2366  1.65  1.57  1.74 
2367  1.51  1.61  1.74 
2368  1.25  1.97  1.74 
2369  1.39  1.90  1.74 
2370  1.40  1.71  1.74 
2371  0.85  1.89  1.74 
2372  1.14  1.58  1.74 
2373  1.48  1.79  1.74 
2374  1.36  1.90  1.74 
2375  1.29  1.69  1.74 
2376  1.39  1.68  1.74 
2377  1.28  1.85  1.74 
2378  1.01  1.54  1.74 
2379  1.30  1.60  1.74 
2380  1.13  2.12  1.74 
2381  1.47  1.81  1.74 
2382  1.40  1.80  1.74 
2383  1.26  1.81  1.74 
2384  1.40  1.59  1.74 
2385  1.52  1.64  1.74 
2386  1.57  1.60  1.74 
2387  1.05  1.48  1.74 
2388  1.23  1.46  1.74 
2389  1.49  1.71  1.74 
2390  1.48  1.76  1.74 
2391  1.28  1.49  1.74 
2392  1.26  1.63  1.74 
2393  1.06  1.46  1.74 
2394  1.35  1.30  1.74 
2395  1.60  1.85  1.74 
2396  1.33  1.75  1.74 
2397  1.07  1.85  1.74 
2398  1.34  1.75  1.74 
2399  1.45  1.61  1.74 
2400  1.30  1.63  1.74 
2401  1.46  1.70  1.74 
2402  1.40  1.68  1.74 
2403  1.45  1.87  1.74 
2404  1.36  1.80  1.74 
2405  1.25  1.81  1.74 
2406  1.43  1.35  1.74 
2407  1.52  1.50  1.74 
2408  1.39  1.95  1.74 
2409  1.22  2.07  1.74 
2410  1.49  1.76  1.74 
2411  1.44  1.69  1.74 
2412  1.63  1.70  1.74 
2413  1.19  1.74  1.74 
2414  1.35  1.64  1.74 
2415  1.36  1.65  1.74 
2416  1.27  1.59  1.74 
2417  1.21  1.82  1.74 
2418  1.13  1.65  1.74 
2419  1.45  1.95  1.74 
2420  1.26  1.72  1.74 
2421  1.33  1.70  1.74 
2422  1.55  1.76  1.74 
2423  0.93  2.25  1.74 
2424  1.56  1.83  1.74 
2425  0.98  1.23  1.74 
2426  1.19  1.73  1.74 
2427  1.26  1.66  1.74 
2428  1.52  1.35  1.74 
2429  1.25  1.80  1.74 
2430  0.96  1.61  1.74 
2431  1.49  1.61  1.74 
2432  1.41  1.64  1.74 
2433  1.32  1.43  1.74 
2434  1.19  1.67  1.74 
2435  1.22  1.51  1.74 
2436  1.48  1.39  1.74 
2437  1.50  1.46  1.74 
2438  1.07  1.51  1.74 
2439  1.54  1.50  1.74 
2440  1.50  1.70  1.74 
2441  1.23  1.61  1.74 
2442  1.05  1.12  1.74 
2443  1.42  0.82  1.74 
2444  1.51  1.18  1.74 
2445  1.53  1.00  1.74 
2446  1.42  1.74  1.74 
2447  1.50  1.93  1.74 
2448  1.48  1.79  1.74 
2449  1.67  1.48  1.74 
2450  1.40  1.46  1.74 
2451  1.44  1.45  1.74 
2452  1.63  1.72  1.74 
2453  1.42  1.67  1.74 
2454  1.37  1.14  1.74 
2455  1.33  1.13  1.74 
2456  1.51  1.10  1.74 
2457  1.31  1.46  1.74 
2458  1.50  0.66  1.74 
2459  1.49  1.27  1.74 
2460  1.59  1.11  1.74 
2461  1.47  1.57  1.74 
2462  1.57  1.26  1.74 
2463  1.54  1.60  1.74 
2464  1.46  1.44  1.74 
2465  1.39  0.62  1.74 
2466  1.41  0.78  1.74 
2467  1.60  1.55  1.74 
2468  1.43  1.34  1.74 
2469  1.53  1.51  1.74 
2470  1.50  1.54  1.74 
2471  1.55  1.30  1.74 
2472  1.33  1.55  1.74 
2473  1.58  1.61  1.74 
2474  1.42  1.53  1.74 
2475  1.54  1.72  1.74 
2476  1.48  1.38  1.74 
2477  1.67  1.43  1.74 
2478  1.37  1.50  1.74 
2479  1.46  1.62  1.74 
2480  1.56  1.37  1.74 
2481  1.29  1.43  1.74 
2482  1.57  1.43  1.74 
2483  1.59  1.47  1.74 
2484  1.02  1.66  1.74 
2485  1.58  1.04  1.74 
2486  1.26  1.16  1.74 
2487  1.42  1.08  1.74 
2488  1.41  1.10  1.74 
2489  1.66  1.14  1.74 
2490  1.55  1.08  1.74 
2491  1.50  1.13  1.74 
2492  1.36  1.06  1.74 
2493  1.24  0.92  1.74 
2494  1.56  1.12  1.74 
2495  1.50  1.62  1.74 
2496  1.60  1.10  1.74 
2497  1.44  1.12  1.74 
2498  1.41  1.16  1.74 
2499  1.27  1.10  1.74 
2500  1.20  1.27  1.74 
2501  1.48  0.97  1.74 
2502  1.61  0.86  1.74 
2503  1.56  1.02  1.74 
2504  1.77  1.39  1.74 
2505  1.36  1.35  1.77 
2506  1.39  1.28  1.77 
2507  1.34  1.42  1.77 
2508  1.39  1.37  1.77 
2509  1.18  1.42  1.77 
2510  1.51  1.46  1.77 
2511  1.25  1.38  1.77 
2512  1.69  1.32  1.77 
2513  1.34  1.51  1.77 
2514  1.63  1.30  1.77 
2515  1.42  1.42  1.77 
2516  1.56  1.37  1.77 
2517  1.55  1.42  1.77 
2518  1.12  0.99  1.77 
2519  1.72  1.46  1.77 
2520  1.51  1.32  1.77 
2521  1.20  1.38  1.77 
2522  1.70  1.33  1.77 
2523  1.54  1.37  1.77 
2524  1.32  1.60  1.77 
2525  1.52  0.98  1.77 
2526  1.51  1.53  1.77 
2527  1.54  1.69  1.77 
2528  1.49  1.64  1.77 
2529  1.44  1.46  1.77 
2530  1.55  1.77  1.77 
2531  1.55  1.62  1.77 
2532  1.88  1.81  1.77 
2533  1.48  1.42  1.88 
2534  1.32  1.59  1.88 
2535  1.61  2.05  1.88 
2536  1.08  1.52  1.88 
2537  1.58  1.58  1.88 
2538  1.38  1.77  1.88 
2539  1.63  1.68  1.88 
2540  1.34  1.47  1.88 
2541  1.37  1.62  1.88 
2542  1.38  1.51  1.88 
2543  1.35  1.67  1.88 
2544  1.45  1.60  1.88 
2545  1.44  1.61  1.88 
2546  1.40  1.70  1.88 
2547  1.37  1.48  1.88 
2548  1.43  1.30  1.88 
2549  1.70  1.69  1.88 
2550  1.47  1.59  1.88 
2551  1.48  1.62  1.88 
2552  1.64  1.58  1.88 
2553  1.70  1.42  1.88 
2554  1.59  1.63  1.88 
2555  1.26  1.59  1.88 
2556  1.67  1.64  1.88 
2557  1.60  1.56  1.88 
2558  1.27  1.60  1.88 
2559  1.60  1.65  1.88 
2560  1.49  1.75  1.88 
2561  1.70  1.65  1.88 
2562  1.53  1.72  1.88 
2563  1.65  1.69  1.88 
2564  1.43  1.79  1.88 
2565  1.48  1.57  1.88 
2566  1.48  1.05  1.88 
2567  1.49  1.58  1.88 
2568  1.64  1.58  1.88 
2569  1.29  1.61  1.88 
2570  1.49  1.60  1.88 
2571  1.44  1.50  1.88 
2572  1.50  1.65  1.88 
2573  1.38  1.61  1.88 
2574  1.48  1.64  1.88 
2575  1.49  2.27  1.88 
2576  1.62  1.57  1.88 
2577  1.58  1.92  1.88 
2578  1.50  1.97  1.88 
2579  1.24  1.55  1.88 
2580  1.26  1.72  1.88 
2581  1.57  1.65  1.88 
2582  1.37  1.74  1.88 
2583  1.48  1.55  1.88 
2584  1.32  1.43  1.88 
2585  1.35  1.59  1.88 
2586  1.35  1.30  1.88 
2587  1.52  1.60  1.88 
2588  1.53  1.27  1.88 
2589  1.62  1.62  1.88 
2590  1.31  1.59  1.88 
2591  1.43  1.51  1.88 
2592  1.49  1.52  1.88 
2593  1.37  1.53  1.88 
2594  1.28  1.66  1.88 
2595  1.56  1.68  1.88 
2596  1.44  1.75  1.88 
2597  1.50  1.62  1.88 
2598  1.64  1.77  1.88 
2599  1.41  1.54  1.88 
2600  1.48  1.53  1.88 
2601  1.55  1.42  1.88 
2602  1.47  1.50  1.88 
2603  1.58  1.97  1.88 
2604  1.39  1.57  1.88 
2605  1.55  1.54  1.88 
2606  1.48  1.44  1.88 
2607  1.48  1.47  1.88 
2608  1.67  1.73  1.88 
2609  1.34  1.75  1.88 
2610  1.54  1.67  1.88 
2611  1.35  1.49  1.88 
2612  1.55  1.68  1.88 
2613  1.48  1.28  1.88 
2614  1.55  1.38  1.88 
2615  1.61  1.84  1.88 
2616  1.29  1.64  1.88 
2617  1.44  1.52  1.88 
2618  1.34  1.55  1.88 
2619  1.67  1.57  1.88 
2620  1.23  1.54  1.88 
2621  1.21  1.64  1.88 
2622  1.62  1.59  1.88 
2623  1.29  1.36  1.88 
2624  1.64  1.61  1.88 
2625  1.52  1.70  1.88 
2626  1.42  1.73  1.88 
2627  1.46  1.43  1.88 
2628  1.18  1.31  1.88 
2629  1.53  1.54  1.88 
2630  1.38  1.16  1.88 
2631  1.55  1.42  1.88 
2632  1.43  1.59  1.88 
2633  1.50  1.51  1.88 
2634  1.46  1.51  1.88 
2635  1.46  1.43  1.88 
2636  1.60  1.46  1.88 
2637  1.39  1.73  1.88 
2638  1.50  1.39  1.88 
2639  1.46  1.29  1.88 
2640  1.44  1.52  1.88 
2641  1.51  1.49  1.88 
2642  1.31  1.55  1.88 
2643  1.68  2.01  1.88 
2644  1.60  2.23  1.88 
2645  1.30  1.33  1.88 
2646  1.74  1.10  1.88 
2647  1.47  1.46  1.88 
2648  1.63  0.66  1.88 
2649  1.90  1.33  1.88 
2650  1.41  1.55  1.90 
2651  1.38  1.55  1.90 
2652  1.57  1.76  1.90 
2653  1.52  1.27  1.90 
2654  1.36  1.56  1.90 
2655  1.49  1.31  1.90 
2656  1.65  1.80  1.90 
2657  1.53  1.74  1.90 
2658  1.06  1.56  1.90 
2659  1.41  1.39  1.90 
2660  1.54  1.40  1.90 
2661  1.70  1.69  1.90 
2662  1.43  1.73  1.90 
2663  1.42  1.84  1.90 
2664  1.66  1.58  1.90 
2665  1.43  1.47  1.90 
2666  1.55  1.94  1.90 
2667  1.64  1.22  1.90 
2668  1.34  1.59  1.90 
2669  1.72  1.31  1.90 
2670  1.61  1.53  1.90 
2671  1.35  1.59  1.90 
2672  1.55  1.51  1.90 
2673  1.64  1.58  1.90 
2674  1.44  1.33  1.90 
2675  1.25  1.29  1.90 
2676  1.50  1.67  1.90 
2677  1.32  1.30  1.90 
2678  1.42  2.12  1.90 
2679  1.52  2.07  1.90 
2680  1.46  2.34  1.90 
2681  1.54  1.54  1.90 
2682  1.46  1.60  1.90 
2683  1.65  1.59  1.90 
2684  1.38  1.65  1.90 
2685  1.28  1.74  1.90 
2686  1.29  1.67  1.90 
2687  1.28  2.13  1.90 
2688  1.66  1.63  1.90 
2689  1.61  1.82  1.90 
2690  1.55  1.57  1.90 
2691  1.31  1.72  1.90 
2692  1.43  1.85  1.90 
2693  1.63  1.76  1.90 
2694  1.48  1.99  1.90 
2695  1.46  1.73  1.90 
2696  1.54  1.85  1.90 
2697  1.79  1.48  1.90 
2698  1.45  1.41  1.90 
2699  1.64  1.67  1.90 
2700  1.58  1.59  1.90 
2701  1.47  1.66  1.90 
2702  1.74  1.68  1.90 
2703  1.49  1.69  1.90 
2704  1.72  1.62  1.90 
2705  1.74  1.65  1.90 
2706  1.60  1.17  1.90 
2707  1.35  1.08  1.90 
2708  1.60  1.58  1.90 
2709  1.52  1.22  1.90 
2710  1.28  1.23  1.90 
2711  1.53  0.85  1.90 
2712  1.67  0.65  1.90 
2713  1.72  1.14  1.90 
2714  1.55  1.45  1.90 
2715  1.38  1.28  1.90 
2716  1.23  1.19  1.90 
2717  1.64  0.80  1.90 
2718  1.55  1.33  1.90 
2719  1.32  1.34  1.90 
2720  1.50  1.27  1.90 
2721  1.73  1.58  1.90 
2722  1.50  1.73  1.90 
2723  1.41  1.54  1.90 
2724  1.53  1.49  1.90 
2725  1.48  1.56  1.90 
2726  1.32  1.31  1.90 
2727  1.61  1.50  1.90 
2728  1.52  1.74  1.90 
2729  1.57  1.38  1.90 
2730  1.64  1.56  1.90 
2731  1.58  1.92  1.90 
2732  1.54  1.31  1.90 
2733  1.67  1.70  1.90 
2734  1.62  2.09  1.90 
2735  1.52  2.20  1.90 
2736  1.54  1.55  1.90 
2737  1.41  1.48  1.90 
2738  1.66  1.69  1.90 
2739  1.51  1.53  1.90 
2740  1.27  1.67  1.90 
2741  1.73  1.60  1.90 
2742  1.60  1.58  1.90 
2743  1.49  1.50  1.90 
2744  1.37  1.75  1.90 
2745  1.59  2.09  1.90 
2746  1.53  1.64  1.90 
2747  1.27  1.89  1.90 
2748  1.54  1.51  1.90 
2749  1.29  1.68  1.90 
2750  1.32  1.23  1.90 
2751  1.66  1.41  1.90 
2752  1.73  1.62  1.90 
2753  1.32  1.48  1.90 
2754  1.55  1.26  1.90 
2755  1.29  1.49  1.90 
2756  1.71  1.27  1.90 
2757  1.79  1.30  1.90 
2758  1.36  1.33  1.90 
2759  1.59  1.37  1.90 
2760  1.80  1.44  1.90 
2761  1.42  1.37  1.90 
2762  1.65  1.22  1.90 
2763  1.70  1.40  1.90 
2764  1.35  1.52  1.90 
2765  1.29  1.79  1.90 
2766  1.27  1.43  1.90 
2767  1.61  1.35  1.90 
2768  1.78  1.30  1.90 
2769  1.43  1.27  1.90 
2770  1.87  1.33  1.90 
2771  1.44  1.46  1.90 
2772  1.32  1.68  1.90 
2773  1.57  1.32  1.90 
2774  1.31  1.78  1.90 
2775  1.57  1.69  1.90 
2776  1.22  1.63  1.90 
2777  1.34  1.17  1.90 
2778  1.60  1.38  1.90 
2779  1.41  1.42  1.90 
2780  1.43  1.50  1.90 
2781  1.48  1.46  1.90 
2782  1.61  1.50  1.90 
2783  1.53  1.27  1.90 
2784  1.43  1.58  1.90 
2785  1.68  1.44  1.90 
2786  1.58  1.91  1.90 
2787  1.79  1.87  1.90 
2788  1.38  1.13  1.90 
2789  1.88  1.63  1.90 
2790  1.52  0.94  1.90 
2791  1.35  1.49  1.90 
2792  1.77  1.48  1.90 
2793  1.68  1.32  1.90 
2794  1.63  1.70  1.90 
2795  1.62  1.37  1.90 
2796  1.16  0.95  1.90 
2797  1.57  1.16  1.90 
2798  1.55  1.39  1.90 
2799  1.25  1.60  1.90 
2800  0.97  1.52  1.90 
2801  1.16  1.62  1.90 
2802  1.50  1.81  1.90 
2803  1.60  1.55  1.90 
2804  1.56  1.79  1.90 
2805  1.19  1.60  1.90 
2806  1.33  1.74  1.90 
2807  1.56  1.57  1.90 
2808  1.59  2.25  1.90 
2809  1.77  1.78  1.90 
2810  1.42  1.75  1.90 
2811  1.40  1.85  1.90 
2812  1.48  1.85  1.90 
2813  1.34  1.78  1.90 
2814  1.67  1.69  1.90 
2815  1.22  1.77  1.90 
2816  1.61  1.82  1.90 
2817  1.43  1.63  1.90 
2818  1.44  1.78  1.90 
2819  1.31  1.13  1.90 
2820  1.52  0.86  1.90 
2821  1.47  1.14  1.90 
2822  1.47  2.04  1.90 
2823  1.45  1.29  1.90 
2824  1.72  1.62  1.90 
2825  1.50  1.37  1.90 
2826  1.56  1.53  1.90 
2827  1.49  1.60  1.90 
2828  1.66  1.42  1.90 
2829  1.45  1.82  1.90 
2830  1.59  0.86  1.90 
2831  1.74  1.68  1.90 
2832  1.68  1.05  1.90 
2833  1.41  1.35  1.90 
2834  1.42  1.20  1.90 
2835  1.36  1.32  1.90 
2836  1.47  0.96  1.90 
2837  1.47  1.53  1.90 
2838  1.58  1.00  1.90 
2839  1.54  1.52  1.90 
2840  1.55  1.33  1.90 
2841  1.44  1.53  1.90 
2842  1.76  1.09  1.90 
2843  1.67  1.41  1.90 
2844  1.42  1.42  1.90 
2845  1.74  1.47  1.90 
2846  1.57  1.43  1.90 
2847  1.68  1.42  1.90 
2848  1.53  1.69  1.90 
2849  1.36  1.63  1.90 
2850  1.22  1.59  1.90 
2851  1.32  1.66  1.90 
2852  1.80  1.35  1.90 
2853  1.58  1.51  1.90 
2854  1.96  1.74  1.90 
2855  1.49  1.56  1.96 
2856  1.55  1.75  1.96 
2857  1.64  1.66  1.96 
2858  1.60  1.64  1.96 
2859  1.46  1.60  1.96 
2860  1.58  1.73  1.96 
2861  1.42  1.59  1.96 
2862  1.68  1.60  1.96 
2863  1.52  1.73  1.96 
2864  1.65  1.54  1.96 
2865  1.70  1.55  1.96 
2866  1.40  1.65  1.96 
2867  1.59  1.58  1.96 
2868  1.40  1.66  1.96 
2869  1.48  1.86  1.96 
2870  1.56  1.99  1.96 
2871  1.72  2.01  1.96 
2872  1.49  1.65  1.96 
2873  1.56  1.87  1.96 
2874  1.55  1.84  1.96 
2875  1.31  2.15  1.96 
2876  1.37  2.23  1.96 
2877  1.45  1.19  1.96 
2878  1.70  1.82  1.96 
2879  1.60  1.51  1.96 
2880  1.70  1.73  1.96 
2881  1.41  1.60  1.96 
2882  1.56  1.25  1.96 
2883  1.67  1.58  1.96 
2884  1.49  1.71  1.96 
2885  1.37  2.04  1.96 
2886  1.63  1.60  1.96 
2887  1.45  1.44  1.96 
2888  1.50  1.42  1.96 
2889  1.74  1.51  1.96 
2890  1.22  1.62  1.96 
2891  1.48  1.26  1.96 
2892  1.53  1.68  1.96 
2893  1.41  1.42  1.96 
2894  1.69  1.45  1.96 
2895  1.52  1.35  1.96 
2896  1.56  1.69  1.96 
2897  1.32  1.57  1.96 
2898  1.64  1.60  1.96 
2899  1.52  1.39  1.96 
2900  1.32  0.97  1.96 
2901  1.28  1.17  1.96 
2902  1.48  1.39  1.96 
2903  1.57  1.27  1.96 
2904  1.34  1.26  1.96 
2905  1.87  1.53  1.96 
2906  1.74  1.62  1.96 
2907  1.52  1.42  1.96 
2908  1.45  1.26  1.96 
2909  1.58  1.42  1.96 
2910  1.69  1.69  1.96 
2911  1.49  1.44  1.96 
2912  1.75  1.27  1.96 
2913  1.57  1.29  1.96 
2914  1.45  1.30  1.96 
2915  1.53  1.49  1.96 
2916  1.67  1.38  1.96 
2917  1.53  1.59  1.96 
2918  1.56  1.34  1.96 
2919  1.46  1.22  1.96 
2920  1.52  1.13  1.96 
2921  1.67  1.19  1.96 
2922  1.56  1.12  1.96 
2923  1.36  1.10  1.96 
2924  1.67  1.21  1.96 
2925  1.25  1.14  1.96 
2926  1.51  1.21  1.96 
2927  1.45  1.38  1.96 
2928  1.57  1.20  1.96 
2929  1.25  1.14  1.96 
2930  1.50  1.75  1.96 
2931  1.56  1.80  1.96 
2932  1.59  1.65  1.96 
2933  1.66  1.77  1.96 
2934  1.48  1.50  1.96 
2935  1.50  1.98  1.96 
2936  1.51  1.51  1.96 
2937  1.46  1.49  1.96 
2938  1.22  1.11  1.96 
2939  1.40  1.59  1.96 
2940  1.48  1.47  1.96 
2941  1.49  1.35  1.96 
2942  1.40  1.28  1.96 
2943  1.43  1.49  1.96 
2944  1.62  0.96  1.96 
2945  1.65  1.39  1.96 
2946  1.51  1.55  1.96 
2947  1.57  1.27  1.96 
2948  1.54  1.33  1.96 
2949  1.43  2.23  1.96 
2950  1.53  1.77  1.96 
2951  1.50  1.60  1.96 
2952  1.64  1.58  1.96 
2953  1.79  1.91  1.96 
2954  1.50  2.19  1.96 
2955  1.47  1.48  1.96 
2956  1.25  1.84  1.96 
2957  1.64  1.76  1.96 
2958  1.64  1.54  1.96 
2959  1.46  1.93  1.96 
2960  1.45  1.40  1.96 
2961  1.63  1.68  1.96 
2962  1.44  2.04  1.96 
2963  1.63  1.58  1.96 
2964  1.56  1.85  1.96 
2965  1.59  1.36  1.96 
2966  1.74  1.47  1.96 
2967  1.60  1.50  1.96 
2968  1.31  1.54  1.96 
2969  1.48  1.74  1.96 
2970  1.58  1.60  1.96 
2971  1.68  1.26  1.96 
2972  1.65  1.22  1.96 
2973  1.46  2.02  1.96 
2974  1.53  1.75  1.96 
2975  1.54  1.53  1.96 
2976  1.63  1.52  1.96 
2977  1.41  1.88  1.96 
2978  1.51  1.99  1.96 
2979  1.31  1.23  1.96 
2980  1.49  1.46  1.96 
2981  1.62  1.50  1.96 
2982  1.34  1.14  1.96 
2983  1.77  1.29  1.96 
2984  1.81  1.09  1.96 
2985  1.45  1.31  1.96 
2986  1.68  1.21  1.96 
2987  1.83  1.22  1.96 
2988  2.02  1.13  1.96 
2989  1.42  1.35  2.02 
2990  1.67  1.15  2.02 
2991  1.43  1.61  2.02 
2992  1.48  1.70  2.02 
2993  1.39  1.33  2.02 
2994  1.59  1.26  2.02 
2995  1.44  1.68  2.02 
2996  1.64  1.19  2.02 
2997  1.62  1.18  2.02 
2998  1.37  1.13  2.02 
2999  1.58  1.61  2.02 
3000  1.34  1.30  2.02 
3001  1.43  0.90  2.02 
3002  1.57  1.22  2.02 
3003  1.68  1.33  2.02 
3004  1.61  1.36  2.02 
3005  1.41  1.30  2.02 
3006  1.70  1.24  2.02 
3007  1.23  1.28  2.02 
3008  1.70  0.96  2.02 
3009  1.38  1.52  2.02 
3010  1.74  1.72  2.02 
3011  1.67  1.10  2.02 
3012  1.39  1.43  2.02 
3013  1.25  1.21  2.02 
3014  1.63  1.29  2.02 
3015  1.50  1.31  2.02 
3016  1.87  0.97  2.02 
3017  1.79  1.23  2.02 
3018  1.16  0.70  2.02 
3019  1.79  1.24  2.02 
3020  1.74  1.61  2.02 
3021  1.58  0.95  2.02 
3022  1.37  0.35  2.02 
3023  1.49  0.57  2.02 
3024  1.92  0.53  2.02 
3025  1.58  0.84  2.02 
3026  1.61  1.19  2.02 
3027  1.79  0.95  2.02 
3028  1.76  2.10  2.02 
3029  1.69  0.69  2.02 
3030  1.71  1.29  2.02 
3031  1.60  1.01  2.02 
3032  1.69  1.29  2.02 
3033  1.65  1.84  2.02 
3034  1.39  1.56  2.02 
3035  1.07  1.02  2.02 
3036  1.32  0.80  2.02 
3037  1.70  0.90  2.02 
3038  1.64  1.60  2.02 
3039  1.73  1.07  2.02 
3040  1.49  1.13  2.02 
3041  1.60  1.12  2.02 
3042  1.38  1.68  2.02 
3043  1.28  1.19  2.02 
3044  1.63  1.05  2.02 
3045  1.45  0.72  2.02 
3046  1.88  0.72  2.02 
3047  1.56  1.55  2.02 
3048  1.45  1.99  2.02 
3049  1.60  1.60  2.02 
3050  1.60  1.78  2.02 
3051  1.67  1.30  2.02 
3052  1.46  1.88  2.02 
3053  1.52  0.97  2.02 
3054  1.70  0.85  2.02 
3055  1.64  1.86  2.02 
3056  1.70  1.62  2.02 
3057  1.48  2.03  2.02 
3058  1.47  1.28  2.02 
3059  1.58  1.89  2.02 
3060  1.41  1.43  2.02 
3061  1.38  0.59  2.02 
3062  1.69  1.49  2.02 
3063  1.28  1.67  2.02 
3064  1.64  1.91  2.02 
3065  1.84  1.54  2.02 
3066  1.52  1.78  2.02 
3067  1.60  1.69  2.02 
3068  1.71  1.87  2.02 
3069  1.47  1.60  2.02 
3070  1.59  1.53  2.02 
3071  1.73  1.23  2.02 
3072  1.62  1.22  2.02 
3073  1.79  1.07  2.02 
3074  1.60  1.66  2.02 
3075  1.32  1.30  2.02 
3076  1.51  1.72  2.02 
3077  1.67  1.72  2.02 
3078  1.69  1.12  2.02 
3079  1.50  1.57  2.02 
3080  1.60  1.68  2.02 
3081  1.58  2.08  2.02 
3082  1.35  1.90  2.02 
3083  1.61  1.17  2.02 
3084  1.59  1.17  2.02 
3085  1.33  1.15  2.02 
3086  1.29  0.96  2.02 
3087  1.47  1.47  2.02 
3088  1.78  0.44  2.02 
3089  1.35  0.34  2.02 
3090  1.56  1.81  2.02 
3091  1.68  1.52  2.02 
3092  1.33  1.13  2.02 
3093  1.52  1.70  2.02 
3094  1.33  1.30  2.02 
3095  1.66  1.35  2.02 
3096  1.51  1.02  2.02 
3097  1.48  1.73  2.02 
3098  1.49  1.58  2.02 
3099  1.60  1.20  2.02 
3100  1.74  1.18  2.02 
3101  1.63  1.63  2.02 
3102  1.33  1.20  2.02 
3103  1.50  1.49  2.02 
3104  1.41  1.24  2.02 
3105  1.48  1.22  2.02 
3106  1.36  0.57  2.02 
3107  1.62  0.90  2.02 
3108  1.67  1.04  2.02 
3109  1.38  1.92  2.02 
3110  1.54  1.07  2.02 
3111  1.50  1.15  2.02 
3112  1.37  1.83  2.02 
3113  1.47  1.15  2.02 
3114  1.62  0.99  2.02 
3115  1.53  1.18  2.02 
3116  1.77  1.51  2.02 
3117  1.26  1.63  2.02 
3118  1.47  1.84  2.02 
3119  1.61  1.53  2.02 
3120  1.65  1.67  2.02 
3121  1.62  1.97  2.02 
3122  1.87  1.33  2.02 
3123  1.73  1.10  2.02 
3124  1.62  1.16  2.02 
3125  1.35  1.61  2.02 
3126  1.62  1.65  2.02 
3127  1.17  1.83  2.02 
3128  1.58  1.67  2.02 
3129  1.78  1.27  2.02 
3130  1.51  1.24  2.02 
3131  1.46  1.56  2.02 
3132  1.33  1.70  2.02 
3133  1.65  1.03  2.02 
3134  1.57  1.85  2.02 
3135  1.45  1.41  2.02 
3136  1.92  1.81  2.02 
3137  1.55  0.99  2.02 
3138  1.82  1.23  2.02 
3139  1.41  1.22  2.02 
3140  1.58  0.60  2.02 
3141  1.70  1.76  2.02 
3142  1.90  1.33  2.02 
3143  1.35  0.90  2.02 
3144  1.71  1.24  2.02 
3145  2.02  1.18  2.02 
3146  1.28  1.18  2.02 
3147  1.20  1.84  2.02 
3148  1.63  1.07  2.02 
3149  1.57  1.18  2.02 
3150  1.41  1.10  2.02 
3151  1.37  1.08  2.02 
3152  1.59  1.01  2.02 
3153  1.30  0.89  2.02 
3154  1.45  1.01  2.02 
3155  1.51  0.89  2.02 
3156  1.56  0.96  2.02 
3157  1.66  0.95  2.02 
3158  1.49  1.09  2.02 
3159  1.35  1.00  2.02 
3160  1.44  0.98  2.02 
3161  1.42  1.12  2.02 
3162  1.40  0.91  2.02 
3163  1.60  0.96  2.02 
3164  1.54  1.20  2.02 
3165  1.16  1.42  2.02 
3166  1.48  1.19  2.02 
3167  1.39  0.98  2.02 
3168  1.33  1.06  2.02 
3169  1.57  0.97  2.02 
3170  1.66  0.91  2.02 
3171  1.49  0.96  2.02 
3172  1.93  0.95  2.02 
3173  1.44  0.91  2.02 
3174  1.53  0.92  2.02 
3175  1.51  0.91  2.02 
3176  1.63  1.04  2.02 
3177  1.50  1.08  2.02 
3178  1.55  1.00  2.02 
3179  1.51  0.91  2.02 
3180  1.73  1.11  2.02 
3181  1.14  1.01  2.02 
3182  1.52  1.05  2.02 
3183  1.62  1.12  2.02 
3184  1.57  1.64  2.02 
3185  1.43  1.66  2.02 
3186  1.68  1.65  2.02 
3187  1.86  1.75  2.02 
3188  1.57  1.43  2.02 
3189  1.72  0.94  2.02 
3190  1.73  1.53  2.02 
3191  1.79  1.60  2.02 
3192  1.50  1.47  2.02 
3193  1.67  1.53  2.02 
3194  1.81  1.14  2.02 
3195  1.58  1.02  2.02 
3196  1.41  1.01  2.02 
3197  1.43  0.91  2.02 
3198  1.64  1.46  2.02 
3199  1.19  0.87  2.02 
3200  1.75  1.57  2.02 
3201  1.68  1.44  2.02 
3202  1.52  1.45  2.02 
3203  1.58  1.82  2.02 
3204  1.45  0.96  2.02 
3205  1.75  1.60  2.02 
3206  1.56  0.93  2.02 
3207  1.42  0.89  2.02 
3208  1.64  1.31  2.02 
3209  1.43  1.53  2.02 
3210  1.79  1.39  2.02 
3211  1.70  1.38  2.02 
3212  1.55  0.93  2.02 
3213  1.28  1.30  2.02 
3214  1.92  1.46  2.02 
3215  1.71  1.50  2.02 
3216  1.60  1.46  2.02 
3217  1.68  0.91  2.02 
3218  1.73  0.97  2.02 
3219  1.70  1.17  2.02 
3220  1.27  1.18  2.02 
3221  1.59  1.07  2.02 
3222  1.64  1.44  2.02 
3223  1.40  1.03  2.02 
3224  1.68  1.04  2.02 
3225  1.77  0.95  2.02 
3226  1.60  0.99  2.02 
3227  1.57  1.42  2.02 
3228  1.92  1.25  2.02 
3229  1.71  1.18  2.02 
3230  1.57  2.17  2.02 
3231  1.60  1.35  2.02 
3232  1.11  1.37  2.02 
3233  1.35  1.61  2.02 
3234  1.56  1.26  2.02 
3235  1.92  1.80  2.02 
3236  1.57  0.97  2.02 
3237  1.74  1.78  2.02 
3238  1.62  1.05  2.02 
3239  1.35  1.10  2.02 
3240  1.64  1.56  2.02 
3241  1.40  1.49  2.02 
3242  1.55  1.94  2.02 
3243  1.49  1.77  2.02 
3244  1.66  1.30  2.02 
3245  1.52  1.83  2.02 
3246  1.77  1.65  2.02 
3247  1.70  2.09  2.02 
3248  1.58  1.88  2.02 
3249  1.34  1.07  2.02 
3250  1.59  1.36  2.02 
3251  1.65  1.19  2.02 
3252  1.35  1.73  2.02 
3253  1.59  1.82  2.02 
3254  1.52  1.28  2.02 
3255  1.43  1.68  2.02 
3256  1.62  1.10  2.02 
3257  1.37  1.78  2.02 
3258  1.62  1.60  2.02 
3259  1.51  0.92  2.02 
3260  1.86  1.49  2.02 
3261  1.32  1.05  2.02 
3262  1.47  2.05  2.02 
3263  1.66  1.06  2.02 
3264  1.87  1.00  2.02 
3265  1.49  1.45  2.02 
3266  1.62  1.10  2.02 
3267  1.23  1.04  2.02 
3268  1.82  0.91  2.02 
3269  1.68  1.92  2.02 
3270  1.74  1.11  2.02 
3271  1.15  0.85  2.02 
3272  1.53  1.80  2.02 
3273  1.51  1.32  2.02 
3274  1.60  1.63  2.02 
3275  1.65  1.16  2.02 
3276  2.11  0.65  2.02 
3277  1.71  0.85  2.11 
3278  1.89  0.96  2.11 
3279  1.60  0.98  2.11 
3280  1.44  1.05  2.11 
3281  1.82  1.55  2.11 
3282  1.64  1.27  2.11 
3283  1.26  1.12  2.11 
3284  1.52  0.96  2.11 
3285  1.67  0.98  2.11 
3286  1.42  0.94  2.11 
3287  1.64  1.03  2.11 
3288  1.51  0.77  2.11 
3289  1.54  0.84  2.11 
3290  1.61  1.00  2.11 
3291  1.56  0.80  2.11 
3292  1.66  1.02  2.11 
3293  1.60  0.96  2.11 
3294  1.56  0.95  2.11 
3295  1.45  0.99  2.11 
3296  1.67  0.92  2.11 
3297  1.64  0.44  2.11 
3298  1.68  0.93  2.11 
3299  1.97  0.62  2.11 
3300  1.37  0.81  2.11 
3301  1.73  0.90  2.11 
3302  1.46  0.54  2.11 
3303  1.63  1.45  2.11 
3304  1.60  0.99  2.11 
3305  1.57  1.08  2.11 
3306  1.69  0.63  2.11 
3307  1.71  1.57  2.11 
3308  1.62  1.17  2.11 
3309  1.52  0.97  2.11 
3310  1.48  0.94  2.11 
3311  1.69  1.02  2.11 
3312  1.38  1.07  2.11 
3313  1.53  1.11  2.11 
3314  1.62  1.04  2.11 
3315  1.80  1.12  2.11 
3316  1.79  0.61  2.11 
3317  1.27  1.06  2.11 
3318  1.64  1.17  2.11 
3319  1.84  0.90  2.11 
3320  1.82  1.54  2.11 
3321  1.79  1.98  2.11 
3322  1.48  1.79  2.11 
3323  1.47  2.23  2.11 
3324  1.53  1.73  2.11 
3325  0.99  1.59  2.11 
3326  1.58  2.15  2.11 
3327  1.94  2.03  2.11 
3328  1.69  1.76  2.11 
3329  1.80  1.69  2.11 
3330  1.13  1.63  2.11 
3331  1.66  1.42  2.11 
3332  1.58  1.83  2.11 
3333  1.30  1.79  2.11 
3334  1.74  2.40  2.11 
3335  1.60  1.92  2.11 
3336  1.66  1.22  2.11 
3337  1.64  1.48  2.11 
3338  1.46  1.96  2.11 
3339  1.40  1.99  2.11 
3340  1.44  2.38  2.11 
3341  1.95  1.45  2.11 
3342  1.40  1.97  2.11 
3343  1.91  1.85  2.11 
3344  1.24  1.95  2.11 
3345  1.37  1.97  2.11 
3346  1.77  1.47  2.11 
3347  1.49  1.68  2.11 
3348  1.71  1.63  2.11 
3349  1.58  1.47  2.11 
3350  1.87  1.24  2.11 
3351  1.48  1.88  2.11 
3352  1.48  1.96  2.11 
3353  1.54  1.52  2.11 
3354  1.65  1.81  2.11 
3355  1.48  1.62  2.11 
3356  1.50  1.96  2.11 
3357  1.53  1.65  2.11 
3358  1.28  2.09  2.11 
3359  1.54  2.06  2.11 
3360  1.45  2.05  2.11 
3361  1.64  2.09  2.11 
3362  1.64  0.98  2.11 
3363  1.70  1.31  2.11 
3364  1.38  1.67  2.11 
3365  1.50  2.12  2.11 
3366  1.65  1.91  2.11 
3367  1.71  1.89  2.11 
3368  1.85  0.92  2.11 
3369  1.27  1.65  2.11 
3370  1.72  1.88  2.11 
3371  1.68  1.58  2.11 
3372  1.42  1.68  2.11 
3373  1.59  1.70  2.11 
3374  1.28  1.79  2.11 
3375  1.77  1.74  2.11 
3376  1.26  1.73  2.11 
3377  1.38  1.79  2.11 
3378  1.21  1.88  2.11 
3379  1.58  1.69  2.11 
3380  1.62  1.73  2.11 
3381  1.62  0.92  2.11 
3382  1.43  1.81  2.11 
3383  1.67  1.59  2.11 
3384  1.62  1.47  2.11 
3385  1.44  1.94  2.11 
3386  1.79  1.38  2.11 
3387  1.63  1.69  2.11 
3388  1.50  1.66  2.11 
3389  1.37  1.10  2.11 
3390  1.12  1.56  2.11 
3391  1.70  1.80  2.11 
3392  1.38  2.00  2.11 
3393  1.67  1.13  2.11 
3394  1.27  1.94  2.11 
3395  1.35  1.48  2.11 
3396  1.50  1.53  2.11 
3397  1.76  1.53  2.11 
3398  1.09  2.00  2.11 
3399  1.49  2.13  2.11 
3400  1.57  1.64  2.11 
3401  1.51  1.46  2.11 
3402  1.49  1.28  2.11 
3403  1.58  2.26  2.11 
3404  1.66  1.80  2.11 
3405  1.58  1.84  2.11 
3406  1.14  1.44  2.11 
3407  1.42  1.00  2.11 
3408  1.29  2.16  2.11 
3409  1.47  1.15  2.11 
3410  1.42  1.95  2.11 
3411  1.87  0.92  2.11 
3412  1.39  1.83  2.11 
3413  1.24  1.66  2.11 
3414  1.57  1.45  2.11 
3415  1.71  1.67  2.11 
3416  1.71  1.75  2.11 
3417  1.45  1.51  2.11 
3418  1.72  1.21  2.11 
3419  1.74  1.74  2.11 
3420  1.24  1.30  2.11 
3421  1.08  0.92  2.11 
3422  1.63  1.83  2.11 
3423  1.38  1.74  2.11 
3424  1.51  1.63  2.11 
3425  1.72  1.92  2.11 
3426  1.39  1.68  2.11 
3427  1.63  2.05  2.11 
3428  1.36  1.49  2.11 
3429  1.15  2.15  2.11 
3430  1.70  1.90  2.11 
3431  1.59  2.26  2.11 
3432  1.71  0.84  2.11 
3433  1.63  1.83  2.11 
3434  1.34  1.53  2.11 
3435  1.71  2.01  2.11 
3436  1.74  1.48  2.11 
3437  1.38  1.20  2.11 
3438  1.60  1.56  2.11 
3439  1.73  1.86  2.11 
3440  1.14  1.89  2.11 
3441  1.54  1.52  2.11 
3442  1.54  2.08  2.11 
3443  1.53  1.76  2.11 
3444  1.62  1.64  2.11 
3445  1.62  1.04  2.11 
3446  1.47  1.13  2.11 
3447  1.85  1.76  2.11 
3448  1.65  2.17  2.11 
3449  1.54  1.51  2.11 
3450  1.62  1.85  2.11 
3451  1.34  1.08  2.11 
3452  1.36  1.49  2.11 
3453  1.82  0.76  2.11 
3454  1.21  0.78  2.11 
3455  1.16  0.95  2.11 
3456  1.09  1.88  2.11 
3457  1.44  0.87  2.11 
3458  1.47  2.19  2.11 
3459  2.02  1.84  2.11 
3460  1.57  1.01  2.11 
3461  1.80  0.87  2.11 
3462  1.33  0.83  2.11 
3463  1.49  0.93  2.11 
3464  1.50  1.35  2.11 
3465  1.38  1.34  2.11 
3466  1.48  1.65  2.11 
3467  1.00  1.12  2.11 
3468  1.43  0.88  2.11 
3469  1.40  0.81  2.11 
3470  1.09  1.41  2.11 
3471  1.85  1.44  2.11 
3472  1.45  1.76  2.11 
3473  1.30  0.76  2.11 
3474  1.59  1.22  2.11 
3475  1.78  0.91  2.11 
3476  1.49  1.10  2.11 
3477  1.79  1.76  2.11 
3478  1.10  1.50  2.11 
3479  1.59  1.82  2.11 
3480  1.45  1.96  2.11 
3481  1.42  0.83  2.11 
3482  1.97  1.14  2.11 
3483  1.42  1.29  2.11 
3484  1.18  1.27  2.11 
3485  1.71  1.11  2.11 
3486  1.61  0.87  2.11 
3487  1.21  0.90  2.11 
3488  1.37  1.10  2.11 
3489  1.78  1.59  2.11 
3490  1.36  1.52  2.11 
3491  1.61  1.64  2.11 
3492  1.43  1.18  2.11 
3493  1.16  1.69  2.11 
3494  1.19  1.34  2.11 
3495  1.53  2.35  2.11 
3496  1.53  1.68  2.11 
3497  1.54  1.28  2.11 
3498  1.16  2.21  2.11 
3499  1.54  2.11  2.11 
3500  1.75  1.96  2.11 
3501  1.44  1.85  2.11 
3502  1.86  1.79  2.11 
3503  1.69  1.91  2.11 
3504  1.08  1.51  2.11 
3505  1.38  1.92  2.11 
3506  1.20  1.40  2.11 
3507  1.84  2.12  2.11 
3508  1.17  1.17  2.11 
3509  1.69  1.03  2.11 
3510  1.48  1.94  2.11 
3511  1.48  1.51  2.11 
3512  1.76  1.47  2.11 
3513  1.38  0.93  2.11 
3514  1.65  0.85  2.11 
3515  1.62  1.20  2.11 
3516  1.59  1.14  2.11 
3517  1.43  0.86  2.11 
3518  1.58  0.95  2.11 
3519  1.80  1.84  2.11 
3520  1.63  1.93  2.11 
3521  1.53  0.84  2.11 
3522  1.19  1.37  2.11 
3523  1.18  0.89  2.11 
3524  1.32  1.26  2.11 
3525  1.24  1.19  2.11 
3526  1.66  1.22  2.11 
3527  1.50  0.78  2.11 
3528  1.52  1.10  2.11 
3529  1.34  1.20  2.11 
3530  1.26  0.80  2.11 
3531  1.44  1.23  2.11 
3532  1.56  1.90  2.11 
3533  1.62  0.90  2.11 
3534  1.69  0.99  2.11 
3535  1.39  1.92  2.11 
3536  1.57  1.07  2.11 
3537  1.14  1.16  2.11 
3538  1.35  0.80  2.11 
3539  1.11  1.54  2.11 
3540  1.28  0.93  2.11 
3541  1.18  1.25  2.11 
3542  1.46  0.73  2.11 
3543  1.64  0.94  2.11 
3544  1.56  1.31  2.11 
3545  1.59  0.87  2.11 
3546  1.23  1.91  2.11 
3547  1.49  0.93  2.11 
3548  1.59  0.92  2.11 
3549  1.66  1.18  2.11 
3550  1.28  1.38  2.11 
3551  1.71  1.08  2.11 
3552  1.21  0.83  2.11 
3553  1.24  1.75  2.11 
3554  1.19  1.58  2.11 
3555  1.44  0.90  2.11 
3556  1.46  1.99  2.11 
3557  1.61  1.89  2.11 
3558  1.78  1.39  2.11 
3559  1.98  1.73  2.11 
3560  1.58  1.38  2.11 
3561  1.33  1.23  2.11 
3562  1.63  1.13  2.11 
3563  1.56  1.12  2.11 
3564  1.66  1.89  2.11 
3565  1.63  2.16  2.11 
3566  1.33  1.05  2.11 
3567  1.37  0.96  2.11 
3568  1.37  1.89  2.11 
3569  1.68  0.96  2.11 
3570  1.21  1.44  2.11 
3571  1.49  1.09  2.11 
3572  1.62  1.96  2.11 
3573  1.38  1.74  2.11 
3574  1.10  0.79  2.11 
3575  1.32  0.86  2.11 
3576  1.29  0.97  2.11 
3577  1.32  2.03  2.11 
3578  1.29  1.05  2.11 
3579  1.53  0.89  2.11 
3580  1.58  1.44  2.11 
3581  1.22  1.06  2.11 
3582  1.63  1.31  2.11 
3583  1.83  1.07  2.11 
3584  1.74  1.37  2.11 
3585  1.35  1.29  2.11 
3586  1.33  1.46  2.11 
3587  1.48  1.71  2.11 
3588  1.28  1.28  2.11 
3589  1.78  1.48  2.11 
3590  1.25  1.17  2.11 
3591  1.32  1.56  2.11 
3592  1.66  1.44  2.11 
3593  1.53  0.90  2.11 
3594  1.56  0.82  2.11 
3595  1.27  1.51  2.11 
3596  1.59  0.66  2.11 
3597  1.31  0.98  2.11 
3598  1.52  0.79  2.11 
3599  1.46  1.95  2.11 
3600  1.48  1.34  2.11 
3601  1.60  2.30  2.11 
3602  1.50  1.07  2.11 
3603  1.57  2.53  2.11 
3604  1.37  1.02  2.11 
3605  1.06  1.84  2.11 
3606  1.01  1.77  2.11 
3607  1.34  1.62  2.11 
3608  1.73  1.78  2.11 
3609  1.61  1.86  2.11 
3610  1.65  1.97  2.11 
3611  1.78  1.68  2.11 
3612  1.52  1.15  2.11 
3613  1.55  0.95  2.11 
3614  1.23  0.69  2.11 
3615  1.43  1.65  2.11 
3616  1.38  0.91  2.11 
3617  1.60  1.53  2.11 
3618  1.45  2.01  2.11 
3619  1.26  1.74  2.11 
3620  1.34  0.75  2.11 
3621  1.55  1.00  2.11 
3622  1.46  1.23  2.11 
3623  1.71  0.99  2.11 
3624  1.32  0.78  2.11 
3625  1.34  0.88  2.11 
3626  1.70  1.05  2.11 
3627  1.47  1.49  2.11 
3628  1.35  0.97  2.11 
3629  1.46  0.24  2.11 
3630  1.11  0.88  2.11 
3631  1.55  0.99  2.11 
3632  1.38  0.98  2.11 
3633  1.41  0.77  2.11 
3634  1.61  2.03  2.11 
3635  1.91  1.74  2.11 
3636  1.55  1.37  2.11 
3637  1.25  1.66  2.11 
3638  1.44  1.17  2.11 
3639  1.51  2.29  2.11 
3640  1.62  0.97  2.11 
3641  1.75  0.96  2.11 
3642  1.53  0.78  2.11 
3643  1.35  2.20  2.11 
3644  1.41  1.05  2.11 
3645  1.38  1.35  2.11 
3646  1.36  1.56  2.11 
3647  1.34  1.72  2.11 
3648  1.44  0.61  2.11 
3649  1.46  1.11  2.11 
3650  1.78  1.44  2.11 
3651  1.31  1.61  2.11 
3652  1.81  1.58  2.11 
3653  1.61  1.81  2.11 
3654  1.25  1.79  2.11 
3655  1.31  0.91  2.11 
3656  1.52  0.77  2.11 
3657  1.27  1.12  2.11 
3658  1.10  2.04  2.11 
3659  1.72  2.29  2.11 
3660  1.49  1.54  2.11 
3661  1.52  2.15  2.11 
3662  1.60  1.36  2.11 
3663  1.52  1.86  2.11 
3664  1.34  2.17  2.11 
3665  1.23  1.17  2.11 
3666  1.47  2.08  2.11 
3667  1.43  1.46  2.11 
3668  1.10  1.98  2.11 
3669  1.46  1.88  2.11 
3670  1.59  1.65  2.11 
3671  1.58  1.11  2.11 
3672  1.69  1.19  2.11 
3673  1.25  1.14  2.11 
3674  1.66  1.29  2.11 
3675  1.34  1.43  2.11 
3676  1.41  1.76  2.11 
3677  1.46  1.96  2.11 
3678  1.37  1.88  2.11 
3679  1.51  2.14  2.11 
3680  1.58  1.97  2.11 
3681  1.71  2.18  2.11 
3682  1.30  1.16  2.11 
3683  1.07  1.69  2.11 
3684  1.86  2.17  2.11 
3685  1.70  1.60  2.11 
3686  1.76  1.69  2.11 
3687  1.55  1.48  2.11 
3688  1.63  1.82  2.11 
3689  1.52  1.69  2.11 
3690  1.55  2.17  2.11 
3691  1.52  1.11  2.11 
3692  1.25  1.82  2.11 
3693  1.64  1.88  2.11 
3694  1.12  1.97  2.11 
3695  1.54  2.24  2.11 
3696  1.24  1.88  2.11 
3697  1.36  2.32  2.11 
3698  1.41  1.76  2.11 
3699  1.54  2.15  2.11 
3700  1.45  1.99  2.11 
3701  1.49  1.86  2.11 
3702  1.58  1.67  2.11 
3703  1.43  1.94  2.11 
3704  1.62  2.23  2.11 
3705  1.16  1.97  2.11 
3706  1.72  2.10  2.11 
3707  1.51  2.30  2.11 
3708  1.47  1.61  2.11 
3709  1.36  2.03  2.11 
3710  1.25  1.63  2.11 
3711  1.30  1.99  2.11 
3712  1.97  1.95  2.11 
3713  1.67  0.80  2.11 
3714  1.60  1.17  2.11 
3715  1.30  1.40  2.11 
3716  1.47  1.65  2.11 
3717  1.02  2.15  2.11 
3718  1.24  1.34  2.11 
3719  1.89  1.15  2.11 
3720  1.60  1.92  2.11 
3721  1.69  1.39  2.11 
3722  1.88  1.95  2.11 
3723  1.38  1.52  2.11 
3724  1.89  2.13  2.11 
3725  1.97  1.53  2.11 
3726  1.78  1.57  2.11 
3727  1.69  2.21  2.11 
3728  1.37  2.03  2.11 
3729  1.90  1.70  2.11 
3730  1.70  1.77  2.11 
3731  1.67  1.91  2.11 
3732  1.65  1.69  2.11 
3733  1.60  2.05  2.11 
3734  1.36  0.98  2.11 
3735  1.77  1.59  2.11 
3736  1.69  1.68  2.11 
3737  1.32  1.59  2.11 
3738  1.33  1.62  2.11 
3739  1.59  2.25  2.11 
3740  1.63  1.67  2.11 
3741  1.33  2.50  2.11 
3742  1.42  1.74  2.11 
3743  1.57  1.51  2.11 
3744  1.47  2.39  2.11 
3745  1.37  1.52  2.11 
3746  1.90  1.99  2.11 
3747  1.42  1.36  2.11 
3748  1.82  1.24  2.11 
3749  1.62  1.82  2.11 
3750  1.66  1.45  2.11 
3751  1.36  1.86  2.11 
3752  1.17  1.59  2.11 
3753  1.58  1.38  2.11 
3754  1.62  1.46  2.11 
3755  1.85  1.45  2.11 
3756  1.47  0.29  2.11 
3757  1.58  1.23  2.11 
3758  1.78  1.55  2.11 
3759  1.81  2.03  2.11 
3760  1.55  1.86  2.11 
3761  1.59  1.42  2.11 
3762  1.74  1.64  2.11 
3763  1.28  1.92  2.11 
3764  1.05  1.77  2.11 
3765  1.34  1.52  2.11 
3766  1.71  1.90  2.11 
3767  1.52  1.75  2.11 
3768  1.81  1.43  2.11 
3769  1.48  1.77  2.11 
3770  1.54  1.00  2.11 
3771  1.65  1.57  2.11 
3772  1.51  2.15  2.11 
3773  1.49  1.96  2.11 
3774  1.54  1.19  2.11 
3775  1.88  1.32  2.11 
3776  1.53  1.27  2.11 
3777  1.64  1.73  2.11 
3778  1.33  1.70  2.11 
3779  1.93  1.70  2.11 
3780  1.69  1.88  2.11 
3781  1.54  2.04  2.11 
3782  1.59  1.75  2.11 
3783  1.52  1.73  2.11 
3784  1.60  2.01  2.11 
3785  1.66  1.70  2.11 
3786  1.42  1.27  2.11 
3787  1.51  1.54  2.11 
3788  1.63  1.47  2.11 
3789  1.57  2.20  2.11 
3790  1.32  1.56  2.11 
3791  1.43  2.08  2.11 
3792  1.69  1.36  2.11 
3793  1.71  1.62  2.11 
3794  1.45  1.44  2.11 
3795  1.71  1.36  2.11 
3796  1.61  2.09  2.11 
3797  1.54  2.14  2.11 
3798  1.62  2.07  2.11 
3799  1.44  2.16  2.11 
3800  1.41  1.47  2.11 
3801  1.67  1.33  2.11 
3802  1.77  1.87  2.11 
3803  1.52  2.18  2.11 
3804  1.71  1.21  2.11 
3805  1.76  2.28  2.11 
3806  1.86  2.08  2.11 
3807  1.66  2.15  2.11 
3808  1.85  2.17  2.11 
3809  1.59  1.90  2.11 
3810  1.70  1.72  2.11 
3811  1.67  2.40  2.11 
3812  1.73  1.46  2.11 
3813  1.81  2.00  2.11 
3814  1.55  2.36  2.11 
3815  1.81  1.83  2.11 
3816  1.66  2.22  2.11 
3817  1.52  1.86  2.11 
3818  1.70  1.81  2.11 
3819  1.82  1.68  2.11 
3820  1.45  1.92  2.11 
3821  1.34  1.63  2.11 
3822  1.85  1.48  2.11 
3823  1.66  2.00  2.11 
3824  1.73  2.31  2.11 
3825  1.34  2.06  2.11 
3826  1.62  2.31  2.11 
3827  1.55  2.06  2.11 
3828  1.29  1.85  2.11 
3829  1.59  1.85  2.11 
3830  1.81  2.23  2.11 
3831  1.77  2.13  2.11 
3832  1.75  2.22  2.11 
3833  1.78  2.06  2.11 
3834  1.83  2.00  2.11 
3835  1.68  2.17  2.11 
3836  0.98  1.71  2.11 
3837  1.31  1.82  2.11 
3838  1.43  1.21  2.11 
3839  1.66  1.35  2.11 
3840  1.34  1.61  2.11 
3841  1.59  2.08  2.11 
3842  1.51  1.93  2.11 
3843  1.40  2.21  2.11 
3844  1.28  1.34  2.11 
3845  1.89  2.13  2.11 
3846  1.36  1.48  2.11 
3847  1.65  2.15  2.11 
3848  1.56  1.61  2.11 
3849  1.48  2.37  2.11 
3850  1.58  1.54  2.11 
3851  1.67  1.87  2.11 
3852  1.47  2.08  2.11 
3853  1.34  1.62  2.11 
3854  1.65  2.07  2.11 
3855  1.37  2.14  2.11 
3856  2.07  2.36  2.11 
3857  1.81  1.97  2.11 
3858  1.56  1.94  2.11 
3859  1.55  1.64  2.11 
3860  1.70  1.45  2.11 
3861  1.45  1.99  2.11 
3862  1.98  1.51  2.11 
3863  1.62  2.01  2.11 
3864  1.70  1.31  2.11 
3865  1.48  2.33  2.11 
3866  1.62  1.87  2.11 
3867  1.62  2.12  2.11 
3868  1.87  2.09  2.11 
3869  1.63  2.40  2.11 
3870  1.95  1.28  2.11 
3871  1.71  1.43  2.11 
3872  1.92  1.89  2.11 
3873  1.55  2.42  2.11 
3874  1.53  2.22  2.11 
3875  1.79  1.54  2.11 
3876  1.67  2.32  2.11 
3877  1.42  1.53  2.11 
3878  1.70  2.22  2.11 
3879  1.67  1.52  2.11 
3880  1.65  2.18  2.11 
3881  1.63  2.25  2.11 
3882  1.46  1.59  2.11 
3883  1.47  1.19  2.11 
3884  1.55  1.66  2.11 
3885  1.98  2.08  2.11 
3886  1.54  0.84  2.11 
3887  1.69  1.69  2.11 
3888  1.52  1.04  2.11 
3889  1.47  1.55  2.11 
3890  1.48  1.49  2.11 
3891  1.93  1.13  2.11 
3892  1.41  1.19  2.11 
3893  1.46  1.24  2.11 
3894  1.59  1.31  2.11 
3895  1.59  1.34  2.11 
3896  1.54  1.54  2.11 
3897  0.96  1.56  2.11 
3898  1.76  1.99  2.11 
3899  1.69  1.30  2.11 
3900  1.79  1.51  2.11 
3901  1.68  1.54  2.11 
3902  1.66  1.09  2.11 
3903  1.62  1.27  2.11 
3904  1.60  1.13  2.11 
3905  2.03  1.64  2.11 
3906  1.87  1.62  2.11 
3907  1.63  1.59  2.11 
3908  1.42  1.81  2.11 
3909  1.96  1.60  2.11 
3910  1.72  1.85  2.11 
3911  1.57  1.45  2.11 
3912  1.66  2.19  2.11 
3913  1.66  1.82  2.11 
3914  1.91  1.62  2.11 
3915  1.63  1.57  2.11 
3916  1.83  1.72  2.11 
3917  2.05  1.42  2.11 
3918  1.74  1.73  2.11 
3919  1.41  1.06  2.11 
3920  1.41  1.19  2.11 
3921  1.58  0.93  2.11 
3922  1.79  1.30  2.11 
3923  1.94  0.88  2.11 
3924  1.76  1.14  2.11 
3925  1.97  1.22  2.11 
3926  2.01  1.27  2.11 
3927  1.80  1.13  2.11 
3928  1.68  1.78  2.11 
3929  2.06  1.51  2.11 
3930  1.71  1.33  2.11 
3931  1.87  1.26  2.11 
3932  1.57  1.39  2.11 
3933  1.66  1.15  2.11 
3934  1.85  1.32  2.11 
3935  1.80  1.54  2.11 
3936  1.77  1.24  2.11 
3937  1.85  1.05  2.11 
3938  1.67  1.26  2.11 
3939  2.06  1.15  2.11 
3940  1.83  1.17  2.11 
3941  1.53  2.41  2.11 
3942  1.28  1.52  2.11 
3943  1.64  1.69  2.11 
3944  1.70  2.35  2.11 
3945  1.74  2.06  2.11 
3946  1.89  1.91  2.11 
3947  1.42  1.55  2.11 
3948  1.44  2.13  2.11 
3949  1.59  2.06  2.11 
3950  1.84  1.54  2.11 
3951  1.63  2.00  2.11 
3952  1.37  2.50  2.11 
3953  1.77  1.93  2.11 
3954  1.99  1.95  2.11 
3955  1.98  2.07  2.11 
3956  1.47  1.59  2.11 
3957  1.73  1.63  2.11 
3958  1.53  1.97  2.11 
3959  1.59  2.28  2.11 
3960  1.43  1.93  2.11 
3961  1.70  1.71  2.11 
3962  1.83  1.47  2.11 
3963  1.39  1.80  2.11 
3964  1.92  1.55  2.11 
3965  1.91  1.74  2.11 
3966  1.68  1.98  2.11 
3967  1.86  1.56  2.11 
3968  1.78  2.00  2.11 
3969  1.39  2.12  2.11 
3970  1.25  1.51  2.11 
3971  1.39  1.48  2.11 
3972  1.87  1.60  2.11 
3973  1.51  2.12  2.11 
3974  1.30  1.78  2.11 
3975  1.81  2.28  2.11 
3976  1.72  1.88  2.11 
3977  1.84  1.48  2.11 
3978  1.83  1.43  2.11 
3979  1.46  1.49  2.11 
3980  1.19  1.43  2.11 
3981  1.68  1.40  2.11 
3982  1.98  1.82  2.11 
3983  1.29  1.99  2.11 
3984  1.86  1.36  2.11 
3985  1.97  1.00  2.11 
3986  1.45  1.73  2.11 
3987  1.73  1.39  2.11 
3988  1.58  1.38  2.11 
3989  1.92  1.60  2.11 
3990  1.91  1.09  2.11 
3991  1.73  1.06  2.11 
3992  1.99  1.30  2.11 
3993  1.66  1.78  2.11 
3994  1.61  1.53  2.11 
3995  1.34  2.04  2.11 
3996  1.62  1.71  2.11 
3997  1.68  2.15  2.11 
3998  1.74  1.60  2.11 
3999  2.08  1.89  2.11 
4000  1.23  1.60  2.11 
4001  1.88  1.92  2.11 
4002  1.84  1.68  2.11 
4003  1.69  1.67  2.11 
4004  1.88  2.05  2.11 
4005  1.70  2.26  2.11 
4006  1.41  2.50  2.11 
4007  1.53  2.18  2.11 
4008  1.90  1.55  2.11 
4009  1.43  1.54  2.11 
4010  1.64  1.90  2.11 
4011  1.78  2.59  2.11 
4012  1.49  2.22  2.11 
4013  1.78  2.56  2.11 
4014  2.00  1.69  2.11 
4015  1.72  1.00  2.11 
4016  1.72  2.19  2.11 
4017  1.77  1.73  2.11 
4018  1.52  2.46  2.11 
4019  1.62  2.11  2.11 
4020  1.92  1.93  2.11 
4021  2.04  2.02  2.11 
4022  1.71  1.92  2.11 
4023  1.75  1.61  2.11 
4024  1.73  1.54  2.11 
4025  1.73  1.59  2.11 
4026  1.93  1.78  2.11 
4027  1.53  2.52  2.11 
4028  1.32  1.98  2.11 
4029  2.03  1.63  2.11 
4030  1.67  1.26  2.11 
4031  1.96  1.16  2.11 
4032  1.59  1.91  2.11 
4033  1.74  1.80  2.11 
4034  1.82  2.04  2.11 
4035  2.01  1.68  2.11 
4036  1.54  1.17  2.11 
4037  1.92  1.66  2.11 
4038  1.77  1.65  2.11 
4039  1.79  1.61  2.11 
4040  1.30  1.53  2.11 
4041  1.68  1.29  2.11 
4042  1.35  1.70  2.11 
4043  1.91  2.07  2.11 
4044  1.25  1.94  2.11 
4045  1.85  1.38  2.11 
4046  1.64  2.39  2.11 
4047  1.87  1.46  2.11 
4048  1.78  1.97  2.11 
4049  1.62  1.96  2.11 
4050  1.54  1.67  2.11 
4051  1.74  1.95  2.11 
4052  1.78  1.43  2.11 
4053  2.08  2.23  2.11 
4054  1.84  1.84  2.11 
4055  1.63  2.10  2.11 
4056  1.51  1.79  2.11 
4057  1.69  1.74  2.11 
4058  1.94  1.74  2.11 
4059  1.32  1.56  2.11 
4060  1.65  1.96  2.11 
4061  1.77  1.62  2.11 
4062  1.34  2.12  2.11 
4063  1.70  1.87  2.11 
4064  1.87  1.61  2.11 
4065  1.50  1.75  2.11 
4066  1.75  1.89  2.11 
4067  1.25  1.90  2.11 
4068  1.67  1.86  2.11 
4069  1.37  1.80  2.11 
4070  2.08  2.35  2.11 
4071  1.80  2.54  2.11 
4072  1.90  1.54  2.11 
4073  1.47  2.22  2.11 
4074  2.00  1.71  2.11 
4075  1.52  2.54  2.11 
4076  1.63  1.66  2.11 
4077  1.87  2.15  2.11 
4078  1.85  1.49  2.11 
4079  1.85  1.80  2.11 
4080  2.03  1.83  2.11 
4081  1.87  1.70  2.11 
4082  1.67  1.76  2.11 
4083  1.35  1.66  2.11 
4084  1.90  2.08  2.11 
4085  1.94  2.04  2.11 
4086  1.88  2.38  2.11 
4087  1.51  1.87  2.11 
4088  1.51  1.99  2.11 
4089  1.60  1.86  2.11 
4090  1.80  1.77  2.11 
4091  1.91  1.91  2.11 
4092  1.75  1.79  2.11 
4093  1.70  1.78  2.11 
4094  1.21  1.73  2.11 
4095  1.93  2.13  2.11 
4096  1.65  1.93  2.11 
4097  1.93  1.93  2.11 
4098  1.94  1.98  2.11 
4099  1.77  2.44  2.11 
4100  1.54  1.57  2.11 
4101  1.88  1.69  2.11 
4102  1.76  1.90  2.11 
4103  1.71  2.02  2.11 
4104  1.52  2.06  2.11 
4105  1.75  1.73  2.11 
4106  1.45  1.82  2.11 
4107  1.68  1.84  2.11 
4108  1.97  1.75  2.11 
4109  1.43  1.62  2.11 
4110  1.68  1.63  2.11 
4111  1.47  1.74  2.11 
4112  1.71  2.15  2.11 
4113  1.83  1.99  2.11 
4114  2.13  1.77  2.11 
4115  2.05  2.27  2.13 
4116  1.94  2.46  2.13 
4117  1.95  2.07  2.13 
4118  1.53  2.03  2.13 
4119  1.65  2.46  2.13 
4120  1.80  1.97  2.13 
4121  1.33  1.72  2.13 
4122  1.72  2.27  2.13 
4123  1.37  1.76  2.13 
4124  1.78  2.27  2.13 
4125  1.81  1.89  2.13 
4126  1.70  1.94  2.13 
4127  1.44  1.92  2.13 
4128  2.10  2.10  2.13 
4129  1.44  1.83  2.13 
4130  1.87  1.82  2.13 
4131  1.72  2.15  2.13 
4132  1.96  1.80  2.13 
4133  1.78  1.91  2.13 
4134  1.92  2.31  2.13 
4135  1.66  2.28  2.13 
4136  1.93  2.17  2.13 
4137  1.92  1.79  2.13 
4138  1.79  1.66  2.13 
4139  1.83  2.10  2.13 
4140  1.90  1.91  2.13 
4141  1.49  2.37  2.13 
4142  1.72  2.55  2.13 
4143  1.93  1.77  2.13 
4144  2.08  2.46  2.13 
4145  1.64  1.78  2.13 
4146  1.64  2.17  2.13 
4147  2.04  2.06  2.13 
4148  1.44  1.95  2.13 
4149  1.85  1.86  2.13 
4150  1.70  2.09  2.13 
4151  2.00  2.22  2.13 
4152  1.46  2.44  2.13 
4153  1.66  2.65  2.13 
4154  1.58  2.51  2.13 
4155  1.23  2.40  2.13 
4156  1.81  1.79  2.13 
4157  1.74  2.34  2.13 
4158  1.62  1.69  2.13 
4159  1.98  2.32  2.13 
4160  1.30  1.82  2.13 
4161  1.82  2.13  2.13 
4162  1.80  1.70  2.13 
4163  1.50  2.05  2.13 
4164  1.88  2.09  2.13 
4165  1.73  1.79  2.13 
4166  1.82  2.46  2.13 
4167  1.53  1.92  2.13 
4168  1.92  2.10  2.13 
4169  1.62  2.09  2.13 
4170  1.76  1.86  2.13 
4171  1.57  1.99  2.13 
4172  1.86  2.51  2.13 
4173  1.75  1.90  2.13 
4174  1.68  1.68  2.13 
4175  1.90  1.94  2.13 
4176  1.75  1.99  2.13 
4177  1.72  2.11  2.13 
4178  1.26  2.42  2.13 
4179  1.74  1.68  2.13 
4180  1.66  1.85  2.13 
4181  1.35  2.13  2.13 
4182  1.58  2.29  2.13 
4183  1.73  2.35  2.13 
4184  1.55  1.60  2.13 
4185  1.79  2.40  2.13 
4186  1.85  1.97  2.13 
4187  1.32  1.73  2.13 
4188  1.64  1.73  2.13 
4189  1.72  1.77  2.13 
4190  1.61  1.98  2.13 
4191  1.76  2.00  2.13 
4192  1.63  1.97  2.13 
4193  1.75  2.33  2.13 
4194  1.55  1.61  2.13 
4195  1.80  1.82  2.13 
4196  1.80  2.43  2.13 
4197  1.66  2.22  2.13 
4198  1.45  2.29  2.13 
4199  2.01  2.16  2.13 
4200  1.88  1.90  2.13 
4201  1.65  2.14  2.13 
4202  1.55  2.16  2.13 
4203  1.82  2.20  2.13 
4204  1.90  1.70  2.13 
4205  1.48  2.08  2.13 
4206  1.99  1.77  2.13 
4207  1.93  2.09  2.13 
4208  1.62  2.26  2.13 
4209  1.78  2.48  2.13 
4210  1.53  2.46  2.13 
4211  1.55  1.83  2.13 
4212  1.48  2.21  2.13 
4213  1.83  2.37  2.13 
4214  1.62  2.48  2.13 
4215  1.45  1.63  2.13 
4216  1.68  2.43  2.13 
4217  1.92  2.35  2.13 
4218  1.75  2.06  2.13 
4219  1.61  1.78  2.13 
4220  1.57  2.22  2.13 
4221  1.84  2.09  2.13 
4222  1.75  2.40  2.13 
4223  1.61  1.76  2.13 
4224  1.46  2.51  2.13 
4225  1.45  2.29  2.13 
4226  1.65  1.96  2.13 
4227  1.26  2.16  2.13 
4228  1.65  2.19  2.13 
4229  1.90  1.75  2.13 
4230  1.66  1.79  2.13 
