iteration,time_sampling,stoc_pol_mean,stoc_pol_std,stoc_pol_max,stoc_pol_min,rollout_success,alpha,delta,time_vpg,time_npg,kl_dist,surr_improvement,running_score,rwd_sparse,rwd_dense,success_percentage,num_samples,time_VF,VF_error_before,VF_error_after,env_samples,eval_score,eval_success
0,1.0403242111206055,0.0359762182132419,0.0029997248619636333,0.039298721244789905,0.0329016654156005,0.0,0.14695529397303722,0.1,0.03243207931518555,0.05254769325256348,0.05238526,1.0365795,0.0359762182132419,0.0,0.0007231732944244348,0.0,200,0.017838716506958008,34.40090835325221,4.835915789165989,200,0.02607689346995802,0.0
1,1.0281739234924316,0.030408387211061358,0.006637884916287515,0.04153058202694966,0.02419051986674344,0.0,0.14528746812401372,0.1,0.0028028488159179688,0.052071332931518555,0.047275633,0.5838039,0.035419435113023846,0.0,0.0006023757337250752,0.0,200,0.026188373565673828,5.196394569131089,1.5893847486556143,400,0.027091673154422003,0.0
2,1.0925226211547852,0.025131640849703873,0.006462895306706003,0.0362338640991944,0.020121337543652966,0.0,0.16925422732888934,0.1,0.003068685531616211,0.053863525390625,0.06323059,0.8443532,0.034390655686691855,0.0,0.000512634766464768,0.0,200,0.04880404472351074,3.821794622534813,5.753772337236184,600,0.023136141517790323,0.0
3,1.11208176612854,0.04947363837172237,0.019911569281348396,0.08388864594517444,0.03618071527751857,0.0,0.14714830184377187,0.1,0.0028553009033203125,0.05849289894104004,0.052429773,0.8079603,0.03589895395519491,0.0,0.0010062451564946525,0.0,200,0.0512700080871582,0.44299351900805434,0.31651362250984544,800,0.029433441407100792,0.0
4,1.0921111106872559,0.04748410623373818,0.025865062202619048,0.09063057136847244,0.021880906215921914,0.0,0.14909531717900554,0.1,0.002742767333984375,0.05370974540710449,0.04864931,1.0326897,0.03705746918304924,0.0,0.000952194402957199,0.0,200,0.023892879486083984,0.5011492995529995,0.4673489053147442,1000,0.03133911068041143,0.0
5,1.098841905593872,0.033481452072752195,0.006679105115802139,0.04177254901464357,0.02509443717768581,0.0,0.14828420780563067,0.1,0.00272369384765625,0.0516667366027832,0.05157234,0.909408,0.03669986747201954,0.0,0.0006677103015601919,0.0,200,0.03209972381591797,0.33895895298070994,0.3459448856088442,1200,0.03911854751302951,0.0
6,1.1411926746368408,0.037358428794935325,0.020649717050204384,0.06803033319008307,0.01776484595598948,0.0,0.14513446934729757,0.1,0.004807710647583008,0.06329798698425293,0.05322405,1.4332135,0.036765723604311115,0.0,0.0007555290988238689,0.0,200,0.032477378845214844,0.5264742729841352,0.5538149819086007,1400,0.044688557098249065,0.0
7,1.1316118240356445,0.028929889764544886,0.010009695689477953,0.045629312437738684,0.02059890839748025,0.0,0.14905967654263447,0.1,0.0030281543731689453,0.06268477439880371,0.04925615,0.7892824,0.03598214022033449,0.0,0.0005368874101047815,0.0,200,0.04955601692199707,0.3729463247117326,0.30427217287236275,1600,0.04940077581934083,0.0
8,1.1498777866363525,0.08713487785249378,0.08553959369656207,0.2319633926422368,0.023549772447439235,0.0,0.14183715933491817,0.1,0.004520893096923828,0.0586695671081543,0.052212063,2.3163397,0.04109741398355042,0.0,0.0017409782426705896,0.0,200,0.03134918212890625,0.8207650454835229,0.6695614425007003,1800,0.060497266780828805,0.0
9,1.0846271514892578,0.045956019129285014,0.026734253750336626,0.0831861348778585,0.010437719456347873,0.0,0.1458951339333031,0.1,0.004908561706542969,0.05831265449523926,0.051147535,0.9695637,0.04158327449812388,0.0,0.0009111494514662967,0.0,200,0.0568232536315918,0.4534611893376044,0.6818379424327758,2000,0.058083883616551625,0.0
10,1.0989000797271729,0.060264751455281484,0.05055406534217771,0.14628066491801506,0.017795194972561188,0.0,0.1415046512499871,0.1,0.0028104782104492188,0.05374550819396973,0.049061418,1.5736486,0.04345142219383964,0.0,0.0012054756310548491,0.0,200,0.02731180191040039,0.5863526629397061,0.5727115309701488,2200,0.05981643013008742,0.0
11,1.130049228668213,0.06099658856145204,0.029662106797341332,0.0937316461808437,0.02290191613146843,0.0,0.14147089974906818,0.1,0.0028662681579589844,0.05197024345397949,0.050250378,1.468858,0.04520593883060088,0.0,0.0012130350160065562,0.0,200,0.03503894805908203,0.35356127674137494,0.30549780619533395,2400,0.055832074456929275,0.0
12,1.1206135749816895,0.0841592884054779,0.03588227869623018,0.13130318087012854,0.03514656975633987,0.0,0.14569705341052483,0.1,0.007561683654785156,0.05174136161804199,0.051910266,1.2377136,0.04910127378808858,0.0,0.0016974934332901,0.0,200,0.05545926094055176,0.3176583424950194,0.32291905809580435,2600,0.06635911128280476,0.0
13,1.112839698791504,0.040965439524355364,0.026231033021088885,0.07672813458588948,0.015610477702516747,0.0,0.14079457912807558,0.1,0.002919435501098633,0.056066036224365234,0.04984724,1.0747228,0.048287690361715256,0.0,0.0008169059594982989,0.0,200,0.04014873504638672,0.570430778792823,0.47717522238495064,2800,0.0863811455680946,0.0
14,1.1228210926055908,0.19494754915361162,0.15352938426606347,0.35624422845150594,0.03386557891976592,0.0,0.14732467942280014,0.1,0.0025179386138916016,0.06980180740356445,0.050282717,0.9777345,0.0629536762409049,0.0,0.003896519083697863,0.0,200,0.04902315139770508,0.7777687816941642,0.6049893194865585,3000,0.08844130655045644,0.0
15,1.1267848014831543,0.06596249671852171,0.03736399193677882,0.11692220687339495,0.02513822693558767,0.0,0.13536358207726956,0.1,0.020768165588378906,0.08596324920654297,0.050019857,1.1581559,0.06325455828866658,0.0,0.0012732466238164538,0.0,200,0.02727794647216797,0.5778228485359422,1.247217244529114,3200,0.08949007888823801,0.0
16,1.1761834621429443,0.09030223796703377,0.05192425156389272,0.17028487869568373,0.0438943522365485,0.0,0.13653670128017012,0.1,0.0029294490814208984,0.05240750312805176,0.049982544,1.3049974,0.0659593262565033,0.0,0.001760576767293489,0.0,200,0.05139470100402832,0.47980846884355344,0.34415222705080617,3400,0.11017985482588198,0.0
17,1.144956350326538,0.14825376113822164,0.09603825672588925,0.24966996279525303,0.048515602958843704,0.0,0.14248344771393617,0.1,0.009505987167358398,0.5225403308868408,0.049245577,0.95918214,0.07418876974467514,0.0,0.0029626662260486243,0.0,200,0.06051325798034668,0.410401038955148,0.40775941433016455,3600,0.1475738592505789,0.0
18,1.1793982982635498,0.31365555736676076,0.3472307584204086,0.8900978424122646,0.019050726074036115,0.0,0.13492070808999831,0.1,0.004885435104370117,0.06498098373413086,0.04931841,1.7040055,0.09813544850688372,0.0,0.006242498556506194,0.0,200,0.03777670860290527,0.7847034440417854,0.6701445886387716,3800,0.14757762371608715,0.0
19,1.1910006999969482,0.14454673363429604,0.055274597146794974,0.20435304424201256,0.08410353253978516,0.0,0.14783263231217766,0.1,0.002742767333984375,0.05296492576599121,0.050700698,0.77971005,0.10277657701962495,0.0,0.002873148570352253,0.0,200,0.051047325134277344,0.27564422921456133,0.5620977448622915,4000,0.17697216429328697,0.0
20,1.1850364208221436,0.14565091795244192,0.11440756245122646,0.3165392434288996,0.03258754620403504,0.0,0.13704680767642136,0.1,0.002676248550415039,0.0513458251953125,0.050085932,1.1137353,0.10706401111290664,0.0,0.002912247736014261,0.0,200,0.03781461715698242,0.7979074233544323,0.5467353776942163,4200,0.23540225560546912,0.0
21,1.1788995265960693,0.17340911055800562,0.1867679684348987,0.4941850908658446,0.02713452196026057,0.0,0.13504058079021436,0.1,0.002747058868408203,0.06072807312011719,0.05048193,1.9826716,0.11369852105741654,0.0,0.0034267899248014546,0.0,200,0.0583958625793457,0.6022491009357879,0.6012044160650374,4400,0.2334471484268583,0.0
22,1.194958209991455,0.331613131651914,0.4484534178719529,1.1047715968650669,0.008477432586508803,0.0,0.13358825135531527,0.1,0.002736330032348633,0.05476260185241699,0.049708735,2.027472,0.1354899821168663,0.0,0.006613480741340377,0.0,200,0.05734682083129883,0.7970844575220976,0.76554597138291,4600,0.5054970812903864,0.0
23,1.3401429653167725,0.397858548254492,0.3272809777869994,0.9286950320703389,0.05851438522165281,0.0,0.13782281450419925,0.1,0.004718780517578125,0.06967329978942871,0.04958631,1.6721154,0.16172683873062887,0.0,0.007951806400314631,0.0,200,0.13071274757385254,0.677041930330365,0.5355959339607083,4800,0.33145627328747435,0.0
24,1.0999085903167725,0.21258775237735214,0.1963808221120892,0.5250654285396626,0.030044083065490983,0.0,0.13808714158257523,0.1,0.005099296569824219,0.06023263931274414,0.04908705,1.4165704,0.16681293009530118,0.0,0.004199791282972195,0.0,200,0.09394645690917969,0.5713575796405981,0.7301489770611423,5000,0.5618569505119114,0.0
25,1.1194560527801514,0.08723024162698965,0.05015949898734128,0.16618775470077407,0.028768533456688516,0.0,0.14135068346524568,0.1,0.0049915313720703125,0.14075183868408203,0.04990231,3.0695362,0.15885466124847003,0.0,0.0017181471147540974,0.0,200,0.032720088958740234,8.417755747349883,3.474858404541438,5200,0.6616543514639665,0.0
26,1.1643767356872559,0.1585572963878069,0.1607859589438258,0.43465790774050644,0.033231985432437654,0.0,0.14602896626446735,0.1,0.006677865982055664,0.06160926818847656,0.049140435,1.2734215,0.1588249247624037,0.0,0.003154783666593738,0.0,200,0.031045913696289062,0.7017530485422907,0.5823779678191832,5400,0.31832144172359766,0.0
27,1.1772494316101074,0.08316076232807738,0.06603710549731527,0.19592958601164742,0.02883100929561226,0.0,0.14082501879681744,0.1,0.0061948299407958984,0.07987666130065918,0.049443245,1.2841072,0.15125850851897107,0.0,0.0016609908734476057,0.0,200,0.09188342094421387,0.8820747541595988,0.46008460232081416,5600,0.29301196347262226,0.0
28,1.2441620826721191,0.13609308564283662,0.09374101003596126,0.24459672482723288,0.02724145190117356,0.0,0.13368940847079308,0.1,0.002811908721923828,0.05380964279174805,0.049933184,1.2639387,0.14974196623135763,0.0,0.002678849512108873,0.0,200,0.03671979904174805,0.4556906965154818,0.5801781322370012,5800,0.5894624021248186,0.0
29,1.1545565128326416,0.20369926941063188,0.20403044394914302,0.526219056330519,0.02360129664134397,0.0,0.14093136962785527,0.1,0.0027360916137695312,0.051340341567993164,0.050205108,1.3198351,0.15513769654928505,0.0,0.0040479236170859025,0.0,200,0.025920629501342773,0.8031823900561221,0.783455499879818,6000,0.643037369189797,0.0
30,1.1692848205566406,0.3060982714883272,0.16790531200489836,0.5182836633984645,0.04798836892073892,0.0,0.14706711076774098,0.1,0.002754688262939453,0.07775473594665527,0.0495,0.85563904,0.17023375404318927,0.0,0.006132447285429271,0.0,200,0.045156002044677734,0.7194656648818709,0.6188253457435671,6200,0.6554561231923421,0.0
31,1.179741621017456,0.14299336651503597,0.05606193089758968,0.20261652277393663,0.05105614979749923,0.0,0.14228659374523983,0.1,0.0026450157165527344,0.06635618209838867,0.05050139,0.90931535,0.16750971529037395,0.0,0.0028559010148919844,0.0,200,0.031690359115600586,0.2864036926543234,0.2500499608979023,6400,0.809314354509851,0.0
32,1.1604783535003662,0.15070969726790226,0.1086422568393538,0.3365490111849314,0.070659394056319,0.0,0.13300587495682792,0.1,0.002777576446533203,0.05356764793395996,0.050345212,2.2117229,0.16582971348812678,0.0,0.002975707863678562,0.0,200,0.021059036254882812,0.4477197579588319,0.45307698256381385,6600,0.4355982383437145,0.0
33,1.1616947650909424,0.1564594778453705,0.09553386160447674,0.29210606921304055,0.03739181748395934,0.0,0.14404379020108848,0.1,0.004700422286987305,0.0736837387084961,0.04961668,0.88936365,0.16489268992385114,0.0,0.0030997875808194495,0.0,200,0.06832599639892578,0.37877741347566785,0.38259392369168216,6800,0.43520865124169456,0.0
34,1.1977133750915527,0.23913059007882143,0.17227530138575686,0.5301760057095819,0.08104782896404157,0.0,0.13650795128116253,0.1,0.002680540084838867,0.05835270881652832,0.049920954,2.2307959,0.17231647993934818,0.0,0.004682283327142574,0.0,200,0.060817718505859375,0.43171845520349966,0.4012649304933234,7000,0.45412021336954633,0.0
35,1.2002501487731934,0.46891843119356064,0.4199156262055281,1.0356727650669233,0.05493042591735296,0.0,0.1331933822306646,0.1,0.00463557243347168,0.08335590362548828,0.050031446,1.4427643,0.20197667506476943,0.0,0.00936118975693788,0.0,200,0.06304597854614258,0.6975063129977438,0.6241716302859014,7200,0.5640730411261915,0.0
36,1.2007648944854736,0.2054792704380453,0.17612964281872248,0.4509994918646614,0.03036544761134058,0.0,0.13397735234039646,0.1,0.0029304027557373047,0.05610489845275879,0.050479032,1.1259084,0.20232693460209702,0.0,0.004098883737575324,0.0,200,0.09799075126647949,0.4919829005792992,0.5693374606129308,7400,0.9505133546390928,0.0
37,1.2203800678253174,0.12650615965725673,0.05283010224816029,0.2179110187886603,0.0920582603040972,0.0,0.14525546762015257,0.1,0.002615213394165039,0.05266833305358887,0.050984602,0.9109405,0.194744857107613,0.0,0.002463687528387526,0.0,200,0.026884794235229492,2.331883995499964,1.5076178850850404,7600,0.6508317166763039,0.0
38,1.1491682529449463,0.22016134411371252,0.11364568125892885,0.4003537707622363,0.08871030192554243,0.0,0.13530819463975746,0.1,0.003077983856201172,0.05485701560974121,0.049026065,2.8426392,0.19728650580822296,0.0,0.0043924701338625485,0.0,200,0.040065765380859375,0.33433789781169315,0.2624984559773153,7800,0.6699082866375692,0.0
39,1.1647007465362549,0.37109374470110096,0.19809880513291767,0.5811924524055923,0.0453159195716124,0.0,0.1359889860976003,0.1,0.0028896331787109375,0.05390143394470215,0.049752835,1.0250746,0.21466722969751076,0.0,0.007391436767005366,0.0,200,0.05305194854736328,0.44334151616973894,0.44755677827340073,8000,1.3878166181546492,0.0
40,1.118119478225708,0.20916732918801673,0.11306737454401192,0.33367150471522494,0.07976166062528091,0.0,0.14243594030313936,0.1,0.0027992725372314453,0.05394697189331055,0.05007656,0.9640039,0.21411723964656135,0.0,0.004078531600145976,0.0,200,0.04662489891052246,0.30762982871164835,0.3049478152842712,8200,1.2055387148876253,0.0
41,1.1411926746368408,0.33202324135368344,0.32509111803563834,0.8921597944544349,0.11463136802060335,0.0,0.12720572469194072,0.1,0.00465846061706543,0.0992119312286377,0.048876155,2.595224,0.22590783981727358,0.0,0.0066308913893150115,0.0,200,0.08771777153015137,0.6086619278893945,0.5843567855802266,8400,1.0665079902343166,0.0
42,1.1625101566314697,0.4449634486030981,0.4946094325422811,1.2989726918662363,0.11999787600573746,0.0,0.12828518526994517,0.1,0.004557132720947266,0.05352449417114258,0.04957146,2.2366157,0.24781340069585606,0.0,0.00888387101374455,0.0,200,0.0478668212890625,0.6666364646817169,0.6199437918597659,8600,1.5748192530678986,0.0
43,1.1437275409698486,0.6972376249670776,0.4333251085948813,1.4251971878707468,0.30865561052852825,0.0,0.1280426062635356,0.1,0.07462191581726074,0.0513606071472168,0.0499702,2.2452078,0.2927558231229782,0.0,0.013902947178508158,0.0,200,0.14578008651733398,0.5475011267785042,0.4043776848488346,8800,1.628754397258027,0.0
44,1.1689436435699463,0.5188713452880477,0.5146918414499145,1.3298191169227098,0.03378573508481733,0.0,0.13471498417995442,0.1,0.005273580551147461,0.10582160949707031,0.050374173,1.9349443,0.31536737533948517,0.0,0.01035982489887258,0.0,200,0.1435091495513916,0.5570951100158696,0.6032155007742668,9000,1.2854968774723678,0.0
45,1.1785595417022705,0.3299562032984182,0.2873064144812535,0.8078844093979018,0.10025617551188612,0.0,0.13163040572873724,0.1,0.0029578208923339844,0.05621933937072754,0.051031817,1.2733063,0.31682625813537846,0.0,0.006595424402350432,0.0,200,0.04229855537414551,1.079981768665739,0.7804527402610536,9200,1.0144168770441813,0.0
46,1.2023558616638184,0.4358585269782121,0.36453924333112253,0.8399470908543171,0.03296200919580316,0.0,0.13679141950696827,0.1,0.002863168716430664,0.061905860900878906,0.049380325,0.8138708,0.32872948501966187,0.0,0.008640103432176189,0.0,200,0.03647923469543457,0.5086210743812698,0.4667167890800413,9400,1.5183808495303472,0.0
47,1.1982145309448242,0.4580843373770796,0.1436153510186433,0.631878572652547,0.24922599490138378,0.0,0.12958600284254315,0.1,0.0026772022247314453,0.0677633285522461,0.050064,1.3886157,0.34166497025540365,0.0,0.009060233944828102,0.0,200,0.06747961044311523,0.16701447577828762,0.1970978347796586,9600,1.615486361483297,0.0
48,1.1835753917694092,0.4157406810504458,0.23686949830023135,0.8055427412510743,0.18229231793025244,0.0,0.13065885969720903,0.1,0.0028307437896728516,0.06171917915344238,0.050199848,2.0002303,0.3490725413349079,0.0,0.008313284577104157,0.0,200,0.03295397758483887,0.32149099303631334,0.32977709946293143,9800,1.6661616004146422,0.0
49,1.2039952278137207,0.6306020707034898,0.23896938324513775,0.9475567677071757,0.32241384759119907,0.0,0.12807086380438878,0.1,0.0027289390563964844,0.052556514739990234,0.04957973,1.5989354,0.3772254942717661,0.0,0.012558968876419845,0.0,200,0.02884840965270996,0.39440821404397264,0.32855664030199627,10000,1.4397403559491628,0.0
50,1.2147607803344727,0.42964964962900365,0.17488853325242434,0.6259726554627089,0.16687326729799173,0.0,0.1281547602207842,0.1,0.07152080535888672,0.05272364616394043,0.05000614,1.186845,0.38246790980748985,0.0,0.008595336330033355,0.0,200,0.023801803588867188,0.20851256453431782,0.20902359766650555,10200,1.689144646097408,0.0
51,1.2248685359954834,0.3010929741890517,0.09167411912341152,0.40497116816727774,0.1547434687552386,0.0,0.1372968435539101,0.1,0.0028307437896728516,0.07281136512756348,0.048973657,0.74756056,0.37433041624564606,0.0,0.00601932535210252,0.0,200,0.04255533218383789,0.4988505801885791,0.4644193580290682,10400,1.947131226178531,0.0
52,1.2130839824676514,0.22538487784339406,0.22785948117502916,0.6187947674453808,0.07789086373166337,0.0,0.13089690876362728,0.1,0.0027348995208740234,0.0787496566772461,0.0500047,1.2275586,0.35943586240542086,0.0,0.0044822547700144166,0.0,200,0.02653980255126953,1.1692542774881336,0.7595997080031114,10600,1.940456215854476,0.0
53,1.2646918296813965,0.5188976919229558,0.3641351034952476,0.9076968760684355,0.05251131353866972,0.0,0.13356575455900613,0.1,0.002787351608276367,0.05336475372314453,0.04934975,1.0773164,0.3753820453571744,0.0,0.01032921877871603,0.0,200,0.09031271934509277,0.429174783233432,0.45688872577185347,10800,1.9270315820026118,0.0
54,1.1495130062103271,0.36137321994387706,0.17239771194731565,0.6159013607392669,0.16276117488243136,0.0,0.13059228011847154,0.1,0.003123044967651367,0.055940866470336914,0.050960425,0.9902194,0.37398116281584465,0.0,0.007147553934873982,0.0,200,0.030988454818725586,0.2589235532927453,0.25063384072493416,11000,1.8251063392891413,0.0
55,1.1559596061706543,0.5316710778535257,0.35116082318853536,1.0336665224663326,0.05935592194757986,0.0,0.13252619096301102,0.1,0.004749774932861328,0.06148028373718262,0.05014155,1.0904728,0.3897501543196128,0.0,0.010380787825525784,0.0,200,0.03213953971862793,0.4748951442713264,0.43117167395478084,11200,2.072854725739102,0.0
56,1.1583425998687744,0.2611235225891826,0.1935192487055575,0.5722232529336383,0.05409106609140906,0.0,0.13468146876567877,0.1,0.00464177131652832,0.066314697265625,0.049804095,1.1159813,0.37688749114656983,0.0,0.005151280251766949,0.0,200,0.0809171199798584,0.527006653361025,0.5816458711513138,11400,1.182419104916162,0.0
57,1.1835596561431885,0.6261666926218905,0.34482619358404354,0.947865892372365,0.04491827121363461,0.0,0.12620648255534356,0.1,0.0027959346771240234,0.053636789321899414,0.05017361,0.84900963,0.4018154112941019,0.0,0.01249925528507357,0.0,200,0.07768130302429199,0.35290736111245136,0.3200623571644617,11600,1.1413389312476732,0.0
58,1.1633787155151367,0.24570190263387834,0.11300245042305339,0.44112681781433,0.17033070147784443,0.0,0.12783257406730933,0.1,0.0026977062225341797,0.06769800186157227,0.04920498,1.3695332,0.3862040604280796,0.0,0.00492420493864758,0.0,200,0.033010005950927734,0.8362003327489065,0.7683543363623451,11800,1.8827670008064754,0.0
59,1.2176342010498047,0.347469681862331,0.1978082015297888,0.5524218348516963,0.08831274708820198,0.0,0.13289656136095793,0.1,0.0028009414672851562,0.06044292449951172,0.049414385,1.7850631,0.38233062257150474,0.0,0.006926276441061416,0.0,200,0.03765869140625,0.3528693698279167,0.2925046078982612,12000,1.909171479642889,0.0
60,1.1684777736663818,0.24404749293671357,0.08741311282794972,0.36171911169022325,0.13037584490667548,0.0,0.135659200308015,0.1,0.0027556419372558594,0.06386947631835938,0.05023207,0.9414402,0.36850230960802566,0.0,0.004882924663506939,0.0,200,0.022532224655151367,0.575999894094881,0.3198273278124076,12200,1.1394373907770998,0.0
61,1.1783239841461182,0.9051218809397361,0.613725215279163,1.8947994432457151,0.24227896124983564,0.0,0.131000296688568,0.1,0.002763986587524414,0.12246227264404297,0.04995366,2.023574,0.4221642667411967,0.0,0.018093683137615443,0.0,200,0.024366140365600586,0.6360947899979901,0.5960443994480633,12400,1.0054772689242943,0.0
62,1.2036793231964111,0.35553575821677774,0.0974545956833921,0.4524008344602422,0.19672975014126606,0.0,0.1241402096487888,0.1,0.0028641223907470703,0.05421853065490723,0.049696226,1.1664044,0.41550141588875483,0.0,0.007111872590607799,0.0,200,0.04070901870727539,0.09325267704665266,0.13689240758027796,12600,1.791318413374973,0.0
63,1.2871778011322021,0.35644068729940503,0.22492632285241787,0.7345237336404954,0.14276813618270923,0.0,0.1316836396665604,0.1,0.004641532897949219,0.10112690925598145,0.050451327,1.3961123,0.40959534302981987,0.0,0.007050193176153763,0.0,200,0.01865077018737793,0.3427570057586233,0.35977864537828996,12800,1.3729720817784994,0.0
64,1.2231576442718506,0.3823481025239842,0.17209763293234454,0.6378646957114796,0.21847204685540764,0.0,0.12647018447738997,0.1,0.0027685165405273438,0.08039641380310059,0.04943015,1.5951477,0.4068706189792363,0.0,0.007593643647972015,0.0,200,0.028703927993774414,0.21495849799785968,0.2080518138141619,13000,1.8257483071368095,0.0
65,1.2027270793914795,0.6116929503935269,0.327280680892346,1.0582314274574531,0.15854493429787767,0.0,0.12407221725681268,0.1,0.003002166748046875,0.055264949798583984,0.049742285,1.6749023,0.42735285212066537,0.0,0.012203253410538233,0.0,200,0.04157900810241699,0.33031903050317374,0.3172887504608814,13200,1.9213524060889051,0.0
66,1.2055912017822266,0.6057345334847908,0.2552340046268749,0.9278731476766795,0.2315189310949631,0.0,0.126127567265376,0.1,0.004753589630126953,0.11566448211669922,0.04972219,1.7138957,0.4451910202570779,0.0,0.012105352813164348,0.0,200,0.031986236572265625,0.2489350308382649,0.21670340366056345,13400,1.139852022097305,0.0
67,1.2239384651184082,0.3741187185208984,0.4557977348872428,1.1568452928412503,0.05849946156310309,0.0,0.130649787959578,0.1,0.0044651031494140625,0.08626580238342285,0.049316473,1.5335866,0.43808379008345993,0.0,0.007439915717397126,0.0,200,0.0332183837890625,0.6803027218618617,0.6696280128100441,13600,1.014746544602229,0.0
68,1.238034963607788,0.6776981528522817,0.5689013763347956,1.643049550549971,0.1703238011038356,0.0,0.13619799690463127,0.1,0.00274658203125,0.0667870044708252,0.04948364,1.943315,0.4620452263603421,0.0,0.01353273790899785,0.0,200,0.018126964569091797,0.5109751479383893,0.5019930678144354,13800,1.069662412874824,0.0
69,1.2597663402557373,1.0302759165608553,0.6172459759385261,1.8714972717755338,0.13527673568874837,0.0,0.1324626739433779,0.1,0.0025815963745117188,0.06590104103088379,0.04986621,1.0751239,0.5188682953803935,0.0,0.020301811975416074,0.0,200,0.020745038986206055,0.4952066709085838,0.3814685136221405,14000,1.534192502174449,0.0
70,1.9820806980133057,0.5624849107724536,0.2334917229481427,0.9354550391525995,0.3283534770377459,0.0,0.1329567037036129,0.1,0.00260162353515625,0.05101418495178223,0.050931606,1.2597232,0.5232299569195995,0.0,0.01112714719332629,0.0,200,0.09567475318908691,0.25367069808288206,0.40761911495442094,14200,1.0359976999544032,0.0
71,1.1879324913024902,0.826641878275436,0.6796053934030403,1.9652710441588819,0.1660212431421737,0.0,0.12677478874630715,0.1,0.0029370784759521484,0.05278420448303223,0.04990813,3.093523,0.5535711490551832,0.0,0.016342447500471237,0.0,200,0.042501211166381836,0.4518654476077135,0.4444668626775426,14400,1.1423894803483357,0.0
72,1.201784372329712,0.8783198502968215,0.3896843943879051,1.4425041928291527,0.39697488227001104,0.0,0.13737617876329347,0.1,0.0030677318572998047,0.05350923538208008,0.050022773,1.2950363,0.5860460191793471,0.0,0.017519428406210378,0.0,200,0.0216672420501709,0.2253317473386467,0.22040113369991057,14600,1.5210688361413014,0.0
73,1.2258081436157227,0.6912115830689651,0.2758522971810181,1.1178616811118527,0.39452606622356035,0.0,0.1287575270983293,0.1,0.016491413116455078,0.05320334434509277,0.048903316,1.059068,0.5965625755683088,0.0,0.013732516455479574,0.0,200,0.07478499412536621,0.18535042906191174,0.17006750690620176,14800,1.1518678595703782,0.0
74,1.2191882133483887,0.848494911658872,0.48506954095109567,1.3979190991043389,0.3055957916715862,0.0,0.1340267639406597,0.1,0.0028548240661621094,0.0515902042388916,0.049517523,1.1169606,0.6217558091773652,0.0,0.01691342555327671,0.0,200,0.07813000679016113,0.2863086602006868,0.2777949894332621,15000,0.6268127487282925,0.0
75,1.2144825458526611,0.5997631702170116,0.3059559999066937,1.0039986241796648,0.19826267429666075,0.0,0.12578682274433844,0.1,0.002967357635498047,0.05321645736694336,0.049692906,1.0042835,0.6195565452813299,0.0,0.011990216920854963,0.0,200,0.058826446533203125,0.33005085044642407,0.27465809945732994,15200,0.37840231291830007,0.0
76,1.2488842010498047,0.6286780739362767,0.13502069864231525,0.802395952624778,0.49014255030501114,0.0,0.13701838440630076,0.1,0.004935741424560547,0.06787633895874023,0.049828,0.8891075,0.6204686981468245,0.0,0.01243639965195311,0.0,200,0.03750896453857422,0.1238547172687603,0.10933944698399925,15400,0.5672111839721373,0.0
77,1.260115385055542,0.3913268018525588,0.3671495419966555,1.0005563387047482,0.0366059321358359,0.0,0.13788899303414576,0.1,0.004041910171508789,0.05174136161804199,0.050425388,1.127686,0.5975545085173979,0.0,0.007790711538503156,0.0,200,0.04870319366455078,0.6696108229779789,0.5411156276035838,15600,0.5699139154654891,0.0
78,1.2599854469299316,1.0276956242719368,0.3884242124481214,1.4620053265593147,0.6069806206653986,0.0,0.1275658142211785,0.1,0.061966657638549805,0.07614922523498535,0.050079323,1.5371947,0.6405686200928519,0.0,0.020502345258997714,0.0,200,0.031206130981445312,0.37222209365915837,0.34519988555925535,15800,0.962041257691976,0.0
79,1.269531011581421,0.539533977903991,0.19557388196516148,0.7735705310084928,0.23836386722634748,0.0,0.1319033453154949,0.1,0.0027649402618408203,0.07789373397827148,0.050020695,0.85368705,0.6304651558739658,0.0,0.010641075692903694,0.0,200,0.05645918846130371,0.15998907604565327,0.17791794175979989,16000,1.1056171852198007,0.0
80,1.268935203552246,0.5632323016077946,0.3856613158331187,1.1464763880344573,0.06561088888568777,0.0,0.12348193557347367,0.1,0.004595041275024414,0.11148953437805176,0.049651243,1.6490222,0.6237418704473486,0.0,0.01124314514120326,0.0,200,0.03147435188293457,0.3660050257332681,0.37244284418259727,16200,1.7570453566809359,0.0
81,1.2751727104187012,0.5548075673388154,0.6134840273365656,1.6024309249469928,0.05248337437510096,0.0,0.124895301089081,0.1,0.0026617050170898438,0.07846665382385254,0.050354656,2.5014672,0.6168484401364953,0.0,0.01101269018354584,0.0,200,0.04324674606323242,0.6087196776558088,0.5944404360884672,16400,1.7324205328283826,0.0
82,1.2742421627044678,0.44885962621108416,0.20527106783531002,0.7319559319411872,0.15271851967797492,0.0,0.14005004919886568,0.1,0.0027387142181396484,0.052544355392456055,0.049935445,0.87623245,0.6000495587439543,0.0,0.008982514527732934,0.0,200,0.0765538215637207,0.35192372931212373,0.26770949446364106,16600,0.769626538003859,0.0
83,1.2699322700500488,0.5688698783028399,0.21837741401272825,0.8923443939047456,0.3010139565200223,0.0,0.12608978769183163,0.1,0.002763986587524414,0.05321335792541504,0.049927708,2.3746386,0.5969315906998429,0.0,0.011123972826733412,0.0,200,0.031062602996826172,0.1989304589464607,0.21121812079840135,16800,1.9721482391916998,0.0
84,1.2963685989379883,0.9939810352104941,0.5135629046341632,1.7365741794791103,0.28877969705299084,0.0,0.13160935631908785,0.1,0.00638580322265625,0.08363151550292969,0.04981779,1.4212599,0.636636535150908,0.0,0.019523650578715784,0.0,200,0.02892279624938965,0.46963166778690496,0.41389255377812756,17000,1.752547218233864,0.0
85,1.288583755493164,0.7886740995921646,0.4843843304123494,1.2617594230713443,0.10717344889791836,0.0,0.12508626822749588,0.1,0.006222724914550781,0.07546305656433105,0.049493216,1.0726496,0.6518402915950338,0.0,0.01576549362931775,0.0,200,0.03769063949584961,0.38754099420939386,0.34896405884834003,17200,2.291436327599838,0.0
86,1.2916162014007568,0.6367555149830859,0.4319756586874033,1.3119175334418929,0.11389890378043543,0.0,0.12744069239330952,0.1,0.0028409957885742188,0.0897982120513916,0.05059714,1.2085215,0.650331813933839,0.0,0.01270841597452699,0.0,200,0.027536869049072266,0.37964364078985485,0.4061478669939123,17400,1.1850633468261587,0.0
87,1.2611732482910156,0.3637717350723804,0.22981218403114514,0.7185071211156631,0.10013020778712688,0.0,0.1327487871726659,0.1,0.0029723644256591797,0.05324268341064453,0.050756507,1.6996412,0.6216758060476931,0.0,0.007192105889060058,0.0,200,0.0419774055480957,1.4747507330350296,0.9338494778060972,17600,2.502813541545632,0.0
88,1.2091290950775146,0.9675191547333166,0.4853697053974332,1.512561623265376,0.3114015079102321,0.0,0.1267915563073461,0.1,0.037259578704833984,0.08152198791503906,0.049588136,1.2896751,0.6562601409162554,0.0,0.019310352492848196,0.0,200,0.04692482948303223,0.30873395083059346,0.32847041414421857,17800,1.9879311242607234,0.0
89,1.3226325511932373,0.32718324375734764,0.19438793132068774,0.5494895786896777,0.07236752701700802,0.0,0.1309175164779798,0.1,0.026541948318481445,0.05219531059265137,0.049972072,0.77650857,0.6233524512003646,0.0,0.006463489709229537,0.0,200,0.0209653377532959,1.002933316641117,0.762929922522389,18000,2.2292191946888145,0.0
90,1.2233996391296387,0.7498457956891575,0.39462211381084417,1.095983567530069,0.08070279377616771,0.0,0.1273632776688373,0.1,0.0030744075775146484,0.14026570320129395,0.050884128,0.95580655,0.636001785649244,0.0,0.014774012593941292,0.0,200,0.15125799179077148,0.3236955707715756,0.33383363483686945,18200,2.171980523309628,0.0
91,1.254307508468628,0.3276036388955593,0.25272058098739103,0.7241559541438273,0.03902143186582537,0.0,0.13431255925822855,0.1,0.002729177474975586,0.06563019752502441,0.050099276,0.79770774,0.6051619709738756,0.0,0.006483940295650863,0.0,200,0.020615100860595703,0.673621635909882,0.5930470524857236,18400,2.2461612249169094,0.0
92,1.2589671611785889,0.7527681032562613,0.38187848477877107,1.40936836682038,0.46998857415506795,0.0,0.12581550245523254,0.1,0.004163026809692383,0.05293703079223633,0.04952492,2.2844512,0.6199225842021142,0.0,0.01496302504828143,0.0,200,0.05833148956298828,0.33682725435807864,0.33228849322157683,18600,0.49543175134688894,0.0
93,1.2416059970855713,0.564649240331947,0.3674849184830471,0.9957398282821989,0.018773865031040744,0.0,0.12883262938244222,0.1,0.011847496032714844,0.055623769760131836,0.04970272,0.9443209,0.6143952498150975,0.0,0.011184110313931954,0.0,200,0.030310869216918945,0.3518121878689804,0.3400006412942604,18800,0.43677058802305185,0.0
94,1.2294869422912598,0.4345436239469698,0.22912562829455402,0.780301359538125,0.14024098098727375,0.0,0.12993040775114703,0.1,0.002747058868408203,0.058244943618774414,0.050198033,1.1155397,0.5964100872282848,0.0,0.008684007973679174,0.0,200,0.04777097702026367,0.302223029991377,0.3032052777398237,19000,0.6396114846545969,0.0
95,1.28460693359375,0.6130174998684905,0.12923164553118585,0.7546143009399899,0.42273309810810944,0.0,0.12731155920949916,0.1,0.0029954910278320312,0.05330538749694824,0.049929827,1.1950583,0.5980708284923053,0.0,0.012213419950271195,0.0,200,0.03486371040344238,0.09235136884519676,0.09236760566960651,19200,1.0939871796904168,0.0
96,1.2716255187988281,1.0935258018548466,0.5025934408942081,1.5419218507727495,0.25633303173866295,0.0,0.11994214346216922,0.1,0.0075740814208984375,0.05769920349121094,0.05008245,1.8178258,0.6476163258285594,0.0,0.021834539501134908,0.0,200,0.0911874771118164,0.3879581295960009,0.32667312906431484,19400,1.9854106310668762,0.0
97,1.2965905666351318,0.8978461370775791,0.5091201198304032,1.492585171385916,0.19492643141097737,0.0,0.12781380705282752,0.1,0.0029103755950927734,0.05467343330383301,0.04999063,1.1117675,0.6726393069534614,0.0,0.017843010048877082,0.0,200,0.029567241668701172,0.3387721093293137,0.2887794000738527,19600,1.9377379171524065,0.0
98,1.2841687202453613,0.9256271742514119,0.49373861288757215,1.4083420969663185,0.12149245651840332,0.0,0.1343213697985603,0.1,0.002782583236694336,0.05162405967712402,0.05001448,0.86078626,0.6979380936832565,0.0,0.018288133512253658,0.0,200,0.15754008293151855,0.25756058673494353,0.24828512378579143,19800,1.627466779601076,0.0
99,1.281672477722168,0.5175634002369451,0.36735199781773853,1.1156978385709588,0.19873020982549944,0.0,0.12968551234769057,0.1,0.05710268020629883,0.08917832374572754,0.049883198,1.2189984,0.6799006243386254,0.0,0.010216936014950283,0.0,200,0.08986067771911621,0.8447231087082494,0.6607072343163184,20000,2.334774361047997,0.0
100,1.290252685546875,0.48661567469950096,0.3448334521590521,1.0318921236251883,0.13697100675886792,0.0,0.13247263853118924,0.1,0.002691507339477539,0.05803036689758301,0.05021043,0.99886835,0.660572129374713,0.0,0.00969166571018382,0.0,200,0.027660608291625977,0.8233638262429923,0.4749316612161748,20200,1.8596356234001945,0.0
101,1.3096985816955566,0.33444331310555,0.23865471768763719,0.7128135878586827,0.05167779633392605,0.0,0.12969515447017899,0.1,0.0029404163360595703,0.15119695663452148,0.049921986,0.9994101,0.6279592477477968,0.0,0.006609401320442836,0.0,200,0.0794210433959961,1.282180774734415,0.5890857083753224,20400,1.8841716269748616,0.0
102,1.317211627960205,0.7607347948081538,0.6075977890430654,1.699045432730854,0.1698656953991605,0.0,0.1288722811641263,0.1,0.004712581634521484,0.05594587326049805,0.049888507,1.3838099,0.6412368024538324,0.0,0.014997771871035251,0.0,200,0.040204524993896484,0.5103942617346731,0.5404461226699333,20600,2.440301754434891,0.0
103,1.3093047142028809,0.49876951515529744,0.254642820826336,0.9360279836842104,0.29880662580715417,0.0,0.13158619298573726,0.1,0.0031380653381347656,0.10067868232727051,0.049116693,2.9894726,0.626990073723979,0.0,0.009941262406186719,0.0,200,0.026527881622314453,0.2896433966027744,0.2729051177910987,20800,1.628159316945751,0.0
104,1.3056652545928955,0.6450640680322713,0.5052302895259962,1.4626707831038441,0.0784854366323947,0.0,0.13015826534504102,0.1,0.004395723342895508,0.06276869773864746,0.049561437,1.6974921,0.6287974731548083,0.0,0.012856845921913536,0.0,200,0.1508636474609375,0.4763942081863587,0.45692911506246203,21000,0.9633857548684817,0.0
105,1.2703261375427246,0.8310700060919476,0.4999316898086166,1.6118205581397949,0.21927329173167065,0.0,0.13013492960844456,0.1,0.0030601024627685547,0.054186344146728516,0.0500327,1.5783832,0.6490247264485222,0.0,0.016467600642142255,0.0,200,0.056333303451538086,0.4607008828428995,0.4088751361153023,21200,1.234979531676251,0.0
106,1.2644083499908447,0.4160461799616976,0.09630069161584878,0.5479198289388156,0.2976349630923949,0.0,0.13199026408322462,0.1,0.004821300506591797,0.13211274147033691,0.050557632,1.0410843,0.6257268717998398,0.0,0.008313900609867978,0.0,200,0.1121835708618164,0.19360769466551905,0.3074988675237595,21400,1.2496596095049226,0.0
107,1.271214246749878,0.8993211111460189,0.3895446312045424,1.484242595942993,0.5265839273362475,0.0,0.12871870313428943,0.1,0.03831624984741211,0.06318998336791992,0.049817353,2.4545815,0.6530862957344576,0.0,0.017907852692383243,0.0,200,0.08216452598571777,0.318227560678931,0.288310387525908,21600,1.2878829722129368,0.0
108,1.319460153579712,1.120549146328345,0.5351591085859347,1.724761584148332,0.2564146610807994,0.0,0.12804368235093633,0.1,0.005965709686279297,0.0787811279296875,0.050107747,1.5450375,0.6998325807938464,0.0,0.022349971795435464,0.0,200,0.04436182975769043,0.3702562106852972,0.29746344867640767,21800,1.4674587265300094,0.0
109,1.2625184059143066,0.43098688009862884,0.3394781173463933,0.9872172944932467,0.10886009162343982,0.0,0.12949361219911104,0.1,0.0034232139587402344,0.06879687309265137,0.049752865,1.1899805,0.6729480107243246,0.0,0.008514339663977391,0.0,200,0.04322218894958496,0.8550357161501756,0.9819926771100486,22000,0.9031063600253973,0.0
110,1.2903294563293457,0.6627328558486233,0.3382232243559313,1.1448747145471971,0.22371428987796876,0.0,0.12197828479591509,0.1,0.002907991409301758,0.05985307693481445,0.05013713,1.772232,0.6719264952367545,0.0,0.012982855766909683,0.0,200,0.04655718803405762,0.26856922013718887,0.23948442878637854,22200,0.6812210872300439,0.0
111,1.306105136871338,0.8977485398418374,0.5722652089697193,1.5147087330582227,0.23799273158366782,0.0,0.12420342116182809,0.1,0.0029125213623046875,0.07244300842285156,0.049299687,1.2558175,0.6945086996972628,0.0,0.017889661324896906,0.0,200,0.05562567710876465,0.3732692297489457,0.37691752653633914,22400,0.7442269736633697,0.0
112,1.311509132385254,0.19266987905149924,0.10131836743368804,0.3427526833587227,0.05963337301283272,0.0,0.12981491348010116,0.1,0.0044214725494384766,0.07193732261657715,0.050029766,0.8474459,0.6443248176326865,0.0,0.003841377217959633,0.0,200,0.07623815536499023,7.252069729332803,4.787275948138306,22600,0.43284869723049796,0.0
113,1.3121676445007324,0.5093775555244482,0.10331287195907865,0.6418440634079181,0.3555170801147071,0.0,0.13349344295396845,0.1,0.0029790401458740234,0.06305336952209473,0.049351882,0.7329756,0.6308300914218626,0.0,0.010152698955219822,0.0,200,0.045218467712402344,0.10730332270284564,0.059793752368498224,22800,0.34993094369814587,0.0
114,1.2862589359283447,0.8162298345358467,0.6120309127047344,1.8625646433459824,0.3824778290074919,0.0,0.13379382201474782,0.1,0.0028231143951416016,0.05192255973815918,0.049909364,1.85217,0.6493700657332611,0.0,0.016241704778710217,0.0,200,0.07823991775512695,0.45143067667690406,0.47266622323792196,23000,1.1552955561752185,0.0
115,1.3148362636566162,0.5840773813896175,0.16406981484884126,0.8022860987893772,0.3558771395869155,0.0,0.1285363625686162,0.1,0.0028455257415771484,0.06308126449584961,0.049577255,0.90980804,0.6428407972988966,0.0,0.011588579752979559,0.0,200,0.02468132972717285,0.16210615800863784,0.14814933070628136,23200,1.664662995209576,0.0
116,1.304039478302002,0.435866250973917,0.21054940076783737,0.735973556909552,0.17693036136201024,0.0,0.12151396586470259,0.1,0.003390073776245117,0.05883073806762695,0.050545994,1.08513,0.6221433426663987,0.0,0.008621193037787822,0.0,200,0.06161332130432129,0.28070374394550535,0.2780359177633989,23400,1.4872039797682157,0.0
117,1.3260455131530762,0.6400589755458411,0.580819289691394,1.6145131003742828,0.15742974331102655,0.0,0.11964368165899397,0.1,0.0026214122772216797,0.05737662315368652,0.04918741,2.577668,0.623934905954343,0.0,0.012765902110845159,0.0,200,0.02489447593688965,0.5120878908771257,0.5052902720594605,23600,1.538434083046665,0.0
118,1.353477954864502,0.5531031964089865,0.3638633560552802,1.0324713832699774,0.098290476597208,0.0,0.1310505210491112,0.1,0.0027980804443359375,0.05266141891479492,0.050331865,1.0088801,0.6168517349998073,0.0,0.010602971728286743,0.0,200,0.05236506462097168,0.316701012122585,0.30713578312173984,23800,0.9075162417198865,0.0
119,1.346496343612671,0.6363876261499535,0.3005934875203769,0.9896556959897423,0.32950776653331904,0.0,0.13865007692726125,0.1,0.0026934146881103516,0.05278778076171875,0.050107665,0.9527855,0.6188053241148219,0.0,0.012662322672089542,0.0,200,0.03823661804199219,0.26083331900789575,0.24562282836218355,24000,0.39828190087496806,0.0
120,1.3421294689178467,0.6047677997911631,0.2780678016450459,0.9949556271960013,0.22723820030894068,0.0,0.1203547244983163,0.1,0.03900599479675293,0.051816463470458984,0.049640566,1.527552,0.617401571682456,0.0,0.012074433329517579,0.0,200,0.03806424140930176,0.2006085277205067,0.19358788723474554,24200,0.12436313926769797,0.0
121,1.3684041500091553,0.4622908912110453,0.14554296006646006,0.6743417405985224,0.27224905047051245,0.0,0.12446494025287401,0.1,0.002826690673828125,0.06261920928955078,0.049910393,1.817384,0.601890503635315,0.0,0.00914650850157319,0.0,200,0.04743480682373047,0.2505584843566116,0.24460892291854375,24400,0.246669437966788,0.0
122,1.3636043071746826,0.6172558737561559,0.4676772638954614,1.2581848913421523,0.16154361000451772,0.0,0.13134407332462983,0.1,0.0027167797088623047,0.05312514305114746,0.049197093,1.2445961,0.6034270406473992,0.0,0.01230150812982853,0.0,200,0.03650641441345215,0.4180827135753895,0.41379013501976625,24600,0.37818575667806203,0.0
123,1.3170242309570312,0.6734978590672274,0.2397095470193192,0.9380249104550838,0.34636351908019775,0.0,0.1286341415884049,0.1,0.004940986633300781,0.053119659423828125,0.049882527,1.0212314,0.610434122489382,0.0,0.013428410932289109,0.0,200,0.0923457145690918,0.15990913785526842,0.15987591045156796,24800,0.4139451496776249,0.0
124,1.2729952335357666,0.5328244186503478,0.1171575329891796,0.6520686391437819,0.3466343103756506,0.0,0.13398819033094592,0.1,0.0030012130737304688,0.05387234687805176,0.049874865,1.0268033,0.6026731521054787,0.0,0.010391948316201107,0.0,200,0.023655176162719727,0.09267143413419543,0.09173321568859512,25000,0.9227685114623566,0.0
125,1.2754478454589844,0.5483753882109118,0.14732757257463766,0.7661621996115667,0.4066285062836351,0.0,0.13319072323866463,0.1,0.03239941596984863,0.05326676368713379,0.049665064,1.3215048,0.597243375716022,0.0,0.010847848398265475,0.0,200,0.030438661575317383,0.1124883838825336,0.10921311285258437,25200,0.12419616062228246,0.0
126,1.309067726135254,0.9066209418290092,0.529714988488671,1.7004381680437854,0.3969925463445831,0.0,0.12053324844609663,0.1,0.012019634246826172,0.0595097541809082,0.048863396,3.8132553,0.6281811323273208,0.0,0.018126773813243718,0.0,200,0.02528524398803711,0.3951059347480662,0.37232258414214736,25400,0.08561143876343373,0.0
127,1.2961456775665283,0.6217939663120439,0.1665008035504999,0.8342195080723017,0.37453119228277443,0.0,0.12777341805646672,0.1,0.004822969436645508,0.052985191345214844,0.050093196,1.1449778,0.6275424157257932,0.0,0.012118960061727146,0.0,200,0.022525787353515625,0.08269806133477599,0.08188455458835212,25600,0.4274612129956132,0.0
128,1.3097279071807861,1.025178632423133,0.08083529128931144,1.1363674808714748,0.914799587413488,0.0,0.12933918727755334,0.1,0.005655050277709961,0.053479909896850586,0.050140437,0.83804864,0.6673060373955272,0.0,0.020452831893927756,0.0,200,0.049868106842041016,0.16373931605391512,0.11401211106954111,25800,0.45359955753689296,0.0
129,1.3133301734924316,0.9001268188028325,0.25296222999564666,1.3289796466236412,0.6725638776465861,0.0,0.12975428677981304,0.1,0.002852916717529297,0.06460857391357422,0.049949132,1.7091991,0.6905881155362577,0.0,0.017935847917851636,0.0,200,0.03574395179748535,0.13065500951414696,0.11603372801732469,26000,0.3970223490698665,0.0
130,1.3525357246398926,0.6075467205855815,0.12905165234556173,0.7893884229777609,0.4302586039142738,0.0,0.12981770919370125,0.1,0.0027701854705810547,0.057610273361206055,0.04957744,1.1352712,0.6822839760411901,0.0,0.01196597494226431,0.0,200,0.0749664306640625,0.24368389345037125,0.23828607791954656,26200,0.8437459360503464,0.0
131,1.359858512878418,0.8832308226448696,0.44769219177294073,1.440174298703385,0.4191311800257666,0.0,0.13026453316625003,0.1,0.002953052520751953,0.08279848098754883,0.050424587,1.105151,0.702378660701558,0.0,0.017625649501259753,0.0,200,0.0766901969909668,0.22699209743528106,0.2258123707705556,26400,0.7167434173006217,0.0
132,1.3423399925231934,0.39687083417905294,0.2302134315387071,0.7757545476218105,0.1778939537379526,0.0,0.1265521465824571,0.1,0.0026721954345703125,0.09453034400939941,0.049836617,0.8806517,0.6718278780493074,0.0,0.007808914442111019,0.0,200,0.0613400936126709,0.9912138959088913,0.65514790849133,26600,0.49589071415739244,0.0
133,1.364152193069458,0.746564875763782,0.5447804469678983,1.389519253042386,0.11163074838772462,0.0,0.12417683390653252,0.1,0.003004312515258789,0.0849456787109375,0.050121438,1.0451367,0.679301577820755,0.0,0.014903943414640124,0.0,200,0.02306342124938965,0.3765251963401777,0.3987758802033002,26800,0.7542751111460396,0.0
134,1.338874101638794,0.7630390580234498,0.45296660083317924,1.4875881550275154,0.26386310205967184,0.0,0.116874912757076,0.1,0.0029158592224121094,0.06881237030029297,0.049763735,1.993691,0.6876753258410245,0.0,0.01510605622155856,0.0,200,0.07765841484069824,0.3380466251273374,0.3287769585477376,27000,0.5039595531197055,0.0
135,1.3502662181854248,0.35753511249863024,0.26408329820479204,0.7406333999599122,0.03783452725204927,0.0,0.1295113007384832,0.1,0.0028562545776367188,0.0530242919921875,0.04981572,0.9155086,0.6546613045067852,0.0,0.00710118599653252,0.0,200,0.04297614097595215,0.778376833246571,0.6917860631694607,27200,0.6586570518400702,0.0
136,1.3571879863739014,1.0985825154174695,0.3142188395192616,1.5000219599830824,0.7600881863861082,0.0,0.12456849885328895,0.1,0.0028276443481445312,0.05272865295410156,0.049605653,2.3005743,0.6990534255978537,0.0,0.021592891800696526,0.0,200,0.09168219566345215,0.305192000946335,0.2655359873564482,27400,0.5344836091931876,0.0
137,1.3878941535949707,0.8720444657294628,0.733317705533615,2.1299763461051517,0.29980550220812996,0.0,0.12330467001496688,0.1,0.002684354782104492,0.051587581634521484,0.04956508,2.418119,0.7163525296110147,0.0,0.017344694033061107,0.0,200,0.0410611629486084,0.4927383790453903,0.4614117592776898,27600,0.6107087872067105,0.0
138,1.3513052463531494,0.6734075869198949,0.2036111890409474,0.8832360844419914,0.339618715624462,0.0,0.13126980734030094,0.1,0.00637507438659668,0.061980485916137695,0.050586686,0.89806044,0.7120580353419028,0.0,0.013430483794821143,0.0,200,0.020785808563232422,0.1719275388574971,0.20877274494909073,27800,0.9964717989468825,0.0
139,1.3948307037353516,0.6123147311104987,0.12731315495772888,0.8106937364173542,0.4938789047488601,0.0,0.1243735409296537,0.1,0.004851341247558594,0.06220698356628418,0.049795255,1.2685534,0.7020837049187625,0.0,0.012121955695167875,0.0,200,0.05160236358642578,0.23012488937514708,0.18510298986057316,28000,1.3928689848809757,0.0
140,1.3083550930023193,0.7772631061884714,0.5047466826244211,1.56730301214363,0.16549663009582702,0.0,0.12923632415373076,0.1,0.0031147003173828125,0.05471205711364746,0.04950931,1.4130043,0.7096016450457334,0.0,0.015429125437197813,0.0,200,0.0343017578125,0.29742947951421833,0.29430100201250453,28200,1.1537803239504105,0.0
141,1.333406925201416,0.3169529790277036,0.26582216263211084,0.7762284949335183,0.1339450753527723,0.0,0.12318120583351208,0.1,0.004597902297973633,0.07312750816345215,0.04938408,1.738041,0.6703367784439305,0.0,0.006303037327186391,0.0,200,0.08571338653564453,1.5612091526574745,1.1035599501426347,28400,1.00542021308568,0.0
142,1.317901849746704,0.8660716994096181,0.4855182724021403,1.7063530140744037,0.563215243750347,0.0,0.12936008460486675,0.1,0.0032541751861572266,0.0677802562713623,0.049225613,2.2972353,0.6899102705404992,0.0,0.01727313269400271,0.0,200,0.08743023872375488,0.31304613296698086,0.33320778864729683,28600,0.9064035555652584,0.0
143,1.3164525032043457,0.7149640897933902,0.4363134616149194,1.3705048228896228,0.18733782123984752,0.0,0.12020740583249301,0.1,0.024085521697998047,0.07157063484191895,0.049620867,2.0437438,0.6924156524657884,0.0,0.01422985739900606,0.0,200,0.028704166412353516,0.33532068024475903,0.33083288180612497,28800,0.5851772098371689,0.0
144,1.3442716598510742,1.0875219008304324,0.4973882250515121,1.9371936640061518,0.6870948926768363,0.0,0.12317015572130048,0.1,0.004971027374267578,0.05726337432861328,0.048975535,1.9456781,0.7319262773022528,0.0,0.021620563422232293,0.0,200,0.0400083065032959,0.392343621653115,0.3369819623463626,29000,0.6525458908997948,0.0
145,1.3870947360992432,0.6197885968835036,0.320347951223639,1.0407467268508093,0.17561093674516617,0.0,0.12157964024945724,0.1,0.0030243396759033203,0.0628213882446289,0.050202988,1.5708348,0.7207125092603779,0.0,0.012299913756715398,0.0,200,0.04922938346862793,0.25026077758648096,0.2752970595245792,29200,0.4075439697365746,0.0
146,1.3730673789978027,0.45295249688839145,0.1906743841432113,0.7078589590347917,0.2156956901997768,0.0,0.1253056121272429,0.1,0.022556304931640625,0.06865859031677246,0.04984183,0.8948048,0.6939365080231793,0.0,0.00873696648631221,0.0,200,0.02166604995727539,0.5383535955176066,0.49991445260552325,29400,0.5770291618322364,0.0
147,1.353658676147461,0.7894403263309799,0.5752248501593049,1.7608732768164288,0.3149813103604216,0.0,0.11916399516662013,0.1,0.0029680728912353516,0.05363345146179199,0.05003933,4.2414966,0.7034868898539594,0.0,0.01575972513064546,0.0,200,0.07445836067199707,0.375627740270605,0.3759023379191908,29600,0.495313904661795,0.0
148,1.3853204250335693,0.8010964831107605,0.538849707619869,1.5445775592930309,0.17103321789974815,0.0,0.12499986868372391,0.1,0.0030393600463867188,0.14027881622314453,0.04969262,1.4404608,0.7132478491796395,0.0,0.01601092198421397,0.0,200,0.047895193099975586,0.33094785340273697,0.3280709535485852,29800,0.4993915788139085,0.0
149,1.3800022602081299,0.8101871411166625,0.36338171954793874,1.3996824696345267,0.42128073823573897,0.0,0.13536085011662738,0.1,0.0029375553131103516,0.05305361747741699,0.05003903,1.8278354,0.7229417783733418,0.0,0.015767277699199486,0.0,200,0.14302372932434082,0.1895352123512348,0.1828625671073309,30000,0.6319493018303999,0.0
150,1.3806538581848145,0.821325213113019,0.6360514126835052,1.8893800525298574,0.2133153390102157,0.0,0.1253379727691216,0.1,0.0026259422302246094,0.05302262306213379,0.04909084,2.8767354,0.7327801218473096,0.0,0.016391549768390114,0.0,200,0.07171988487243652,0.3932486216925127,0.38723237228962865,30200,1.199586591303626,0.0
151,1.3802309036254883,1.1457407330165477,0.43853312544764583,1.7208348830556786,0.6049725683161022,0.0,0.13333558830047615,0.1,0.002706289291381836,0.05202627182006836,0.049901176,1.1686561,0.7740761829642334,0.0,0.022910508767260553,0.0,200,0.025308609008789062,0.23824781512900337,0.20899056180494105,30400,1.2300650308075143,0.0
152,1.3860743045806885,1.6433742215610163,0.11749362219316353,1.8444318492232132,1.5469463443309721,0.0,0.12442070324948817,0.1,0.002863168716430664,0.053807735443115234,0.049818583,0.99300164,0.8610059868239117,0.0,0.032629692425149195,0.0,200,0.047302961349487305,0.2818809665375885,0.16701326238695285,30600,1.2324182590248423,0.0
153,1.3796312808990479,0.8153105659618979,0.5789479134832628,1.7178159115745826,0.10319287097692031,0.0,0.12826868362545804,0.1,0.03183937072753906,0.0591588020324707,0.04947165,1.1884304,0.8564364447377103,0.0,0.01626146761208006,0.0,200,0.05475902557373047,0.4687200708707832,0.5441227025122486,30800,1.3427556712013242,0.0
154,1.4077861309051514,0.6216030781033196,0.191005395523647,0.9193817584488203,0.4214253612119193,0.0,0.1281323650356626,0.1,0.0655217170715332,0.0514369010925293,0.04926244,1.011551,0.8329531080742713,0.0,0.012375631989250294,0.0,200,0.05260729789733887,1.0191142446706192,0.47616033548731107,31000,1.0986715880569953,0.0
155,1.3912363052368164,0.8342581003547066,0.46817562175367194,1.4948455290456824,0.20187725034516255,0.0,0.12079872027985238,0.1,0.0028574466705322266,0.05230379104614258,0.049869128,1.3759551,0.8330836073023148,0.0,0.016463102178849772,0.0,200,0.03951621055603027,0.2862269260455204,0.2718315672613273,31200,1.2015727793952002,0.0
156,1.399817943572998,0.9237017057377803,0.8190873181443639,2.2719700030103613,0.08965228969321762,0.0,0.12440539118631543,0.1,0.002771615982055664,0.05585336685180664,0.04992041,1.8248106,0.8421454171458613,0.0,0.018219125411860465,0.0,200,0.027846336364746094,0.5322749010086819,0.5185056212751616,31400,1.366106018281655,0.0
157,1.3448753356933594,1.2458501541007354,0.5082441431097039,2.0429510219807083,0.637538269525755,0.0,0.12357935897504656,0.1,0.0030269622802734375,0.05380821228027344,0.050376296,1.7525399,0.8825158908413488,0.0,0.024733276342791446,0.0,200,0.02720952033996582,0.31316496067414873,0.254815880056449,31600,1.465948448925498,0.0
158,1.314089298248291,0.24601047585753186,0.1032160819896866,0.34469500476948645,0.0729253728847765,0.0,0.12937843616460867,0.1,0.0028235912322998047,0.053359270095825195,0.049768772,0.85262793,0.8188653493429672,0.0,0.0048398026472579545,0.0,200,0.12741875648498535,6.449956286257837,6.143649034274887,31800,0.8512049724677899,0.0
159,1.328172206878662,1.3112986215536069,0.521776560115086,1.988332398546135,0.587487074594224,0.0,0.12276466864412118,0.1,0.002872467041015625,0.10079240798950195,0.0500609,1.5316468,0.8681086765640312,0.0,0.026186519866387432,0.0,200,0.028446435928344727,0.2687111101889383,0.27025931070196596,32000,1.2226313421652708,0.0
160,1.3458271026611328,1.196799698046057,1.0913976330918504,3.0284075608314303,0.287343256621761,0.0,0.1266091572124784,0.1,0.004602193832397461,0.052582502365112305,0.049176995,2.322104,0.9009777787122338,0.0,0.023762055783671465,0.0,200,0.043947458267211914,0.5229911601242246,0.4987365751893606,32200,0.8771580220982284,0.0
161,1.4040803909301758,1.2825863857201028,0.4442278422687,1.7480947151961332,0.5498395802109237,0.0,0.12562813888979843,0.1,0.002946615219116211,0.053267717361450195,0.049884558,1.3044746,0.9391386394130207,0.0,0.024878349304369638,0.0,200,0.057280540466308594,0.190391776381582,0.14508205826409934,32400,0.844466548966452,0.0
162,1.369443416595459,0.9290012730117623,0.6926745154232398,2.0463692062606813,0.14539853790536933,0.0,0.13297575459553546,0.1,0.0030183792114257812,0.055553436279296875,0.050689526,1.4377234,0.9381249027728948,0.0,0.018456401888200226,0.0,200,0.0356745719909668,0.4276267004672199,0.44218429034253987,32600,0.7543439362518605,0.0
163,1.3686988353729248,0.7543903331356762,0.46062799555636363,1.315352737341689,0.032944961163439986,0.0,0.12796367047266644,0.1,0.003016948699951172,0.0545654296875,0.04999414,0.92066246,0.919751445809173,0.0,0.015000955880185629,0.0,200,0.024346113204956055,0.6443572211856796,0.4926006405397652,32800,1.5411935666316054,0.0
164,1.3529903888702393,0.813628430534801,0.2574120250669803,1.2413967312173115,0.5532278141883294,0.0,0.13414193107385677,0.1,0.0442960262298584,0.056498050689697266,0.0501287,0.9318886,0.9091391442817358,0.0,0.01611374670195733,0.0,200,0.02474045753479004,0.20120007978486934,0.14132012315990464,33000,1.846147495452956,0.0
165,1.3920693397521973,1.073615153970105,0.3772127907982957,1.5058344282568459,0.4771757128659999,0.0,0.12895888326331528,0.1,0.012908697128295898,0.08660125732421875,0.049549926,0.9365635,0.9255867452505728,0.0,0.02142537480551043,0.0,200,0.047257184982299805,0.16246857477794963,0.18256086995257698,33200,1.9908002381529577,0.0
166,1.3619608879089355,0.657050719985192,0.11840194046036834,0.8464783018698935,0.5255528963751421,0.0,0.1275864132104077,0.1,0.002908468246459961,0.053617000579833984,0.049936358,1.0235199,0.8987331427240347,0.0,0.013054166890206925,0.0,200,0.027634382247924805,0.09839827442725192,0.07339327787218124,33400,1.6487466995016782,0.0
167,1.387763500213623,1.3280638006791505,1.0588847686956744,3.0904812406504933,0.4591795321398365,0.0,0.13336461920763076,0.1,0.006803035736083984,0.13308000564575195,0.05003278,1.2856474,0.9416662085195464,0.0,0.02625243894370063,0.0,200,0.07197332382202148,0.5171329440741996,0.4901254863867556,33600,1.6477284669778458,0.0
168,1.3699333667755127,1.1737614550409958,0.8543181171093072,2.0389887531985895,0.29490501648429435,0.0,0.12993362410439796,0.1,0.012831449508666992,0.07562923431396484,0.049645618,1.0970992,0.9648757331716914,0.0,0.022989008703904232,0.0,200,0.06051063537597656,0.421873904299418,0.37737449824972963,33800,1.0804972938454618,0.0
169,1.4177746772766113,1.2994706867838044,0.5946177159306588,1.9149195371911818,0.5329446964523871,0.0,0.12616751635281323,0.1,0.010508298873901367,0.16169142723083496,0.050090656,1.4775897,0.9983352285329027,0.0,0.02592009889362917,0.0,200,0.07337832450866699,0.25742824734906283,0.22706252074584718,34000,0.5202083580780242,0.0
170,1.337862253189087,0.75293700155056,0.5497306614703518,1.4102621597578455,0.04696013814351546,0.0,0.12804392259740957,0.1,0.003207683563232422,0.05437159538269043,0.0501286,1.1658303,0.9737954058346684,0.0,0.014985733887808939,0.0,200,0.03038334846496582,0.594114418171629,0.6127613416617529,34200,0.5869394148311765,0.0
171,1.368574857711792,0.9574759348254027,0.4446462132070351,1.4739663287549751,0.3321082419930862,0.0,0.12475213104298073,0.1,0.05118274688720703,0.05064988136291504,0.050235216,1.0515329,0.9721634587337418,0.0,0.018921636862521768,0.0,200,0.024987220764160156,0.2578777948563613,0.230012120380529,34400,0.6661597648616944,0.0
172,1.4030077457427979,0.5626172508390562,0.38794200912143256,1.2021567745587007,0.1956271440760636,0.0,0.12843776556871353,0.1,0.0068852901458740234,0.08440351486206055,0.050342165,1.2141751,0.9312088379442732,0.0,0.0112153259910369,0.0,200,0.07906103134155273,0.8871195984024203,0.589201809457526,34600,0.5909736064546843,0.0
173,1.3573486804962158,0.8561545532909286,0.4457486646870087,1.470230823221285,0.3974575798881113,0.0,0.12332425197804439,0.1,0.004727840423583984,0.07614970207214355,0.05019929,1.3776454,0.9237034094789388,0.0,0.01705335224462146,0.0,200,0.03981375694274902,0.25534820028930527,0.24384378011189217,34800,0.6069651117173472,0.0
174,1.352426290512085,1.3366446304706352,0.5701887421198111,1.7431504429152551,0.35798535516068136,0.0,0.12633963437219004,0.1,0.006612539291381836,0.05766487121582031,0.05028631,0.97386605,0.9649975315781085,0.0,0.02625523483119952,0.0,200,0.06707429885864258,0.32706558705082295,0.3270674681013047,35000,0.7171717887753132,0.0
175,1.4094293117523193,1.4272551487446463,0.6573354943385484,2.2173553812480673,0.4099795729052096,0.0,0.1227341851280773,0.1,0.003143310546875,0.053214073181152344,0.05004395,1.095459,1.0112232932947625,0.0,0.028205101156964105,0.0,200,0.03131842613220215,0.36433205776969274,0.30114553256215465,35200,0.5306308052704313,0.0
176,1.4251606464385986,1.432431335564278,0.9369903913864632,2.7859926935538537,0.30101192513392033,0.0,0.1170735133469466,0.1,0.0027823448181152344,0.05180859565734863,0.049510937,1.5518588,1.053344097521714,0.0,0.028177991356002186,0.0,200,0.01705312728881836,0.4074946604485374,0.34163969945752737,35400,0.5844359999921699,0.0
177,1.4242568016052246,0.8699598297972682,0.3898365099314153,1.380359488891811,0.3288495408021431,0.0,0.12097430821826913,0.1,0.00454258918762207,0.11535811424255371,0.04981674,1.6093026,1.0350056707492696,0.0,0.017327978895031817,0.0,200,0.08194327354431152,0.2476833274266519,0.36135649638805967,35600,0.35222766265109035,0.0
178,1.3856513500213623,0.7709425960662072,0.4393811011870453,1.4872956683405874,0.3028429992357483,0.0,0.12522737170606446,0.1,0.004349231719970703,0.05391716957092285,0.05013313,1.6197323,1.0085993632809633,0.0,0.015234678517570502,0.0,200,0.09750175476074219,0.6340940483603084,0.5137695055168037,35800,0.3581754611664966,0.0
179,1.403778076171875,1.649956626209871,0.42447665508784166,2.3145541735530553,1.132195630750562,0.0,0.1246182918709846,0.1,0.0046198368072509766,0.0750420093536377,0.04977786,1.1622043,1.072735089573854,0.0,0.03245176187465379,0.0,200,0.05992531776428223,0.14788023473800171,0.15146400533719284,36000,0.43066254031632417,0.0
180,1.4155306816101074,1.1441773172884275,0.4416031194601551,1.6396319474955645,0.5412700081975598,0.0,0.1224040878186651,0.1,0.004907369613647461,0.09120702743530273,0.050454747,1.3285115,1.0798793123453114,0.0,0.022819520103366242,0.0,200,0.07477068901062012,0.17267226329450544,0.17142213403764148,36200,0.47459592418266733,0.0
181,1.392622470855713,1.231761163070244,1.0433920639650591,3.0021714533209813,0.29954188493806455,0.0,0.11862707321020387,0.1,0.00471043586730957,0.05852246284484863,0.050424837,4.1981196,1.0950674974178047,0.0,0.024075685153722805,0.0,200,0.038458824157714844,0.4297002994890471,0.4258033657707453,36400,0.3516182040731617,0.0
182,1.3968214988708496,1.6421966740234828,0.8030446066854855,2.321219290966332,0.2883170215883736,0.0,0.1256918622703774,0.1,0.0047795772552490234,0.05885195732116699,0.05025548,0.9633538,1.1497804150783726,0.0,0.032553478222923454,0.0,200,0.04618954658508301,0.2888386174947956,0.2609251618644332,36600,0.6657660664627812,0.0
183,1.357645034790039,1.8423110220795889,0.7125264275585961,2.635595117249325,0.695550776922022,0.0,0.12441617102437473,0.1,0.010481834411621094,0.07271647453308105,0.049820147,0.87883085,1.2190334757784944,0.0,0.03589015916666624,0.0,200,0.034717559814453125,0.21255881559229284,0.14104514220182818,36800,0.22392108770274902,0.0
184,1.3251254558563232,0.8203500430832221,0.756155997686405,2.1293986473796505,0.34719352001053283,0.0,0.12650914223310805,0.1,0.006827831268310547,0.053415775299072266,0.05011882,1.3691014,1.1791651325089672,0.0,0.016316103948533615,0.0,200,0.05085444450378418,1.018860601355943,0.9708584590910291,37000,0.2831429405730205,0.0
185,1.3570871353149414,0.9956574901902259,0.4995453566576593,1.5160511518125532,0.29891917264223955,0.0,0.12910203044657495,0.1,0.004526615142822266,0.05374932289123535,0.050736345,0.79481906,1.160814368277093,0.0,0.019551421466617484,0.0,200,0.050618648529052734,0.5086282040102629,0.3142617842565316,37200,0.34883783975824584,0.0
186,1.3673820495605469,1.65013894977115,0.9513504325848473,2.8396820406671135,0.2903255991566262,0.0,0.1253467335993706,0.1,0.0044786930084228516,0.05436277389526367,0.04993572,1.2437999,1.2097468264264988,0.0,0.032443354483122896,0.0,200,0.08196568489074707,0.2820642191397362,0.3080857041678358,37400,0.4500657346241878,0.0
187,1.350595474243164,1.2914238528229172,1.0210540745579364,2.946495510286521,0.4183247102201222,0.0,0.1272392610632265,0.1,0.01704692840576172,0.05225777626037598,0.0499567,1.5561944,1.2179145290661406,0.0,0.025367240816951325,0.0,200,0.05112266540527344,0.38040822375809497,0.37357758580205824,37600,0.8168732769239196,0.0
188,1.360576868057251,1.0580285211682403,0.7356274255461148,1.9587299381883767,0.11164749806283561,0.0,0.12438231669547804,0.1,0.0028650760650634766,0.05340981483459473,0.049274594,1.4180536,1.2019259282763506,0.0,0.021100810112081515,0.0,200,0.052198171615600586,0.364072443976237,0.35056153646081917,37800,0.9009753838119089,0.0
189,1.3402152061462402,1.047692243954423,0.5973711496579672,1.8951651495715724,0.2701042041913589,0.0,0.12552313849944172,0.1,0.0047969818115234375,0.0555417537689209,0.049927097,1.3160486,1.1865025598441579,0.0,0.020697695168648653,0.0,200,0.04450535774230957,0.2547239764764652,0.2460976451606898,38000,0.457928810372646,0.0
190,1.3669660091400146,1.9064768625085875,0.3441003018416575,2.3408139459362993,1.4312338146743702,0.0,0.13038112705272598,0.1,0.0048253536224365234,0.06055593490600586,0.049904924,0.9913333,1.2584999901106009,0.0,0.03734009004678071,0.0,200,0.034662485122680664,0.22739511776048582,0.19402129822057396,38200,0.3418026200006145,0.0
191,1.3626537322998047,1.070758462628737,0.5718665644602626,1.9874023259518023,0.4458183705268748,0.0,0.12315476626706519,0.1,0.005220174789428711,0.07184553146362305,0.049785107,1.287258,1.2397258373624145,0.0,0.021279666707847252,0.0,200,0.04198026657104492,0.2502397397383723,0.26782440733527313,38400,0.3799844083168426,0.0
192,1.3737926483154297,0.5862639266190279,0.34863781442371916,0.9745547220742504,0.08575387301444176,0.0,0.1254120798829504,0.1,0.005069732666015625,0.0694420337677002,0.050187405,0.74545366,1.174379646288076,0.0,0.01171855635986109,0.0,200,0.04392385482788086,1.66456796407173,1.22182061679436,38600,0.5232953774638871,0.0
193,1.421694278717041,0.8285649696577184,0.4657536399657166,1.2532944141496294,0.12756171019340667,0.0,0.12439148437697835,0.1,0.009560108184814453,0.07222533226013184,0.049568146,0.9134612,1.1397981786250404,0.0,0.016579993822076734,0.0,200,0.04179668426513672,0.34569324883068553,0.2729058321573789,38800,1.0458550701965044,0.0
194,1.3980281352996826,1.3872454214199017,0.3969704072718166,1.9118115032184269,0.7951014673085726,0.0,0.12304867161305368,0.1,0.08784985542297363,0.06752920150756836,0.05033706,2.049501,1.1645429029045267,0.0,0.027526130406870696,0.0,200,0.02164602279663086,0.1594268154376192,0.1746623915103073,39000,0.7990786096006156,0.0
195,1.3830418586730957,1.7821092209225222,0.4690262477136564,2.3508259702620498,1.1538209753854252,0.0,0.1280382471358689,0.1,0.004460573196411133,0.05548501014709473,0.049890008,1.6375449,1.2262995347063264,0.0,0.035479166390137575,0.0,200,0.07592630386352539,0.2877241105827939,0.21340478123086115,39200,0.7269056246935923,0.0
196,1.390993595123291,0.917323803721838,0.5222859744097739,1.7655923591611837,0.3611645174750174,0.0,0.11737447828725801,0.1,0.0027837753295898438,0.05802798271179199,0.05004532,1.8910928,1.1954019616078777,0.0,0.018006896660826964,0.0,200,0.04641246795654297,0.3091304512180044,0.32927764426091893,39400,0.3883149353316773,0.0
197,1.3601841926574707,0.6492230004313598,0.5029707023459353,1.4519847468447358,0.089328013122735,0.0,0.12614424200468116,0.1,0.0029931068420410156,0.060320377349853516,0.049905725,0.90423065,1.140784065490226,0.0,0.012687357192856642,0.0,200,0.023650169372558594,0.8802928747080514,0.8239976588299064,39600,0.26664121218426545,0.0
198,1.389646291732788,1.4737727751924972,0.49459462089367534,2.0533739661264847,0.9460793418455322,0.0,0.13025982195459643,0.1,0.004750728607177734,0.05632662773132324,0.05010429,1.0966817,1.174082936460453,0.0,0.028938440241876816,0.0,200,0.03241419792175293,0.12880065117787134,0.13489392587473073,39800,0.25153794693832315,0.0
199,1.4047930240631104,1.366254697057398,0.6837379120984728,2.1335699753236885,0.29464254039609167,0.0,0.12428553744217606,0.1,0.010482311248779297,0.06542634963989258,0.049752783,1.3216908,1.1933001125201477,0.0,0.02717759191951329,0.0,200,0.07445287704467773,0.21319760752237835,0.20956796384199242,40000,0.25354104199571836,0.0
200,1.390397548675537,1.091996724748477,0.23965233375439912,1.3645892762346736,0.7720740378061081,0.0,0.12812842802797805,0.1,0.007133960723876953,0.051671743392944336,0.04980434,1.3600911,1.1831697737429805,0.0,0.021737754644951663,0.0,200,0.04079794883728027,0.1164635039129388,0.11125554285856834,40200,0.21454592644758583,0.0
201,1.4843568801879883,1.5393987119964057,0.708177296462937,2.349077419143341,0.7579740159465954,0.0,0.12456187688761786,0.1,0.004798412322998047,0.10346341133117676,0.04964695,1.5410177,1.218792667568323,0.0,0.030440314050104198,0.0,200,0.08884644508361816,0.26532561128687465,0.2527284409026676,40400,0.2942650528910181,0.0
202,1.4118506908416748,1.5569054980723325,0.6968757484855083,2.1764009330745115,0.3739725373244957,0.0,0.1296684436802087,0.1,0.006692647933959961,0.06620478630065918,0.05035596,1.1042849,1.2526039506187239,0.0,0.030749794203925672,0.0,200,0.038088321685791016,0.20322933959805345,0.18241847643794667,40600,0.23046595165706163,0.0
203,1.5067484378814697,1.313126083483727,0.7625546304922229,2.1998768677412546,0.12600189430403885,0.0,0.12465620925387795,0.1,0.004881143569946289,0.05272674560546875,0.050133515,0.87688494,1.2586561639052243,0.0,0.02521819323332389,0.0,200,0.05891871452331543,0.3077907839318715,0.3071717404105415,40800,0.2423272906530999,0.0
204,1.4144353866577148,1.1583120642779525,0.64043425563404,1.8646281532720586,0.21459284717854743,0.0,0.12243673269391385,0.1,0.03765439987182617,0.2950136661529541,0.05058145,1.2596345,1.2486217539424973,0.0,0.02273127614073786,0.0,200,0.07134032249450684,0.3378175418966926,0.3176702883618921,41000,0.25928706855450095,0.0
205,1.394796371459961,1.5795891616425344,0.9973606312504149,3.03147016751427,0.37969781708123335,0.0,0.12263326188589745,0.1,0.0754096508026123,0.11070728302001953,0.05055906,1.6263871,1.281718494712501,0.0,0.031124436571481243,0.0,200,0.03249359130859375,0.34601329947028653,0.3386393550301624,41200,0.2689427544165869,0.0
206,1.3895001411437988,0.9866296430108179,0.812626958174887,2.180696698725294,0.18674097767842845,0.0,0.12525729148792855,0.1,0.0067615509033203125,0.055047035217285156,0.050752364,1.1349088,1.2522096095423327,0.0,0.01941606016476123,0.0,200,0.05521965026855469,0.554087441324564,0.5043518742687799,41400,0.2765768378428574,0.0
207,1.423210859298706,0.5511209926675287,0.27060470927604546,0.9783934040282395,0.3152703188312525,0.0,0.12322260334582485,0.1,0.002937793731689453,0.05204153060913086,0.050117884,0.9775534,1.1821007478548524,0.0,0.010648845237455032,0.0,200,0.05415987968444824,1.6283969408990002,0.9730306439763838,41600,0.8329349469453414,0.0
208,1.3981962203979492,1.369049731433061,0.2807164288182021,1.719145535212286,1.083413779361784,0.0,0.12413113388953753,0.1,0.002810239791870117,0.05225849151611328,0.049223304,1.4660498,1.2007956462126732,0.0,0.027140204073761644,0.0,200,0.030844926834106445,0.0963851164827912,0.1401110078178221,41800,1.0228282435514389,0.0
209,1.4690625667572021,2.0635739677813048,0.9538818810320792,3.432888182187483,1.0988375152195438,0.0,0.12851434872182826,0.1,0.0029730796813964844,0.05418276786804199,0.049942695,1.4239732,1.2870734783695363,0.0,0.04016366716268173,0.0,200,0.03595232963562012,0.4457647056847411,0.39927882457788677,42000,1.2038743893117634,0.0
210,1.3925628662109375,1.5016261805159685,0.6790199994759771,2.0297054149631335,0.3367471338647512,0.0,0.11924764294177045,0.1,0.004769325256347656,0.09837937355041504,0.05053927,0.8522663,1.3085287485841797,0.0,0.0297595493298354,0.0,200,0.1051473617553711,0.23119513390304094,0.17660274045925872,42200,0.8746606632851085,0.0
211,1.442711353302002,1.8522749813826067,0.9092042131773532,2.513757224642361,0.2861074260888467,0.0,0.1264860401957024,0.1,0.0029783248901367188,0.053221702575683594,0.05041322,0.8820033,1.3629033718640224,0.0,0.036370736518210614,0.0,200,0.040937185287475586,0.2787357271271166,0.2329499383181037,42400,1.1567084663597191,0.0
212,1.4325125217437744,0.8489845685468256,0.5666906756297759,1.6480987150759545,0.23362623636831087,0.0,0.1269936682580111,0.1,0.004602193832397461,0.05243277549743652,0.049837634,1.0309389,1.3115114915323027,0.0,0.016805389028498156,0.0,200,0.08489847183227539,0.9288328127611858,0.9210855022081145,42600,0.6216462122411778,0.0
213,1.4312999248504639,0.9013265594460526,0.24731843244778803,1.3229695568247593,0.6929398300964213,0.0,0.13338918166244898,0.1,0.005041837692260742,0.06417298316955566,0.04994682,1.5098698,1.2704929983236777,0.0,0.017927495420573585,0.0,200,0.023705720901489258,0.8431496603476482,0.39652057494379667,42800,1.5204306553592586,0.0
214,1.4043152332305908,1.4010128173557614,0.9607129087433733,2.690062370389455,0.4493943099974926,0.0,0.12918542659472357,0.1,0.07510113716125488,0.05101609230041504,0.0495961,1.2760273,1.2835449802268861,0.0,0.027362770599594945,0.0,200,0.034766197204589844,0.35720380267216073,0.3761649367154025,43000,1.3818997478883552,0.0
215,1.428112268447876,0.9831496425979727,0.35287409165347633,1.3062999753148463,0.43001461912230277,0.0,0.12561373769100112,0.1,0.010379552841186523,0.053740739822387695,0.05153413,0.76558244,1.253505446463995,0.0,0.019332688335713916,0.0,200,0.035637617111206055,0.1583592639558854,0.14130655282859877,43200,1.496337462692827,0.0
216,1.4531919956207275,1.3990370888796746,0.6630085760255416,2.5466848772633965,0.9952678225806123,0.0,0.13169759541722936,0.1,0.01763129234313965,0.0562891960144043,0.050263386,1.4770199,1.2680586107055631,0.0,0.02725139478769109,0.0,200,0.12980294227600098,0.29500982069565446,0.3001788129831021,43400,0.8717794346503057,0.0
217,1.4804346561431885,0.7682646148697897,0.2784414684349931,1.059523094637362,0.36836612102665944,0.0,0.12922715959395994,0.1,0.00423884391784668,0.053025245666503906,0.049819354,0.86906844,1.2180792111219858,0.0,0.015242976214722639,0.0,200,0.03659415245056152,0.27035162929332923,0.2457653283265097,43600,0.7412733714944352,0.0
218,1.4380009174346924,0.7004573953277551,0.2959596787596758,1.1322208161833713,0.31464313128522603,0.0,0.12269128300975982,0.1,0.004819631576538086,0.06261920928955078,0.049625136,0.9126985,1.1663170295425629,0.0,0.013862862990548213,0.0,200,0.056463003158569336,0.2828571326730418,0.2331033233143681,43800,0.501192622494593,0.0
219,1.4234604835510254,1.4533827490488982,0.544813886816329,2.302806581035835,0.8809233428231336,0.0,0.13387703379872196,0.1,0.005103588104248047,0.1290607452392578,0.04982235,1.1681066,1.1950236014931965,0.0,0.02867635771392097,0.0,200,0.04616284370422363,0.255110767778556,0.2522722677521133,44000,0.8498723795875428,0.0
220,1.4519777297973633,0.9283852092746017,0.3828229908041841,1.5024364657148168,0.5035781843648626,0.0,0.12266632374782108,0.1,0.003031015396118164,0.05486178398132324,0.04948309,1.3269706,1.168359762271337,0.0,0.018373135462315084,0.0,200,0.06187558174133301,0.20742457174343393,0.20725434448647698,44200,0.8214640929365727,0.0
221,1.43509840965271,0.9062545037417996,0.7012775730704867,1.8147852752296345,0.06125314221558899,0.0,0.1184858499573132,0.1,0.0028264522552490234,0.05248832702636719,0.05063551,1.4215274,1.1421492364183834,0.0,0.017707902893034092,0.0,200,0.056005239486694336,0.47380160989708536,0.46699355790220226,44400,1.023356427910717,0.0
222,1.4645106792449951,1.3372315821825507,0.6666565593617008,2.4307880914037563,0.7724895440230358,0.0,0.1255129687833784,0.1,0.00472259521484375,0.058365821838378906,0.049591035,1.4233017,1.1616574709948,0.0,0.02586569142432469,0.0,200,0.027959108352661133,0.30404004338478957,0.2849782197943877,44600,1.2419561207380745,0.0
223,1.4093432426452637,0.9970166623333392,0.45043851274204993,1.6096907033072525,0.5375205423547571,0.0,0.12772868508256005,0.1,0.002837657928466797,0.051300764083862305,0.04970028,1.1227087,1.145193390128654,0.0,0.019576363818213083,0.0,200,0.042597055435180664,0.17692622272899602,0.1860710389703211,44800,1.4276548789431873,0.0
224,1.4526424407958984,0.6008899359847719,0.28198428806142645,1.0087805316973575,0.33174159354696103,0.0,0.13181660349695112,0.1,0.0027475357055664062,0.05336117744445801,0.04979427,0.79528886,1.0907630447142658,0.0,0.01197397504622785,0.0,200,0.029452800750732422,0.9719960988927532,0.8645619175711826,45000,2.351851807901686,0.0
225,1.431410312652588,2.218492651903286,1.311963388264818,3.6791353685828327,0.3647179737592422,0.0,0.12303231971797834,0.1,0.030121326446533203,0.07428717613220215,0.050064996,1.220017,1.2035360054331679,0.0,0.04337369471800629,0.0,200,0.03664040565490723,0.4785587319509567,0.45188563613222776,45200,1.5048686099649073,0.0
226,1.4479432106018066,1.167243996577568,0.378185160727054,1.7010389190768405,0.7354080029237703,0.0,0.13361504754147974,0.1,0.005204200744628906,0.05709409713745117,0.050059926,1.1960887,1.1999068045476078,0.0,0.02301530495397048,0.0,200,0.0394136905670166,0.1355702331922286,0.13738925016520043,45400,1.955371868549353,0.0
227,1.4868824481964111,1.7775799242350616,1.097103009396198,3.170161888800533,0.09482195388505073,0.0,0.12468325818326796,0.1,0.005106687545776367,0.05467796325683594,0.05004343,0.97245246,1.2576741165163532,0.0,0.03468595491776835,0.0,200,0.038631439208984375,0.3268357621308485,0.29584402425052286,45600,3.9055915183737944,0.0
228,1.482102394104004,1.3944894971828148,0.6563552987290602,2.272718656364945,0.4789186311759604,0.0,0.13136292569674873,0.1,0.0050580501556396484,0.06899714469909668,0.050022162,1.0813862,1.2713556545829996,0.0,0.027517780914880476,0.0,200,0.09353017807006836,0.20439527680668407,0.21517399069540807,45800,1.941526817236893,0.0
229,1.4720425605773926,1.4623993294589133,0.382428721090885,2.003727278174364,1.000569966218893,0.0,0.1179702481783539,0.1,0.0026543140411376953,0.052196502685546875,0.049543586,1.7824309,1.290460022070591,0.0,0.028840993651373693,0.0,200,0.03294014930725098,0.13174804577403404,0.1266561080758196,46000,1.4118841574102945,0.0
230,1.4426429271697998,1.0246328511504539,0.7299851237761029,2.1655412921464383,0.1382899487722632,0.0,0.11603060124606711,0.1,0.024451255798339844,0.05466103553771973,0.049921926,1.9887389,1.2638773049785774,0.0,0.02019030662651212,0.0,200,0.043975830078125,0.5462307151693028,0.48436993340410367,46200,0.8916361697341896,0.0
231,1.4180114269256592,1.1498810141543085,0.4377665559313904,1.8007509575029967,0.6668671004596721,0.0,0.128095601999793,0.1,0.006924629211425781,0.06145882606506348,0.050126262,1.1318744,1.2524776758961504,0.0,0.022656474369698754,0.0,200,0.04097485542297363,0.1944386417451963,0.1578254143756055,46400,0.7367439059608327,0.0
232,1.378976821899414,2.2690190210793926,0.41399575151486395,2.7069838020067527,1.6160872856218689,0.0,0.12393707984458856,0.1,0.006795406341552734,0.05556368827819824,0.050466128,1.0898063,1.3541318104144746,0.0,0.044680590823418354,0.0,200,0.018790721893310547,0.22104414753838444,0.20790462835710602,46600,1.4515991523181195,0.0
233,1.4883830547332764,1.2066224555559095,1.0237055743632464,2.940854790803901,0.43932083515400067,0.0,0.12778049592706575,0.1,0.0055294036865234375,0.0639183521270752,0.05016306,1.3790917,1.3393808749286182,0.0,0.02374151271633342,0.0,200,0.03990674018859863,0.44504357192920196,0.4524848247642902,46800,1.2348013659743564,0.0
234,1.4032015800476074,2.809997740710499,0.8413605232346971,3.327266003672561,1.3539661698938017,0.0,0.116866014623881,0.1,0.012950897216796875,0.11237382888793945,0.050032154,1.4057883,1.4864425615068064,0.0,0.05551113361438214,0.0,200,0.034906864166259766,0.33404015832626327,0.2501300266360532,47000,2.62617894826224,0.0
235,1.4293179512023926,0.8578219884679668,0.3730548129077031,1.2879419871755333,0.2610394516932751,0.0,0.1322157645297735,0.1,0.002892017364501953,0.05391097068786621,0.049977507,1.0112386,1.4235805042029224,0.0,0.01693938179902827,0.0,200,0.06884551048278809,1.150751985013895,1.400931993398545,47200,0.8305725622632384,0.0
236,1.411299467086792,1.3095649656280837,0.9429796594534195,2.8269023439664847,0.4420594349975712,0.0,0.12352045131910167,0.1,0.005048513412475586,0.08234119415283203,0.05038867,1.166192,1.4121789503454385,0.0,0.02596863298930578,0.0,200,0.02930450439453125,0.40814325126314144,0.3538425288641523,47400,1.1964923384943094,0.0
237,1.4419097900390625,1.837231927851864,1.396596241413967,4.129124112036346,0.7008377284095726,0.0,0.12437824282095113,0.1,0.0029783248901367188,0.05542111396789551,0.049974497,1.6567736,1.454684248096081,0.0,0.035336842647066186,0.0,200,0.04247426986694336,0.39038264035187475,0.39598194778476103,47600,1.5640811180135934,0.0
238,1.4430022239685059,1.3161182950234358,1.337946728811304,3.450057768563808,0.12648959497233975,0.0,0.12351447129105282,0.1,0.0048334598541259766,0.06640338897705078,0.05013229,1.4693227,1.4408276527888166,0.0,0.025661419641747212,0.0,200,0.04138970375061035,0.5070470612743864,0.4956599361576242,47800,0.9542437177508933,0.0
239,1.4922635555267334,1.7801865307125375,0.6230750153318446,2.5332951100978685,0.8666874488761125,0.0,0.12299530556943075,0.1,0.004433155059814453,0.07138967514038086,0.05004456,1.2098253,1.4747635405811887,0.0,0.03516402184738569,0.0,200,0.024403810501098633,0.14304319596868867,0.1435668104000778,48000,2.402121486397675,0.0
240,1.4172070026397705,1.161413968635384,0.5667479342259575,1.9495249233610243,0.3483002172482916,0.0,0.12940398131764633,0.1,0.006719112396240234,0.057065725326538086,0.050676033,1.6977631,1.4434285833866083,0.0,0.022944100366539273,0.0,200,0.015161991119384766,0.3800064448239843,0.3243366232828639,48200,1.8803795151756135,0.0
241,1.4289491176605225,1.2089837422100016,0.5629963295870701,1.8340962055997954,0.5263618468294422,0.0,0.12510659941513244,0.1,0.004565000534057617,0.08720517158508301,0.049990863,1.2525104,1.4199840992689476,0.0,0.0240901222362309,0.0,200,0.13204574584960938,0.29341106009707935,0.24852207637346568,48400,2.1455586691835933,0.0
242,1.417109489440918,1.707453371508732,0.7423700152780361,2.5123415314268414,0.5614738604037176,0.0,0.12064255338086269,0.1,0.01469731330871582,0.12276148796081543,0.050001923,2.0562844,1.448731026492926,0.0,0.03347523683439354,0.0,200,0.06884407997131348,0.22694567531235962,0.2352695266379557,48600,2.494923884602565,0.0
243,1.4345605373382568,1.7953680957376612,0.7155249885819228,2.3169301108031215,0.562149153490803,0.0,0.12318415600349528,0.1,0.006779670715332031,0.06569933891296387,0.049595132,0.87983394,1.4833947334173996,0.0,0.03528872232144141,0.0,200,0.04332852363586426,0.2481840407438719,0.22773034915928617,48800,2.0389939455294814,0.0
244,1.5113282203674316,1.3553970400493327,0.7513243373486373,2.4160975343077475,0.30814741103962284,0.0,0.12043006554364097,0.1,0.003988504409790039,0.052788734436035156,0.04952352,1.26577,1.4705949640805929,0.0,0.02583814603499965,0.0,200,0.0933539867401123,0.3014621609480847,0.28325599639917853,49000,1.9103463090413797,0.0
245,1.4998421669006348,0.8736295639418601,0.5808175146291756,1.8471244766220627,0.372439686738263,0.0,0.12346799956314866,0.1,0.005079507827758789,0.06410932540893555,0.050087932,1.2081571,1.4108984240667197,0.0,0.017180404424885158,0.0,200,0.020743846893310547,0.5852069693069065,0.5630302642618832,49200,2.048471501839396,0.0
246,1.4462811946868896,1.224069743070149,0.546239023974757,1.765550480557595,0.43261411742649347,0.0,0.12242664730716958,0.1,0.003216981887817383,0.12813878059387207,0.04992075,1.1327515,1.3922155559670626,0.0,0.023992631195029875,0.0,200,0.1028127670288086,0.23102137801614256,0.21418824838110043,49400,1.284167803977171,0.0
247,1.4811012744903564,1.4722858128521175,0.7734606841623732,2.6401623361489914,0.5664708649571623,0.0,0.12300003920907226,0.1,0.004738330841064453,0.05749845504760742,0.04956773,2.0176513,1.400222581655568,0.0,0.02862010348825801,0.0,200,0.046489715576171875,0.28083481439191216,0.28102929312728714,49600,0.5328046898446536,0.0
248,1.474090337753296,2.75507557551372,1.0209432054144885,4.1549747255507095,1.4671189193303558,0.0,0.12691945811659566,0.1,0.0029850006103515625,0.05463242530822754,0.050090283,1.1847647,1.5357078810413833,0.0,0.054073222020035144,0.0,200,0.025578737258911133,0.38468234985486105,0.31161120103546214,49800,1.5814674985644928,0.0
249,1.427428960800171,1.295631587496442,0.6419332201772295,2.0657966677146424,0.28962647096608496,0.0,0.12790492104261408,0.1,0.06828546524047852,0.09683728218078613,0.05066937,0.8918446,1.5117002516868892,0.0,0.025429077740596124,0.0,200,0.04396700859069824,0.2657777609654202,0.33592752370067036,50000,1.8966149105406587,0.0
250,1.4124603271484375,2.548893006249896,0.20489918719516534,2.781302207545036,2.3105793723920804,0.0,0.12580385637416652,0.1,0.00506901741027832,0.06073260307312012,0.049841247,1.1410011,1.6154195271431897,0.0,0.04959787641513955,0.0,200,0.042531728744506836,0.12722110229433564,0.09207309004318837,50200,2.4407042116095785,0.0
251,1.4207093715667725,1.0439570263286968,0.4030205649302139,1.4862050100957578,0.5302439962767734,0.0,0.1295641350453657,0.1,0.002889871597290039,0.07139444351196289,0.04991372,0.9342401,1.5582732770617405,0.0,0.020383969036315428,0.0,200,0.06747198104858398,0.9955623449309372,0.8291840562871808,50400,2.085404747297954,0.0
252,1.438617467880249,2.1033791979750407,0.9888398391614955,3.559526504082504,1.1623929748638402,0.0,0.12322804140200064,0.1,0.00697016716003418,0.05663895606994629,0.05020879,1.3268666,1.6127838691530707,0.0,0.04140132216905146,0.0,200,0.04248785972595215,0.2976345572271618,0.27011877972823406,50600,1.1979826498666981,0.0
253,1.5314807891845703,1.8351678061319676,1.075040160568869,3.662326973573374,1.0312190943412072,0.0,0.12940341819022808,0.1,0.0052602291107177734,0.14184236526489258,0.05027544,1.3671182,1.6350222628509605,0.0,0.036099693285220766,0.0,200,0.04069256782531738,0.29038026819314927,0.288071926729096,50800,2.9591152213645358,0.0
254,1.444535255432129,0.8194531026067082,0.8265237886530211,2.170697913711994,0.051973767309846874,0.0,0.12152335668538859,0.1,0.004300355911254883,0.05569887161254883,0.04998531,1.7376637,1.5534653468265354,0.0,0.016121586203269287,0.0,200,0.03856635093688965,1.2469837993452706,0.954010922701086,51000,2.478853423490033,0.0
255,1.4415442943572998,1.6023316940143335,0.8219979968075579,2.237638765813349,0.2212695690105993,0.0,0.12711290292824548,0.1,0.00476837158203125,0.05311250686645508,0.04957366,0.8040855,1.5583519815453153,0.0,0.03136324222748388,0.0,200,0.048120737075805664,0.24723536714756836,0.27161803944863605,51200,1.857204704709989,0.0
256,1.4662916660308838,1.8760427070602903,0.8105506688471935,3.1987579386950835,1.0704252850477713,0.0,0.12892092419666223,0.1,0.015956878662109375,0.06429886817932129,0.049707618,1.6132042,1.590121054096813,0.0,0.03597600813108827,0.0,200,0.08722257614135742,0.3211047989130569,0.3226936814654519,51400,2.676494011213381,0.0
257,1.5175042152404785,1.4279955864310816,1.1409260676986557,2.8167179690996003,0.2616637851208825,0.0,0.12571650240607954,0.1,0.004809141159057617,0.05310392379760742,0.049805947,1.3811513,1.5739085073302397,0.0,0.02804522300818091,0.0,200,0.04674506187438965,0.3933632223728826,0.3881942018238077,51600,3.5595643879065295,0.0
258,1.423285722732544,1.979384349276284,1.181907694424854,3.3091355012896706,0.48292823323194517,0.0,0.12299941364522127,0.1,0.004891872406005859,0.06066632270812988,0.0503047,1.1454899,1.6144560915248443,0.0,0.038772797589956096,0.0,200,0.08482003211975098,0.3509519260294107,0.3201601277731015,51800,2.7140810739933046,0.0
259,1.5121684074401855,2.257488338345958,0.6919925648602112,3.015986539921209,1.1862323523580685,0.0,0.12745807117453073,0.1,0.004693031311035156,0.05246615409851074,0.05031014,1.1919879,1.6787593162069558,0.0,0.044119680933415784,0.0,200,0.04910540580749512,0.20527994488012907,0.14232160632646793,52000,1.2947316749804998,0.0
260,1.5146243572235107,1.5151139722280125,0.8125542826988055,2.8821602945889393,0.7895658686149843,0.0,0.12670633481079605,0.1,0.0030999183654785156,0.054192304611206055,0.0501836,1.5142604,1.6623947818090616,0.0,0.029658862661369335,0.0,200,0.036858558654785156,0.2404154674945014,0.28080681885611825,52200,1.437686429427652,0.0
261,1.4988782405853271,1.107096776426933,0.6899814927207065,2.1815782051464114,0.4474793484371481,0.0,0.12676838180635,0.1,0.03221559524536133,0.11089468002319336,0.0500525,1.2631344,1.6068649812708486,0.0,0.02167164275740717,0.0,200,0.03901839256286621,0.6607208721865978,0.540127297963524,52400,1.115553264135775,0.0
262,1.4418230056762695,2.038258997463591,1.2740497909656012,4.127033406480407,0.835940986152443,0.0,0.12105735821646037,0.1,0.03430986404418945,0.08501243591308594,0.04964314,2.012898,1.650004382890123,0.0,0.039438605325743045,0.0,200,0.045900821685791016,0.312737287693097,0.32364749766526757,52600,0.670304319852343,0.0
263,1.483159065246582,1.1350606155892713,0.9910743237907791,2.7481210161896015,0.12190412283730195,0.0,0.12466337284973032,0.1,0.002910137176513672,0.054091691970825195,0.049836654,1.6286919,1.598510006160038,0.0,0.022051395637164066,0.0,200,0.0516209602355957,0.6402998457364011,0.5754959174171217,52800,1.0696706099946454,0.0
264,1.4478271007537842,1.7947963008231187,0.8701863436729451,3.259158716840388,1.0187045522099996,0.0,0.12803128646707948,0.1,0.004600048065185547,0.07843327522277832,0.050119963,1.3394351,1.618138635626346,0.0,0.03486983170517108,0.0,200,0.10880732536315918,0.2736343700714215,0.28244425563545755,53000,0.9442815837541895,0.0
265,1.5625944137573242,2.341348081754997,0.9943764672195752,3.809000030363966,1.0554942733642894,0.0,0.1294721326499525,0.1,0.004348278045654297,0.05406355857849121,0.05002155,2.1579542,1.6904595802392113,0.0,0.04550746673540368,0.0,200,0.02670454978942871,0.305648639959859,0.2844384447998699,53200,0.9855196211751176,0.0
266,1.4717023372650146,1.5110173774538227,0.8309537734395377,2.3426178893870735,0.1728423507456121,0.0,0.1289839606597097,0.1,0.004585981369018555,0.07721519470214844,0.04997156,1.0333129,1.6725153599606724,0.0,0.029505675882926963,0.0,200,0.037894487380981445,0.31017307474053174,0.3161064319717365,53400,1.4844211385674049,0.0
267,1.5392606258392334,1.5718064380410182,0.6555445640109012,2.6500506092983094,1.0082010192651183,0.0,0.12750527801461786,0.1,0.0048885345458984375,0.07326292991638184,0.049582835,1.5813246,1.6624444677687071,0.0,0.030866266864195704,0.0,200,0.05774664878845215,0.19293477705414253,0.19243767402300976,53600,1.094934818499287,0.0
268,1.464069128036499,2.4384233230221235,1.428156584344085,3.9317617622792658,0.7404118783782347,0.0,0.12284934161269495,0.1,0.0029883384704589844,0.05253458023071289,0.0495808,1.0909874,1.7400423532940488,0.0,0.04756992902310656,0.0,200,0.09212708473205566,0.32838189985151556,0.2983533312196251,53800,1.3395854958483973,0.0
269,1.5078065395355225,1.4898539378653946,0.8648369903256143,2.69755160497037,0.38455658779546337,0.0,0.12503399689386283,0.1,0.0030667781829833984,0.05391860008239746,0.049768172,1.1384549,1.7150235117511834,0.0,0.028954136284442843,0.0,200,0.0384671688079834,0.3219264495164799,0.33733406683661205,54000,1.2149555965312737,0.0
270,1.4369821548461914,1.340198086077218,0.7954006180068701,2.618257955715784,0.4581930982657221,0.0,0.12715667810030917,0.1,0.0029790401458740234,0.052747249603271484,0.050180193,1.3215159,1.6775409691837868,0.0,0.026485241411647396,0.0,200,0.045617103576660156,0.5063996514662416,0.4518752273638101,54200,1.6940488864775916,0.0
271,1.4936957359313965,2.1461928408449937,1.1137821161479082,3.2877424808673097,0.31553939194735353,0.0,0.12681750058474284,0.1,0.004572153091430664,0.0525667667388916,0.049917404,0.9751235,1.7244061563499076,0.0,0.04215956036315344,0.0,200,0.08267760276794434,0.2402308857353747,0.2459278969899341,54400,2.2512253738601404,0.0
272,1.461193323135376,2.1977376678093226,0.5740056785095774,3.0341682141313004,1.4625031565108144,0.0,0.12749809259265626,0.1,0.004905223846435547,0.0927274227142334,0.05014327,1.246304,1.7717393074958492,0.0,0.043579258688898184,0.0,200,0.10817909240722656,0.13773832233513514,0.12258796384523019,54600,1.7488445840726727,0.0
273,1.568610429763794,1.2495378433440294,0.28202693942999146,1.6979633587638046,0.950499973865169,0.0,0.12706217347674545,0.1,0.0028989315032958984,0.05237388610839844,0.04964474,0.7110234,1.719519161080667,0.0,0.02428966267223951,0.0,200,0.027363061904907227,0.338331092455994,0.30103094994442015,54800,3.7481249990265417,0.0
274,1.591759204864502,1.6793274693260472,0.8299971856112391,2.539784620532497,0.3078860775254316,0.0,0.13045450808276315,0.1,0.0032515525817871094,0.0518488883972168,0.049827904,0.8848331,1.715499991905205,0.0,0.03326478232038246,0.0,200,0.0368502140045166,0.23414876583231395,0.2268330367148656,55000,3.5416165318975366,0.0
275,1.5427393913269043,2.2277883329970156,0.9464247156267227,3.0899710489527417,0.6581693431316773,0.0,0.12418484207945042,0.1,0.005490303039550781,0.061124563217163086,0.05017855,0.99514127,1.766728826014386,0.0,0.043613963746031,0.0,200,0.04203987121582031,0.2503448183659729,0.24191496867293458,55200,2.9039863763995943,0.0
276,1.4820163249969482,1.1281952124696841,0.750598218573037,2.0084863704884133,0.3005196489823808,0.0,0.1256951527820559,0.1,0.0029757022857666016,0.05544233322143555,0.049917016,1.0282693,1.702875464659916,0.0,0.022101121735741462,0.0,200,0.030814647674560547,0.5309124642292687,0.5101039507626133,55400,2.8388164341900297,0.0
277,1.5373506546020508,1.5429193264333523,0.8738475198268855,3.0204864733092758,0.7439996844220836,0.0,0.11685342065590897,0.1,0.004896402359008789,0.06156039237976074,0.04952286,3.1805866,1.6868798508372596,0.0,0.030315492849486536,0.0,200,0.05584573745727539,0.2704867746044096,0.2597450062515858,55600,2.1663102327480446,0.0
278,1.4859070777893066,2.3859017373052946,1.4166473037202139,4.457472987400608,0.6801824707806616,0.0,0.12408649554798337,0.1,0.03411984443664551,0.05349135398864746,0.04996072,2.3016677,1.756782039484063,0.0,0.046664025458315356,0.0,200,0.03106975555419922,0.41331822170488963,0.39142903790788774,55800,2.243097851484556,0.0
279,1.5449855327606201,1.1177897491449778,0.6194720749716484,1.8543574421685631,0.49316713451871547,0.0,0.12095010781371009,0.1,0.0028543472290039062,0.052060604095458984,0.050723944,0.86169565,1.6928828104501545,0.0,0.02216708914153384,0.0,200,0.03729987144470215,0.44513888458749734,0.4595403701928152,56000,2.6970965527395467,0.0
280,1.5005135536193848,2.575971185431732,0.7416206611999675,3.5684808351020303,1.5760213230903515,0.0,0.1251686437032343,0.1,0.004882335662841797,0.05904221534729004,0.049811553,1.334775,1.7811916479483125,0.0,0.05070578498070292,0.0,200,0.0480952262878418,0.22330432658638838,0.18482355649806909,56200,2.3332722247998703,0.0
281,1.5688362121582031,1.7724589824050931,0.9794944963176775,2.74155765693063,0.3033619055673171,0.0,0.13016281832806087,0.1,0.0031130313873291016,0.05389547348022461,0.04981524,1.0953335,1.7803183813939907,0.0,0.035151195079324876,0.0,200,0.04253125190734863,0.24104972207624697,0.2588036133084443,56400,2.3106714067457226,0.0
282,1.4660911560058594,1.395223816875907,0.9170654082880894,2.8460934507067583,0.30707364643111473,0.0,0.12473698319583985,0.1,0.005237579345703125,0.1208643913269043,0.04991216,1.2925351,1.7418089249421824,0.0,0.027487997827865304,0.0,200,0.12021875381469727,0.42432905407231025,0.4101698767659027,56600,1.8664837115763382,0.0
283,1.4763505458831787,1.4571164479559648,1.1222932566599755,3.0261043411574806,0.2056464911266815,0.0,0.12526784908886177,0.1,0.004369974136352539,0.054650306701660156,0.050025545,2.1312814,1.7133396772435605,0.0,0.02834127618521856,0.0,200,0.08409357070922852,0.4198199412759043,0.399830719109343,56800,1.9813946773585371,0.0
284,1.5454869270324707,2.156935077227449,0.9551189176505659,3.1799171873677925,0.5910718892334997,0.0,0.1277476830265181,0.1,0.004981517791748047,0.05628800392150879,0.049769398,0.8186968,1.7576992172419494,0.0,0.04157345106804011,0.0,200,0.04655146598815918,0.2199409430192477,0.2220552106032065,57000,1.8532139423184602,0.0
285,1.5040841102600098,2.015697321473323,1.3397729693392653,3.879521542179316,0.32044107562234747,0.0,0.11758996226034728,0.1,0.004290342330932617,0.054219722747802734,0.04981521,1.6957353,1.783499027665087,0.0,0.03918742668954676,0.0,200,0.050910234451293945,0.3467112125651622,0.33883264423120046,57200,2.0742209091023556,0.0
286,1.5436112880706787,1.245831620479208,0.7628038481662427,2.0968850051738426,0.2075236677142694,0.0,0.12552375149594563,0.1,0.0029938220977783203,0.0526118278503418,0.050215766,0.9458935,1.729732286946499,0.0,0.024521829210182932,0.0,200,0.03378415107727051,0.3810900133718237,0.36693932686782926,57400,1.4351311431147584,0.0
287,1.5752248764038086,2.4038994357578867,0.39187203168297774,2.869197675389809,1.816758914971796,0.0,0.1274024604182861,0.1,0.0033278465270996094,0.05202746391296387,0.049833145,0.7746982,1.7971490018276377,0.0,0.04721951848792325,0.0,200,0.08752727508544922,0.09839317643464615,0.09192044188129171,57600,1.8595498332837612,0.0
288,1.4832496643066406,0.9455806885486489,0.8791200976707437,2.349555630977068,0.11974661474152017,0.0,0.11864139612307008,0.1,0.002969980239868164,0.05470991134643555,0.04953747,1.6228375,1.7119921704997387,0.0,0.018439766569671563,0.0,200,0.04673194885253906,0.7062133197468287,0.6571834797427369,57800,2.2923233992229126,0.0
289,1.4954700469970703,1.9968060255475923,1.1255031555869213,3.2189292778460645,0.20414783777500223,0.0,0.12041736219109808,0.1,0.006962776184082031,0.06527566909790039,0.050143093,0.9110977,1.7404735560045241,0.0,0.03973736442127921,0.0,200,0.05280113220214844,0.26655584566485185,0.2629021873609598,58000,2.6920370689856217,0.0
290,1.5079593658447266,1.7037731004205678,1.2312619020145017,3.5035904537414337,0.2970145099919325,0.0,0.12008235261071996,0.1,0.004672527313232422,0.05353903770446777,0.049965296,1.821119,1.7368035104461286,0.0,0.03347698115050147,0.0,200,0.0322260856628418,0.36281578555269856,0.3592263513978684,58200,2.340719658721754,0.0
291,1.5364246368408203,0.9752672760712611,0.3986875735212429,1.472742202951745,0.4094715321457171,0.0,0.12303955780267672,0.1,0.006742715835571289,0.07567739486694336,0.050225135,0.7010425,1.660649887008642,0.0,0.01894947218708249,0.0,200,0.1127476692199707,0.441407535980173,0.3425632387636618,58400,1.186391482446424,0.0
292,1.5784902572631836,1.8998181400741845,0.6256044427305422,2.4835207499221257,0.8609466091030388,0.0,0.11912033506145027,0.1,0.004686594009399414,0.053734540939331055,0.04975857,1.8900837,1.6845667123151964,0.0,0.0372828037763863,0.0,200,0.04489731788635254,0.13387787204436705,0.14046968671019555,58600,1.6525762155986536,0.0
293,1.5134382247924805,2.880012034867855,0.8835581553504481,3.5650422139657847,1.3646259781474868,0.0,0.12345055142037605,0.1,0.002860546112060547,0.055249691009521484,0.050219003,0.9156758,1.8041112445704623,0.0,0.0561673390498282,0.0,200,0.04019784927368164,0.33226350319837433,0.2828396219188698,58800,1.2422286154647928,0.0
294,1.5445468425750732,1.9902865662780282,1.531355571688259,4.467939172997755,0.7070742749786197,0.0,0.12621393115349128,0.1,0.004879474639892578,0.09276533126831055,0.050121177,1.7160159,1.822728776741219,0.0,0.03905497920453116,0.0,200,0.04660224914550781,0.4004106048728379,0.37841027243427433,59000,1.5058675596785882,0.0
295,1.4895753860473633,1.364864045992944,0.837479950329547,2.581481077207821,0.48478107194775166,0.0,0.11708251636397143,0.1,0.010601043701171875,0.06373739242553711,0.048109423,1.5017334,1.7769423036663916,0.0,0.026618263298094868,0.0,200,0.038405418395996094,0.4716481650354736,0.5128039318501978,59200,2.029796763166232,0.0
296,1.5204849243164062,2.0482495699539776,1.3130944666324582,3.4824512106478616,0.4273954088357897,0.0,0.12159839024509075,0.1,0.004784345626831055,0.08010077476501465,0.049789384,1.0817136,1.8040730302951502,0.0,0.03994532345110895,0.0,200,0.04481029510498047,0.30112553678715687,0.29791559388544425,59400,1.3689863659654227,0.0
297,1.5010356903076172,3.0029661573411457,1.3148166497521603,4.322028145503692,1.4365109045302726,0.0,0.1281031595758677,0.1,0.004868745803833008,0.054253578186035156,0.049925823,1.0682282,1.9239623429997499,0.0,0.05895181466573603,0.0,200,0.05687117576599121,0.268046428486315,0.23485130478717375,59600,1.206828606224305,0.0
298,1.5209813117980957,1.5801119506876595,0.8396178899950004,2.5169650701633195,0.32657599524814296,0.0,0.1248345712573203,0.1,0.005978584289550781,0.07461881637573242,0.04976012,0.84231484,1.8895773037685408,0.0,0.031059296029959438,0.0,200,0.06866931915283203,0.3218235745361515,0.34229019762658436,59800,2.035879997414822,0.0
299,1.5751748085021973,1.2820817728116696,0.7257396578845058,2.3524475721570197,0.5727534136097922,0.0,0.12393070781935232,0.1,0.07882499694824219,0.07709717750549316,0.04994504,2.2163901,1.8288277506728536,0.0,0.025439780396143544,0.0,200,0.042276620864868164,0.8185399932776853,0.5778510970575531,60000,2.1256804618280762,0.0
300,1.5591976642608643,1.34992639437775,0.8837231979447707,2.704881570226975,0.32234977781696705,0.0,0.1253502412634088,0.1,0.002877473831176758,0.05539655685424805,0.050047908,1.0896946,1.7809376150433434,0.0,0.02680997338762443,0.0,200,0.018851041793823242,0.542703774823333,0.37045313180369077,60200,2.1436274573516854,0.0
301,1.5393421649932861,2.25434123794932,1.5424995286918102,4.4761967023428175,0.6096607268504788,0.0,0.12430883289042764,0.1,0.0028471946716308594,0.0532374382019043,0.049943365,1.1487167,1.828277977333941,0.0,0.04368631369622587,0.0,200,0.023685932159423828,0.38205547271077434,0.40550375127164273,60400,1.9662545170511319,0.0
302,1.5687973499298096,1.9682322179239695,0.6491391128438693,2.438001446133601,0.8492817750832015,0.0,0.13012705400306618,0.1,0.004777669906616211,0.06136345863342285,0.049694847,0.96146584,1.8422734013929438,0.0,0.03897381964699341,0.0,200,0.028638124465942383,0.16734695123839868,0.16370795346321282,60600,1.6053952170667516,0.0
303,1.5039358139038086,2.4560912241209603,1.06360518501292,3.679284833769188,1.117105957999425,0.0,0.12631661063990984,0.1,0.00972890853881836,0.052924156188964844,0.049897127,0.9214374,1.9036551836657454,0.0,0.04768835671245447,0.0,200,0.04135537147521973,0.31714561293008353,0.28063621679467765,60800,2.1121279179866357,0.0
304,1.4979579448699951,1.222941906620776,0.9687149411999474,2.7353650085926713,0.35986011849632216,0.0,0.1275693234134715,0.1,0.004616260528564453,0.052834510803222656,0.05057378,1.435093,1.8355838559612485,0.0,0.02436362386427583,0.0,200,0.05577993392944336,0.47175349509523873,0.508168911162237,61000,4.271225282103537,0.0
305,1.5153300762176514,1.709686886926221,1.2498653184819888,3.606771812536926,0.47727706554486804,0.0,0.12513987133701818,0.1,0.0028409957885742188,0.05514049530029297,0.049854472,1.4363656,1.8229941590577456,0.0,0.033591596334781204,0.0,200,0.02218151092529297,0.37770395177123106,0.3748876509293252,61200,2.12353648472798,0.0
306,1.5328590869903564,2.3066024562836422,0.9706443649020033,3.6265731927831037,1.0437564740329428,0.0,0.12474947410123435,0.1,0.005010843276977539,0.07786297798156738,0.049923338,1.2987975,1.8713549887803353,0.0,0.045195745926136933,0.0,200,0.041042327880859375,0.2362171279295511,0.22484806835931206,61400,1.535329134668662,0.0
307,1.5730688571929932,2.8406060562195616,0.6036569200003631,3.8682026046903975,2.358923699012442,0.0,0.11622972812143499,0.1,0.002796173095703125,0.06979823112487793,0.049229644,2.0745907,1.9682800955242579,0.0,0.056308369606022146,0.0,200,0.04314923286437988,0.20407592829851207,0.15935659697161497,61600,1.2515663018907877,0.0
308,1.6358284950256348,2.3609664076960515,1.4684623196957054,3.9775450834756985,0.6572425986715796,0.0,0.12123158014176401,0.1,0.0029888153076171875,0.05581307411193848,0.050275937,1.1594446,2.007548726741437,0.0,0.046366384605134404,0.0,200,0.03452658653259277,0.3456107012952356,0.33279876600989555,61800,1.6921156534118575,0.0
309,1.6054413318634033,1.551910251524787,1.3072550539413854,3.6888873025537294,0.42628727142253436,0.0,0.12967342372808838,0.1,0.0028076171875,0.05286669731140137,0.050180867,1.1837888,1.961984879219772,0.0,0.03040421058126517,0.0,200,0.027779579162597656,0.520233980390888,0.5267085800753554,62000,3.6444431176893812,0.0
310,1.5954041481018066,3.33285069447804,0.8423386162478631,3.9433625860456503,1.8813333396392355,0.0,0.1277606878135445,0.1,0.0057642459869384766,0.05671429634094238,0.049986396,1.1597339,2.099071460745599,0.0,0.06491144451855553,0.0,200,0.035782814025878906,0.14230645119419674,0.11782756485473754,62200,3.435445389030068,0.0
311,1.6003026962280273,1.777246574073095,1.5844241417424374,4.445920004410576,0.5380500415460583,0.0,0.12639860172937428,0.1,0.046713829040527344,0.055397987365722656,0.04993864,1.4613894,2.0668889720783485,0.0,0.034615994237560704,0.0,200,0.09392285346984863,0.5045721617542085,0.5130835355421495,62400,2.191358779362137,0.0
312,1.5657954216003418,1.8845932715679228,1.1908090456250506,3.584278678918728,0.7298422655402884,0.0,0.12593856051802343,0.1,0.02030491828918457,0.057581424713134766,0.04983521,1.712242,2.048659402027306,0.0,0.03737591590132483,0.0,200,0.05661273002624512,0.412959237820922,0.3517691911840247,62600,2.2091612296399337,0.0
313,1.6264069080352783,1.2047903899898014,0.553860946963913,2.008565279201382,0.5474229445616592,0.0,0.12287318318489011,0.1,0.0028269290924072266,0.07227563858032227,0.0493821,1.3705825,1.9642725008235553,0.0,0.02362844075212433,0.0,200,0.058938026428222656,1.1455322628015492,0.6300974706648325,62800,3.0331610065815493,0.0
314,1.620269536972046,0.7504309040082607,0.2813747243271387,1.1492644636770804,0.35668467283705846,0.0,0.13547877043726012,0.1,0.04462695121765137,0.05552244186401367,0.049749676,0.6885708,1.842888341142026,0.0,0.014773848921125429,0.0,200,0.053357601165771484,1.916007801240836,0.8272919588715215,63000,3.0514366032124856,0.0
315,1.4549918174743652,2.5607900702042397,0.8431769424413964,3.67187371362546,1.328649406645699,0.0,0.12783949739325468,0.1,0.0030214786529541016,0.05272483825683594,0.04964117,1.5649765,1.9146785140482474,0.0,0.050658852721452395,0.0,200,0.04868936538696289,0.27835804600804964,0.3270352379507336,63200,2.7485059756876598,0.0
316,1.5051562786102295,2.6277312122616094,1.4759496894366602,4.683076026991815,1.2141698478071015,0.0,0.12131235208897438,0.1,0.0048482418060302734,0.07776021957397461,0.049962014,1.5269564,1.9859837838695837,0.0,0.05171772191250527,0.0,200,0.044895172119140625,0.4466380979782572,0.42513047976115603,63400,3.0026781918952348,0.0
317,1.50636887550354,1.3687180631813636,0.6147006257597802,2.2581788873413435,0.532628391868544,0.0,0.12357974594602977,0.1,0.004776477813720703,0.1040651798248291,0.050063167,1.3523613,1.924257211800762,0.0,0.027100646148096336,0.0,200,0.045627593994140625,0.15355050637926526,0.15919034268630486,63600,2.486227727264142,0.0
318,1.5762100219726562,2.9026937932513563,1.5410378561063653,5.140052365227168,0.927748667561826,0.0,0.12082380552772,0.1,0.0027701854705810547,0.07348465919494629,0.049739,5.3023624,2.022100869945821,0.0,0.05715891889830173,0.0,200,0.03852987289428711,0.4109447180369926,0.35875967644697987,63800,2.733793477272316,0.0
319,1.471186637878418,2.2800001687307456,1.6329353978097174,4.589809127279337,0.6335861945348155,0.0,0.11953505929005769,0.1,0.006770610809326172,0.07780146598815918,0.04967266,1.5064739,2.0478907998243137,0.0,0.043793980080739106,0.0,200,0.054532527923583984,0.39985233053434016,0.3676857228144868,64000,3.387711343855301,0.0
320,1.566310167312622,1.2437093770075827,0.8098334187813393,2.4225473720183377,0.2894877414040674,0.0,0.12415074276129287,0.1,0.0027549266815185547,0.054106712341308594,0.04957499,1.2227564,1.9674726575426407,0.0,0.024181084966124488,0.0,200,0.025006532669067383,0.5948369179168982,0.6487617796677423,64200,3.8295564763999077,0.0
321,1.5809094905853271,2.8257316147669425,1.3173976215170466,4.097877831923547,0.6157493548168489,0.0,0.1232700086793008,0.1,0.002803325653076172,0.055207014083862305,0.04990895,0.941794,2.053298553265071,0.0,0.05506598908804327,0.0,200,0.057193756103515625,0.248853671414597,0.23814940959525838,64400,2.6335340511453214,0.0
322,1.6065278053283691,2.0092494988075185,1.3440535567086065,4.018551973286422,0.6847931329378446,0.0,0.12433190774242223,0.1,0.02093195915222168,0.07571935653686523,0.049810126,1.3085272,2.0488936478193156,0.0,0.0391739159260321,0.0,200,0.06930661201477051,0.32122511063152553,0.32256750492234126,64600,3.0067474064421904,0.0
323,1.54854154586792,2.124469329729128,1.0691976235484242,3.8346373241799676,0.9947466426569073,0.0,0.13079210087910392,0.1,0.011868715286254883,0.07263708114624023,0.05012138,1.167789,2.056451216010297,0.0,0.04165841177129876,0.0,200,0.034815073013305664,0.20627899068752878,0.19873558574603775,64800,4.375552037479614,0.0
324,1.537163496017456,2.8811364049320307,1.324659833714451,4.132093462737533,0.6598512468527089,0.0,0.1289889390071642,0.1,0.002941131591796875,0.054628849029541016,0.049709093,0.79392487,2.1389197349024704,0.0,0.05553274078240563,0.0,200,0.04220461845397949,0.2589070953689245,0.2449083209937318,65000,2.3361460406605814,0.0
325,1.5802044868469238,1.3593110342087134,0.719183522195639,2.4719637182244436,0.49891836832531816,0.0,0.12523244737839764,0.1,0.002721548080444336,0.0779268741607666,0.04963034,1.0301749,2.0609588648330948,0.0,0.026321546524702602,0.0,200,0.045873403549194336,0.6331388513915356,0.5981066254079961,65200,2.157978443097648,0.0
326,1.589531421661377,1.987643844338399,0.36686695440965955,2.5155199434307782,1.4855447158988402,0.0,0.12670752305929453,0.1,0.02766728401184082,0.06525731086730957,0.050202705,1.1757426,2.0536273627836255,0.0,0.0391060597852969,0.0,200,0.02715444564819336,0.23251083634660033,0.15364239805012955,65400,2.0705775979519863,0.0
327,1.612623691558838,2.296078446056941,0.5347595020722109,2.8436361111141757,1.7299928477014084,0.0,0.11981757913487669,0.1,0.004803180694580078,0.0548558235168457,0.050152194,1.2472124,2.077872471110957,0.0,0.045089596125741864,0.0,200,0.03444671630859375,0.11784047751891398,0.12557390776976557,65600,3.355787473933353,0.0
328,1.5788519382476807,1.4387629023624968,1.2263522864008856,3.5160801927668097,0.38579060066669285,0.0,0.12058237694115649,0.1,0.00485992431640625,0.06642007827758789,0.04981402,1.8429037,2.013961514236111,0.0,0.028240824525342628,0.0,200,0.03879070281982422,0.4661780898030194,0.44726111472993096,65800,3.2619605946924284,0.0
329,1.5691964626312256,2.5119418971912237,1.1711011949236396,3.634558760031552,0.6880004392656006,0.0,0.12281871990359651,0.1,0.004599094390869141,0.054618120193481445,0.04991288,0.9790167,2.0637595525316224,0.0,0.04914772295904475,0.0,200,0.04050469398498535,0.29635344489804966,0.29413789403801166,66000,3.760507733973737,0.0
330,1.6304717063903809,0.7842369780839532,0.6386989111435586,1.8757721674192223,0.29459187966988415,0.0,0.12857305043928782,0.1,0.002771139144897461,0.05268359184265137,0.05055043,1.2562463,1.9358072950868557,0.0,0.015598028514873389,0.0,200,0.036134958267211914,1.4363469299199365,1.239426943151487,66200,2.0510600623260227,0.0
331,1.5734443664550781,2.622729244429637,0.5415588252668522,3.259787615652081,2.04105082777553,0.0,0.12013408135240145,0.1,0.002771139144897461,0.05510354042053223,0.049588513,1.1702657,2.004499490021134,0.0,0.0515890060902187,0.0,200,0.03350663185119629,0.17573512256996984,0.18142567908559207,66400,2.273810836238505,0.0
332,2.238945245742798,2.2055194025454754,0.9769001488032767,3.0564110461438885,0.5674778672390712,0.0,0.11948493390743678,0.1,0.004386186599731445,0.11729311943054199,0.04959101,1.0557317,2.024601481273568,0.0,0.04368280274084216,0.0,200,0.08414506912231445,0.1708495219533865,0.15811886669631142,66600,2.2176076215666067,0.0
333,1.4674291610717773,2.3248252043142648,0.8278853514192649,3.034538810391867,0.9180883355589616,0.0,0.12537823329749095,0.1,0.003057241439819336,0.05380082130432129,0.049659394,1.0991286,2.054623853577638,0.0,0.04586280131931576,0.0,200,0.06240344047546387,0.21683649761737614,0.20104288760123315,66800,1.9309346426030185,0.0
334,1.544616937637329,2.5814103388724527,0.4427234815810232,3.0377724790756178,1.866904662931077,0.0,0.12452969912847484,0.1,0.0028662681579589844,0.05363273620605469,0.049757108,1.339926,2.1073025021071197,0.0,0.051097049964459434,0.0,200,0.027141332626342773,0.12363168720624901,0.08539133209970537,67000,3.406552458364461,0.0
335,1.4692082405090332,1.6122411910011751,0.6706387683305284,2.5815321253221986,0.9062999085005379,0.0,0.1229124467771982,0.1,0.0029294490814208984,0.05449271202087402,0.050022647,1.1086268,2.0577963709965252,0.0,0.03175387849085475,0.0,200,0.08338189125061035,0.2822974725499287,0.3079856937881611,67200,2.2841588195272347,0.0
336,1.5499794483184814,2.5092470718118145,0.963064064069211,3.645518165490334,1.1659180508815468,0.0,0.12932285829448223,0.1,0.004784584045410156,0.05936694145202637,0.04959438,0.9832894,2.102941441078054,0.0,0.04867507132888406,0.0,200,0.03701376914978027,0.1823837820237437,0.18052172485181434,67400,3.912412186597722,0.0
337,1.501189947128296,1.9717043298013817,1.1252519418415718,3.519272989364382,0.38075146997379755,0.0,0.1244035642172068,0.1,0.0029113292694091797,0.06393647193908691,0.049790755,0.98430496,2.089817729950387,0.0,0.03880504778571598,0.0,200,0.04896664619445801,0.2915396344492461,0.28509667616267653,67600,2.4824056297398345,0.0
338,1.5679094791412354,2.4402961776799628,0.4901497958879379,2.910571610802729,1.6323955482307482,0.0,0.12639135626774517,0.1,0.004463911056518555,0.05205965042114258,0.050192423,1.0032367,2.1248655747233443,0.0,0.04770592773011225,0.0,200,0.04281425476074219,0.07423583936857864,0.07298627358705742,67800,2.2660341584735866,0.0
339,1.5703463554382324,1.7507100031816343,1.1726622537935585,3.290257000337506,0.08489358944234393,0.0,0.1220483127681209,0.1,0.002866983413696289,0.05524778366088867,0.049543113,1.1725565,2.0874500175691733,0.0,0.034466980141398,0.0,200,0.029678821563720703,0.3654081762602988,0.34908465421973617,68000,3.193886676018342,0.0
340,1.4840383529663086,1.2052046014668836,0.7520238145473908,2.503938984955499,0.7057322452009306,0.0,0.11986414980187031,0.1,0.0047724246978759766,0.09782099723815918,0.049780093,1.6942983,1.9992254759589443,0.0,0.023773991053091623,0.0,200,0.055956363677978516,0.7619412927985776,0.5507518908993629,68200,3.2374378778120896,0.0
341,1.5498876571655273,1.338774434959533,0.36675405646343734,1.698011494989129,0.7268811258261048,0.0,0.12840595813898026,0.1,0.004870176315307617,0.0743398666381836,0.050709125,0.86430216,1.9331803718590033,0.0,0.026418041153883957,0.0,200,0.02766561508178711,0.2573376619609784,0.15582547313548573,68400,3.475596271307525,0.0
342,1.553964376449585,1.647874741175346,0.7706127089099855,2.6568111929470115,0.7224306536745012,0.0,0.12501482370394193,0.1,0.00530695915222168,0.06958675384521484,0.049961068,1.0507699,1.9046498087906376,0.0,0.03222463850298987,0.0,200,0.15582752227783203,0.2155546406982652,0.22708064697653024,68600,2.729344437677043,0.0
343,1.527287483215332,1.8351831088349795,1.5390749569667583,4.34801485525776,0.2194186940725908,0.0,0.13428803175994666,0.1,0.0029976367950439453,0.05412459373474121,0.049837455,1.3603767,1.8977031387950718,0.0,0.035776159283225833,0.0,200,0.04726290702819824,0.5405111574873847,0.5399135162782496,68800,1.7814497551642896,0.0
344,1.5807366371154785,2.5774602292869364,0.7261189386620889,3.4456491309692274,1.4773898306629245,0.0,0.12762106438785312,0.1,0.004700422286987305,0.06669020652770996,0.05006002,1.0617356,1.9656788478442584,0.0,0.0508096069032213,0.0,200,0.04402780532836914,0.2832766839290019,0.24977495166583158,69000,1.9890585160502463,0.0
345,1.5740926265716553,1.6461554678426122,1.2198466963016257,3.4315248424819957,0.3908824777747062,0.0,0.13220585779146718,0.1,0.002790212631225586,0.057955026626586914,0.049868893,1.0926038,1.9337265098440937,0.0,0.03244116479316695,0.0,200,0.03393077850341797,0.3896023404626315,0.3798196867097519,69200,3.63447928903881,0.0
346,1.521040916442871,1.6583326302936239,0.761542153774913,2.7596572696016564,0.8838760953751349,0.0,0.12532104787960566,0.1,0.07677888870239258,0.053533315658569336,0.0495656,1.2093414,1.9061871218890467,0.0,0.03226803465296536,0.0,200,0.08276748657226562,0.1634452720619446,0.16572324495510876,69400,2.2813551309593674,0.0
347,1.5104413032531738,2.0853302411269623,0.8152202568410327,3.300903461800288,1.0073776159994625,0.0,0.1242955993956448,0.1,0.0029449462890625,0.05308413505554199,0.049783856,1.7388337,1.9241014338128384,0.0,0.040969647947020425,0.0,200,0.06285643577575684,0.14782738600976367,0.13542397246973897,69600,2.4930554507618745,0.0
348,1.5331153869628906,2.494041246889944,1.371635157630201,4.022197300850339,1.0150819477409652,0.0,0.12333277617523014,0.1,0.0028066635131835938,0.053643226623535156,0.050117727,1.0579778,1.981095415120549,0.0,0.04812007073226758,0.0,200,0.04226255416870117,0.30986602328378793,0.28652737654604016,69800,2.305923466135589,0.0
349,1.5663187503814697,1.4736402039773084,1.2527862717075595,3.196775421975885,0.2663873294128354,0.0,0.11997433959291676,0.1,0.0030803680419921875,0.05328202247619629,0.04984241,1.4703578,1.9303498940062251,0.0,0.0287235424592852,0.0,200,0.02860426902770996,0.49662361974347224,0.5114235614653609,70000,2.3021873725707773,0.0
350,1.4594194889068604,1.9899443545989974,1.259084736140275,3.6364601674989814,0.2690941858575513,0.0,0.12565309157824478,0.1,0.004931926727294922,0.06661295890808105,0.049617097,1.239104,1.9363093400655025,0.0,0.039349245590316474,0.0,200,0.03091597557067871,0.28727178028911615,0.28329058212548036,70200,3.243431194127228,0.0
351,1.5685572624206543,1.8451794112812685,0.8929708125016906,2.872804851528805,0.45422345957316224,0.0,0.11843762259146447,0.1,0.0027344226837158203,0.055109262466430664,0.050222363,1.0551549,1.927196347187079,0.0,0.03607738400592397,0.0,200,0.04761958122253418,0.1661025303055469,0.16162620339235095,70400,1.0184692128589958,0.0
352,1.4975450038909912,2.9620784988217235,0.4880517730517521,3.33194743331936,2.1238818875627934,0.0,0.11762378854466847,0.1,0.0030014514923095703,0.05510830879211426,0.050151363,1.1334946,2.0306845623505434,0.0,0.05757785902946681,0.0,200,0.10304856300354004,0.17145539304381152,0.15131690086017965,70600,1.2384975693358327,0.0
353,1.522235631942749,2.1537907744537512,1.3253711323756754,4.042882715385576,0.8327449372649041,0.0,0.12408615845974177,0.1,0.0047550201416015625,0.06013226509094238,0.049904104,1.383183,2.042995183560864,0.0,0.04199584373618296,0.0,200,0.024845123291015625,0.2960845051737128,0.29462085189358983,70800,1.2902759152045828,0.0
354,1.6060330867767334,2.0085026519163915,0.938912633786308,3.5754083655231117,1.2101220332388776,0.0,0.12396586150783342,0.1,0.0029921531677246094,0.0548710823059082,0.050032105,3.6918898,2.039545930396417,0.0,0.039184780356219605,0.0,200,0.05642294883728027,0.21383806082371165,0.22119933919839405,71000,1.451620010153551,0.0
355,1.5202744007110596,1.1191524551345262,0.46120304144083385,1.739894677678481,0.6457386164057981,0.0,0.12193368483924526,0.1,0.005019664764404297,0.06174612045288086,0.049990673,1.3265963,1.9475065828702283,0.0,0.021850636423535325,0.0,200,0.038194894790649414,0.8897354698169653,0.6719568907378726,71200,2.4178428953105553,0.0
356,1.5193147659301758,1.6896878840603773,1.0711510005175375,3.329355845498584,0.35837847328757594,0.0,0.13165500697349306,0.1,0.03780388832092285,0.05463409423828125,0.050035425,1.1389067,1.9217247129892432,0.0,0.03289282486958994,0.0,200,0.024136781692504883,0.40058454852498526,0.3576638215347948,71400,2.9833786489864225,0.0
357,1.610069751739502,2.790321555880191,1.1020880605587822,3.9414171276026386,1.0256060523408752,0.0,0.12416433621735931,0.1,0.004921913146972656,0.05708456039428711,0.050136127,0.95836234,2.008584397278338,0.0,0.05456193589584747,0.0,200,0.06284475326538086,0.2170916671329704,0.22488716916293097,71600,1.902679503616393,0.0
358,1.557260274887085,1.5961182944434964,1.1300480247178168,3.120218575509415,0.32971751824355083,0.0,0.12162909467682051,0.1,0.0029075145721435547,0.053339481353759766,0.049722694,1.4759946,1.967337786994854,0.0,0.03138953368018293,0.0,200,0.0503382682800293,0.37572926081952923,0.3637143814228003,71800,1.476567284806838,0.0
359,1.7149720191955566,2.582372162028959,0.6023769411927763,3.4314667023659866,1.7657025786667653,0.0,0.1357106220485418,0.1,0.006843090057373047,0.05693697929382324,0.049647383,0.97177047,2.0288412244982648,0.0,0.0508205816857045,0.0,200,0.015645265579223633,0.16664724277113363,0.1584228544583753,72000,3.3872904040789646,0.0
360,1.6255834102630615,2.4511985616330287,0.5905058294468156,3.3989856349263015,1.8236089243713323,0.0,0.12007631740206012,0.1,0.011942148208618164,0.09161186218261719,0.04961359,1.613727,2.071076958211741,0.0,0.04828940277087922,0.0,200,0.049868106842041016,0.13806209472740547,0.12619015343341694,72200,1.8750314812269684,0.0
361,1.5284490585327148,1.8290513021431691,0.7413606423641602,2.3685464757643375,0.5662963765097553,0.0,0.12227185995969803,0.1,0.0029163360595703125,0.05209517478942871,0.050307583,0.87771654,2.046874392604884,0.0,0.035866322400784745,0.0,200,0.037380218505859375,0.16695038915096092,0.17211168473236604,72400,1.253567689052663,0.0
362,1.5728676319122314,3.290579590588246,0.8514238952574038,3.866888544955059,1.8236786927938167,0.0,0.12628633845660683,0.1,0.002959728240966797,0.05638551712036133,0.049934853,0.9922953,2.1712449124032203,0.0,0.06416095553681042,0.0,200,0.028872013092041016,0.2535420069520766,0.2132881778577306,72600,2.532802163324096,0.0
