Iter | Sampling Pol | Evaluation Pol | Best (Sampled) 
   0  0.02  0.01 -100000000.00 
   1  0.02  0.02  0.02 
   2  0.01  0.02  0.02 
   3  0.01  0.02  0.02 
   4  0.06  0.03  0.02 
   5  0.05  0.04  0.06 
   6  0.03  0.07  0.06 
   7  0.03  0.06  0.06 
   8  0.15  0.07  0.06 
   9  0.06  0.07  0.15 
  10  0.02  0.06  0.15 
  11  0.10  0.06  0.15 
  12  0.08  0.07  0.15 
  13  0.12  0.09  0.15 
  14  0.26  0.11  0.15 
  15  0.04  0.11  0.26 
  16  0.06  0.15  0.26 
  17  0.09  0.27  0.26 
  18  0.30  0.24  0.26 
  19  0.11  0.26  0.30 
  20  0.11  0.43  0.30 
  21  0.08  0.41  0.30 
  22  0.30  0.52  0.30 
  23  0.10  0.45  0.30 
  24  0.28  0.36  0.30 
  25  0.11  0.30  0.30 
  26  0.20  0.43  0.30 
  27  0.09  0.50  0.30 
  28  0.09  0.62  0.30 
  29  0.21  0.53  0.30 
  30  0.15  0.41  0.30 
  31  0.23  0.32  0.30 
  32  0.11  0.39  0.30 
  33  0.32  0.38  0.30 
  34  0.10  0.49  0.32 
  35  0.25  0.66  0.32 
  36  0.24  0.56  0.32 
  37  0.09  0.71  0.32 
  38  0.19  0.73  0.32 
  39  0.16  1.01  0.32 
  40  0.42  1.20  0.32 
  41  0.43  1.07  0.42 
  42  0.19  1.04  0.43 
  43  0.39  0.89  0.43 
  44  0.47  0.89  0.43 
  45  0.22  0.90  0.47 
  46  0.18  0.91  0.47 
  47  0.28  0.82  0.47 
  48  0.64  0.93  0.47 
  49  0.31  0.91  0.64 
  50  0.42  0.78  0.64 
  51  0.44  0.79  0.64 
  52  0.22  0.81  0.64 
  53  0.27  0.86  0.64 
  54  0.52  0.64  0.64 
  55  0.20  0.91  0.64 
  56  0.41  0.97  0.64 
  57  0.27  0.97  0.64 
  58  0.41  0.96  0.64 
  59  0.24  0.83  0.64 
  60  0.15  0.64  0.64 
  61  0.23  0.67  0.64 
  62  0.65  0.85  0.64 
  63  0.39  0.96  0.65 
  64  0.25  0.90  0.65 
  65  0.34  0.82  0.65 
  66  0.52  0.79  0.65 
  67  0.48  0.90  0.65 
  68  0.57  0.74  0.65 
  69  0.52  0.79  0.65 
  70  0.27  0.83  0.65 
  71  0.68  0.80  0.65 
  72  0.83  0.89  0.68 
  73  0.53  0.81  0.83 
  74  0.58  0.84  0.83 
  75  0.44  0.97  0.83 
  76  0.62  0.70  0.83 
  77  0.57  0.73  0.83 
  78  0.31  0.86  0.83 
  79  0.43  0.41  0.83 
  80  0.43  0.47  0.83 
  81  0.61  0.69  0.83 
  82  0.41  0.84  0.83 
  83  0.50  0.44  0.83 
  84  0.43  0.77  0.83 
  85  0.89  0.92  0.83 
  86  0.81  1.09  0.89 
  87  0.49  1.05  0.89 
  88  0.68  0.81  0.89 
  89  0.89  1.04  0.89 
  90  0.59  1.11  0.89 
  91  0.46  1.24  0.89 
  92  0.80  1.09  0.89 
  93  0.65  0.91  0.89 
  94  0.91  1.13  0.89 
  95  0.59  0.87  0.91 
  96  0.87  0.86  0.91 
  97  0.82  0.81  0.91 
  98  0.77  0.74  0.91 
  99  0.83  0.79  0.91 
 100  0.52  0.82  0.91 
 101  0.32  0.74  0.91 
 102  0.89  0.83  0.91 
 103  0.65  0.95  0.91 
 104  0.81  0.93  0.91 
 105  0.51  0.82  0.91 
 106  0.53  0.93  0.91 
 107  0.88  0.87  0.91 
 108  0.71  0.81  0.91 
 109  0.58  0.96  0.91 
 110  0.84  0.97  0.91 
 111  0.83  1.72  0.91 
 112  0.70  1.55  0.91 
 113  0.57  1.17  0.91 
 114  1.11  1.17  0.91 
 115  0.98  1.13  1.11 
 116  0.69  1.26  1.11 
 117  0.77  1.04  1.11 
 118  0.70  1.15  1.11 
 119  0.70  1.10  1.11 
 120  0.91  1.10  1.11 
 121  0.96  1.18  1.11 
 122  0.84  1.34  1.11 
 123  0.46  0.71  1.11 
 124  0.85  1.06  1.11 
 125  0.85  1.32  1.11 
 126  0.58  0.46  1.11 
 127  1.10  0.39  1.11 
 128  1.24  0.68  1.11 
 129  0.79  0.80  1.24 
 130  1.08  1.05  1.24 
 131  1.02  0.83  1.24 
 132  0.56  1.13  1.24 
 133  1.21  0.75  1.24 
 134  0.80  0.82  1.24 
 135  0.75  0.75  1.24 
 136  0.93  0.42  1.24 
 137  0.76  0.72  1.24 
 138  0.75  0.89  1.24 
 139  0.72  1.52  1.24 
 140  1.08  1.83  1.24 
 141  0.78  2.14  1.24 
 142  0.55  1.64  1.24 
 143  0.72  1.88  1.24 
 144  1.00  2.06  1.24 
 145  0.80  0.70  1.24 
 146  0.82  0.97  1.24 
 147  0.53  1.11  1.24 
 148  0.75  1.17  1.24 
 149  1.29  0.39  1.24 
 150  0.57  0.83  1.29 
 151  1.17  0.97  1.29 
 152  1.11  1.79  1.29 
 153  1.18  1.80  1.29 
 154  0.67  1.62  1.29 
 155  0.63  1.38  1.29 
 156  1.23  1.69  1.29 
 157  0.90  1.09  1.29 
 158  0.77  1.49  1.29 
 159  0.61  1.76  1.29 
 160  1.21  0.91  1.29 
 161  1.08  1.42  1.29 
 162  0.93  1.07  1.29 
 163  1.03  2.43  1.29 
 164  0.95  1.04  1.29 
 165  1.29  0.36  1.29 
 166  0.94  0.26  1.29 
 167  0.77  0.08  1.29 
 168  0.92  0.22  1.29 
 169  1.27  0.43  1.29 
 170  1.27  0.48  1.29 
 171  0.72  1.34  1.29 
 172  1.13  1.49  1.29 
 173  1.55  1.35  1.29 
 174  1.25  0.71  1.55 
 175  1.18  1.48  1.55 
 176  1.15  0.82  1.55 
 177  0.84  1.01  1.55 
 178  1.00  1.38  1.55 
 179  1.40  2.25  1.55 
 180  1.10  1.09  1.55 
 181  1.01  0.91  1.55 
 182  0.85  0.96  1.55 
 183  0.69  0.34  1.55 
 184  0.71  0.34  1.55 
 185  1.01  0.26  1.55 
 186  1.23  0.29  1.55 
 187  1.17  0.35  1.55 
 188  1.45  0.28  1.55 
 189  1.40  0.16  1.55 
 190  1.14  0.21  1.55 
 191  1.20  0.27  1.55 
 192  0.84  0.19  1.55 
 193  1.64  0.31  1.55 
 194  1.21  0.31  1.64 
 195  0.78  0.35  1.64 
 196  0.92  0.64  1.64 
 197  1.40  0.83  1.64 
 198  1.08  0.83  1.64 
 199  0.92  0.77  1.64 
 200  1.09  0.72  1.64 
 201  1.26  0.78  1.64 
 202  1.21  0.96  1.64 
 203  0.70  1.12  1.64 
 204  1.53  1.17  1.64 
 205  0.98  0.87  1.64 
 206  0.88  0.88  1.64 
 207  0.57  0.65  1.64 
 208  1.41  1.73  1.64 
 209  1.01  0.84  1.64 
 210  1.21  1.48  1.64 
 211  1.33  0.82  1.64 
 212  1.05  0.77  1.64 
 213  1.01  0.93  1.64 
 214  0.81  1.58  1.64 
 215  1.54  1.90  1.64 
 216  0.88  1.98  1.64 
 217  1.30  1.23  1.64 
 218  0.65  1.71  1.64 
 219  1.10  1.82  1.64 
 220  0.96  1.60  1.64 
 221  0.44  1.79  1.64 
 222  1.30  1.75  1.64 
 223  1.40  1.15  1.64 
 224  1.16  1.46  1.64 
 225  1.33  1.52  1.64 
 226  1.01  1.64  1.64 
 227  0.93  0.77  1.64 
 228  0.76  0.67  1.64 
 229  1.09  0.46  1.64 
 230  0.77  0.16  1.64 
 231  0.54  0.21  1.64 
 232  1.53  0.26  1.64 
 233  1.00  0.26  1.64 
 234  1.32  0.19  1.64 
 235  0.76  0.27  1.64 
 236  0.84  0.27  1.64 
 237  0.90  0.28  1.64 
 238  1.16  0.55  1.64 
 239  1.11  0.33  1.64 
 240  1.48  0.33  1.64 
 241  1.17  0.35  1.64 
 242  1.22  0.46  1.64 
 243  1.45  1.95  1.64 
 244  1.14  1.13  1.64 
 245  0.91  2.04  1.64 
 246  1.00  0.99  1.64 
 247  1.38  1.03  1.64 
 248  1.23  1.16  1.64 
 249  0.50  2.03  1.64 
 250  1.18  2.44  1.64 
 251  1.04  1.80  1.64 
 252  1.35  2.41  1.64 
 253  1.09  2.34  1.64 
 254  0.92  1.86  1.64 
 255  0.70  1.40  1.64 
 256  1.16  1.91  1.64 
 257  1.02  2.00  1.64 
 258  1.13  1.71  1.64 
 259  0.81  1.53  1.64 
 260  1.10  1.59  1.64 
 261  1.21  1.60  1.64 
 262  1.43  1.15  1.64 
 263  1.31  0.34  1.64 
 264  1.82  0.56  1.64 
 265  1.38  1.15  1.82 
 266  1.76  0.93  1.82 
 267  0.71  0.36  1.82 
 268  1.64  0.32  1.82 
 269  0.83  0.44  1.82 
 270  0.62  0.28  1.82 
 271  1.56  0.27  1.82 
 272  1.00  0.40  1.82 
 273  1.39  0.48  1.82 
 274  1.56  1.05  1.82 
 275  1.29  0.29  1.82 
 276  1.63  0.47  1.82 
 277  1.37  1.83  1.82 
 278  0.92  1.70  1.82 
 279  1.53  0.98  1.82 
 280  1.23  0.32  1.82 
 281  0.82  1.46  1.82 
 282  1.51  0.27  1.82 
 283  1.47  0.12  1.82 
 284  1.29  0.29  1.82 
 285  1.25  0.57  1.82 
 286  1.63  0.45  1.82 
 287  1.07  0.31  1.82 
 288  1.28  0.24  1.82 
 289  1.02  0.36  1.82 
 290  1.07  0.29  1.82 
 291  1.24  0.20  1.82 
 292  1.18  0.38  1.82 
 293  1.56  0.36  1.82 
 294  1.47  0.36  1.82 
 295  0.79  0.25  1.82 
 296  1.06  0.22  1.82 
 297  1.33  0.23  1.82 
 298  1.04  0.29  1.82 
 299  1.04  0.34  1.82 
 300  1.12  0.30  1.82 
 301  1.13  0.57  1.82 
 302  1.32  0.68  1.82 
 303  1.67  0.46  1.82 
 304  1.21  0.77  1.82 
 305  1.15  0.74  1.82 
 306  1.02  0.65  1.82 
 307  1.40  1.02  1.82 
 308  1.55  0.76  1.82 
 309  1.45  0.86  1.82 
 310  1.16  0.51  1.82 
 311  1.17  0.12  1.82 
 312  1.50  0.29  1.82 
 313  1.15  0.43  1.82 
 314  1.32  0.49  1.82 
 315  0.87  0.31  1.82 
 316  1.55  0.45  1.82 
 317  1.28  0.18  1.82 
 318  1.44  0.15  1.82 
 319  1.29  0.41  1.82 
 320  0.98  0.86  1.82 
 321  1.58  0.67  1.82 
 322  1.82  0.78  1.82 
 323  1.42  0.76  1.82 
 324  1.29  1.02  1.82 
 325  1.70  1.19  1.82 
 326  1.54  1.69  1.82 
 327  1.06  1.36  1.82 
 328  1.54  0.45  1.82 
 329  1.56  0.27  1.82 
 330  1.86  0.19  1.82 
 331  1.09  0.33  1.86 
 332  1.61  0.26  1.86 
 333  1.34  0.27  1.86 
 334  1.24  0.27  1.86 
 335  1.53  0.16  1.86 
 336  1.56  0.19  1.86 
 337  1.56  0.22  1.86 
 338  0.79  0.25  1.86 
 339  1.75  0.10  1.86 
 340  1.41  0.11  1.86 
 341  1.42  0.42  1.86 
 342  1.53  0.20  1.86 
 343  1.68  0.20  1.86 
 344  1.52  0.12  1.86 
 345  1.14  0.29  1.86 
 346  1.34  0.44  1.86 
 347  1.53  0.51  1.86 
 348  1.06  0.51  1.86 
 349  1.53  0.36  1.86 
 350  1.36  0.38  1.86 
 351  1.23  0.50  1.86 
 352  1.28  0.46  1.86 
 353  1.57  0.58  1.86 
 354  1.70  0.40  1.86 
 355  1.49  0.49  1.86 
 356  1.12  0.48  1.86 
 357  1.32  0.84  1.86 
 358  1.33  0.61  1.86 
 359  1.79  0.62  1.86 
 360  1.85  0.60  1.86 
 361  1.02  0.51  1.86 
 362  1.50  0.30  1.86 
 363  1.22  0.90  1.86 
 364  1.27  1.38  1.86 
 365  1.69  1.07  1.86 
 366  1.85  0.89  1.86 
 367  1.87  1.57  1.86 
 368  1.81  1.57  1.87 
 369  1.04  2.25  1.87 
 370  1.87  2.23  1.87 
 371  1.81  2.08  1.87 
 372  1.26  2.27  1.87 
 373  2.01  1.32  1.87 
 374  1.81  1.38  2.01 
 375  1.30  0.92  2.01 
 376  1.52  1.67  2.01 
 377  1.73  0.62  2.01 
 378  1.84  1.23  2.01 
 379  1.00  0.84  2.01 
 380  0.91  1.98  2.01 
 381  1.39  1.97  2.01 
 382  0.93  1.39  2.01 
 383  1.31  0.81  2.01 
 384  1.27  0.94  2.01 
 385  1.09  0.78  2.01 
 386  1.63  1.41  2.01 
 387  1.08  1.53  2.01 
 388  1.72  0.96  2.01 
 389  1.00  0.92  2.01 
 390  0.92  0.72  2.01 
 391  1.07  0.79  2.01 
 392  1.41  0.75  2.01 
 393  1.09  1.28  2.01 
 394  1.15  1.18  2.01 
 395  1.02  0.11  2.01 
 396  1.62  0.64  2.01 
 397  1.88  0.23  2.01 
 398  1.25  0.20  2.01 
 399  1.04  0.08  2.01 
 400  1.35  1.32  2.01 
 401  1.49  1.40  2.01 
 402  1.56  1.30  2.01 
 403  1.64  0.65  2.01 
 404  1.53  0.43  2.01 
 405  1.24  1.25  2.01 
 406  1.98  1.20  2.01 
 407  1.98  0.08  2.01 
 408  1.93  1.94  2.01 
 409  1.24  0.58  2.01 
 410  0.97  0.09  2.01 
 411  1.67  0.10  2.01 
 412  1.77  1.73  2.01 
 413  0.80  1.44  2.01 
 414  1.31  1.40  2.01 
 415  1.96  1.42  2.01 
 416  1.09  0.73  2.01 
 417  1.66  1.62  2.01 
 418  0.99  1.60  2.01 
 419  1.43  1.75  2.01 
 420  1.05  1.72  2.01 
 421  1.43  1.65  2.01 
 422  1.71  1.57  2.01 
 423  1.43  1.68  2.01 
 424  0.90  1.60  2.01 
 425  1.60  1.33  2.01 
 426  1.74  1.77  2.01 
 427  1.61  1.35  2.01 
 428  1.25  1.87  2.01 
 429  0.84  1.16  2.01 
 430  1.19  1.50  2.01 
 431  1.65  1.20  2.01 
 432  1.22  1.61  2.01 
 433  1.42  2.09  2.01 
 434  1.59  1.37  2.01 
 435  1.57  1.37  2.01 
 436  0.88  1.84  2.01 
 437  1.26  1.46  2.01 
 438  1.20  1.69  2.01 
 439  1.08  1.82  2.01 
 440  1.39  2.40  2.01 
 441  1.45  2.15  2.01 
 442  1.38  2.19  2.01 
 443  1.27  2.14  2.01 
 444  1.84  1.31  2.01 
 445  1.44  2.26  2.01 
 446  1.56  2.25  2.01 
 447  2.00  1.22  2.01 
 448  1.76  1.10  2.01 
 449  1.40  2.20  2.01 
 450  1.61  1.17  2.01 
 451  1.60  2.38  2.01 
 452  1.20  2.33  2.01 
 453  1.39  2.43  2.01 
 454  1.17  2.36  2.01 
 455  1.81  2.22  2.01 
 456  1.06  2.39  2.01 
 457  1.57  2.08  2.01 
 458  0.82  2.35  2.01 
 459  1.44  1.78  2.01 
 460  1.77  2.07  2.01 
 461  1.15  2.23  2.01 
 462  1.99  1.94  2.01 
 463  1.65  2.11  2.01 
 464  1.58  2.00  2.01 
 465  1.78  2.36  2.01 
 466  1.57  1.87  2.01 
 467  1.45  2.04  2.01 
 468  1.74  1.47  2.01 
 469  1.47  2.01  2.01 
 470  1.59  1.66  2.01 
 471  1.15  2.03  2.01 
 472  1.96  1.67  2.01 
 473  1.55  1.88  2.01 
 474  1.73  1.65  2.01 
 475  1.86  1.60  2.01 
 476  2.09  2.42  2.01 
 477  1.00  1.61  2.09 
 478  1.56  1.76  2.09 
 479  1.32  1.69  2.09 
 480  1.09  2.19  2.09 
 481  1.43  2.20  2.09 
 482  1.69  2.08  2.09 
 483  1.65  1.84  2.09 
 484  1.37  2.36  2.09 
 485  2.07  2.21  2.09 
 486  1.70  2.49  2.09 
 487  1.55  1.59  2.09 
 488  1.43  1.31  2.09 
 489  1.92  1.77  2.09 
 490  1.78  2.26  2.09 
 491  1.18  2.33  2.09 
 492  1.39  1.71  2.09 
 493  1.44  2.19  2.09 
 494  1.66  2.09  2.09 
 495  1.56  2.15  2.09 
 496  1.78  1.30  2.09 
 497  1.93  2.20  2.09 
 498  1.98  2.34  2.09 
 499  1.58  2.37  2.09 
 500  1.91  2.22  2.09 
 501  1.88  2.17  2.09 
 502  1.60  1.66  2.09 
 503  1.91  2.33  2.09 
 504  1.62  1.72  2.09 
 505  1.63  2.31  2.09 
 506  1.38  2.00  2.09 
 507  1.47  1.30  2.09 
 508  1.95  0.56  2.09 
 509  1.46  0.97  2.09 
 510  1.45  0.76  2.09 
 511  1.69  1.33  2.09 
 512  1.71  0.78  2.09 
 513  1.71  2.39  2.09 
 514  1.48  1.24  2.09 
 515  1.29  1.93  2.09 
 516  1.35  1.20  2.09 
 517  1.99  1.24  2.09 
 518  1.38  2.62  2.09 
 519  1.49  2.05  2.09 
 520  1.99  2.14  2.09 
 521  1.75  1.41  2.09 
 522  1.38  1.18  2.09 
 523  1.56  0.56  2.09 
 524  1.32  1.75  2.09 
 525  1.50  2.15  2.09 
 526  1.64  1.61  2.09 
 527  1.14  1.42  2.09 
 528  1.57  0.93  2.09 
 529  1.19  2.46  2.09 
 530  1.47  1.91  2.09 
 531  1.59  1.88  2.09 
 532  1.62  2.47  2.09 
 533  1.79  1.86  2.09 
 534  1.36  2.29  2.09 
 535  1.47  2.27  2.09 
 536  1.88  0.89  2.09 
 537  1.97  2.29  2.09 
 538  2.02  2.23  2.09 
 539  1.66  0.48  2.09 
 540  1.47  2.23  2.09 
 541  1.13  2.20  2.09 
 542  1.35  2.34  2.09 
 543  1.51  0.70  2.09 
 544  1.91  1.82  2.09 
 545  1.71  0.92  2.09 
 546  1.86  1.96  2.09 
 547  1.77  2.07  2.09 
 548  1.92  1.43  2.09 
 549  1.24  0.78  2.09 
 550  1.67  2.11  2.09 
 551  1.22  2.00  2.09 
 552  1.75  2.24  2.09 
 553  1.60  2.27  2.09 
 554  1.63  2.10  2.09 
 555  1.72  2.18  2.09 
 556  2.06  2.22  2.09 
 557  2.06  2.34  2.09 
 558  1.26  2.24  2.09 
 559  0.73  2.01  2.09 
 560  1.60  2.39  2.09 
 561  1.40  2.18  2.09 
 562  1.65  1.96  2.09 
 563  1.62  1.54  2.09 
 564  1.43  2.15  2.09 
 565  1.30  1.70  2.09 
 566  1.75  1.95  2.09 
 567  1.75  2.42  2.09 
 568  1.56  1.93  2.09 
 569  1.08  2.42  2.09 
 570  1.81  2.59  2.09 
 571  1.43  2.36  2.09 
 572  1.37  2.24  2.09 
 573  1.46  1.86  2.09 
 574  1.71  1.90  2.09 
 575  1.26  2.34  2.09 
 576  1.51  2.01  2.09 
 577  1.98  1.85  2.09 
 578  1.34  1.59  2.09 
 579  1.06  1.65  2.09 
 580  1.87  0.88  2.09 
 581  1.41  1.12  2.09 
 582  1.28  0.76  2.09 
 583  1.59  1.18  2.09 
 584  1.40  1.36  2.09 
 585  1.30  1.73  2.09 
 586  1.60  1.72  2.09 
 587  1.12  1.25  2.09 
 588  1.83  1.69  2.09 
 589  1.78  1.46  2.09 
 590  1.07  1.22  2.09 
 591  1.68  1.71  2.09 
 592  1.53  1.88  2.09 
 593  1.54  2.00  2.09 
 594  1.81  1.79  2.09 
 595  1.41  2.12  2.09 
 596  1.10  2.15  2.09 
 597  1.79  2.09  2.09 
 598  1.51  2.21  2.09 
 599  1.33  2.03  2.09 
 600  1.53  2.10  2.09 
 601  1.31  2.18  2.09 
 602  1.33  2.19  2.09 
 603  1.38  2.06  2.09 
 604  1.45  2.28  2.09 
 605  1.96  1.90  2.09 
 606  1.76  2.07  2.09 
 607  1.75  2.03  2.09 
 608  1.21  2.18  2.09 
 609  1.27  2.26  2.09 
 610  1.63  1.71  2.09 
 611  2.03  1.80  2.09 
 612  1.77  1.64  2.09 
 613  1.32  1.81  2.09 
 614  1.69  1.88  2.09 
 615  1.23  1.11  2.09 
 616  1.87  0.65  2.09 
 617  1.90  1.18  2.09 
 618  1.20  1.90  2.09 
 619  1.86  1.65  2.09 
 620  1.69  1.97  2.09 
 621  1.78  2.16  2.09 
 622  1.46  1.51  2.09 
 623  1.72  1.68  2.09 
 624  1.89  1.94  2.09 
 625  1.89  1.65  2.09 
 626  1.29  1.96  2.09 
 627  1.35  2.08  2.09 
 628  1.82  2.10  2.09 
 629  1.50  2.09  2.09 
 630  1.84  1.74  2.09 
 631  1.49  2.10  2.09 
 632  1.49  2.20  2.09 
 633  1.70  2.33  2.09 
 634  1.65  1.57  2.09 
 635  1.70  1.20  2.09 
 636  2.14  2.50  2.09 
 637  1.98  2.61  2.14 
 638  1.23  2.53  2.14 
 639  1.64  1.78  2.14 
 640  1.92  2.56  2.14 
 641  1.79  1.78  2.14 
 642  1.17  2.33  2.14 
 643  1.87  2.45  2.14 
 644  1.80  2.25  2.14 
 645  1.85  2.31  2.14 
 646  1.87  2.64  2.14 
 647  1.56  2.42  2.14 
 648  1.66  2.29  2.14 
 649  2.05  2.35  2.14 
 650  1.68  2.46  2.14 
 651  2.18  2.43  2.14 
 652  1.44  2.28  2.18 
 653  1.53  2.32  2.18 
 654  1.21  2.44  2.18 
 655  1.89  2.18  2.18 
 656  1.78  2.50  2.18 
 657  1.24  2.13  2.18 
 658  1.70  2.14  2.18 
 659  1.49  2.43  2.18 
 660  1.86  2.27  2.18 
 661  1.79  2.34  2.18 
 662  2.12  2.35  2.18 
 663  1.60  1.84  2.18 
 664  1.36  2.26  2.18 
 665  1.59  2.18  2.18 
 666  1.57  2.17  2.18 
 667  1.20  1.56  2.18 
 668  1.39  2.13  2.18 
 669  1.86  2.11  2.18 
 670  1.71  1.73  2.18 
 671  1.34  2.15  2.18 
 672  1.24  2.16  2.18 
 673  1.78  2.00  2.18 
 674  2.12  2.27  2.18 
 675  1.54  2.15  2.18 
 676  1.65  1.80  2.18 
 677  1.54  2.23  2.18 
 678  1.88  2.32  2.18 
 679  1.76  2.21  2.18 
 680  1.63  1.78  2.18 
 681  1.96  2.13  2.18 
 682  1.52  2.35  2.18 
 683  1.74  1.99  2.18 
 684  1.96  1.84  2.18 
 685  1.87  2.01  2.18 
 686  1.66  2.02  2.18 
 687  1.50  1.78  2.18 
 688  1.58  2.22  2.18 
 689  1.86  2.02  2.18 
 690  1.60  2.02  2.18 
 691  1.82  2.03  2.18 
 692  1.83  1.80  2.18 
 693  1.58  1.57  2.18 
 694  1.78  2.11  2.18 
 695  1.76  1.90  2.18 
 696  1.77  2.17  2.18 
 697  1.71  1.72  2.18 
 698  1.15  1.92  2.18 
 699  1.97  2.06  2.18 
 700  1.61  1.99  2.18 
 701  2.03  2.18  2.18 
 702  1.47  2.35  2.18 
 703  1.73  2.30  2.18 
 704  1.58  2.08  2.18 
 705  1.49  1.92  2.18 
 706  2.03  2.11  2.18 
 707  1.89  2.16  2.18 
 708  1.69  2.32  2.18 
 709  1.24  1.79  2.18 
 710  1.83  2.13  2.18 
 711  1.81  2.09  2.18 
 712  1.94  2.34  2.18 
 713  2.01  2.46  2.18 
 714  1.54  2.00  2.18 
 715  1.76  2.09  2.18 
 716  1.86  2.03  2.18 
 717  1.81  1.84  2.18 
 718  1.53  1.85  2.18 
 719  1.48  1.88  2.18 
 720  1.31  2.04  2.18 
 721  1.93  1.97  2.18 
 722  1.72  2.11  2.18 
 723  1.88  1.60  2.18 
 724  1.25  1.88  2.18 
 725  1.84  1.72  2.18 
 726  1.57  1.55  2.18 
 727  1.63  1.93  2.18 
 728  1.77  1.91  2.18 
 729  1.58  1.88  2.18 
 730  1.93  2.06  2.18 
 731  1.88  1.78  2.18 
 732  1.84  1.75  2.18 
 733  1.83  1.78  2.18 
 734  1.69  1.76  2.18 
 735  1.31  1.37  2.18 
 736  1.89  1.20  2.18 
 737  1.81  1.00  2.18 
 738  1.70  1.63  2.18 
 739  1.87  1.04  2.18 
 740  1.29  1.15  2.18 
 741  1.30  1.35  2.18 
 742  1.26  1.70  2.18 
 743  2.00  1.92  2.18 
 744  1.77  1.66  2.18 
 745  1.97  1.71  2.18 
 746  2.05  1.58  2.18 
 747  1.83  1.28  2.18 
 748  1.60  1.22  2.18 
 749  1.73  1.79  2.18 
 750  1.94  1.65  2.18 
 751  1.77  1.40  2.18 
 752  1.88  1.30  2.18 
 753  1.94  1.36  2.18 
 754  1.94  1.55  2.18 
 755  1.74  1.86  2.18 
 756  1.92  2.18  2.18 
 757  1.67  1.82  2.18 
 758  1.83  1.58  2.18 
 759  1.44  1.65  2.18 
 760  1.59  1.62  2.18 
 761  1.17  1.51  2.18 
 762  1.38  2.16  2.18 
 763  1.49  2.10  2.18 
 764  1.94  2.05  2.18 
 765  1.76  2.10  2.18 
 766  2.11  2.07  2.18 
 767  1.60  2.01  2.18 
 768  1.70  1.36  2.18 
 769  1.56  2.05  2.18 
 770  1.90  2.09  2.18 
 771  1.91  2.15  2.18 
 772  1.86  2.13  2.18 
 773  1.79  2.00  2.18 
 774  1.95  2.39  2.18 
 775  2.02  2.16  2.18 
 776  2.07  2.16  2.18 
 777  1.99  2.07  2.18 
 778  1.67  2.09  2.18 
 779  1.65  2.05  2.18 
 780  1.61  2.39  2.18 
 781  1.53  2.28  2.18 
 782  2.01  2.03  2.18 
 783  1.73  1.86  2.18 
 784  1.86  2.10  2.18 
 785  2.13  1.41  2.18 
 786  2.15  1.14  2.18 
 787  1.99  2.01  2.18 
 788  1.51  1.78  2.18 
 789  1.85  1.82  2.18 
 790  1.86  2.07  2.18 
 791  2.11  2.03  2.18 
 792  1.90  2.14  2.18 
 793  2.13  1.58  2.18 
 794  1.95  1.36  2.18 
 795  1.44  1.44  2.18 
 796  1.82  1.58  2.18 
 797  2.05  1.93  2.18 
 798  1.79  1.89  2.18 
 799  1.83  0.98  2.18 
 800  1.54  1.93  2.18 
 801  1.93  2.22  2.18 
 802  1.94  2.08  2.18 
 803  2.04  0.85  2.18 
 804  1.35  0.91  2.18 
 805  1.84  0.91  2.18 
 806  1.76  1.11  2.18 
 807  2.06  0.82  2.18 
 808  1.62  1.19  2.18 
 809  1.64  1.37  2.18 
 810  1.63  0.71  2.18 
 811  2.09  1.53  2.18 
 812  1.31  1.60  2.18 
 813  1.03  1.64  2.18 
 814  1.78  2.19  2.18 
 815  1.35  1.56  2.18 
 816  1.67  1.78  2.18 
 817  2.06  1.12  2.18 
 818  1.99  1.74  2.18 
 819  1.78  1.74  2.18 
 820  1.70  2.03  2.18 
 821  1.95  1.89  2.18 
 822  1.92  2.05  2.18 
 823  1.52  1.93  2.18 
 824  1.98  1.87  2.18 
 825  1.62  2.37  2.18 
 826  1.82  1.66  2.18 
 827  1.92  1.43  2.18 
 828  1.69  2.11  2.18 
 829  1.75  1.85  2.18 
 830  1.22  2.11  2.18 
 831  1.65  2.47  2.18 
 832  1.22  2.41  2.18 
 833  1.54  1.64  2.18 
 834  1.79  2.20  2.18 
 835  2.10  2.41  2.18 
 836  2.03  2.10  2.18 
 837  1.85  1.68  2.18 
 838  1.81  2.24  2.18 
 839  1.17  1.75  2.18 
 840  1.63  2.04  2.18 
 841  1.75  2.17  2.18 
 842  1.79  1.40  2.18 
 843  1.58  1.08  2.18 
 844  1.49  0.89  2.18 
 845  1.49  2.22  2.18 
 846  1.68  2.02  2.18 
 847  2.05  1.84  2.18 
 848  1.71  0.95  2.18 
 849  1.82  1.98  2.18 
 850  1.79  1.23  2.18 
 851  1.37  1.24  2.18 
 852  2.19  2.33  2.18 
 853  1.78  2.05  2.19 
 854  1.68  2.29  2.19 
 855  0.97  2.00  2.19 
 856  1.73  2.25  2.19 
 857  1.78  2.18  2.19 
 858  1.62  1.99  2.19 
 859  1.69  2.07  2.19 
 860  1.71  2.36  2.19 
 861  1.71  2.29  2.19 
 862  1.37  2.21  2.19 
 863  1.60  2.41  2.19 
 864  1.82  1.67  2.19 
 865  1.86  1.47  2.19 
 866  1.74  2.20  2.19 
 867  1.87  2.10  2.19 
 868  1.80  1.80  2.19 
 869  1.18  2.59  2.19 
 870  1.35  1.27  2.19 
 871  2.14  1.87  2.19 
 872  1.90  2.27  2.19 
 873  1.33  2.18  2.19 
 874  1.37  2.10  2.19 
 875  1.56  2.18  2.19 
 876  1.94  2.04  2.19 
 877  1.83  1.81  2.19 
 878  1.50  1.48  2.19 
 879  1.62  1.76  2.19 
 880  1.68  1.33  2.19 
 881  1.58  1.36  2.19 
 882  1.97  1.71  2.19 
 883  1.46  1.93  2.19 
 884  1.86  1.25  2.19 
 885  2.01  1.47  2.19 
 886  1.84  1.71  2.19 
 887  1.85  1.78  2.19 
 888  2.00  1.50  2.19 
 889  1.68  2.14  2.19 
 890  1.47  1.57  2.19 
 891  2.17  1.67  2.19 
 892  2.16  1.86  2.19 
 893  1.58  2.25  2.19 
 894  2.05  1.49  2.19 
 895  2.14  1.87  2.19 
 896  1.14  1.98  2.19 
 897  1.43  1.77  2.19 
 898  1.72  1.57  2.19 
 899  1.99  2.20  2.19 
 900  1.52  1.75  2.19 
 901  1.88  1.99  2.19 
 902  2.06  1.72  2.19 
 903  1.49  1.71  2.19 
 904  2.14  2.19  2.19 
 905  1.97  0.99  2.19 
 906  1.59  1.52  2.19 
 907  1.61  2.03  2.19 
 908  2.23  1.56  2.19 
 909  1.84  1.82  2.23 
 910  1.84  1.43  2.23 
 911  1.97  1.82  2.23 
 912  1.79  1.96  2.23 
 913  1.02  1.89  2.23 
 914  2.07  1.84  2.23 
 915  2.10  1.33  2.23 
 916  1.31  0.90  2.23 
 917  1.56  1.70  2.23 
 918  1.71  1.20  2.23 
 919  1.73  1.43  2.23 
 920  0.94  1.86  2.23 
 921  1.40  1.91  2.23 
 922  1.96  1.79  2.23 
 923  1.57  1.38  2.23 
 924  2.29  1.60  2.23 
 925  2.13  1.61  2.29 
 926  1.42  1.70  2.29 
 927  1.69  1.83  2.29 
 928  1.46  1.99  2.29 
 929  1.29  2.18  2.29 
 930  2.01  2.35  2.29 
 931  1.74  2.25  2.29 
 932  1.73  2.23  2.29 
 933  1.65  2.25  2.29 
 934  1.27  1.49  2.29 
 935  1.84  2.17  2.29 
 936  1.84  2.26  2.29 
 937  1.61  2.13  2.29 
 938  1.90  2.10  2.29 
 939  1.53  1.92  2.29 
 940  1.96  2.30  2.29 
 941  1.82  2.39  2.29 
 942  1.30  2.25  2.29 
 943  2.15  2.14  2.29 
 944  1.34  2.36  2.29 
 945  1.70  2.12  2.29 
 946  1.72  1.85  2.29 
 947  1.39  1.94  2.29 
 948  1.88  2.03  2.29 
 949  1.92  2.15  2.29 
 950  1.19  2.12  2.29 
 951  1.94  2.04  2.29 
 952  1.68  2.56  2.29 
 953  1.90  2.40  2.29 
 954  2.01  2.44  2.29 
 955  1.86  1.80  2.29 
 956  2.13  2.23  2.29 
 957  1.90  2.10  2.29 
 958  1.21  2.06  2.29 
 959  2.21  2.06  2.29 
 960  1.33  1.55  2.29 
 961  1.44  2.09  2.29 
 962  1.28  1.51  2.29 
 963  1.74  1.85  2.29 
 964  1.84  1.57  2.29 
 965  1.62  2.24  2.29 
 966  1.80  1.70  2.29 
 967  1.61  2.09  2.29 
 968  1.58  1.55  2.29 
 969  1.83  1.24  2.29 
 970  1.66  1.33  2.29 
 971  1.87  2.27  2.29 
 972  1.53  1.53  2.29 
 973  1.12  2.05  2.29 
 974  1.94  1.48  2.29 
 975  2.00  2.19  2.29 
 976  1.81  1.64  2.29 
 977  2.12  1.44  2.29 
 978  1.92  1.66  2.29 
 979  1.93  1.64  2.29 
 980  2.08  1.43  2.29 
 981  1.92  2.03  2.29 
 982  1.76  1.54  2.29 
 983  2.18  2.40  2.29 
 984  1.54  1.67  2.29 
 985  1.19  1.77  2.29 
 986  1.44  1.76  2.29 
 987  2.11  2.34  2.29 
 988  2.00  1.09  2.29 
 989  2.10  2.36  2.29 
 990  2.03  2.10  2.29 
 991  1.71  1.59  2.29 
 992  1.96  1.91  2.29 
 993  1.76  0.98  2.29 
 994  1.99  1.42  2.29 
 995  2.13  1.56  2.29 
 996  1.74  2.01  2.29 
 997  2.25  2.19  2.29 
 998  1.87  2.09  2.29 
 999  1.91  1.24  2.29 
1000  1.29  2.28  2.29 
1001  1.73  2.22  2.29 
1002  2.06  1.64  2.29 
1003  1.86  1.64  2.29 
1004  1.58  1.51  2.29 
1005  2.21  1.26  2.29 
1006  1.84  0.65  2.29 
1007  2.15  0.16  2.29 
1008  1.65  1.32  2.29 
1009  1.76  1.00  2.29 
1010  2.07  1.97  2.29 
1011  1.66  1.80  2.29 
1012  1.83  1.06  2.29 
1013  1.69  1.38  2.29 
1014  1.89  1.87  2.29 
1015  0.92  2.07  2.29 
1016  1.81  2.32  2.29 
1017  1.64  1.48  2.29 
1018  1.99  1.39  2.29 
1019  1.73  1.62  2.29 
1020  2.14  1.59  2.29 
1021  2.05  1.47  2.29 
1022  2.00  1.43  2.29 
1023  1.66  1.84  2.29 
1024  1.69  1.85  2.29 
1025  1.18  2.42  2.29 
1026  1.42  1.62  2.29 
1027  2.01  1.94  2.29 
1028  2.13  2.02  2.29 
1029  1.99  1.49  2.29 
1030  2.04  0.84  2.29 
1031  1.90  0.97  2.29 
1032  2.06  1.23  2.29 
1033  1.80  1.50  2.29 
1034  1.65  0.58  2.29 
1035  1.59  1.25  2.29 
1036  1.54  0.63  2.29 
1037  2.10  1.13  2.29 
1038  1.80  0.83  2.29 
1039  1.76  0.35  2.29 
1040  1.72  0.77  2.29 
1041  2.00  0.88  2.29 
1042  2.13  1.24  2.29 
1043  1.47  1.28  2.29 
1044  1.85  1.03  2.29 
1045  2.16  1.70  2.29 
1046  1.86  1.47  2.29 
1047  2.04  0.61  2.29 
1048  1.50  0.46  2.29 
1049  1.60  0.70  2.29 
1050  1.46  1.30  2.29 
1051  2.12  0.88  2.29 
1052  2.22  1.00  2.29 
1053  2.20  2.20  2.29 
1054  2.04  1.49  2.29 
1055  1.81  1.10  2.29 
1056  1.83  1.64  2.29 
1057  1.84  1.58  2.29 
1058  2.20  1.38  2.29 
1059  1.68  1.69  2.29 
1060  2.09  1.77  2.29 
1061  1.84  1.11  2.29 
1062  2.13  1.06  2.29 
1063  1.13  1.61  2.29 
1064  1.25  1.77  2.29 
1065  2.18  1.20  2.29 
1066  0.94  1.23  2.29 
1067  2.05  1.52  2.29 
1068  2.03  1.45  2.29 
1069  1.99  1.94  2.29 
1070  1.96  1.75  2.29 
1071  1.95  2.23  2.29 
1072  1.91  1.98  2.29 
1073  2.17  1.14  2.29 
1074  1.38  2.52  2.29 
1075  1.97  1.73  2.29 
1076  1.56  0.60  2.29 
1077  1.49  1.29  2.29 
1078  1.69  1.77  2.29 
1079  1.97  2.23  2.29 
1080  1.30  1.22  2.29 
1081  2.31  1.87  2.29 
1082  2.12  1.65  2.31 
1083  1.86  1.33  2.31 
1084  2.16  1.39  2.31 
1085  2.30  1.46  2.31 
1086  1.96  1.34  2.31 
1087  1.64  0.57  2.31 
1088  1.98  0.63  2.31 
1089  1.55  0.44  2.31 
1090  1.55  1.27  2.31 
1091  1.93  0.33  2.31 
1092  1.81  0.92  2.31 
1093  1.98  0.25  2.31 
1094  2.00  0.78  2.31 
1095  1.28  1.18  2.31 
1096  1.64  1.32  2.31 
1097  1.62  1.76  2.31 
1098  1.91  1.54  2.31 
1099  2.06  1.59  2.31 
1100  1.98  1.47  2.31 
1101  1.79  2.42  2.31 
1102  1.83  1.74  2.31 
1103  2.14  1.95  2.31 
1104  2.15  1.48  2.31 
1105  2.25  1.55  2.31 
1106  1.86  1.62  2.31 
1107  2.17  1.82  2.31 
1108  1.83  1.87  2.31 
1109  1.91  1.59  2.31 
1110  2.21  1.74  2.31 
1111  2.03  1.40  2.31 
1112  1.96  2.34  2.31 
1113  2.09  1.51  2.31 
1114  2.04  1.94  2.31 
1115  2.31  1.77  2.31 
1116  1.92  2.19  2.31 
1117  1.99  2.25  2.31 
1118  1.98  1.74  2.31 
1119  2.13  2.16  2.31 
1120  2.24  1.86  2.31 
1121  2.00  2.40  2.31 
1122  1.58  2.22  2.31 
1123  2.29  2.06  2.31 
1124  1.77  1.93  2.31 
1125  1.92  2.01  2.31 
1126  1.97  1.63  2.31 
1127  1.77  2.24  2.31 
1128  2.08  1.85  2.31 
1129  2.25  1.85  2.31 
1130  2.35  2.45  2.31 
1131  1.92  2.36  2.35 
1132  1.68  2.10  2.35 
1133  1.39  1.25  2.35 
1134  2.31  1.60  2.35 
1135  1.85  1.51  2.35 
1136  2.29  1.98  2.35 
1137  1.52  1.96  2.35 
1138  1.86  1.59  2.35 
1139  1.92  1.70  2.35 
1140  1.82  1.84  2.35 
1141  2.16  1.69  2.35 
1142  1.74  1.55  2.35 
1143  1.70  1.44  2.35 
1144  2.31  1.67  2.35 
1145  1.78  1.35  2.35 
1146  1.92  2.19  2.35 
1147  2.31  2.24  2.35 
1148  2.23  2.02  2.35 
1149  2.20  2.62  2.35 
1150  2.21  1.91  2.35 
1151  1.62  2.29  2.35 
1152  2.11  2.38  2.35 
1153  1.58  2.36  2.35 
1154  2.07  2.35  2.35 
1155  1.66  1.82  2.35 
1156  1.77  2.35  2.35 
1157  1.69  2.12  2.35 
1158  1.89  2.22  2.35 
1159  2.19  1.77  2.35 
1160  2.08  2.16  2.35 
1161  2.09  2.31  2.35 
1162  1.97  2.28  2.35 
1163  2.13  1.46  2.35 
1164  2.36  2.01  2.35 
1165  1.73  1.88  2.36 
1166  2.06  1.88  2.36 
1167  2.09  1.87  2.36 
1168  1.92  1.43  2.36 
1169  1.83  1.85  2.36 
1170  1.76  2.32  2.36 
1171  2.07  2.23  2.36 
1172  1.86  2.25  2.36 
1173  1.84  2.09  2.36 
1174  2.16  1.89  2.36 
1175  2.28  2.24  2.36 
1176  1.84  2.00  2.36 
1177  2.18  2.05  2.36 
1178  2.07  2.44  2.36 
1179  1.93  2.12  2.36 
1180  1.85  2.26  2.36 
1181  1.92  2.05  2.36 
1182  1.59  2.04  2.36 
1183  1.67  2.39  2.36 
1184  2.01  2.25  2.36 
1185  2.11  2.29  2.36 
1186  2.28  2.24  2.36 
1187  2.04  2.08  2.36 
1188  2.43  2.28  2.36 
1189  1.78  2.22  2.43 
1190  1.85  2.00  2.43 
1191  1.99  2.34  2.43 
1192  2.03  2.23  2.43 
1193  2.19  2.41  2.43 
1194  2.09  2.29  2.43 
1195  1.71  2.28  2.43 
1196  2.35  2.32  2.43 
1197  1.45  2.26  2.43 
1198  1.76  2.30  2.43 
1199  1.55  2.44  2.43 
1200  2.17  2.50  2.43 
1201  1.72  2.48  2.43 
1202  1.45  2.45  2.43 
1203  2.31  2.16  2.43 
1204  2.02  2.35  2.43 
1205  2.26  2.11  2.43 
1206  2.16  2.59  2.43 
1207  2.22  2.43  2.43 
1208  2.01  2.19  2.43 
1209  2.03  2.51  2.43 
1210  2.19  2.45  2.43 
1211  1.86  2.32  2.43 
1212  2.20  2.60  2.43 
1213  2.27  2.41  2.43 
1214  1.88  2.62  2.43 
