iteration,time_sampling,stoc_pol_mean,stoc_pol_std,stoc_pol_max,stoc_pol_min,rollout_success,alpha,delta,time_vpg,time_npg,kl_dist,surr_improvement,running_score,rwd_sparse,rwd_dense,success_percentage,num_samples,time_VF,VF_error_before,VF_error_after,env_samples,eval_score,eval_success
0,1.2437732219696045,4.5224123056869585,0.8686732479720198,6.026682363068363,4.003830377629714,0.0,0.09010048156988933,0.1,0.0564732551574707,0.0496060848236084,0.0560438,4.354664,4.5224123056869585,0.0,0.07544024214959286,0.0,81,0.004374504089355469,0.9921044309393662,0.9921044309393662,81,4.185224651339069,0.0
1,0.9978647232055664,4.033057117988005,0.018762575786382667,4.0512983994197835,4.003552521592667,0.0,0.11331968898669363,0.1,0.002843618392944336,0.05094790458679199,0.046682604,3.160603,4.473476786917064,0.0,0.08064177101424347,0.0,105,0.006304740905761719,1.0204520855175507,1.0204520855175507,186,3.8477900603501296,0.0
2,1.0172779560089111,4.013835875363525,0.008537837353947716,4.026249412991672,4.002234902311161,0.0,0.09555012129531934,0.1,0.002706289291381836,0.0484926700592041,0.049601126,2.2428305,4.42751269576171,0.0,0.08027298718145866,0.0,56,0.0027010440826416016,1.005781203543831,1.005781203543831,242,3.5157328177055063,0.0
3,1.0766816139221191,3.7661566157411945,0.4407349266720882,4.045559657195456,3.0032842952085717,0.0,0.10300582315585745,0.1,0.0025234222412109375,0.04886603355407715,0.050199147,4.332406,4.361377087759658,0.0,0.07030803708319436,0.0,72,0.0030889511108398438,1.0105825496575196,1.0105825496575196,314,3.6811674738712328,0.0
4,1.0038504600524902,1.7577356535663982,2.2851567920105844,4.029725304917877,-0.9999311785819975,0.0,0.07802531310863098,0.1,0.002200603485107422,0.13328790664672852,0.04896181,2.8694718,4.101012944340332,0.0,0.02513016119671396,0.0,29,0.013028144836425781,1.0071605479349046,1.0071605479349046,343,3.6920970674236,0.0
5,1.0753834247589111,3.525653209623509,0.5261043056960754,4.099882540099684,3.000372702515929,0.0,0.09107760344846641,0.1,0.0028586387634277344,0.08925628662109375,0.04887253,1.9445391,4.0434769708686495,0.0,0.060510026066976544,0.0,48,0.00278472900390625,1.0073313060059597,1.0073313060059597,391,3.3509634961190966,0.0
6,1.0442578792572021,3.505388310844098,0.8689081022072799,4.016856325931064,2.00043134976414,0.0,0.08574778515009863,0.1,0.0022661685943603516,0.10480117797851562,0.050155662,1.8334712,3.989668104866195,0.0,0.06510189088151339,0.0,41,0.008557558059692383,1.001055778520339,1.001055778520339,432,3.4297559336674133,0.0
7,1.1689245700836182,4.01761123160716,0.01839424998693703,4.049055833125413,4.002299493060603,0.0,0.10229065347612393,0.1,0.004733562469482422,0.08623600006103516,0.04899292,10.143608,3.9924624175402914,0.0,0.08035090523617161,0.0,92,0.0026655197143554688,1.018022819884366,1.018022819884366,524,2.926771427639251,0.0
8,1.069420337677002,4.009178915162494,0.006060369881863008,4.017443144266458,4.003354745172909,0.0,0.0931069079251069,0.1,0.002270221710205078,0.07443428039550781,0.048045907,2.7016792,3.994134067302512,0.0,0.08018155694006517,0.0,65,0.003028392791748047,1.0113173449045783,1.0113173449045783,589,4.179958173450029,0.0
9,1.1171131134033203,4.004531133941728,0.0030137445405512067,4.0094094721956886,4.001290902935782,0.0,0.08854370125676932,0.1,0.0029261112213134766,0.06616020202636719,0.050193135,2.7786152,3.9951737739664335,0.0,0.08008380559334013,0.0,55,0.002950906753540039,1.005703960021309,1.005703960021309,644,2.8492476686932164,0.0
10,1.0172340869903564,3.5253503662834085,0.8598493155375757,4.032863719329036,2.0361271141840045,0.0,0.09411472525945977,0.1,0.0023818016052246094,0.05562996864318848,0.047561374,3.0658877,3.948191433198131,0.0,0.06531629069739775,0.0,51,0.0026047229766845703,1.0074387546137256,1.0074387546137256,695,3.9329216199526615,0.0
11,1.0719075202941895,3.256504059320222,0.8262917999592847,4.006367150847091,2.0142131752737162,0.0,0.07629173996616749,0.1,0.0015494823455810547,0.03162384033203125,0.049403418,2.3853757,3.8790226958103404,0.0,0.05512857910537727,0.0,23,0.002596616744995117,0.9843293416219933,0.9843293416219933,718,3.850488677094377,0.0
12,1.2140851020812988,4.320338234422627,1.1096986055792388,6.121838705279193,3.088185837496323,0.0,0.12504179449477848,0.1,0.0029211044311523438,0.0531611442565918,0.048445657,2.610758,3.923154249671569,0.0,0.07140128777902166,0.0,121,0.01439356803894043,1.0118799231938485,1.0118799231938485,839,3.599260254918818,0.0
13,0.9202775955200195,1.7515741017767628,2.278841379260221,4.003616935876995,-0.9999315647891673,0.0,0.066789695534083,0.1,0.0013866424560546875,0.0276944637298584,0.047702074,2.2941716,3.7059962348820883,0.0,0.020029579639977375,0.0,19,0.011299371719360352,0.9913716568722004,0.9913716568722004,858,4.35930119488559,0.0
14,1.2020838260650635,4.018548703328911,0.02142752926636359,4.055272390948644,4.001298797567989,0.0,0.10761707863524107,0.1,0.002931833267211914,0.052023887634277344,0.052227248,4.505084,3.7372514817267706,0.0,0.0803553592638187,0.0,98,0.003292083740234375,1.0181420805810224,1.0181420805810224,956,3.6130927543085196,0.0
15,1.0188586711883545,3.766972779418567,0.44265040254357746,4.0334165489479155,3.0005408297452068,0.0,0.08980928696920495,0.1,0.009747505187988281,0.050026893615722656,0.048667137,3.437353,3.74022361149595,0.0,0.0703253187874091,0.0,62,0.0029752254486083984,1.0091671174376022,1.0091671174376022,1018,3.933770908068274,0.0
16,1.2162799835205078,3.771510469171905,1.8079344507021624,6.069857845647033,1.0001952890396073,0.0,0.0960973765528919,0.1,0.0029172897338867188,0.048923492431640625,0.04854768,3.96222,3.743352297263546,0.0,0.060373852186503846,0.0,77,0.0031592845916748047,0.9958567332577517,0.9958567332577517,1095,3.4324737045293734,0.0
17,1.2243754863739014,4.533994131312758,2.914349596514292,9.112923264412,1.0046482454830898,0.0,0.10372068223838878,0.1,0.002444028854370117,0.04968404769897461,0.050191965,2.401372,3.8224164806684673,0.0,0.0806538815912863,0.0,79,0.0029096603393554688,0.9889297270661089,0.9889297270661089,1174,3.9349652140021583,0.0
18,1.1045081615447998,4.01503690535234,0.004276576046386429,4.020181629990934,4.008425422067839,0.0,0.10397688211968209,0.1,0.002410888671875,0.05971217155456543,0.04950953,27.870316,3.8416785231368547,0.0,0.08028153265317076,0.0,72,0.002747058868408203,1.013355351774903,1.013355351774903,1246,4.280756676110017,0.0
19,1.1734211444854736,2.262546619770497,1.7975041385193224,4.0372670241626665,0.00016186855147659607,0.0,0.08650560262348737,0.1,0.0023505687713623047,0.04721689224243164,0.049006484,5.242877,3.6837653328002187,0.0,0.03524242820334678,0.0,52,0.002773761749267578,1.0185436583487155,1.0185436583487155,1298,3.8486858348161292,0.0
20,1.0489251613616943,2.7538547928752735,2.16725362613222,4.011086582785532,-0.9999332597281394,0.0,0.07858510164302716,0.1,0.002882719039916992,0.12279295921325684,0.05024196,5.8289247,3.590774278807724,0.0,0.05008244521619438,0.0,40,0.007096767425537109,1.0062821251869662,1.0062821251869662,1338,3.776928484973235,0.0
21,1.2325644493103027,4.328771008860091,1.9039929767675372,7.30675584897897,2.0003869903533698,0.0,0.1042177081677024,0.1,0.002701997756958008,0.050041913986206055,0.050140828,2.424719,3.664573951812961,0.0,0.07158602876395367,0.0,79,0.0028159618377685547,0.9853492279700979,0.9853492279700979,1417,3.0146344376259293,0.0
22,1.2651934623718262,4.05225095764864,1.4858094164552356,6.200821403772908,2.0005560187514746,0.0,0.10106042880730164,0.1,0.0033864974975585938,0.06664633750915527,0.05214089,6.933446,3.7033416523965292,0.0,0.06602566476306533,0.0,78,0.002991914749145508,0.9958888386173108,0.9958888386173108,1495,3.953398853461975,0.0
23,1.1497645378112793,3.259391726594412,1.3026750191489715,4.027807971831879,1.0031606719669817,0.0,0.09203992609035676,0.1,0.002317190170288086,0.15457963943481445,0.049109794,1.8936679,3.658946659816318,0.0,0.055164642740643074,0.0,40,0.0023529529571533203,1.003359093411924,1.003359093411924,1535,3.9491586825713423,0.0
24,1.1127769947052002,2.5203703387357557,2.0764486676401366,4.07765589366122,-0.9999370464361423,0.0,0.08747189461826417,0.1,0.002843618392944336,0.10786890983581543,0.049199287,2.6888304,3.545089027708262,0.0,0.04033168659367807,0.0,38,0.012366056442260742,1.0047530124723865,1.0047530124723865,1573,4.022329152769789,0.0
25,1.2054786682128906,4.00688745751987,0.00531765163753536,4.015554153339678,4.001076299470723,0.0,0.09165937687831549,0.1,0.0022766590118408203,0.0826711654663086,0.049478345,1.4720614,3.5912688706894227,0.0,0.07013303295033031,0.0,39,0.0022101402282714844,0.9988730671661556,0.9988730671661556,1612,4.190484928559716,0.0
26,1.1932892799377441,4.021799257548552,0.019144435444450405,4.047127483856549,4.000752615844307,0.0,0.10328194612862479,0.1,0.0025262832641601562,0.04891180992126465,0.049250014,5.20138,3.634321909375336,0.0,0.0754157172672146,0.0,80,0.003028392791748047,1.0150292915310064,1.0150292915310064,1692,3.6836150522985793,0.0
27,1.2323846817016602,3.5062830486542795,0.8690505499788934,4.014901432867094,2.001062963146748,0.0,0.09172824168732767,0.1,0.002306222915649414,0.04643535614013672,0.051712673,2.0991228,3.6215180233032305,0.0,0.06512209821504861,0.0,55,0.002564668655395508,1.0091117624726367,1.0091117624726367,1747,3.6069321377589603,0.0
28,1.1329035758972168,3.5085669301547195,0.8700806943427437,4.016783811828508,2.0015802138530425,0.0,0.09093359326021161,0.1,0.0023543834686279297,0.09279918670654297,0.050460253,2.1371946,3.6102229139883795,0.0,0.0651474406059306,0.0,47,0.0029175281524658203,1.0056710167376741,1.0056710167376741,1794,3.6047094841921155,0.0
29,1.7418169975280762,4.544416447983644,0.9279050868908382,6.151549069340334,4.000850568847355,0.0,0.12779143586361671,0.1,0.0026483535766601562,0.05964994430541992,0.050977636,1.9173944,3.7036422673879064,0.0,0.08086783539596801,0.0,109,0.014206886291503906,1.0060371045990506,1.0060371045990506,1903,3.94888325294045,0.0
30,1.2537853717803955,4.545676678045004,1.695384040645806,6.100914131669978,2.0002161484624574,0.0,0.11464572557006081,0.1,0.003255128860473633,0.05374455451965332,0.05171382,3.3436463,3.787845708453616,0.0,0.0659044058005451,0.0,123,0.016256332397460938,0.9944205225195316,0.9944205225195316,2026,4.20432141666224,0.0
31,1.0872769355773926,2.02073467921372,2.1407485485537867,4.056527848540419,-0.9999307123446357,0.0,0.08701686530174126,0.1,0.002887248992919922,0.12810492515563965,0.051408682,6.7785406,3.6111346055296263,0.0,0.030387038377896993,0.0,47,0.002569913864135742,1.0157582554743438,1.0157582554743438,2073,3.4478115619314167,0.0
32,1.1931796073913574,4.016299976542775,0.010213669740132242,4.0299742375878145,4.001740075483308,0.0,0.11331423892936666,0.1,0.003587007522583008,0.06709742546081543,0.050485827,3.4985793,3.6516511426309415,0.0,0.08031934726373108,0.0,101,0.013960123062133789,1.0190563886517243,1.0190563886517243,2174,3.955022433927097,0.0
33,1.1906940937042236,4.544293991873858,0.9291819729212095,6.153645289457263,4.001280019788004,0.0,0.11446256358034024,0.1,0.00888967514038086,0.05290365219116211,0.05046092,2.0887437,3.740915427555233,0.0,0.08085902731336309,0.0,91,0.0032501220703125,0.9995626146610744,0.9995626146610744,2265,3.5223056294075943,0.0
34,1.275529146194458,3.7749021711109565,1.809219552611457,6.073510431064782,1.0007109513395787,0.0,0.1090112368971947,0.1,0.0025615692138671875,0.04979538917541504,0.050301686,2.8775525,3.7443141019108057,0.0,0.06046670444703469,0.0,85,0.0032405853271484375,0.9983066400465259,0.9983066400465259,2350,4.188326591098983,0.0
35,1.2502424716949463,4.077061515036252,0.10781841990185898,4.2632812316824165,4.002048697775173,0.0,0.11567146198133788,0.1,0.0026013851165771484,0.0498661994934082,0.049738925,3.7373626,3.7775888432233504,0.0,0.08151627002756044,0.0,116,0.013195276260375977,1.0227350519391407,1.0227350519391407,2466,3.525792804760277,0.0
36,1.2186365127563477,4.515689157479262,0.8910877455268926,6.059097749252542,4.000455379631303,0.0,0.09995379314661096,0.1,0.03183341026306152,0.41480565071105957,0.049434904,2.048129,3.851398874648942,0.0,0.08027948803379634,0.0,77,0.00835275650024414,0.9938081346823479,0.9938081346823479,2543,4.359918284672852,0.0
37,1.2082254886627197,4.029179175207491,0.020134536077046752,4.061330554511377,4.006595713858388,0.0,0.10665530852738613,0.1,0.002482891082763672,0.05078458786010742,0.04850448,2.5324912,3.869176904704797,0.0,0.08056422621467077,0.0,83,0.0030469894409179688,1.0135376498687083,1.0135376498687083,2626,3.776365077121899,0.0
38,1.1772758960723877,3.284719027348598,1.3193964215487646,4.107565445335199,1.0004151943581692,0.0,0.09735307699000044,0.1,0.0024466514587402344,0.04877066612243652,0.04968577,11.033611,3.810731116969177,0.0,0.06061854935316499,0.0,62,0.002954721450805664,1.0120315983569603,1.0120315983569603,2688,3.5313534956987525,0.0
39,1.1625125408172607,4.013913771975647,0.005633630890271932,4.021228903432549,4.005959741992527,0.0,0.09091873523017636,0.1,0.0023756027221679688,0.04783511161804199,0.049835976,4.4727707,3.831049382469824,0.0,0.07526516620784018,0.0,71,0.0025382041931152344,1.0111697846945034,1.0111697846945034,2759,3.358647249075496,0.0
40,1.2355296611785889,4.043523440042812,0.030467398310387125,4.096004233131629,4.020819212678701,0.0,0.1104871040600145,0.1,0.0025713443756103516,0.05232095718383789,0.0495219,4.116403,3.852296788227123,0.0,0.08079351156386692,0.0,91,0.002779245376586914,1.0165854289580887,1.0165854289580887,2850,3.360160177138596,0.0
41,1.1013662815093994,3.0093809498354482,1.7373961839707273,4.020590218349913,0.00014249553958545214,0.0,0.07786596747380414,0.1,0.0023984909057617188,0.2042086124420166,0.049137864,2.6664019,3.768005204387956,0.0,0.050178929899386604,0.0,35,0.003027677536010742,1.0015816023089616,1.0015816023089616,2885,3.014964811991933,0.0
42,1.3111684322357178,4.0533428436371155,1.427022830339862,6.036529475145257,2.0034704368361815,0.0,0.11898369385950786,0.1,0.002782106399536133,0.05234241485595703,0.048867993,2.483132,3.796538968312872,0.0,0.0659928074682886,0.0,112,0.013493776321411133,1.0099810911693983,1.0099810911693983,2997,3.6932657418951877,0.0
43,1.4227020740509033,3.5255621292942365,2.8707065189715557,6.975753337345332,-0.9999310120995895,0.0,0.11668249288861868,0.1,0.02152705192565918,0.07235956192016602,0.048723713,2.7050366,3.7694412844110086,0.0,0.05520252817906812,0.0,118,0.0056514739990234375,1.0064308404256754,1.0064308404256754,3115,3.6104307536476914,0.0
44,1.1462922096252441,3.5226377387230934,0.8481172447948283,4.016582194999042,2.053680944352232,0.0,0.09150427394757053,0.1,0.0025763511657714844,0.0478208065032959,0.05005315,2.624851,3.744760929842217,0.0,0.06543758275665615,0.0,54,0.0026488304138183594,1.0089098251751139,1.0089098251751139,3169,4.3684495545335915,0.0
45,1.2505285739898682,4.015865214003002,0.005147145050674227,4.022237199195912,4.01070571644329,0.0,0.11464584412736363,0.1,0.0027501583099365234,0.05086231231689453,0.049117893,2.6234145,3.7718713582582954,0.0,0.08028842816966739,0.0,89,0.002873659133911133,1.0171492183441944,1.0171492183441944,3258,3.2773523469829797,0.0
46,1.1552741527557373,2.5011853598573004,1.6591893778824145,4.002728291280864,0.00014906079147980478,0.0,0.07433925760029259,0.1,0.0024688243865966797,0.2084333896636963,0.050684575,2.3463714,3.644802758418196,0.0,0.04002182308437707,0.0,25,0.018114805221557617,0.9935028289849821,0.9935028289849821,3283,3.6975580893541498,0.0
47,1.298738718032837,3.028660854063538,2.274048433483645,6.112971632971834,0.00013951122984789954,0.0,0.08641215445428914,0.1,0.0025081634521484375,0.04780888557434082,0.04733981,8.034917,3.5831885679827304,0.0,0.03555819819652658,0.0,62,0.002671480178833008,0.9815728518017423,0.9815728518017423,3345,3.9377885751198325,0.0
48,1.1052467823028564,2.0052585896792054,2.12614472264856,4.0179443867673355,-0.9999346072442719,0.0,0.07415545874848935,0.1,0.011220932006835938,0.19475221633911133,0.051779486,2.6598759,3.425395570152378,0.0,0.030094924889662443,0.0,25,0.009447336196899414,0.9997625426826977,0.9997625426826977,3370,3.5219090222346274,0.0
49,1.25886869430542,3.796053539170779,1.8083380082983833,6.061539872757011,1.0026411931106514,0.0,0.11668462533192138,0.1,0.005334377288818359,0.05685615539550781,0.04832428,2.3852837,3.4624613670542184,0.0,0.06084607193217047,0.0,102,0.013327836990356445,1.0084551328562685,1.0084551328562685,3472,4.53155884354575,0.0
50,1.1744489669799805,4.014775757561861,0.013187078478188938,4.037239332328722,4.0037273480261275,0.0,0.10608315086160354,0.1,0.003252744674682617,0.05350446701049805,0.049828306,3.6236868,3.5176928061049826,0.0,0.0802849328733394,0.0,86,0.0028238296508789062,1.0124255307504335,1.0124255307504335,3558,4.019891878083179,0.0
51,1.3126451969146729,4.054468353258766,0.073841754897551,4.181881489032008,4.001552939285647,0.0,0.11396222929784024,0.1,0.0040683746337890625,0.06956052780151367,0.050705314,3.3097396,3.571370360820361,0.0,0.08107103770769736,0.0,88,0.003171205520629883,1.0159996546315757,1.0159996546315757,3646,4.192567683366276,0.0
52,1.1887986660003662,3.0183288285311667,1.740508221065073,4.038797050679453,0.0037271046909981287,0.0,0.08552381217628273,0.1,0.002535581588745117,0.09531450271606445,0.04933438,4.5402923,3.516066207591442,0.0,0.050361745252772344,0.0,46,0.002946615219116211,1.0070068098318192,1.0070068098318192,3692,3.436378747053773,0.0
53,1.212045431137085,4.332945958275407,3.310941727932274,9.319181233019972,0.00013214398009098183,0.0,0.10191134988661504,0.1,0.0046994686126708984,0.06279349327087402,0.04949229,1.5950923,3.597754182659839,0.0,0.08161847032279114,0.0,72,0.002812623977661133,0.988882528231472,0.988882528231472,3764,4.212451476817076,0.0
54,1.2260053157806396,3.7547253803435483,0.4354992403746426,4.009882940670088,3.000434379208486,0.0,0.10395896762391588,0.1,0.0024042129516601562,0.05169177055358887,0.050225418,2.5027173,3.61345130242821,0.0,0.07008835214618396,0.0,63,0.0029642581939697266,1.0106373869692926,1.0106373869692926,3827,3.693521699906104,0.0
55,1.2011744976043701,3.0088694137418006,1.7370596136751715,4.022147186636906,0.00021635205491832288,0.0,0.08732769299013128,0.1,0.0024564266204833984,0.0923459529876709,0.04988586,3.172775,3.552993113559569,0.0,0.05515691151922422,0.0,43,0.0025610923767089844,1.0034983542755314,1.0034983542755314,3870,3.5277241830838393,0.0
56,1.3200042247772217,4.263522325105748,1.100057045646567,6.0334959314046195,3.008509481979435,0.0,0.10415343457717702,0.1,0.0024344921112060547,0.048560380935668945,0.048852652,2.766522,3.624046034714187,0.0,0.07026531400080885,0.0,79,0.0027849674224853516,0.9930006136923362,0.9930006136923362,3949,3.8629111385524273,0.0
57,1.136078119277954,3.2532892791139463,1.2977644270010906,4.003316000941018,1.0054955639302632,0.0,0.0760725759198468,0.1,0.0023806095123291016,0.1755516529083252,0.049784396,2.345643,3.586970359154163,0.0,0.06005962070119355,0.0,29,0.0026252269744873047,0.9938216028529105,0.9938216028529105,3978,3.8645011545007333,0.0
58,1.1972296237945557,2.787229724805707,1.3354364410217041,4.145190422153895,1.0002046280175234,0.0,0.07667665458781052,0.1,0.0038385391235351562,0.18761706352233887,0.050091945,5.0511913,3.5069962957193175,0.0,0.04059587722320464,0.0,34,0.00732731819152832,1.0030620086526236,1.0030620086526236,4012,4.051237298267035,0.0
59,1.3334581851959229,3.5378648730697555,0.5390832708258761,4.146288271951432,3.0006993505254727,0.0,0.08916167813451788,0.1,0.002561807632446289,0.046404361724853516,0.049485687,6.701506,3.5100831534543615,0.0,0.06075735279580988,0.0,51,0.009297847747802734,1.0061387859385211,1.0061387859385211,4063,4.3730623622046165,0.0
60,1.2450764179229736,4.0207197725288975,0.02653637862073955,4.066587996996033,4.0028936074857935,0.0,0.09160672563532328,0.1,0.0024645328521728516,0.04927968978881836,0.049664047,2.4291708,3.5611468153618153,0.0,0.08039057781441111,0.0,60,0.015923261642456055,1.0079466124581078,1.0079466124581078,4123,3.9607447743323037,0.0
61,1.3064608573913574,3.261614110817743,1.9299341633409484,5.039495932421366,0.00014427732781352454,0.0,0.10356773806364003,0.1,0.004648685455322266,0.06097292900085449,0.04974192,3.6987193,3.531193544907408,0.0,0.05499818686819249,0.0,81,0.0026133060455322266,1.0151646298344232,1.0151646298344232,4204,4.223071252912642,0.0
62,1.3580443859100342,4.551677762517964,0.8850929846870464,6.082770819492979,4.003993433541863,0.0,0.11644523601504429,0.1,0.0024302005767822266,0.05291104316711426,0.05072085,3.085984,3.633241966668464,0.0,0.08102342076827802,0.0,115,0.012960433959960938,1.009059890798015,1.009059890798015,4319,4.4715873166533004,0.0
63,1.3642082214355469,3.2794860922979816,2.6044641117701595,6.050964573674564,-0.999937562186193,0.0,0.10213440267437314,0.1,0.0029625892639160156,0.05066323280334473,0.04938183,4.060393,3.597866379231416,0.0,0.050555851598661807,0.0,92,0.0030426979064941406,1.0072358948518134,1.0072358948518134,4411,3.2747730739167813,0.0
64,1.803375482559204,2.543382401008207,2.747517872311339,6.164898878901595,-0.999933749177917,0.0,0.0984640556267921,0.1,0.0028989315032958984,0.04940199851989746,0.049609233,7.9224505,3.492417981409095,0.0,0.030830798883642232,0.0,70,0.0026874542236328125,0.9950537427634674,0.9950537427634674,4481,3.536332641458728,0.0
65,1.22666335105896,2.557430672912372,1.5582153403936816,4.203214849238806,1.000472745074912,0.0,0.09655381243687483,0.1,0.0025336742401123047,0.055342912673950195,0.048872948,9.930108,3.398919250559423,0.0,0.041143876051717924,0.0,70,0.0030317306518554688,1.0213105116119696,1.0213105116119696,4551,3.868153544466607,0.0
66,1.2337429523468018,2.8394284204247846,2.2208057117848323,4.340614394040539,-0.9999341660714973,0.0,0.09392553621478628,0.1,0.012023448944091797,0.05361175537109375,0.049976755,4.509691,3.342970167545959,0.0,0.05175406879461797,0.0,64,0.0030069351196289062,1.0136407956263738,1.0136407956263738,4615,4.209460835293837,0.0
67,1.2930645942687988,3.7619892030095965,0.4398131327349851,4.025229382759187,3.0003599740027393,0.0,0.09591467482847299,0.1,0.002724885940551758,0.04808473587036133,0.04914361,2.0792751,3.384872071092323,0.0,0.07023867178926073,0.0,58,0.0023593902587890625,1.0101493390895824,1.0101493390895824,4673,4.197954482838102,0.0
68,1.1919140815734863,3.553875294646448,0.8858828937523512,4.130864327443815,2.021437353051848,0.0,0.09739387867731121,0.1,0.002449512481689453,0.048647165298461914,0.049101025,3.1032076,3.4017723934477355,0.0,0.06596312031313911,0.0,67,0.0028815269470214844,1.0133247842623112,1.0133247842623112,4740,3.619445872674861,0.0
69,1.3120849132537842,4.098021589725765,0.11602011322241866,4.295979990223103,4.004895546530964,0.0,0.12052993777548976,0.1,0.002699136734008789,0.05456852912902832,0.049753375,2.3494296,3.4713973130755384,0.0,0.08195236994788338,0.0,120,0.006876945495605469,1.0213110899624236,1.0213110899624236,4860,3.708522341969942,0.0
70,1.2346599102020264,2.770467591431694,2.176873917896321,4.046522380302713,-0.9999295896916613,0.0,0.09408299257437186,0.1,0.031037330627441406,0.07679128646850586,0.049230278,4.2350936,3.401304340911154,0.0,0.0503879439412446,0.0,66,0.0027129650115966797,1.0161184872978195,1.0161184872978195,4926,3.966946729803947,0.0
71,1.3160629272460938,4.382468931513112,2.146819450900044,6.330927316012724,1.0002252439095787,0.0,0.1128669107875844,0.1,0.0028717517852783203,0.0526123046875,0.048208684,6.1976466,3.4994207999713502,0.0,0.06260336250883677,0.0,131,0.0433192253112793,0.9963187084575208,0.984930076347847,5057,3.8056041271394245,0.0
72,1.1891496181488037,4.010608420200323,0.016131189657424758,4.038501367666522,4.000387992850608,0.0,0.08397494528390528,0.1,0.012693166732788086,0.20564794540405273,0.050434504,2.6184685,3.5505395619942473,0.0,0.07520359685344642,0.0,36,0.017349720001220703,0.9880519174415608,0.9880519174415608,5093,3.035447024524338,0.0
73,1.309995174407959,4.064831182082536,0.02352469867959572,4.103529393586421,4.04098831470644,0.0,0.11400831116302941,0.1,0.0028524398803710938,0.05681180953979492,0.048442833,2.9568903,3.601968724003076,0.0,0.08121991478242813,0.0,107,0.012206077575683594,1.030762935660146,1.030762935660146,5200,3.2887080214247195,0.0
74,1.2989459037780762,3.014482587952146,1.7403230374380831,4.026042180266662,0.00016652071825107306,0.0,0.1047041113972501,0.1,0.004254579544067383,0.048552513122558594,0.04986314,3.6056638,3.543220110397983,0.0,0.05527078550768812,0.0,84,0.0028531551361083984,1.0319643512904006,1.0319643512904006,5284,2.9692695642062255,0.0
75,1.3654303550720215,3.527586051234671,1.6801921569875984,6.0492238890868615,2.0005452272053033,0.0,0.10974187302553301,0.1,0.0029554367065429688,0.049585819244384766,0.050839934,6.017956,3.541656704481652,0.0,0.050498691135676094,0.0,78,0.005693912506103516,0.9929820111585972,0.9929820111585972,5362,4.3704080816785345,0.0
76,1.2722482681274414,4.019865096003718,0.012302829308535906,4.033276254229848,4.0012323199038935,0.0,0.10809752042014491,0.1,0.002422332763671875,0.04780292510986328,0.048815306,5.1266065,3.5894775436338584,0.0,0.08036493758162136,0.0,75,0.0029108524322509766,1.0222422456834122,1.0222422456834122,5437,3.9546562227531687,0.0
77,1.3763749599456787,4.522606193737431,0.8746834016633637,6.037516716347812,4.002495471058557,0.0,0.1157556178422698,0.1,0.002641916275024414,0.050776004791259766,0.04872145,7.6523094,3.682790408644216,0.0,0.08043594702778892,0.0,99,0.002978801727294922,1.0033957937292848,1.0033957937292848,5536,3.2116529554987365,0.0
78,1.3499226570129395,3.8153928522828267,0.4701227542818748,4.0982179213348005,3.001220248932385,0.0,0.10939295053478722,0.1,0.0026199817657470703,0.051844120025634766,0.04986974,2.63951,3.6960506530080774,0.0,0.07128828378755421,0.0,95,0.002664327621459961,1.0306994053457137,1.0306994053457137,5631,3.050949347572883,0.0
79,1.3635342121124268,4.029374644097344,0.02020341523300901,4.061901973016823,4.008694996566266,0.0,0.09954554860090183,0.1,0.0027456283569335938,0.05018329620361328,0.049450032,3.2424507,3.729383052117004,0.0,0.08056468047836596,0.0,75,0.003493070602416992,1.0216971582049512,1.0216971582049512,5706,4.073420966143432,0.0
80,1.2110059261322021,3.0056456023864166,1.735103535486413,4.010769005394554,0.00036581992894202386,0.0,0.07713956118540914,0.1,0.002454519271850586,0.22334957122802734,0.049999617,2.457463,3.6570093071439453,0.0,0.05011486342415915,0.0,32,0.002708911895751953,0.9982820804553677,0.9982820804553677,5738,3.300902136957413,0.0
81,1.4135661125183105,5.335956930219714,2.190103233981069,9.126746658243006,4.00419672901394,0.0,0.10564129072051388,0.1,0.0049245357513427734,0.05641484260559082,0.05028099,2.5768335,3.8249040694515224,0.0,0.10667964798995565,0.0,94,0.0025653839111328125,0.9902934634726277,0.9902934634726277,5832,3.1063946344573217,0.0
82,1.4232978820800781,4.0241754102754435,0.0125279370989108,4.03551370708075,4.003262163396517,0.0,0.10384566681804709,0.1,0.0023534297943115234,0.05442452430725098,0.049661778,6.7030168,3.8448312035339147,0.0,0.08047062614781576,0.0,79,0.017310380935668945,1.021612584005959,1.021612584005959,5911,3.476192958017986,0.0
83,1.226867437362671,3.024675136641119,1.7461880470750915,4.068819225634746,0.0004738014490699438,0.0,0.09004222909056844,0.1,0.014588117599487305,0.06551623344421387,0.048251804,4.7382255,3.762815596844635,0.0,0.05545999087865099,0.0,58,0.002931833267211914,1.0214063981815116,1.0214063981815116,5969,3.5356832863343945,0.0
84,1.239339828491211,2.7673416584121036,2.175059224689272,4.032658395935025,-0.9999291943407738,0.0,0.09396869646311293,0.1,0.008713722229003906,0.08396768569946289,0.049662974,4.1708527,3.663268203001382,0.0,0.05031472972986009,0.0,47,0.0028963088989257812,1.0171496306061985,1.0171496306061985,6016,4.412343706017463,0.0
85,1.3781015872955322,3.2915308523606415,1.3238992799404425,4.14196252935253,1.0003483383737664,0.0,0.09872655544773026,0.1,0.0031092166900634766,0.054883718490600586,0.050180517,11.206226,3.626094467937308,0.0,0.055763337039194005,0.0,88,0.00263214111328125,1.030843548178601,1.030843548178601,6104,4.827261779770223,0.0
86,1.3884105682373047,1.8493916134237012,2.379259604220791,4.381753861435399,-0.9999275212810492,0.0,0.09204915533102326,0.1,0.013768434524536133,0.06439661979675293,0.05018032,6.504309,3.4484241824859474,0.0,0.0269493596144997,0.0,64,0.002946615219116211,1.0357527195929253,1.0357527195929253,6168,3.190718358905441,0.0
87,1.285306453704834,4.015048284182061,0.013898937771007768,4.038469733045881,4.003040237181923,0.0,0.10903238722830275,0.1,0.002726316452026367,0.04903697967529297,0.049667012,3.5651286,3.5050865926555588,0.0,0.08029672132355309,0.0,77,0.0028133392333984375,1.0248086649829067,1.0248086649829067,6245,4.667499544687782,0.0
88,1.2618606090545654,4.00991875191202,0.005256570954711599,4.015395779664274,4.0035962122743225,0.0,0.09323395959239858,0.1,0.00798344612121582,0.05067086219787598,0.050051723,3.8358128,3.555569808581205,0.0,0.08017863853944118,0.0,58,0.0025987625122070312,1.0155304599594661,1.0155304599594661,6303,3.534008160245334,0.0
89,1.4196147918701172,4.32287305461367,1.1546826101062293,6.178875915351271,3.001900064096449,0.0,0.10439493354527674,0.1,0.002627134323120117,0.052018165588378906,0.04931954,1.965713,3.6323001331844513,0.0,0.07132235036800026,0.0,91,0.002880573272705078,0.9962695099223664,0.9962695099223664,6394,3.7006373513055153,0.0
90,1.261338233947754,4.014184725741498,0.012329921392574768,4.034729052565443,4.001850076052,0.0,0.09575990668169203,0.1,0.0023429393768310547,0.05180954933166504,0.048311327,2.7185187,3.6704885924401562,0.0,0.08026606882137097,0.0,64,0.002838134765625,1.0150153430779332,1.0150153430779332,6458,4.3952231236494725,0.0
91,1.2246170043945312,3.004453994273342,1.7345159873311435,4.008158504350922,0.00018799349764631046,0.0,0.08836983782689962,0.1,0.0024056434631347656,0.11554431915283203,0.04902619,2.7157137,3.603885132623475,0.0,0.05507595648644804,0.0,33,0.002617359161376953,1.0010837006666509,1.0010837006666509,6491,3.465961881211539,0.0
92,1.3128492832183838,4.017296175327786,0.016700115124355965,4.0448634246240465,4.001098305955504,0.0,0.10651190574989668,0.1,0.01263570785522461,0.053914546966552734,0.052013054,2.3670928,3.6452262368939063,0.0,0.07529415737767302,0.0,60,0.002714872360229492,1.013830126531969,1.013830126531969,6551,3.616457720711081,0.0
93,1.2521100044250488,4.024591956186534,0.017844682505229935,4.05337974446629,4.007278411419873,0.0,0.10389326758668223,0.1,0.0023720264434814453,0.04763221740722656,0.05028809,2.2851455,3.6831628088231696,0.0,0.07548222180393163,0.0,73,0.002902984619140625,1.0185488340691455,1.0185488340691455,6624,4.2201348850298706,0.0
94,1.4223122596740723,4.099659337876899,0.12335775079782926,4.309691585979878,4.010300155068581,0.0,0.11457115052462798,0.1,0.0034372806549072266,0.05416107177734375,0.04828764,3.9431279,3.7248124617285425,0.0,0.08194400518092063,0.0,135,0.044350624084472656,1.037574916738197,1.018368227188435,6759,3.7901720726939625,0.0
95,1.42246675491333,4.836268937015847,4.786601225849765,12.333316367591795,-0.9999352263090548,0.0,0.0973419477583184,0.1,0.0026497840881347656,0.05099892616271973,0.049888507,1.1651843,3.835958109257273,0.0,0.0816571962404595,0.0,79,0.009998559951782227,0.9889082692243358,0.9889082692243358,6838,4.047119861875653,0.0
96,1.3977820873260498,2.5689629473889317,2.1125117855299127,4.201852732251338,-0.9999274603041011,0.0,0.0913809373974452,0.1,0.0029768943786621094,0.053231239318847656,0.048505742,4.5986753,3.709258593070439,0.0,0.041301528023935025,0.0,79,0.002619028091430664,1.0144247297562785,1.0144247297562785,6917,4.882942159506693,0.0
97,1.4406418800354004,3.5801459674710854,0.9122205742359278,4.144054083134426,2.0006787393407324,0.0,0.11082286778192081,0.1,0.003160715103149414,0.051390886306762695,0.04909833,2.7192528,3.6963473305105037,0.0,0.06650157671657961,0.0,96,0.0027914047241210938,1.0144816995254513,1.0144816995254513,7013,3.629390034523938,0.0
98,1.30958890914917,4.016964237453997,0.01063004608322899,4.030581954385344,4.000754012529166,0.0,0.10137286789489942,0.1,0.010096311569213867,0.04922366142272949,0.048977267,1.9072227,3.728409021204853,0.0,0.0802810213803307,0.0,58,0.002750873565673828,1.0031230215545335,1.0031230215545335,7071,4.044125353299793,0.0
99,1.3011174201965332,4.015389123635982,0.008706994291953972,4.024963758844043,4.004181309574908,0.0,0.09708560170665315,0.1,0.005106210708618164,0.06761646270751953,0.049948007,3.467876,3.7571070314479664,0.0,0.08030148273492073,0.0,70,0.002763032913208008,1.0065492753643481,1.0065492753643481,7141,3.7861499511762315,0.0
100,1.2806956768035889,3.3000629512737216,1.319750984748942,4.161063806926988,1.016645965828019,0.0,0.09761524323366362,0.1,0.0045318603515625,0.04835367202758789,0.04926264,3.9383638,3.7114026234305424,0.0,0.06098661043091323,0.0,64,0.0030295848846435547,1.0103199687030895,1.0103199687030895,7205,4.378178653670767,0.0
101,1.4342443943023682,4.532583730502219,0.908146929901445,6.105495732083719,4.001945710880288,0.0,0.12252953885916704,0.1,0.0025856494903564453,0.054221153259277344,0.049594406,1.7343628,3.7935207341377106,0.0,0.08064341241825103,0.0,90,0.0026264190673828125,0.993176530516162,0.993176530516162,7295,3.4539765912783476,0.0
102,1.35960054397583,5.082089357358095,1.0733167826923664,6.1899482991888535,4.004770810201052,0.0,0.12902491484537032,0.1,0.0027582645416259766,0.05685710906982422,0.049204603,1.9320022,3.922377596459749,0.0,0.0815631400723936,0.0,123,0.007439613342285156,0.9826885758603546,0.9826885758603546,7418,3.952612885858084,0.0
103,1.3132603168487549,4.057245544721001,0.03475416639198476,4.096083580042455,4.013084628309811,0.0,0.11771754299515522,0.1,0.003126382827758789,0.05478668212890625,0.050135043,2.1939948,3.9358643912858744,0.0,0.08099406996552702,0.0,107,0.009874343872070312,1.0153552330987907,1.0153552330987907,7525,3.065226087245581,0.0
104,1.3611459732055664,4.567210315736255,0.88625321701946,6.100330189358328,4.008079755345127,0.0,0.11825343307508049,0.1,0.006356477737426758,0.05200004577636719,0.04953296,2.09268,3.9989989837309126,0.0,0.08130434211446008,0.0,123,0.013212442398071289,1.0070131639466857,1.0070131639466857,7648,4.313774102556544,0.0
105,1.2206006050109863,3.013539920183633,1.2340106932423924,4.041517739197156,1.0006243567668625,0.0,0.08880524910418117,0.1,0.01210331916809082,0.11021876335144043,0.04996268,2.426591,3.9004530773761847,0.0,0.05028131543152563,0.0,45,0.002366304397583008,1.0050312550045415,1.0050312550045415,7693,4.218939337594786,0.0
106,1.3327488899230957,2.760539116904601,1.646762194829081,4.025949720227111,0.00017188826026104387,0.0,0.09121756580621528,0.1,0.005482912063598633,0.0813300609588623,0.050337974,2.390341,3.7864616813290266,0.0,0.045187269157634054,0.0,39,0.015686750411987305,1.001361701981396,1.001361701981396,7732,3.819209791798136,0.0
107,1.3834645748138428,4.08470724478216,0.11941277647007609,4.2899206947831505,4.002567782455242,0.0,0.10402731532799431,0.1,0.002736806869506836,0.048356056213378906,0.049280386,2.2608697,3.81628623767434,0.0,0.07668602829356388,0.0,78,0.002863168716430664,1.0104856200503862,1.0104856200503862,7810,2.4453508004052766,0.0
108,1.4027259349822998,4.534175713132903,0.8913174675660561,6.0778506591557075,4.001964933502762,0.0,0.11467178468467612,0.1,0.006127357482910156,0.06666159629821777,0.050091043,3.373978,3.8880751852201967,0.0,0.08065895298118947,0.0,107,0.012891292572021484,0.9992220548735763,0.9992220548735763,7917,4.145732394845049,0.0
109,1.404853105545044,5.832752119109518,3.1618566900046066,11.309235009657968,4.001231789164143,0.0,0.10303002827172,0.1,0.0032799243927001953,0.049315690994262695,0.049834732,1.2289963,4.082542878609129,0.0,0.10664717602981022,0.0,86,0.0030808448791503906,0.9907575434153478,0.9907575434153478,8003,3.21036697629638,0.0
110,1.2717163562774658,4.057182697772016,0.08269898253274814,4.200014202585578,4.004369462477156,0.0,0.0973182284032482,0.1,0.00234222412109375,0.05029296875,0.049267743,2.1571245,4.080006860525417,0.0,0.08097903970872519,0.0,58,0.002361297607421875,0.9999220297364522,0.9999220297364522,8061,3.581982921967817,0.0
111,1.3210198879241943,3.7623309412309833,0.4395368588960625,4.026439502378579,3.001172099972691,0.0,0.10751941195106428,0.1,0.0028333663940429688,0.05369234085083008,0.049016226,2.4870927,4.048239268595974,0.0,0.0702539692958453,0.0,90,0.0029947757720947266,1.014063972649842,1.014063972649842,8151,3.1077371415510746,0.0
112,1.326908826828003,4.0220721254681875,0.027883312883686517,4.069554175167185,4.001165429758125,0.0,0.09970268807923514,0.1,0.003387451171875,0.07279276847839355,0.048994444,2.846741,4.045622554283195,0.0,0.07543009743193295,0.0,83,0.0038652420043945312,1.0108828866648472,1.0108828866648472,8234,3.5699777437901847,0.0
113,1.3353874683380127,3.27401965595074,1.3129158937290935,4.067183519451974,1.0003150090716786,0.0,0.11031529231680164,0.1,0.007797718048095703,0.048716068267822266,0.04959418,2.2783055,3.96846226444995,0.0,0.060451776046871464,0.0,65,0.0027894973754882812,1.0086700879216417,1.0086700879216417,8299,4.311255890773424,0.0
114,1.3773810863494873,6.167845129926184,0.15430034605877013,6.428606492641862,6.047702661427406,0.0,0.12842886579258486,0.1,0.003327608108520508,0.05693793296813965,0.048855748,11.157366,4.1884005509975735,0.0,0.08327095932190007,0.0,200,0.1575455665588379,0.9752677396042753,0.9718922279144806,8499,3.676179557523334,0.0
115,1.150820016860962,2.5038408528632994,1.5021787726971383,4.010019004329311,1.000290978696072,0.0,0.0761447862323866,0.1,0.0026683807373046875,0.16869235038757324,0.048510198,3.4996119,4.019944581184147,0.0,0.04006776659899706,0.0,31,0.01592564582824707,0.9972555844283536,0.9972555844283536,8530,3.4951874888549574,0.0
116,1.2425336837768555,2.505994379733666,2.0656971484550675,4.016570215386699,-0.9999331943041936,0.0,0.08732098689147104,0.1,0.011659622192382812,0.09797906875610352,0.049699314,3.4915397,3.868549561039099,0.0,0.04011184872455521,0.0,37,0.0026667118072509766,1.0039054384119175,1.0039054384119175,8567,4.31877444672977,0.0
117,1.2476260662078857,4.015570067784619,0.013611450838887922,4.037403245583367,4.0011482797297475,0.0,0.0989364592044452,0.1,0.0024743080139160156,0.04644036293029785,0.049837675,1.4517343,3.883251611713651,0.0,0.07528894152524412,0.0,53,0.0026793479919433594,0.9935442230868676,0.9935442230868676,8620,4.6263778046477295,0.0
118,1.4185545444488525,4.034573566279895,0.02736313118855588,4.072056204040818,4.007669698839061,0.0,0.12515825139288833,0.1,0.017757177352905273,0.059195518493652344,0.05019981,1.9073671,3.8983838071702754,0.0,0.08068114730126925,0.0,103,0.014637470245361328,1.0052910021115402,1.0052910021115402,8723,4.168866673053739,0.0
119,1.2873234748840332,4.0612392539747635,0.06956133375186835,4.180265376706171,4.005091917884177,0.0,0.11278975727334391,0.1,0.0030248165130615234,0.051557302474975586,0.04996414,2.3554246,3.9146693518507245,0.0,0.08108427692901034,0.0,101,0.014074563980102539,1.0080418417793102,1.0080418417793102,8824,4.162439251571467,0.0
120,1.342588186264038,4.029755822422377,0.02661958029939946,4.064632737199253,4.003872304270861,0.0,0.09913441837782472,0.1,0.012884378433227539,0.08068108558654785,0.050123785,2.0706956,3.9261779989078898,0.0,0.08058854663473405,0.0,57,0.002604246139526367,1.0000424527159786,1.0000424527159786,8881,3.936698948264343,0.0
121,1.3300158977508545,2.769875221292983,1.6433809487318543,4.056202992011049,0.017994953264027558,0.0,0.09388502780969982,0.1,0.0024144649505615234,0.04640483856201172,0.048982352,2.529074,3.810547721146399,0.0,0.045393239555861435,0.0,53,0.0033833980560302734,1.001301911900263,1.001301911900263,8934,3.8270704305387717,0.0
122,1.3257696628570557,4.017353644733813,0.014069170649874441,4.0411983497984885,4.006237203739325,0.0,0.10723263840755266,0.1,0.0024352073669433594,0.04641127586364746,0.04814392,1.5684799,3.8312283135051404,0.0,0.08030470302370803,0.0,54,0.0027763843536376953,1.0012181112980933,1.0012181112980933,8988,3.656868035554206,0.0
123,1.3850889205932617,4.0408099203947945,0.06299261724268822,4.149806665929277,4.00158251047156,0.0,0.09550224983096361,0.1,0.002408266067504883,0.04912590980529785,0.049102854,2.0036209,3.852186474194106,0.0,0.0807844128923102,0.0,62,0.0026280879974365234,1.0029303357284571,1.0029303357284571,9050,4.06331114032044,0.0
124,1.374220371246338,5.031679795623347,1.01480026465021,6.051014198068796,4.010964170214783,0.0,0.12500289558249414,0.1,0.003537893295288086,0.05384969711303711,0.04951218,1.9149113,3.97013580633703,0.0,0.08062236275542779,0.0,134,0.02378106117248535,0.9849772024771195,0.9817603420176887,9184,3.720910862071246,0.0
125,1.4167375564575195,4.0395147232183,0.02671978638809558,4.083361256760794,4.01656050455421,0.0,0.12552557167694955,0.1,0.0032896995544433594,0.054178476333618164,0.049482223,2.4206808,3.9770736980251575,0.0,0.08076168015802254,0.0,130,0.01417994499206543,1.0085218002457341,0.9958019433483027,9314,3.9915962067188993,0.0
126,1.3826208114624023,3.517216976618657,0.8756277185377315,4.053073048896056,2.000936071725105,0.0,0.10886886875417578,0.1,0.002595663070678711,0.049123525619506836,0.04993544,5.6564646,3.9310880258845073,0.0,0.06534098084617941,0.0,81,0.0024933815002441406,0.994557049339781,0.994557049339781,9395,2.7807299862694674,0.0
127,1.4147753715515137,2.5117595263017845,1.6688074954441918,4.045727709955543,0.00016250394201899887,0.0,0.09438469535455017,0.1,0.0022797584533691406,0.04540729522705078,0.049242657,2.9291663,3.7891551759262354,0.0,0.035221899284140115,0.0,51,0.0027108192443847656,0.9888129887680994,0.9888129887680994,9446,3.78932272344989,0.0
128,1.31011962890625,3.2582231050760475,1.3035609680404754,4.021870089647868,1.000420940489786,0.0,0.09570654388793143,0.1,0.0034978389739990234,0.19067931175231934,0.04861623,2.0874724,3.7360619688412164,0.0,0.06014742008238335,0.0,41,0.015990495681762695,0.9986958016214138,0.9986958016214138,9487,3.716727278136451,0.0
129,1.2853035926818848,4.018400900594496,0.009755295162102686,4.03519409906511,4.0114525872315605,0.0,0.10766219141007172,0.1,0.005095958709716797,0.051862478256225586,0.049518384,2.328151,3.7642958620165445,0.0,0.08034241507439792,0.0,75,0.002561330795288086,0.9978793679061988,0.9978793679061988,9562,3.0314552917623234,0.0
130,1.2925705909729004,2.786226605850932,2.186035842387941,4.073154114268455,-0.9999362422628171,0.0,0.0973016812909769,0.1,0.00289154052734375,0.057968854904174805,0.049288396,4.1164136,3.6664889363999835,0.0,0.0506555004252915,0.0,68,0.0029144287109375,0.9996782310501208,0.9996782310501208,9630,3.7786552491190775,0.0
131,1.3380393981933594,4.030073899675633,0.035552294605231224,4.091224046188136,4.00286965988308,0.0,0.1041212266188436,0.1,0.002878427505493164,0.04956626892089844,0.049110465,2.209088,3.7028474327275487,0.0,0.08056973341551284,0.0,75,0.004220247268676758,0.9980072091767194,0.9980072091767194,9705,3.8029312471029564,0.0
132,1.2463514804840088,4.005484545865607,0.003664285823913629,4.011719446651613,4.002472041628958,0.0,0.09132349773736884,0.1,0.0028998851776123047,0.07629513740539551,0.049724497,1.775728,3.733111144041355,0.0,0.08009484723858543,0.0,47,0.0026819705963134766,0.9958782333930564,0.9958782333930564,9752,3.6442265166829864,0.0
133,1.3309152126312256,3.808093193457182,1.827133900333212,6.120159743053131,1.0002162179756637,0.0,0.11375635919085882,0.1,0.0025866031646728516,0.049683570861816406,0.050826337,2.0447645,3.7406093489829377,0.0,0.06109762012960748,0.0,88,0.0027921199798583984,0.9899048745888384,0.9899048745888384,9840,2.9417774652532303,0.0
134,1.439882755279541,4.5343207438254955,0.8987150683317944,6.09093448574186,4.01318860957708,0.0,0.11844171455699785,0.1,0.002674579620361328,0.0513153076171875,0.048390917,1.9456214,3.819980488467194,0.0,0.08066846141806225,0.0,104,0.017127037048339844,0.9882945541807384,0.9882945541807384,9944,3.818427977062676,0.0
135,1.3012206554412842,4.027858585920319,0.02208742195318935,4.064447356746637,4.009982573869638,0.0,0.10790922071816683,0.1,0.0027081966400146484,0.049857378005981445,0.050443996,2.3751345,3.8407682982125064,0.0,0.08051293015688954,0.0,78,0.0027561187744140625,1.002290227208681,1.002290227208681,10022,3.7423728638220006,0.0
136,1.4696142673492432,4.079363259107861,1.440832809953359,6.0688868661422655,2.000465132475507,0.0,0.12451481165357109,0.1,0.002836942672729492,0.05470538139343262,0.050949372,2.788677,3.864627794302042,0.0,0.06647708256112285,0.0,126,0.013171672821044922,0.987951387296726,0.987951387296726,10148,3.473628319061285,0.0
137,1.3351430892944336,3.0144803634807813,1.7403370560178884,4.031859021165863,0.00016081752113716874,0.0,0.09089283981379175,0.1,0.0027647018432617188,0.11646127700805664,0.049723767,2.8901832,3.7796130512199158,0.0,0.05027747294810378,0.0,40,0.01637554168701172,0.9990038368981048,0.9990038368981048,10188,3.1333543897688743,0.0
138,1.4645626544952393,5.096288569638803,1.050857515558529,6.154168833110851,4.003571791787965,0.0,0.13544708121195168,0.1,0.003230571746826172,0.05900216102600098,0.050004106,1.8246877,3.9112806030618046,0.0,0.08190045458888393,0.0,142,0.043398380279541016,0.9760284830596321,0.9722335889096083,10330,4.0679063428397715,0.0
139,1.2891883850097656,2.762810307524737,2.172466082256184,4.040383867164131,-0.9999271219810033,0.0,0.09368521372661659,0.1,0.010508537292480469,0.18950152397155762,0.049482144,1.9487938,3.7964335735080983,0.0,0.050251678505130695,0.0,38,0.0024862289428710938,0.9923444026043298,0.9923444026043298,10368,3.22292951615322,0.0
140,1.3898348808288574,4.020394548585343,0.00870376880715728,4.030426407185872,4.006449204034892,0.0,0.10105513841519125,0.1,0.005848407745361328,0.04963278770446777,0.049419075,3.4797153,3.818829671015823,0.0,0.07539188028909419,0.0,76,0.0027358531951904297,0.9830699701182543,0.9830699701182543,10444,3.025309205249261,0.0
141,1.3848886489868164,5.5580199929184335,2.62889449723294,10.111011487064914,4.003149864966362,0.0,0.10675946702943197,0.1,0.0027701854705810547,0.0580446720123291,0.04887314,2.006438,3.9927487032060838,0.0,0.10614256157030039,0.0,98,0.0026938915252685547,0.9926965979017853,0.9926965979017853,10542,2.982822181315246,0.0
142,1.4113705158233643,4.027340342258508,0.010903518324943995,4.0459944411904845,4.019057953970156,0.0,0.12523469510574145,0.1,0.0026144981384277344,0.05127215385437012,0.048617397,2.166705,3.9962078671113264,0.0,0.08054148060168385,0.0,114,0.011920452117919922,0.9822528292104049,0.9822528292104049,10656,2.8605497053200692,0.0
143,1.363823413848877,3.512835817281512,0.8732823866715554,4.038520274390352,2.0004417628147912,0.0,0.09682857756916977,0.1,0.013297080993652344,0.08009076118469238,0.04971773,2.0463374,3.947870662128345,0.0,0.06523006186094366,0.0,57,0.0024836063385009766,0.9801274676078068,0.9801274676078068,10713,3.6564706224349983,0.0
144,1.2778384685516357,2.7658683572713656,2.1742675608574604,4.051808852023795,-0.9999329596305893,0.0,0.09144014797092909,0.1,0.002810955047607422,0.10701417922973633,0.048958,2.0982263,3.829670431642647,0.0,0.050310287494752234,0.0,41,0.01650238037109375,0.9872963741964115,0.9872963741964115,10754,3.7011937372448425,0.0
145,1.3923475742340088,4.022754182949508,0.01711781592723465,4.049554653927332,4.002110792722494,0.0,0.09436353707090295,0.1,0.0027713775634765625,0.04631400108337402,0.04807884,2.07217,3.8489788067733333,0.0,0.08043051765629196,0.0,52,0.0028235912322998047,0.9885833559850772,0.9885833559850772,10806,3.878374665207966,0.0
146,1.46370267868042,4.286273870796481,1.1099553433869669,6.062344618285694,3.0017419411848416,0.0,0.10211890631748712,0.1,0.002670764923095703,0.05582165718078613,0.04947662,3.1880028,3.892708313175648,0.0,0.0707028860509543,0.0,105,0.012176513671875,0.9789484584546317,0.9789484584546317,10911,3.700407770635291,0.0
147,1.4075860977172852,4.032658299494089,0.018612841841293276,4.064077500563541,4.017762909952619,0.0,0.12205589445267603,0.1,0.050673484802246094,0.12177562713623047,0.04994005,2.4419322,3.906703311807492,0.0,0.08063803558776762,0.0,106,0.011896610260009766,0.9811007240439193,0.9811007240439193,11017,3.1134654303057663,0.0
148,1.3000826835632324,4.033398142369762,0.019762330668212313,4.05772059668897,4.013901664859981,0.0,0.11866953556599759,0.1,0.05051994323730469,0.376741886138916,0.049861,1.5349488,3.9193727948637194,0.0,0.08066869053809969,0.0,89,0.0028274059295654297,0.9834776351191192,0.9834776351191192,11106,3.165168928947919,0.0
149,1.4835164546966553,3.842691447426753,0.4886666296098513,4.207692681313188,3.0010503696966553,0.0,0.12443925517660455,0.1,0.0031614303588867188,0.053350210189819336,0.048961468,2.9535937,3.911704660120023,0.0,0.07183524145259283,0.0,135,0.08646130561828613,0.9791097233290201,0.9573532596080337,11241,4.092401049256577,0.0
150,1.4600396156311035,4.039725720067166,0.01984484908138549,4.061772878748375,4.010805263145814,0.0,0.12260250705010914,0.1,0.003802776336669922,0.07903575897216797,0.04659614,3.155719,3.9245067661147375,0.0,0.08078128496338136,0.0,142,0.08637762069702148,0.9574651088349705,0.9289515437419671,11383,3.23858261890477,0.0
151,1.3577473163604736,3.771313680290217,0.44404470876341934,4.034081278137596,3.0022401834579444,0.0,0.1004705436496033,0.1,0.002755403518676758,0.06162619590759277,0.049723793,2.719089,3.9091874575322856,0.0,0.0703748672264158,0.0,71,0.002861499786376953,0.9464639633723939,0.9464639633723939,11454,3.255986750545041,0.0
152,1.4003314971923828,4.048708856591273,0.07924269849829618,4.185957264712698,4.0022851828747985,0.0,0.10452658369040613,0.1,0.002492666244506836,0.053052663803100586,0.050611418,1.4929959,3.923139597438184,0.0,0.0809457406181065,0.0,65,0.0032956600189208984,0.9583830177757188,0.9583830177757188,11519,3.216265853026448,0.0
153,1.3991930484771729,3.0790846268926613,1.7794382486985412,4.235207342915555,0.00016206730254664237,0.0,0.10611523172465862,0.1,0.00269317626953125,0.05218768119812012,0.050510917,2.8957067,3.838734100383632,0.0,0.056509038650493115,0.0,84,0.003462076187133789,0.9368654024658477,0.9368654024658477,11603,3.851832524058571,0.0
154,1.4210822582244873,2.8069934605708142,2.1987800399320836,4.175554841165547,-0.9999250287334664,0.0,0.12286832708046477,0.1,0.050019025802612305,0.38289856910705566,0.049730662,4.170147,3.7355600364023505,0.0,0.05112594163467849,0.0,100,0.002983570098876953,0.9343583356569145,0.9343583356569145,11703,3.3047112496992157,0.0
155,1.4718849658966064,4.5436397060881175,0.8749055882076847,6.058965692987186,4.026441406300202,0.0,0.12836890874089163,0.1,0.002829313278198242,0.053871870040893555,0.050048016,2.4939117,3.8163680033709273,0.0,0.08084164276066727,0.0,135,0.021106719970703125,0.9439456201215065,0.9239131640927075,11838,3.719103048253041,0.0
156,1.359461784362793,3.317702843522059,1.3312027807686835,4.201001243008168,1.0153669832222099,0.0,0.10057523236593455,0.1,0.004666328430175781,0.05420947074890137,0.05033863,2.5961874,3.7665014873860407,0.0,0.06133619004917998,0.0,61,0.002588510513305664,0.918551294391818,0.918551294391818,11899,3.893974822201677,0.0
157,1.356095314025879,3.040374419565529,1.7553046373860606,4.081297626382681,0.00028900769624140565,0.0,0.11361800083972495,0.1,0.002674102783203125,0.05305647850036621,0.050135992,2.161605,3.6938887806039897,0.0,0.05578155454466936,0.0,95,0.0028333663940429688,0.8993614553216209,0.8993614553216209,11994,3.28944762795731,0.0
158,1.4832806587219238,4.589172923090721,0.9375180511839742,6.212691223988106,4.022944321804973,0.0,0.11570915094456181,0.1,0.004939079284667969,0.06516146659851074,0.04946234,4.533856,3.783417194852663,0.0,0.08176732534549355,0.0,138,0.08513426780700684,0.931105825202804,0.9114084731771694,12132,3.4427154309610937,0.0
159,1.3270385265350342,4.089204075462259,0.08218431339268013,4.230997704879983,4.034629193251295,0.0,0.1241141506941963,0.1,0.002594470977783203,0.05047488212585449,0.050127868,2.153332,3.8139958829136225,0.0,0.08169672593959448,0.0,94,0.0027475357055664062,0.8864594992964342,0.8864594992964342,12226,3.7359134198072073,0.0
160,1.4605672359466553,4.601225715060982,0.967004800190394,6.274342572466051,4.001100411146857,0.0,0.11477848110672516,0.1,0.0027513504028320312,0.05228781700134277,0.05041826,1.6288921,3.8927188661283583,0.0,0.08195032771257589,0.0,96,0.008935928344726562,0.964723049187796,0.964723049187796,12322,4.126621823853539,0.0
161,1.4643216133117676,4.544161563558751,0.8909611875255238,6.087050067331709,4.008984684971832,0.0,0.12458104984555782,0.1,0.002658367156982422,0.051413774490356445,0.050844792,1.92006,3.9578631358713974,0.0,0.08085906822816033,0.0,114,0.01213979721069336,0.9179553188907434,0.9179553188907434,12436,4.149197953645347,0.0
162,1.33945894241333,4.007774351739165,0.004388368215427255,4.012238506231061,4.002509672615373,0.0,0.09164870428484974,0.1,0.011217355728149414,0.1941995620727539,0.04888733,3.124719,3.9628542574581744,0.0,0.08013216294026587,0.0,48,0.01625680923461914,0.945238437093048,0.945238437093048,12484,2.5573263659348298,0.0
163,1.4144675731658936,4.107505560549654,0.13128108339399147,4.334618187012895,4.021862719810217,0.0,0.11461681934705369,0.1,0.012600183486938477,0.04300999641418457,0.05121452,2.1975508,3.9773193877673223,0.0,0.08209423252974885,0.0,85,0.003293275833129883,0.9025806583450451,0.9025806583450451,12569,3.8472206822838486,0.0
164,1.4007937908172607,4.016746236131127,0.014821377208921535,4.041815182707748,4.003178888740628,0.0,0.10557696367109154,0.1,0.0023832321166992188,0.046788930892944336,0.04921524,1.366498,3.9812620726037027,0.0,0.08026397541073325,0.0,55,0.0028972625732421875,0.9231186927435333,0.9231186927435333,12624,3.4796467645405955,0.0
165,1.3366374969482422,4.104143083485178,0.08668124789059112,4.225127538665972,4.006000990537594,0.0,0.10790658449288137,0.1,0.0030193328857421875,0.051807403564453125,0.049222954,2.3872552,3.99355017369185,0.0,0.08183154014809202,0.0,84,0.0027112960815429688,0.8965651669656721,0.8965651669656721,12708,3.697722148309781,0.0
166,1.4870779514312744,4.536885599783771,0.9089768577822921,6.111272252675351,4.009778901954624,0.0,0.10283328565235267,0.1,0.0028235912322998047,0.05400705337524414,0.048863657,2.7804453,4.047883716301042,0.0,0.08072267043796147,0.0,78,0.0028810501098632812,1.0025102926119105,1.0025102926119105,12786,3.9601180660687834,0.0
167,1.315429925918579,2.7550865627183496,1.6427691980372319,4.0174066874766385,0.0005692325060246972,0.0,0.07641062123238718,0.1,0.0028595924377441406,0.20344901084899902,0.04984732,3.4136102,3.918604000942773,0.0,0.045093204004968225,0.0,26,0.002597332000732422,0.9945127285921022,0.9945127285921022,12812,4.735937377231154,0.0
168,1.4410021305084229,2.7943181696308277,2.1907158001827374,4.094276229249108,-0.9999290368395113,0.0,0.1110045851066172,0.1,0.00609135627746582,0.05188941955566406,0.050716452,4.5913777,3.8061754178115788,0.0,0.05081257312862068,0.0,107,0.01338338851928711,0.8681027152095472,0.8681027152095472,12919,3.4681861520928354,0.0
169,1.2729012966156006,3.5184341391874026,0.8762201531394088,4.038754201764072,2.000946241883641,0.0,0.08356134397389403,0.1,0.010859012603759766,0.16068029403686523,0.049875513,2.1797588,3.7774012899491614,0.0,0.06035221172378425,0.0,35,0.0027430057525634766,0.961845012280408,0.961845012280408,12954,3.950105126600292,0.0
170,1.5331478118896484,4.579735086532681,0.9789004657570892,6.275074750023193,4.003355751816349,0.0,0.10634249078389735,0.1,0.005434274673461914,0.0572359561920166,0.04979727,2.9601812,3.8576346696075134,0.0,0.0815495298330532,0.0,90,0.0029349327087402344,0.9753804610172301,0.9753804610172301,13044,4.2104328215870055,0.0
171,1.426908254623413,4.037980563687679,0.028508404677471354,4.083314907104699,4.006746637567959,0.0,0.10205379820644846,0.1,0.002809286117553711,0.05600142478942871,0.049467433,2.7709336,3.87566925901553,0.0,0.08072914499991504,0.0,85,0.0026388168334960938,0.88071059036507,0.88071059036507,13129,4.5539729978007095,0.0
172,1.5031423568725586,1.7660435165905723,1.8052008282275718,4.062639794383572,0.00015085818339555246,0.0,0.08749453333218499,0.1,0.0025436878204345703,0.04875326156616211,0.048639562,4.4368787,3.6647066847730345,0.0,0.020319300632692053,0.0,52,0.0029015541076660156,0.8745462114113222,0.8745462114113222,13181,4.132567723232379,0.0
173,1.501307487487793,2.52521915534987,2.079982798229343,4.087325767357925,-0.9999261450971135,0.0,0.08836814976959315,0.1,0.01185297966003418,0.05052995681762695,0.049823463,4.7962584,3.5507579318307183,0.0,0.040499657225653546,0.0,63,0.002890348434448242,0.8803224882118746,0.8803224882118746,13244,3.8087878583383055,0.0
174,1.477949857711792,2.7801729020855155,2.182538974571868,4.070432012704158,-0.9999316209092985,0.0,0.11591731804803194,0.1,0.0027818679809570312,0.05104947090148926,0.053028025,2.6690555,3.473699428856198,0.0,0.050587123680854995,0.0,86,0.003034353256225586,0.8829765734211733,0.8829765734211733,13330,3.724366171188967,0.0
175,1.328564167022705,4.008700850161011,0.0006923807614029555,4.009222292857468,4.007509412549144,0.0,0.08849226719624875,0.1,0.0028839111328125,0.08406352996826172,0.049803726,1.8429905,3.5271995709866792,0.0,0.08016273947514278,0.0,38,0.0027892589569091797,0.9804268320066184,0.9804268320066184,13368,3.4619733054295536,0.0
176,1.482102632522583,4.047534330250914,0.05267168390729677,4.138006404023824,4.006320399353285,0.0,0.10116901343775063,0.1,0.0044133663177490234,0.05022096633911133,0.04918534,2.5617342,3.579233046913103,0.0,0.080923996181651,0.0,81,0.002844572067260742,0.8966493721502947,0.8966493721502947,13449,3.790617146961814,0.0
177,1.3404872417449951,3.007252601273578,1.7358542566311626,4.01275513133826,0.0006669749857508567,0.0,0.09092335854091316,0.1,0.0023598670959472656,0.09247922897338867,0.050006848,2.1207476,3.5220350023491505,0.0,0.05512720298004502,0.0,42,0.0024116039276123047,0.9437639601951033,0.9437639601951033,13491,3.283399450432008,0.0
178,1.383676528930664,3.5148613456276854,0.512022628753328,4.029582487577362,3.001010690825983,0.0,0.10476216180696424,0.1,0.030295133590698242,0.16898417472839355,0.05023231,2.6057343,3.521317636677004,0.0,0.060272426773070736,0.0,72,0.003178834915161133,0.8726585169623476,0.8726585169623476,13563,4.2192566476476125,0.0
179,1.5145270824432373,2.7998617957221104,2.193953232854155,4.1073859957582375,-0.9999283835163695,0.0,0.11167286678374687,0.1,0.0034325122833251953,0.06876325607299805,0.049741857,2.440555,3.4491720525815146,0.0,0.05092630524175471,0.0,85,0.0028967857360839844,0.87439426783906,0.87439426783906,13648,3.433763103411677,0.0
180,1.467780351638794,4.0308890669382595,0.02324865939482946,4.066847391639271,4.002058980483797,0.0,0.10918362749051977,0.1,0.003779888153076172,0.04938101768493652,0.050088417,2.3983986,3.5073437540171892,0.0,0.07560469461323158,0.0,91,0.002401590347290039,0.8856903788216657,0.8856903788216657,13739,4.391088842639132,0.0
181,1.495126485824585,3.5573968337812008,2.218149208016986,6.11052465702601,0.00017680565000999238,0.0,0.1064240076499509,0.1,0.0028200149536132812,0.0521092414855957,0.04947823,2.944485,3.5123490619935906,0.0,0.056135506350855555,0.0,100,0.0025682449340820312,0.9306585517138625,0.9306585517138625,13839,3.620692528303593,0.0
182,1.3976471424102783,3.759426981652375,0.43793461585395166,4.021700035507255,3.0009826583568207,0.0,0.0984114401734744,0.1,0.007306337356567383,0.08363127708435059,0.049686972,1.7982904,3.537056853959469,0.0,0.0701864999360647,0.0,46,0.0032536983489990234,0.9356960913276476,0.9356960913276476,13885,3.3976416580253326,0.0
183,1.377140760421753,3.2534244871929694,0.8318012206678219,4.008776878371844,2.0004869130299765,0.0,0.0732994288922205,0.1,0.002461671829223633,0.21368622779846191,0.049862273,2.4697735,3.508693617282819,0.0,0.05505405523224218,0.0,26,0.015943050384521484,0.9852020387690016,0.9852020387690016,13911,3.8081413690956247,0.0
184,1.3994858264923096,4.022153816351276,0.014542561230452543,4.046316807965448,4.0087395891226,0.0,0.10076111794900201,0.1,0.012912273406982422,0.0696554183959961,0.04950715,2.1355193,3.5600396371896648,0.0,0.08039849041854513,0.0,56,0.002458810806274414,0.9246681977542754,0.9246681977542754,13967,3.9506085130291275,0.0
185,1.4757461547851562,2.761614590070245,2.171759625494289,4.0343098245809035,-0.9999303039627039,0.0,0.10260100244074977,0.1,0.0029430389404296875,0.04940342903137207,0.051218685,2.0280511,3.480197132477723,0.0,0.050222871496518676,0.0,59,0.002717256546020508,0.9021840953559073,0.9021840953559073,14026,3.7730402609653346,0.0
186,1.408137559890747,4.022864230843036,0.01567115348043149,4.040651095577709,4.004615561305034,0.0,0.10808787878902908,0.1,0.003016233444213867,0.05634641647338867,0.052183498,2.379195,3.5344638423142545,0.0,0.07544610133121614,0.0,73,0.0028612613677978516,0.8925200515339218,0.8925200515339218,14099,3.405757864982975,0.0
187,1.4782073497772217,4.0470411943174165,0.020283477018059496,4.076157089470031,4.022534425242202,0.0,0.1375289859192108,0.1,0.0050313472747802734,0.08276915550231934,0.050903615,1.7756864,3.5857215775145708,0.0,0.08093225359072456,0.0,145,0.020437955856323242,0.8646857230190909,0.8227455191370499,14244,3.568137188397959,0.0
188,1.5239763259887695,4.214516934029468,0.22594319141510408,4.591299042501931,4.02132356458419,0.0,0.12479883575355753,0.1,0.0029942989349365234,0.054406166076660156,0.050773643,2.3939803,3.6486011131660607,0.0,0.0840606467046002,0.0,129,0.07607197761535645,0.8399056756463489,0.7981879282172873,14373,3.7287265289906983,0.0
189,1.407944679260254,4.014685547818486,0.0118705655231135,4.0287610701286125,4.000453304574884,0.0,0.08905960472836927,0.1,0.012771844863891602,0.07667398452758789,0.0500705,2.8496418,3.6852095566313032,0.0,0.07526714700472334,0.0,55,0.002607583999633789,0.8814453244625872,0.8814453244625872,14428,4.156669144891199,0.0
190,1.3880152702331543,2.0173532844822932,2.1314418417877676,4.038108754118853,-0.9999314499406693,0.0,0.07440507965613934,0.1,0.009424209594726562,0.10287714004516602,0.0493788,10.144323,3.5184239294164024,0.0,0.03034836185330552,0.0,37,0.004221916198730469,0.8730633689404118,0.8730633689404118,14465,3.264944160747215,0.0
191,1.3794574737548828,2.2634584140253557,2.056900030417405,4.045647522675459,-0.9999225857771306,0.0,0.073601497884788,0.1,0.0024919509887695312,0.1085362434387207,0.048922803,3.2014747,3.3929273778772977,0.0,0.035219715518515646,0.0,29,0.0024797916412353516,0.9108780727147738,0.9108780727147738,14494,3.2152164256817137,0.0
192,1.4083847999572754,3.5049851819350932,0.8682802910571299,4.008251359934299,2.001084534691066,0.0,0.09959544485272223,0.1,0.0027587413787841797,0.15326356887817383,0.049436353,1.6480829,3.4041331582830776,0.0,0.06509920653422935,0.0,55,0.002975940704345703,0.8708806409956104,0.8708806409956104,14549,4.0850277353335285,0.0
193,1.4222588539123535,4.030886378942836,0.01208601681190831,4.04881259906623,4.017932767743681,0.0,0.1125768725435059,0.1,0.003272533416748047,0.06714272499084473,0.047728807,14.462247,3.4668084803490533,0.0,0.08054484466933594,0.0,80,0.0030944347381591797,0.8189812607889935,0.8189812607889935,14629,3.7135217587692253,0.0
194,1.3675031661987305,2.004477756495646,2.0032563866241238,4.013380474011445,0.0005768860902097828,0.0,0.07994668176850932,0.1,0.0026307106018066406,0.21915364265441895,0.04931202,2.5894902,3.320575407963713,0.0,0.030086952952478242,0.0,26,0.005284309387207031,0.9397924433528624,0.9397924433528624,14655,3.566848912244449,0.0
195,1.435340166091919,4.024088573024869,0.014980943777596371,4.044816354264672,4.005824032153143,0.0,0.11303361249178981,0.1,0.0028312206268310547,0.048958539962768555,0.04985552,1.726335,3.390926724469829,0.0,0.08047228347224321,0.0,75,0.002620220184326172,0.8420028991923475,0.8420028991923475,14730,3.2184384163953133,0.0
196,1.4586212635040283,3.029253873768017,1.7488400682169678,4.058512037527708,0.00025364687103701655,0.0,0.10920246270601712,0.1,0.0057866573333740234,0.0504918098449707,0.049758565,4.219706,3.354759439399648,0.0,0.055560045731418664,0.0,106,0.01183009147644043,0.7710974864602821,0.7710974864602821,14836,4.328892387332332,0.0
197,1.365729808807373,4.023609405038342,0.012847148469388614,4.035890119139814,4.002374873309183,0.0,0.10369092059319349,0.1,0.0105133056640625,0.1275341510772705,0.050278295,1.7870673,3.4216444359635174,0.0,0.0804249950013446,0.0,74,0.016543149948120117,0.8512725421067149,0.8512725421067149,14910,4.130339152377612,0.0
198,1.5750210285186768,4.034811063311251,0.03561906347001081,4.092182162491786,4.003863392688968,0.0,0.10935246734337041,0.1,0.002499103546142578,0.04821515083312988,0.050007407,2.1782548,3.482961098698291,0.0,0.0806942256201195,0.0,84,0.0024886131286621094,0.8324648564811156,0.8324648564811156,14994,4.471400911282347,0.0
199,1.397219181060791,4.055724907685675,0.03867079938727978,4.114808655219957,4.006755611296729,0.0,0.10860740399520624,0.1,0.0025153160095214844,0.05119013786315918,0.05052365,2.619092,3.540237479597029,0.0,0.0810827306347025,0.0,92,0.0025224685668945312,0.8330205292290302,0.8330205292290302,15086,3.891071368920992,0.0
200,1.4331772327423096,3.534886378542615,0.8616332632076786,4.045182616738595,2.0426694807121333,0.0,0.09647241120321727,0.1,0.002350330352783203,0.047484397888183594,0.0493777,2.3369808,3.5397023694915877,0.0,0.06560642721832326,0.0,62,0.002596616744995117,0.8459300261075745,0.8459300261075745,15148,3.808936489780098,0.0
201,1.4502625465393066,4.06557937673095,0.06186332145656201,4.16640623507887,4.005222312403623,0.0,0.10840358228712689,0.1,0.002488374710083008,0.06235504150390625,0.04970785,2.9320495,3.592290070215524,0.0,0.08128020461532323,0.0,97,0.0026047229766845703,0.8171331496178941,0.8171331496178941,15245,3.7019085892612527,0.0
202,1.4200994968414307,4.03594289765931,0.010925880862416654,4.048396467065968,4.018881683927092,0.0,0.11239273561716769,0.1,0.003156423568725586,0.055249691009521484,0.048714258,1.9326565,3.6366553529599024,0.0,0.08067210813558011,0.0,92,0.0028624534606933594,0.8163664401360217,0.8163664401360217,15337,3.457881714155286,0.0
203,1.3856537342071533,4.0134772016050775,0.007345485400392068,4.022043927332027,4.0017532435453,0.0,0.11709027753708731,0.1,0.004870414733886719,0.05058765411376953,0.04993104,1.5658605,3.67433753782442,0.0,0.07526406451306708,0.0,80,0.0026595592498779297,0.8230012552890126,0.8230012552890126,15417,3.6439289245366617,0.0
204,1.4779367446899414,4.021971320542001,0.029956170540491708,4.073779427858623,4.003076633486431,0.0,0.10449964354786268,0.1,0.002641439437866211,0.05143308639526367,0.04923386,2.08029,3.7091009160961783,0.0,0.08042601732455487,0.0,72,0.0025238990783691406,0.8526346592875105,0.8526346592875105,15489,4.062353042765064,0.0
205,1.5397288799285889,4.0172572175983055,0.0071077873530824755,4.025063734859755,4.005725917308256,0.0,0.0965828320967247,0.1,0.0040912628173828125,0.05662059783935547,0.049013056,2.6388955,3.739916546246391,0.0,0.0803268571564124,0.0,66,0.002283811569213867,0.8682208446549007,0.8682208446549007,15555,4.223602450891518,0.0
206,1.3865296840667725,3.262847064780341,1.3062905974923746,4.029480263323135,1.0003283567291967,0.0,0.09062303894482272,0.1,0.0025522708892822266,0.0480959415435791,0.0493426,3.4147873,3.6922095980997858,0.0,0.06024676464869565,0.0,56,0.002935647964477539,0.8599350439868668,0.8599350439868668,15611,3.2123621394783997,0.0
207,1.5367138385772705,3.5427630960529344,2.210533437174355,6.092839967603689,0.0002833663193861913,0.0,0.11236718780731177,0.1,0.002709627151489258,0.06136345863342285,0.049072683,2.5791864,3.6772649478951007,0.0,0.05584745300543843,0.0,104,0.017229080200195312,0.8997076308970555,0.8997076308970555,15715,4.052078600064343,0.0
208,1.5192792415618896,4.034595295261217,0.020621237017031776,4.062836229415704,4.004618167161818,0.0,0.10767133267429495,0.1,0.0029172897338867188,0.054685115814208984,0.05014528,3.1629708,3.7129979826317125,0.0,0.07566172918739586,0.0,88,0.016088008880615234,0.8199150698975279,0.8199150698975279,15803,3.7280412427089487,0.0
209,1.4841985702514648,4.0552947569345665,0.03540454637873711,4.093666878114012,4.01513519497447,0.0,0.11077434646198617,0.1,0.0032820701599121094,0.06875801086425781,0.04972804,2.2484953,3.747227660061998,0.0,0.08108160243544744,0.0,96,0.003256559371948242,0.8093063072778695,0.8093063072778695,15899,3.5459407709092177,0.0
210,1.4403603076934814,4.010426562170608,0.005104283210078715,4.015284455990079,4.002654103994621,0.0,0.10221559563838943,0.1,0.030159950256347656,0.06796622276306152,0.04972509,2.3883045,3.773547550272859,0.0,0.08019785515162671,0.0,68,0.0027616024017333984,0.849426376899979,0.849426376899979,15967,4.044328807950039,0.0
211,1.5097441673278809,2.7667936262670243,2.4026566792430146,6.044320832349778,0.00017294651932586724,0.0,0.09776619772365708,0.1,0.0025217533111572266,0.05391240119934082,0.049424063,4.289531,3.6728721578722756,0.0,0.03531342894849463,0.0,72,0.003798246383666992,1.0007962024908459,1.0007962024908459,16039,3.5444010003519106,0.0
212,1.5688447952270508,2.544334559197262,2.0924758650423265,4.155656760601772,-0.9999247597086496,0.0,0.09515252274646997,0.1,0.002763032913208008,0.049527645111083984,0.050003417,3.4676309,3.5600183980047744,0.0,0.04085281311512537,0.0,64,0.002763509750366211,0.829990668270603,0.829990668270603,16103,3.6400645090557604,0.0
213,1.490372657775879,4.02122283818623,0.016280318112502228,4.047669220220058,4.005904940013248,0.0,0.10253562127561947,0.1,0.0025081634521484375,0.05265092849731445,0.049289893,3.0431812,3.6061388420229203,0.0,0.0804034401519645,0.0,80,0.0026776790618896484,0.8276160105206546,0.8276160105206546,16183,3.6145521425618305,0.0
214,1.4822397232055664,4.023226803455129,0.015580224390551616,4.044653307680504,4.002171913791266,0.0,0.1095726184193871,0.1,0.002535104751586914,0.04923582077026367,0.05018316,1.8684387,3.6478476381661413,0.0,0.08044565787360028,0.0,82,0.002840280532836914,0.8288316892787645,0.8288316892787645,16265,3.7832076574184708,0.0
215,1.5361390113830566,4.052240850068403,0.02358892040873436,4.088683912166504,4.022712205833976,0.0,0.11492222061548489,0.1,0.002852916717529297,0.054242610931396484,0.048027772,2.266724,3.6882869593563674,0.0,0.08101684161940867,0.0,123,0.011787891387939453,0.7949230122592552,0.7949230122592552,16388,4.0491572522890635,0.0
216,1.5834834575653076,4.537440166092101,0.8711294192150848,6.045600398212353,4.008053014750271,0.0,0.12353656712313213,0.1,0.0050466060638427734,0.06403899192810059,0.04983178,1.6295582,3.773202280029941,0.0,0.08073168110838633,0.0,112,0.016107797622680664,0.9110920594567264,0.9110920594567264,16500,3.957805939092744,0.0
217,1.5349702835083008,4.048295977397106,0.031152301997656503,4.08731403565201,4.003926469490028,0.0,0.1078976167821952,0.1,0.048715829849243164,0.3066549301147461,0.048982527,3.1967423,3.8007116497666575,0.0,0.08095274098047056,0.0,106,0.013804435729980469,0.80530230680403,0.80530230680403,16606,3.868706200409696,0.0
218,1.429711103439331,4.005611647151361,0.002820756343666172,4.009135936234668,4.001478606948886,0.0,0.0823651204566452,0.1,0.0024971961975097656,0.18744277954101562,0.04962546,1.963339,3.821201649505128,0.0,0.0750958574336292,0.0,34,0.01614522933959961,0.9852284799251132,0.9852284799251132,16640,4.210341483229156,0.0
219,1.4635274410247803,4.009943940890893,0.006441840691557613,4.01666424129375,4.001323388475359,0.0,0.09329704958217402,0.1,0.0030832290649414062,0.12446951866149902,0.05067482,2.0417678,3.8400758786437046,0.0,0.0751698688825341,0.0,44,0.003482341766357422,0.9185056985872043,0.9185056985872043,16684,4.40568906434688,0.0
220,1.531496524810791,4.031261898410698,0.024148380891441015,4.0665788976064325,4.003283611375649,0.0,0.11856729785450235,0.1,0.0028791427612304688,0.04904985427856445,0.049510848,1.855291,3.859194480620404,0.0,0.08062480002874059,0.0,74,0.002720355987548828,0.8328382626398952,0.8328382626398952,16758,3.5399863051071834,0.0
221,1.4878768920898438,4.020956293166509,0.010592784351465618,4.039274680468831,4.013934861635959,0.0,0.10967072193694108,0.1,0.002720355987548828,0.0497286319732666,0.049324255,1.9220575,3.8753706618750146,0.0,0.08036962272445111,0.0,80,0.003179311752319336,0.8244926893468422,0.8244926893468422,16838,4.2169758071040535,0.0
222,1.6165125370025635,2.766092582282398,2.174384278845875,4.049850452505298,-0.9999247825342696,0.0,0.10673443373858918,0.1,0.03136014938354492,0.06052851676940918,0.04948757,2.403644,3.764442853915753,0.0,0.05031799836057439,0.0,69,0.002691507339477539,0.8248492102909722,0.8248492102909722,16907,3.8664523198752185,0.0
223,1.5467288494110107,2.760475250595425,2.1710780262132205,4.019704285215903,-0.9999310062021187,0.0,0.09850548229130343,0.1,0.011861085891723633,0.1271965503692627,0.051242884,1.9282227,3.6640460935837207,0.0,0.05018746059383026,0.0,44,0.00275421142578125,0.8787005897797423,0.8787005897797423,16951,3.528830119999516,0.0
224,1.5795032978057861,3.518089854943752,0.875914844670954,4.032531886189658,2.00099994787806,0.0,0.11874341464203937,0.1,0.0030307769775390625,0.05133461952209473,0.048805803,4.540836,3.649450469719724,0.0,0.0653491362058033,0.0,113,0.012270212173461914,0.7721987449409103,0.7721987449409103,17064,4.0481219188930915,0.0
225,1.429987907409668,2.763328138398839,1.284993304905035,4.004784551872762,1.0441576341989296,0.0,0.08253046636940221,0.1,0.0018177032470703125,0.03248310089111328,0.04999266,1.665366,3.5608382365876357,0.0,0.04026101678118249,0.0,22,0.016220808029174805,1.002926304406603,1.002926304406603,17086,4.205074547996235,0.0
226,1.6018562316894531,2.7997386344294,2.193781014843437,4.087835306090684,-0.9999297150542859,0.0,0.10638326885108797,0.1,0.015289306640625,0.050762176513671875,0.04980205,3.7523265,3.484728276371812,0.0,0.05093663367324096,0.0,108,0.016139984130859375,0.7740354265924657,0.7740354265924657,17194,3.509728776852988,0.0
227,1.5154204368591309,2.7682734460263254,1.649090484293999,4.042901366616968,0.00018816615308847595,0.0,0.09457937299349944,0.1,0.0025005340576171875,0.10693740844726562,0.04992729,2.1979525,3.4130827933372636,0.0,0.04536171679035564,0.0,44,0.0026078224182128906,0.8718601551776354,0.8718601551776354,17238,3.3493676295822605,0.0
228,1.4880139827728271,2.76020311922386,2.1709266004850862,4.023853651098723,-0.9999289069058512,0.0,0.0904092353231476,0.1,0.010451078414916992,0.04686450958251953,0.04875329,3.2997277,3.3477948259259236,0.0,0.05017919948082018,0.0,55,0.0025687217712402344,0.8588355857764782,0.8588355857764782,17293,3.109885775065578,0.0
229,1.4118542671203613,3.2576761546490784,1.303172297384852,4.016398161927813,1.000525728368166,0.0,0.07811785959026186,0.1,0.002505064010620117,0.20197796821594238,0.050500747,1.5449557,3.338782958798239,0.0,0.06016144277247796,0.0,31,0.008801460266113281,0.9914644904678626,0.9914644904678626,17324,3.6836709929084352,0.0
230,1.5732829570770264,3.2829715410072753,1.3179776965813197,4.063868530174811,1.0003274928221337,0.0,0.10891562412608985,0.1,0.0028388500213623047,0.0495905876159668,0.05000665,2.6080098,3.333201817019143,0.0,0.060650709368494135,0.0,78,0.0035681724548339844,0.8205349170661157,0.8205349170661157,17402,3.68096430926693,0.0
231,1.4865813255310059,3.769432270620549,0.4434016400914719,4.040240122888043,3.001664024134156,0.0,0.10493981451839846,0.1,0.0024476051330566406,0.04882168769836426,0.050270468,1.8616984,3.3768248623792836,0.0,0.07037986430149637,0.0,66,0.00261688232421875,0.8416007741974542,0.8416007741974542,17468,3.5969696090428998,0.0
232,1.530134916305542,4.145378550616646,0.20209834380737227,4.495413087629092,4.027316682807548,0.0,0.11251035815184346,0.1,0.003099203109741211,0.05528712272644043,0.05020701,2.6874473,3.45368023120302,0.0,0.08277616040514371,0.0,110,0.01384282112121582,0.8143455704774573,0.8143455704774573,17578,2.355982519301342,0.0
233,1.5252435207366943,3.2876543671560174,1.9688255974731488,6.140512030884702,1.005822440368265,0.0,0.1031738585144657,0.1,0.013464927673339844,0.199751615524292,0.048568472,2.2480159,3.43707764479832,0.0,0.04575042449758257,0.0,64,0.01631307601928711,1.1093357290166392,1.1093357290166392,17642,3.688728504333012,0.0
234,1.394413709640503,4.00525733053156,0.0034993283511114384,4.009902854804401,4.001459529898893,0.0,0.08593035870429716,0.1,0.002984762191772461,0.10934829711914062,0.049064208,2.2770085,3.493895613371644,0.0,0.0750956054091787,0.0,38,0.002465963363647461,0.9569585388585291,0.9569585388585291,17680,3.6820916367602456,0.0
235,1.4495468139648438,0.7546654737622664,1.927981303939034,4.018292453155283,-0.9999266271061793,0.0,0.07778409026107556,0.1,0.0014965534210205078,0.0297088623046875,0.04950414,5.281605,3.2199725994107062,0.0,9.886049614163048e-05,0.0,21,0.008733987808227539,0.861946467088341,0.861946467088341,17701,3.8581216683688826,0.0
236,1.462315320968628,3.2873062926977017,1.3213147447916926,4.127524617346031,1.0002428998593735,0.0,0.10112308096542245,0.1,0.004720926284790039,0.05848956108093262,0.050225243,1.7111294,3.226705968739406,0.0,0.06070061579177914,0.0,60,0.002658367156982422,0.8492303201243163,0.8492303201243163,17761,3.5318526642939,0.0
237,1.489945411682129,3.0339812876809926,1.7516143078823208,4.059091309030016,0.00016944101456606298,0.0,0.11916673863002444,0.1,0.0027472972869873047,0.06832218170166016,0.050497923,2.336095,3.207433500633565,0.0,0.05567415194658335,0.0,111,0.02599167823791504,0.7792466685772174,0.7792466685772174,17872,4.20104119568635,0.0
238,1.5154104232788086,4.0175972718671105,0.02056276875572776,4.052513192804689,4.001052923858856,0.0,0.10550933739211539,0.1,0.002835988998413086,0.0522763729095459,0.0497555,1.8543295,3.2884498777569195,0.0,0.08035398509139641,0.0,77,0.003017425537109375,0.8515368041242375,0.8515368041242375,17949,3.6936792046101217,0.0
239,1.490346908569336,4.278205467721053,0.46151773603149465,5.077505242350609,4.002085010428346,0.0,0.11375782977402883,0.1,0.002634286880493164,0.04954123497009277,0.049763404,1.666411,3.387425436753333,0.0,0.08052257802014699,0.0,79,0.0036516189575195312,0.8702743984789633,0.8702743984789633,18028,3.2724416458682293,0.0
240,1.405184268951416,3.264903063841406,1.3076168412163793,4.051449546192677,1.000295898993477,0.0,0.10041446884223995,0.1,0.0026030540466308594,0.0479888916015625,0.051266342,3.2266219,3.3751731994621403,0.0,0.06029521179821641,0.0,59,0.002584695816040039,0.8446713007470845,0.8446713007470845,18087,4.201273105419058,0.0
241,1.433232069015503,4.006216368732484,0.004551614986668751,4.0134470440709915,4.00084438512413,0.0,0.09860639094171825,0.1,0.00255584716796875,0.08656930923461914,0.049769867,1.2216244,3.438277516389175,0.0,0.07509949511825736,0.0,45,0.0029196739196777344,0.9192652194818955,0.9192652194818955,18132,4.370853372795403,0.0
242,1.522193431854248,5.3362944367732155,2.257792112659449,9.2465555306645,4.005906976091359,0.0,0.11360956029657468,0.1,0.0053331851959228516,0.05048990249633789,0.049899854,1.1608508,3.628079208427579,0.0,0.10163890220997043,0.0,95,0.0028772354125976562,1.0469670235803588,1.0469670235803588,18227,4.285208638118051,0.0
243,1.5764014720916748,3.7839015387785335,0.4535151514412145,4.102609650987323,3.0007751499234594,0.0,0.10640475830812764,0.1,0.0027060508728027344,0.05035209655761719,0.049519934,2.840623,3.6436614414626742,0.0,0.07064657398343147,0.0,94,0.0027778148651123047,0.8113216641114784,0.8113216641114784,18321,3.1851996154386746,0.0
244,1.3507747650146484,1.2536316198944057,1.9248386969172349,4.013119239389765,-0.9999286879111531,0.0,0.07744140944224277,0.1,0.0016283988952636719,0.031247377395629883,0.048949152,3.1813247,3.4046584593058475,0.0,0.010092611640359784,0.0,19,0.016002416610717773,0.8890559728746511,0.8890559728746511,18340,4.20389057750457,0.0
245,1.5404908657073975,3.0309045752937998,1.7498363525372758,4.055513551472115,0.00014995869819078855,0.0,0.09941281864326447,0.1,0.0027341842651367188,0.049082040786743164,0.049279977,3.0942721,3.3672830709046426,0.0,0.055588987665333225,0.0,69,0.0026466846466064453,0.8252283924007772,0.8252283924007772,18409,3.5125390502186473,0.0
246,1.4793615341186523,4.017957817438704,0.012624755751546039,4.0368621564285085,4.001302431526888,0.0,0.10129343711551138,0.1,0.005763530731201172,0.048732757568359375,0.04955432,1.8730356,3.432350545558049,0.0,0.08035971799561127,0.0,67,0.009300708770751953,0.847962237196846,0.847962237196846,18476,4.0371313930160495,0.0
247,1.601055383682251,3.0578153163513306,1.766686497346222,4.202187506832612,0.0007178634321902688,0.0,0.11165632186640688,0.1,0.0032644271850585938,0.05143451690673828,0.050546505,1.7676733,3.3948970226373776,0.0,0.05614653570609689,0.0,80,0.0027570724487304688,0.8155321705393312,0.8155321705393312,18556,3.3985877984009423,0.0
248,1.509350299835205,3.534500864474543,0.8858881929548031,4.08100321396865,2.0006656425546514,0.0,0.10387235002871587,0.1,0.002923250198364258,0.053438425064086914,0.049382992,3.6799705,3.4088574068210944,0.0,0.06568819423567121,0.0,95,0.0029060840606689453,0.8033344726116334,0.8033344726116334,18651,4.033251696240465,0.0
249,1.4486265182495117,4.026382338129837,0.01238194703714235,4.045037520175534,4.010414983556991,0.0,0.10487414147017063,0.1,0.005296468734741211,0.06648087501525879,0.048679266,2.7588468,3.4706098999519686,0.0,0.08050680131551138,0.0,84,0.003467082977294922,0.8397159306939546,0.8397159306939546,18735,3.9044629076035213,0.0
250,1.4534657001495361,2.778817806805944,2.1816622480786667,4.04378709069466,-0.9999275671283054,0.0,0.10275619489523126,0.1,0.012775182723999023,0.12147188186645508,0.049539704,1.914529,3.401430690637366,0.0,0.05050905317691787,0.0,60,0.0025343894958496094,0.8276702975681975,0.8276702975681975,18795,3.521577039989314,0.0
251,1.4442918300628662,2.2656899702798787,2.058788666996583,4.0542640638642204,-0.9999284260104164,0.0,0.08459458229948036,0.1,0.009443044662475586,0.19971060752868652,0.050873194,4.2516503,3.2878566186016176,0.0,0.03528782837596163,0.0,36,0.01629805564880371,0.8646554507172036,0.8646554507172036,18831,3.79080955244806,0.0
252,1.4820168018341064,4.0418465256480705,0.011161194641718254,4.05719774888578,4.0271703922000075,0.0,0.12367024841282027,0.1,0.005389690399169922,0.06304574012756348,0.049787503,2.2602792,3.363255609306263,0.0,0.0808314113219327,0.0,130,0.0955038070678711,0.7897795837958255,0.7376866546270503,18961,3.7213417892585703,0.0
253,1.600315809249878,4.5176322095291495,0.8750250023828087,6.033170234742319,4.00089538574641,0.0,0.11726591660329763,0.1,0.003035306930541992,0.11161637306213379,0.050050933,1.788136,3.4786932693285513,0.0,0.08034728445588167,0.0,95,0.0031316280364990234,0.9516500088867731,0.9516500088867731,19056,4.577866149795924,0.0
254,1.4803688526153564,3.5212456739017894,0.873442873297561,4.06115772224202,2.0088969426811554,0.0,0.10287120574233764,0.1,0.0032880306243896484,0.07091951370239258,0.052947566,3.0166562,3.4829485097858752,0.0,0.06542260516093357,0.0,70,0.005796670913696289,0.7901703697470973,0.7901703697470973,19126,3.7101348694830225,0.0
255,1.4802846908569336,3.263344328070177,1.3066788615570875,4.034626387573711,1.000184898217474,0.0,0.10033660809403094,0.1,0.0026853084564208984,0.04865288734436035,0.051616844,1.9450822,3.460988091614306,0.0,0.06024169593377215,0.0,50,0.0028600692749023438,0.8304768056006465,0.8304768056006465,19176,3.126626244466799,0.0
256,1.508896827697754,4.087998144120837,0.11975110308502145,4.293449603943005,4.002985297255301,0.0,0.11547138999378923,0.1,0.0028371810913085938,0.05264687538146973,0.04991911,2.3383508,3.5236890968649592,0.0,0.08171081328147671,0.0,103,0.013344287872314453,0.7787252893986907,0.7787252893986907,19279,3.7838824535935434,0.0
257,1.5752785205841064,4.076488930342036,0.10306543470972626,4.254609293973224,4.008008919763406,0.0,0.12483777170336005,0.1,0.0032279491424560547,0.059899091720581055,0.050123077,1.8682368,3.578969080212667,0.0,0.08143798004811373,0.0,104,0.016614198684692383,0.7713095014404433,0.7713095014404433,19383,3.5553507481533853,0.0
258,1.3818161487579346,2.5042305686351436,1.1232322117056182,4.015602712313392,1.0002413013093487,0.0,0.07366006032664357,0.1,0.0015325546264648438,0.027925729751586914,0.049794495,2.33959,3.4714952290549146,0.0,0.03507824639714888,0.0,22,0.015742063522338867,1.0009852047642365,1.0009852047642365,19405,3.546648458937204,0.0
259,1.5255603790283203,3.7804152885133178,0.4475802021895883,4.0649846501788955,3.006246231765829,0.0,0.10481584441471788,0.1,0.0028769969940185547,0.05064272880554199,0.05029085,2.2047856,3.502387235000755,0.0,0.07059964821245186,0.0,66,0.0025725364685058594,0.8125880971349619,0.8125880971349619,19471,4.559608345417272,0.0
260,1.451244831085205,4.034688459121285,0.010930468611899571,4.0493386795038715,4.018608952286699,0.0,0.11482305932013194,0.1,0.0036411285400390625,0.06638765335083008,0.04925679,3.0367546,3.555617357412808,0.0,0.08063753099632737,0.0,86,0.003242969512939453,0.7753422620898632,0.7753422620898632,19557,4.0873345647634,0.0
261,1.5765819549560547,4.591132773660291,0.8734886886563491,6.095209730488325,4.003011577165912,0.0,0.1256843069078939,0.1,0.005677700042724609,0.07285022735595703,0.04920943,1.840384,3.6591688990375566,0.0,0.08180365334274271,0.0,141,0.07753777503967285,0.8434073851734106,0.8172056704148226,19698,4.081254196233605,0.0
262,1.551720380783081,4.020623208522126,0.013225086603934011,4.039008438222192,4.001616413944953,0.0,0.09711526525076265,0.1,0.0027692317962646484,0.04909849166870117,0.04956329,2.2114155,3.695314329986014,0.0,0.08039533776665189,0.0,62,0.0026009082794189453,0.8310986048508652,0.8310986048508652,19760,3.374987967666129,0.0
263,1.5793066024780273,4.02939801810235,0.024011327730049832,4.068339710440141,4.006606009829392,0.0,0.12383396844836288,0.1,0.003096342086791992,0.057122230529785156,0.049195122,2.6351175,3.7287226987976476,0.0,0.08057382481782129,0.0,114,0.01621270179748535,0.7159628104768397,0.7159628104768397,19874,3.960986806259413,0.0
264,1.529980182647705,4.048888424778021,0.06383555560055983,4.157732104955152,4.0029459313637235,0.0,0.12170031463006174,0.1,0.004209995269775391,0.052471160888671875,0.049880378,2.047693,3.7607392713956846,0.0,0.08096945073318411,0.0,113,0.010909557342529297,0.7196051539288718,0.7196051539288718,19987,3.2836284663957804,0.0
265,1.417954444885254,1.753161015349829,2.2806155422220726,4.006927169503873,-0.9999365836004424,0.0,0.08990264098444503,0.1,0.0030488967895507812,0.18796586990356445,0.051846363,2.5139847,3.5599814457910988,0.0,0.025061045111795858,0.0,32,0.01587820053100586,0.8342702605329508,0.8342702605329508,20019,4.2052231695656745,0.0
266,1.3662621974945068,3.2804100488830983,0.8572972560825476,4.117501314504861,2.000357913434488,0.0,0.08855168964566448,0.1,0.010488748550415039,0.2828371524810791,0.049496565,2.5428233,3.532024306100299,0.0,0.05559547648839349,0.0,42,0.01647329330444336,0.8388606397177847,0.8388606397177847,20061,3.657597372385657,0.0
267,1.5088975429534912,2.7707224125388654,1.3187277951511556,4.058493656882946,1.0001694766375175,0.0,0.1022545033254289,0.1,0.003154277801513672,0.051000118255615234,0.049020883,2.2002742,3.455894116744156,0.0,0.04539779586522233,0.0,53,0.002752065658569336,0.7518977468955517,0.7518977468955517,20114,3.8874611051641317,0.0
268,1.5192432403564453,3.048427131591052,1.7601986046617333,4.094051903889803,0.00016137629970125467,0.0,0.1051301845295321,0.1,0.002934694290161133,0.050397396087646484,0.048765115,2.5085995,3.415147418228846,0.0,0.0559036089537466,0.0,72,0.0026018619537353516,0.7357178168262305,0.7357178168262305,20186,3.6269318115105875,0.0
269,1.6531729698181152,3.270117042041281,2.6056935489865096,6.071252535099724,-0.9999329915015185,0.0,0.1021332443939661,0.1,0.0327451229095459,0.08902788162231445,0.049949832,2.279543,3.4006443806100894,0.0,0.045396583657009756,0.0,71,0.0026443004608154297,1.0928444656466276,1.0928444656466276,20257,3.6943687236394207,0.0
270,1.5705571174621582,4.55415532840178,0.8785188752652913,6.075367316823649,4.027960199148758,0.0,0.13200729552024693,0.1,0.005747318267822266,0.07573986053466797,0.04966051,1.7939297,3.515995475389259,0.0,0.08107369323774591,0.0,153,0.08571457862854004,0.7784865192471607,0.7444423606921379,20410,3.720123353789701,0.0
271,1.5095086097717285,3.2698414406025598,1.3104021362840934,4.041188943866082,1.0003024739906186,0.0,0.10392198364617196,0.1,0.006280660629272461,0.05140566825866699,0.049303487,3.4303174,3.491380071910589,0.0,0.06037358848808598,0.0,74,0.0028409957885742188,0.6718840317481883,0.6718840317481883,20484,3.8750796447837774,0.0
272,1.5322773456573486,4.025236838550948,0.019998343266867148,4.0493391475558775,4.004853095135335,0.0,0.1174414717721557,0.1,0.0027735233306884766,0.0499577522277832,0.050063875,1.4647272,3.544765748574625,0.0,0.08048943532188337,0.0,67,0.0026578903198242188,0.7596297147893514,0.7596297147893514,20551,3.337014363530958,0.0
273,1.5161495208740234,3.783108941427522,0.4523548485670786,4.080710172305323,3.0005866753912356,0.0,0.09833936296242282,0.1,0.0028426647186279297,0.05002880096435547,0.049472596,3.5343783,3.5686000678599146,0.0,0.07064266640858101,0.0,75,0.0031981468200683594,0.715725556202147,0.715725556202147,20626,3.6299901782859774,0.0
274,1.5882844924926758,4.105311394772142,0.11701736974747284,4.307574855283954,4.02811974667567,0.0,0.1310511488838385,0.1,0.003348827362060547,0.054121971130371094,0.050464485,2.6467457,3.622271200551137,0.0,0.08204938036416852,0.0,135,0.060243844985961914,0.6292384177651187,0.5718973711589066,20761,4.089310135819965,0.0
275,1.5524380207061768,4.017278374256193,0.014709293060894708,4.039284486976088,4.0011705410313825,0.0,0.11258320351912367,0.1,0.005043983459472656,0.05739903450012207,0.04946725,1.6054273,3.6617719179216426,0.0,0.0803008983430365,0.0,75,0.0028367042541503906,0.6989501216993783,0.6989501216993783,20836,3.645988088820248,0.0
276,1.5539422035217285,4.024657831937681,0.017851843624669024,4.042717604548795,4.005338326718777,0.0,0.12513835755153,0.1,0.002944469451904297,0.057065486907958984,0.051257987,2.0253453,3.6980605093232466,0.0,0.08047124779352557,0.0,112,0.013221263885498047,0.6187758031780743,0.6187758031780743,20948,3.535142791092156,0.0
277,1.486504077911377,4.022818845519991,0.02301413511001274,4.060967125398828,4.004604516565428,0.0,0.1044386493808807,0.1,0.0033006668090820312,0.051590681076049805,0.049137786,1.6572145,3.730536342942921,0.0,0.08037920461615952,0.0,62,0.002653360366821289,0.7928499450725018,0.7928499450725018,21010,3.8593228355136873,0.0
278,1.511936902999878,2.785235391237045,2.1856153670329013,4.100162232297496,-0.9999289948083354,0.0,0.11256432601198005,0.1,0.020845651626586914,0.0509648323059082,0.049624197,2.1690495,3.636006247772334,0.0,0.050669474281417284,0.0,74,0.0027637481689453125,0.6204954727129091,0.6204954727129091,21084,3.196078081315099,0.0
279,1.6131248474121094,3.805063888477217,0.4672473460253158,4.155375153250354,3.0011717008182632,0.0,0.11048429364971038,0.1,0.002954244613647461,0.08072137832641602,0.04967267,3.8450992,3.652912011842822,0.0,0.07104305230054073,0.0,91,0.0036454200744628906,0.6112420204070603,0.6112420204070603,21175,4.048491272190218,0.0
280,1.5641114711761475,4.204897263367195,0.30036898785263794,4.720977238628893,4.000478078760236,0.0,0.11246273104485872,0.1,0.003093719482421875,0.0544588565826416,0.050856236,2.2062738,3.7081105369952594,0.0,0.07879083111429948,0.0,85,0.0037178993225097656,0.7204413684187668,0.7204413684187668,21260,3.106024199571048,0.0
281,1.524921178817749,4.528237778673038,0.8927613673230868,6.074384436280314,4.001892099767533,0.0,0.11126197538784453,0.1,0.002977609634399414,0.05297088623046875,0.04970778,1.554631,3.7901232611630373,0.0,0.07554954327970506,0.0,87,0.002577066421508789,1.0809672752606903,1.0809672752606903,21347,3.7829412322033353,0.0
282,1.4610800743103027,4.010851899975602,0.013140100081822665,4.033387354518684,4.001374018588072,0.0,0.10720119026958914,0.1,0.002865314483642578,0.0503695011138916,0.049229693,1.7011188,3.812196125044294,0.0,0.0802064038663195,0.0,75,0.0028219223022460938,0.7130710897860872,0.7130710897860872,21422,2.9385826845836376,0.0
283,1.6499063968658447,4.554280026700234,0.8957058230523254,6.105215903510118,4.004437094365121,0.0,0.12051813764201434,0.1,0.002870798110961914,0.05417013168334961,0.050399624,1.586491,3.8864045152098887,0.0,0.08106405796752902,0.0,111,0.013297557830810547,0.8456788314675586,0.8456788314675586,21533,3.7851015115426883,0.0
284,1.5902132987976074,4.041601227282786,0.03228041681707873,4.076462254801148,4.0092766674169695,0.0,0.10606398912979959,0.1,0.003045797348022461,0.050112009048461914,0.04954916,2.1714072,3.9019241864171788,0.0,0.08074973131728849,0.0,76,0.002663850784301758,0.6846039363875542,0.6846039363875542,21609,3.5318134003223505,0.0
285,1.5082359313964844,3.5174188994196918,0.8722039051854716,4.030745972373476,2.006854660352925,0.0,0.09351677727752591,0.1,0.0028429031372070312,0.09820771217346191,0.050308097,1.3893797,3.8634736577174302,0.0,0.06033478022774133,0.0,40,0.0034322738647460938,0.8648469644878679,0.8648469644878679,21649,3.5441811877409015,0.0
286,1.5453972816467285,4.084723096820973,0.049176035829138515,4.16328218543588,4.036366675201602,0.0,0.12153068260918522,0.1,0.005518913269042969,0.07271909713745117,0.04930668,3.631117,3.885598601627785,0.0,0.08161722313317445,0.0,129,0.016474485397338867,0.5711277436005185,0.5108170456543359,21778,3.7516114455168683,0.0
287,1.497516393661499,4.011139447328359,0.005133771092736033,4.01791306631342,4.005967298125641,0.0,0.10173583886822202,0.1,0.024756908416748047,0.05598759651184082,0.051028736,2.085078,3.8981526861978426,0.0,0.0801961066713656,0.0,72,0.01638936996459961,0.6759856559747102,0.6759856559747102,21850,4.605248032111827,0.0
288,1.6169486045837402,4.069913937303643,0.05953902322725878,4.169312663396824,4.011584948195476,0.0,0.12097106658932814,0.1,0.002902984619140625,0.05457472801208496,0.049984682,2.2216437,3.915328811308423,0.0,0.08138757944187479,0.0,105,0.013561487197875977,0.5599454370119371,0.5599454370119371,21955,3.7786155862217665,0.0
289,1.5902340412139893,4.104563018881221,0.15363239027203215,4.370577466042406,4.010219594466248,0.0,0.10438529988781867,0.1,0.0032186508178710938,0.049761056900024414,0.050024908,2.7507777,3.9342522320657025,0.0,0.08200674354327026,0.0,69,0.0032160282135009766,0.7124911652571815,0.7124911652571815,22024,3.9477739591168177,0.0
290,1.4990572929382324,3.764973666275996,0.4411263173724145,4.031981268461192,3.0010723986901007,0.0,0.0915499753478741,0.1,0.0028028488159179688,0.0769357681274414,0.050216936,1.8043003,3.9173243754867317,0.0,0.07027257474548762,0.0,45,0.003650188446044922,0.783506407598195,0.783506407598195,22069,3.63779133197839,0.0
291,1.4900352954864502,2.2532127725099507,2.048941226698152,4.007991413943847,-0.999930303926841,0.0,0.08081689980580503,0.1,0.010473251342773438,0.20582866668701172,0.049739942,6.3234344,3.750913215189054,0.0,0.03504617990419272,0.0,27,0.009252071380615234,0.9173397591189101,0.9173397591189101,22096,3.2795888355895024,0.0
292,1.446150302886963,3.253733691271468,1.30041856393009,4.005868278811946,1.0013442701051167,0.0,0.08506431161884015,0.1,0.006234884262084961,0.20751738548278809,0.04980538,1.6368558,3.7011952627972957,0.0,0.060069727054124195,0.0,31,0.002834320068359375,0.9732484019785971,0.9732484019785971,22127,3.1962204716459675,0.0
293,1.541491985321045,2.817875580731754,2.2043415839881972,4.119358561460285,-0.9999272598833566,0.0,0.10941802160823531,0.1,0.005478382110595703,0.05121111869812012,0.04893129,2.5642772,3.6128632945907415,0.0,0.051202151289426484,0.0,80,0.002619504928588867,0.5559990253418917,0.5559990253418917,22207,3.279063539378955,0.0
294,1.663872480392456,3.292679143732465,2.6151324818090282,6.086568296771639,-0.9999304507548814,0.0,0.11432835954444567,0.1,0.0034601688385009766,0.05200767517089844,0.049164888,1.6626803,3.580844879504914,0.0,0.05081779494468996,0.0,96,0.0029006004333496094,0.9482044394229531,0.9482044394229531,22303,4.365795080323925,0.0
295,1.5319726467132568,2.7761051660197174,2.180165778842726,4.055877124749821,-0.9999298594060875,0.0,0.09466462626587462,0.1,0.002799510955810547,0.04963517189025879,0.049747646,2.4382987,3.5003709081563943,0.0,0.050490174452862004,0.0,57,0.0076770782470703125,0.6713119729419715,0.6713119729419715,22360,4.022354948227849,0.0
296,1.5922482013702393,4.077621955511164,0.08090981599676833,4.21051263177948,4.011199489821557,0.0,0.12221748256324713,0.1,0.0032224655151367188,0.0548396110534668,0.049789064,2.9533732,3.5580960128918715,0.0,0.08154140754967903,0.0,108,0.014325857162475586,0.5823007377090984,0.5823007377090984,22468,4.279741550247317,0.0
297,1.5614938735961914,4.034104564081124,0.030378677894422827,4.0854480327866085,4.006180692641263,0.0,0.10790448763346054,0.1,0.028694868087768555,0.05357241630554199,0.050007682,2.6093342,3.6056968680107966,0.0,0.08063107458125894,0.0,77,0.0028798580169677734,0.644481724377896,0.644481724377896,22545,2.6801263802032014,0.0
298,1.5292513370513916,1.7559937518012168,2.2834297867400926,4.021697432508757,-0.9999268303003122,0.0,0.07674947949378928,0.1,0.010751724243164062,0.20571208000183105,0.049685188,2.6378808,3.420726556389839,0.0,0.025126163468113125,0.0,25,0.01601886749267578,0.9133863478245324,0.9133863478245324,22570,3.6965993885661876,0.0
299,1.563124656677246,4.013877244333424,0.011629358956871366,4.032049558609364,4.002991333369415,0.0,0.10367057659144703,0.1,0.004998683929443359,0.064849853515625,0.050492004,1.989925,3.4800416251841972,0.0,0.0802576458694227,0.0,60,0.0036253929138183594,0.719259998259057,0.719259998259057,22630,4.372939958980707,0.0
300,1.5845832824707031,4.019422160421133,0.014233366065651998,4.043805782995982,4.008631062188906,0.0,0.10821500476925863,0.1,0.002773761749267578,0.04889369010925293,0.049460635,1.2704637,3.533979678707891,0.0,0.08037869091834166,0.0,52,0.002679586410522461,0.7947048614967008,0.7947048614967008,22682,4.3669964300903485,0.0
301,1.5347180366516113,4.032082176919438,0.02469828590144327,4.065153088727842,4.002049231258229,0.0,0.10306511764867271,0.1,0.00272369384765625,0.049215078353881836,0.050094023,1.9743737,3.583789928529046,0.0,0.07557539923433927,0.0,58,0.0028231143951416016,0.7426317483283144,0.7426317483283144,22740,3.7030226141769447,0.0
302,1.6252720355987549,4.8983784950464715,2.8037387250998416,9.53849399015705,2.0010743358670258,0.0,0.10316270560213536,0.1,0.005747079849243164,0.05431842803955078,0.050523493,1.2666872,3.7152487851807887,0.0,0.08295287888652386,0.0,73,0.002986431121826172,1.2041118615985231,1.2041118615985231,22813,4.042777481411721,0.0
303,1.643275260925293,5.086756473024181,2.2439450269424093,8.062745070860426,2.0002618913208323,0.0,0.11176068046254756,0.1,0.0031003952026367188,0.06090664863586426,0.050244257,2.677629,3.852399553965128,0.0,0.08150909148880833,0.0,113,0.014214515686035156,1.2799489771363115,1.2799489771363115,22926,3.8690887283081676,0.0
304,1.53584623336792,3.801471691228781,0.46336806172484163,4.0990256241728735,3.00057352614708,0.0,0.10521871221840862,0.1,0.005311250686645508,0.05520176887512207,0.050356,2.2171474,3.847306767691493,0.0,0.07097160723204216,0.0,74,0.002450227737426758,0.6203258279675389,0.6203258279675389,23000,3.3734715544418603,0.0
305,1.8073225021362305,3.8023288974506455,1.8472054598670142,6.192335593029913,1.000259461625199,0.0,0.11025840839539564,0.1,0.0031528472900390625,0.05138111114501953,0.05051971,2.029241,3.8428089806674084,0.0,0.06103774127592007,0.0,89,0.002985239028930664,1.0387514118652976,1.0387514118652976,23089,3.957241561579556,0.0
306,1.4719665050506592,4.041274787734714,0.03546551077820514,4.101575350315167,4.011404376501523,0.0,0.12090838305967756,0.1,0.002928495407104492,0.05435037612915039,0.049609944,1.7175498,3.862655561374139,0.0,0.08075693614201038,0.0,91,0.0026671886444091797,0.5912221824756727,0.5912221824756727,23180,3.773293011956506,0.0
307,1.4994909763336182,4.669029025626385,1.0946559926403556,6.564701805230043,4.007070046519425,0.0,0.12243226943876973,0.1,0.008162736892700195,0.05469226837158203,0.04956208,2.108214,3.9432929077993637,0.0,0.08330694645293799,0.0,104,0.013729095458984375,0.9732089373059134,0.9732089373059134,23284,4.057905064702015,0.0
308,1.5746855735778809,4.082859736985574,0.06741817167117206,4.191987610158776,4.010915146758321,0.0,0.11520893178365252,0.1,0.003167867660522461,0.053809165954589844,0.048308082,1.9810699,3.9572495907179848,0.0,0.08143614329573762,0.0,93,0.0028820037841796875,0.6016186729081648,0.6016186729081648,23377,3.365839260493029,0.0
309,1.4788198471069336,4.009800759872377,0.004170796653905575,4.0158211216990365,4.004461299447282,0.0,0.09809771608203018,0.1,0.002970457077026367,0.0959620475769043,0.05045954,1.3415582,3.962504707633424,0.0,0.08017121288755126,0.0,43,0.0026917457580566406,0.8473048249924469,0.8473048249924469,23420,4.1363172447753955,0.0
310,1.6502044200897217,4.558412418173091,0.8932051730756437,6.105075289603876,4.015597650768402,0.0,0.12313182865104515,0.1,0.00514531135559082,0.05837249755859375,0.049900275,1.9063615,4.02209547868739,0.0,0.08114609975451742,0.0,129,0.011373758316040039,0.8005420028419357,0.7958555789730053,23549,4.223418048845132,0.0
311,1.6736698150634766,3.566388966393051,2.24944520421048,6.237839191729162,0.002030050809659345,0.0,0.11574452545168212,0.1,0.002790212631225586,0.0544278621673584,0.0504563,1.1788453,3.9765248274579568,0.0,0.06128239054590527,0.0,64,0.0025475025177001953,1.1510598997822667,1.1510598997822667,23613,3.4562604896717066,0.0
312,1.518888235092163,1.5037738165544914,2.5037015289369724,4.011408967368201,-0.9999280327722075,0.0,0.0844513320683179,0.1,0.010700702667236328,0.20794677734375,0.04964135,2.3819368,3.7292497263676103,0.0,0.020071539434874823,0.0,26,0.0060651302337646484,0.7793283147262658,0.7793283147262658,23639,3.636830108420089,0.0
313,1.6499998569488525,4.100788129648783,0.12448517157598016,4.314301904035278,4.001368953152253,0.0,0.11881080563908074,0.1,0.003054380416870117,0.05411338806152344,0.050268453,2.411768,3.7664035666957276,0.0,0.07698009828186386,0.0,89,0.0028929710388183594,0.5767012325489954,0.5767012325489954,23728,4.434367559783038,0.0
314,1.4982085227966309,3.561707078064538,0.9040489519189632,4.194785887992002,2.0004182638955195,0.0,0.09828383227686172,0.1,0.004978179931640625,0.05866575241088867,0.049844634,3.7007017,3.745933917832609,0.0,0.06621518025250474,0.0,69,0.002591371536254883,0.6030782417687123,0.6030782417687123,23797,3.9825628251215064,0.0
315,1.5454044342041016,4.050721587186379,0.03186418181076472,4.099615626951557,4.020795764188101,0.0,0.11225072140702973,0.1,0.0046656131744384766,0.05138230323791504,0.049225517,1.797233,3.776412684767986,0.0,0.08084502227976584,0.0,74,0.002585172653198242,0.6192812981099093,0.6192812981099093,23871,3.849646257841405,0.0
316,1.576425552368164,3.614477049044674,0.9443511690029823,4.401587740439246,2.0002838338234676,0.0,0.1059118102744152,0.1,0.003045320510864258,0.0506441593170166,0.049948186,4.99375,3.7602191211956546,0.0,0.06701527324625724,0.0,81,0.002639293670654297,0.5596676900246794,0.5596676900246794,23952,3.418011321113461,0.0
317,1.6229400634765625,4.041800526498736,0.04604085701961626,4.120036410563424,4.001330663969646,0.0,0.11194364634976467,0.1,0.004574775695800781,0.05301380157470703,0.049303606,2.4410667,3.788377261725963,0.0,0.08078851677888613,0.0,90,0.003239870071411133,0.5647377553922308,0.5647377553922308,24042,4.025453635137617,0.0
318,1.5873527526855469,3.5454523074944104,0.8471276467928187,4.063859817369467,2.0785230286033807,0.0,0.11023311301138816,0.1,0.0032243728637695312,0.052393198013305664,0.05062842,1.984559,3.764084766302808,0.0,0.06581742918593687,0.0,65,0.002835988998413086,0.6172514761090268,0.6172514761090268,24107,3.7003378465352568,0.0
319,1.6444251537322998,3.2865448995413162,2.6363044597612997,7.140003654937394,0.001773787790893655,0.0,0.0957513450547694,0.1,0.0029840469360351562,0.07195115089416504,0.048981257,2.0673194,3.716330779626659,0.0,0.050709037579356825,0.0,56,0.009046316146850586,1.5992129997130715,1.5992129997130715,24163,3.904311595098383,0.0
320,1.589120626449585,4.086582526033552,0.09421124495880646,4.234222191489081,4.0016548812527954,0.0,0.11775010546958964,0.1,0.0030851364135742188,0.051772117614746094,0.049894862,1.7179141,3.7533559542673482,0.0,0.08154837193198648,0.0,90,0.005460023880004883,0.5859931316344508,0.5859931316344508,24253,3.1910427005807,0.0
321,1.6164991855621338,4.711306021245013,0.9981835585479011,6.415980580464302,4.006579472403191,0.0,0.12269034951448535,0.1,0.002953052520751953,0.056314945220947266,0.051122043,1.4746591,3.849150960965115,0.0,0.08415223818721855,0.0,105,0.013947725296020508,1.0331674011694094,1.0331674011694094,24358,4.107860692939999,0.0
322,1.634885549545288,3.5221737580549175,0.8790851546085398,4.08033274866335,2.0005163822281338,0.0,0.10173721465577076,0.1,0.03505229949951172,0.05338788032531738,0.04930879,2.4533968,3.816453240674095,0.0,0.06543403568769976,0.0,67,0.0027704238891601562,0.6049715815155221,0.6049715815155221,24425,4.187619992750242,0.0
323,1.6625049114227295,3.112639629470604,4.184558869042034,8.318183182182079,-0.999931804488027,0.0,0.1068619644527419,0.1,0.048761844635009766,0.10613584518432617,0.04987055,1.7932186,3.746071879553746,0.0,0.04224018801886703,0.0,90,0.003231048583984375,1.5605188229470393,1.5605188229470393,24515,3.6562258163821277,0.0
324,1.6081817150115967,4.0759887848666345,0.1249382523842754,4.292332099155692,4.000578863687307,0.0,0.09806050625553499,0.1,0.003560781478881836,0.06538105010986328,0.049772434,2.3679018,3.779063570085035,0.0,0.0814876051521094,0.0,61,0.007344245910644531,0.713434187786027,0.713434187786027,24576,3.689628557604481,0.0
325,1.5525095462799072,2.768679401963865,1.6516940366195791,4.044872846117211,0.00015590149761912642,0.0,0.09543227441744107,0.1,0.0025870800018310547,0.1897597312927246,0.04824282,3.0521162,3.678025153272918,0.0,0.045336009619333734,0.0,44,0.016536474227905273,0.6610890647659192,0.6610890647659192,24620,3.7544672506752885,0.0
326,1.6396393775939941,2.7518416620726605,1.3000807179773721,4.0050065445578555,1.0008279336714494,0.0,0.07715379655518122,0.1,0.0017476081848144531,0.032717227935791016,0.04908192,1.8935171,3.585406804152892,0.0,0.040035179538367646,0.0,20,0.016841650009155273,1.0551421290102314,1.0551421290102314,24640,3.8630706403531527,0.0
327,1.6084697246551514,3.3305711554536326,0.9063243571979636,4.298617327072036,2.000784319257416,0.0,0.10502174127690964,0.1,0.0027191638946533203,0.05045199394226074,0.05008913,2.353741,3.5599232392829663,0.0,0.056423178936035163,0.0,61,0.01584792137145996,0.5848524006419609,0.5848524006419609,24701,4.130705047886939,0.0
328,1.666430950164795,4.052086439483373,0.0763887429794152,4.1843780947832725,4.005984907381142,0.0,0.10628207842812037,0.1,0.013833284378051758,0.07868313789367676,0.049874168,1.7985849,3.609139559303007,0.0,0.08101922728072797,0.0,64,0.0027654170989990234,0.6744935197144866,0.6744935197144866,24765,4.057715684971779,0.0
329,1.4547088146209717,2.265484538986082,1.4954799772254446,4.054889162859398,0.001354624462658549,0.0,0.08542407936292097,0.1,0.0034804344177246094,0.19770050048828125,0.050295778,2.6328344,3.4747740572713144,0.0,0.03027778421261815,0.0,30,0.016026973724365234,0.6820249684678528,0.6820249684678528,24795,4.233323256629304,0.0
330,1.6518886089324951,4.104188027705604,0.14215655897469545,4.348956941325849,4.001345307555271,0.0,0.12341165734946037,0.1,0.0029404163360595703,0.053128957748413086,0.049149673,2.3290427,3.5377154543147435,0.0,0.08198406903655688,0.0,113,0.014386892318725586,0.5309493553188153,0.5309493553188153,24908,3.969669945150597,0.0
331,1.6840884685516357,4.6576061922956935,0.9532246877687066,6.299731481357641,4.001752432584048,0.0,0.12395622906474478,0.1,0.06720685958862305,0.10323023796081543,0.04906562,2.0724556,3.6497045281128386,0.0,0.07813003717033354,0.0,126,0.013899803161621094,0.8065171323560363,0.8065171323560363,25034,3.723587096125374,0.0
332,1.6467413902282715,4.150879763788865,0.07965378700737277,4.229268196287713,4.04071374136901,0.0,0.11853196832581668,0.1,0.050177574157714844,0.13230252265930176,0.04917127,3.1532724,3.6998220516804414,0.0,0.08278003318274814,0.0,115,0.014215230941772461,0.5331536542315138,0.5331536542315138,25149,3.403109134808688,0.0
333,1.6281764507293701,4.05192400389676,0.03324076831099596,4.087722168002798,4.005835381983976,0.0,0.102473761542231,0.1,0.0027103424072265625,0.052137136459350586,0.048565727,2.273146,3.7350322469020734,0.0,0.0759889360769106,0.0,77,0.0025370121002197266,0.6151118962306558,0.6151118962306558,25226,3.6322057250231636,0.0
334,1.7253057956695557,5.74030408802449,2.5600152599551147,10.149503048725572,4.032736844551841,0.0,0.12567079491735642,0.1,0.004994869232177734,0.05501413345336914,0.049247846,1.4097255,3.9355594310143154,0.0,0.1095566495112715,0.0,154,0.08628344535827637,1.0883891857177301,1.064592030679542,25380,3.4816021765524536,0.0
335,1.651648998260498,2.85006579817934,2.226698075630619,4.34801058879836,-0.9999279014936333,0.0,0.10423862447388718,0.1,0.0313568115234375,0.0757443904876709,0.04996789,2.7384598,3.827010067730818,0.0,0.051907372193174345,0.0,70,0.002847909927368164,0.5544133035052355,0.5544133035052355,25450,3.72827524864571,0.0
336,1.66843843460083,2.853042382912962,2.2248944291066173,4.181039294884124,-0.99993560399898,0.0,0.11010666120666791,0.1,0.002797842025756836,0.05050849914550781,0.051139537,9.975987,3.7296132992490323,0.0,0.05180885337906956,0.0,91,0.0027017593383789062,0.49800139771590185,0.49800139771590185,25541,3.6428572500154885,0.0
337,1.6877925395965576,3.7324442645551787,1.7561959113512557,5.904336984052083,1.0006109543246038,0.0,0.10117382790516635,0.1,0.002490997314453125,0.050867319107055664,0.049464498,2.3829372,3.7298963957796474,0.0,0.06956830902381785,0.0,71,0.0024993419647216797,0.8393534964346767,0.8393534964346767,25612,3.3823874495332156,0.0
338,1.6363177299499512,4.586892818441031,0.9588644874467361,6.247104371920732,4.002131110635891,0.0,0.11737718481980244,0.1,0.0028929710388183594,0.05090665817260742,0.05170344,1.5154701,3.815596038045786,0.0,0.0817173021565216,0.0,96,0.0051572322845458984,0.8131754582716982,0.8131754582716982,25708,4.139544718015858,0.0
339,1.4650495052337646,4.0500619915107094,0.07246667568604062,4.175182431144048,4.001477032582095,0.0,0.10346796727763091,0.1,0.0032062530517578125,0.04819822311401367,0.050291006,1.6255226,3.8390426333922782,0.0,0.08097078463165362,0.0,58,0.002562999725341797,0.7016445926467026,0.7016445926467026,25766,3.3062505806662146,0.0
340,1.5923657417297363,2.8445763610894983,2.2239491118027526,4.3519710870898605,-0.9999308148486552,0.0,0.09689287424503998,0.1,0.013808012008666992,0.08262157440185547,0.049223825,3.1560206,3.7395960061620004,0.0,0.0467733990316825,0.0,58,0.0027990341186523438,0.6288066269034546,0.6288066269034546,25824,4.121103829717797,0.0
341,1.4720611572265625,3.268073888695741,1.3091924247172315,4.0328518918682725,1.0005134238969773,0.0,0.10352679407620084,0.1,0.002666473388671875,0.04768705368041992,0.04971704,2.5664403,3.6924437944153743,0.0,0.06030637099069369,0.0,50,0.002439737319946289,0.6500974832063808,0.6500974832063808,25874,3.7524944350540497,0.0
342,1.64766263961792,2.895425605042363,1.4445764070253262,4.469854000528217,1.000204933322182,0.0,0.11056784210612533,0.1,0.003001689910888672,0.05629897117614746,0.051015697,4.8761334,3.612741975478073,0.0,0.04790879283354795,0.0,92,0.002902507781982422,0.43644696466928984,0.43644696466928984,25966,4.099802687599041,0.0
343,1.5536248683929443,4.030617948432359,0.018512924477445937,4.056919732602368,4.004581262632002,0.0,0.11565708498372443,0.1,0.002694845199584961,0.054192304611206055,0.049357418,2.0870886,3.6545295727735017,0.0,0.08052505436756355,0.0,89,0.0027642250061035156,0.5479584443525309,0.5479584443525309,26055,3.4711471157492206,0.0
344,1.5455172061920166,3.465237317218776,1.4352927545288379,4.635215770516755,1.0103451035738567,0.0,0.107846411304957,0.1,0.0026979446411132812,0.04987478256225586,0.051109716,3.8459544,3.635600347218029,0.0,0.06383778810292601,0.0,73,0.0026166439056396484,0.5491895330864804,0.5491895330864804,26128,3.3642734117801556,0.0
345,1.683342456817627,4.215864091329827,0.20871485501600415,4.446720492966264,4.003359703616999,0.0,0.11670410680662541,0.1,0.0027887821197509766,0.05181694030761719,0.050550092,1.748511,3.693626721629209,0.0,0.08406832768465528,0.0,96,0.0027489662170410156,0.5623451644251035,0.5623451644251035,26224,4.227295470598027,0.0
346,1.4796819686889648,4.00239923618045,0.0012148803610103802,4.003873336651124,4.001006678901614,0.0,0.08865218077569027,0.1,0.0025072097778320312,0.12025761604309082,0.050077498,1.407182,3.7245039730843335,0.0,0.07504011841720767,0.0,33,0.002364635467529297,0.9243516059532776,0.9243516059532776,26257,3.2849398954698543,0.0
347,1.58139967918396,3.511466903953488,0.872406240911682,4.0289550878232046,2.0004911087593755,0.0,0.10060909581920582,0.1,0.002863168716430664,0.08811736106872559,0.049615245,1.5983305,3.703200266171249,0.0,0.06020382379521054,0.0,43,0.003319978713989258,0.7434428324288931,0.7434428324288931,26300,3.3854971679445263,0.0
348,1.6640188694000244,3.696702768168201,0.9938646461527952,4.537785737262367,2.000434553131709,0.0,0.12054633933000759,0.1,0.0027132034301757812,0.05214738845825195,0.048850898,2.0878966,3.7025505163709442,0.0,0.06869189870271272,0.0,102,0.015142440795898438,0.5052032071858665,0.5052032071858665,26402,3.80320705636775,0.0
349,1.6707372665405273,4.725461922744544,1.172342038172628,6.755500615060711,4.011447844342925,0.0,0.10793352502966595,0.1,0.0027277469635009766,0.05348944664001465,0.049287926,1.8272443,3.8048416570083043,0.0,0.09444218141933476,0.0,88,0.002698659896850586,0.9202396428977231,0.9202396428977231,26490,4.053040338979113,0.0
350,1.6495208740234375,3.636783690032843,0.9652396206573787,4.5183044441581846,2.0036294664607794,0.0,0.11195600653016112,0.1,0.00251007080078125,0.05086779594421387,0.050181776,1.574732,3.7880358603107585,0.0,0.0674508869207866,0.0,62,0.0025806427001953125,0.6346317412605935,0.6346317412605935,26552,3.7747402030483292,0.0
351,1.5861165523529053,2.309911939556383,1.8425222016054605,4.203650297565759,0.004485673366814158,0.0,0.09040557081734878,0.1,0.002413511276245117,0.050791263580322266,0.05158056,7.837734,3.640223468235321,0.0,0.036188266630846386,0.0,55,0.0026493072509765625,0.5423530306695581,0.5423530306695581,26607,3.528697849133863,0.0
352,1.6594343185424805,4.069519602838523,0.04387811389934197,4.141890757802731,4.026388518924923,0.0,0.12771818841655105,0.1,0.004966259002685547,0.05879402160644531,0.049512565,3.5641735,3.6831530816956413,0.0,0.08134963185324481,0.0,131,0.0887596607208252,0.43420572285740433,0.41828983279855697,26738,3.771974034672034,0.0
353,1.6082701683044434,3.7621913488600502,0.43960321121158885,4.026840122818099,3.000863619362848,0.0,0.10703277910231776,0.1,0.004165172576904297,0.047867536544799805,0.049657524,1.3059237,3.691056908412082,0.0,0.07020569012487286,0.0,52,0.0024106502532958984,0.6767999069274914,0.6767999069274914,26790,3.533931544801117,0.0
354,1.6726109981536865,3.874455462750314,0.5087799005771169,4.279540443553782,3.0026572586828815,0.0,0.12509273149954683,0.1,0.002618551254272461,0.05039477348327637,0.049477417,1.8121728,3.7093967638459056,0.0,0.07223373849100902,0.0,98,0.002698659896850586,0.47977517566403016,0.47977517566403016,26888,4.040974972676083,0.0
355,1.4452252388000488,2.255832702924243,2.051105957110061,4.019153361775244,-0.9999246193262381,0.0,0.08337229793071757,0.1,0.002390146255493164,0.25398826599121094,0.0490812,3.580993,3.5640403577537394,0.0,0.03511058823770423,0.0,32,0.012786626815795898,0.7088723780730697,0.7088723780730697,26920,3.9465367773850892,0.0
356,1.564002513885498,3.53082680558,0.8840763185681861,4.114930228271563,2.0015942857074718,0.0,0.10127591298973106,0.1,0.004934072494506836,0.046956777572631836,0.049832605,1.5442106,3.5607190025363655,0.0,0.060599603869085014,0.0,52,0.0024099349975585938,0.6152806363072781,0.6152806363072781,26972,2.68409119281132,0.0
357,1.75892972946167,4.6749205031514025,1.0595117372028553,6.508570380584825,4.004641954753124,0.0,0.11802161032777127,0.1,0.002553224563598633,0.05103564262390137,0.050015606,2.335375,3.672139152597869,0.0,0.08344431178368508,0.0,115,0.013293027877807617,0.8401186459242872,0.8401186459242872,27087,3.9524837385817615,0.0
358,1.6613531112670898,2.9083519197255376,2.261080522463623,4.412324513345178,-0.9999262335182013,0.0,0.10733609328390177,0.1,0.003899812698364258,0.05051136016845703,0.049426913,2.8379762,3.595760429310636,0.0,0.05309261388027597,0.0,75,0.0025670528411865234,0.5242023055216619,0.5242023055216619,27162,3.843108479660796,0.0
359,2.0706677436828613,4.712973019108446,1.175685058938669,6.748341744329104,4.003938275315815,0.0,0.10843793092531559,0.1,0.0025098323822021484,0.0529940128326416,0.050097097,1.3247284,3.707481688290417,0.0,0.09377493819424379,0.0,75,0.002660989761352539,0.9244745001495256,0.9244745001495256,27237,2.6643985207565355,0.0
360,1.5233938694000244,2.8158259804724866,2.203371760394903,4.135326899483932,-0.9999287951793945,0.0,0.11478430744826076,0.1,0.003134489059448242,0.05049276351928711,0.05037808,1.9760005,3.6183161175086243,0.0,0.051094800557318326,0.0,76,0.0028839111328125,0.5022326680230494,0.5022326680230494,27313,3.827948673548087,0.0
361,1.6502957344055176,4.140752667704587,0.0958734502560584,4.255556420448375,4.003914424321043,0.0,0.10891025226221993,0.1,0.005350828170776367,0.08320975303649902,0.05000505,3.8765213,3.6705597725282204,0.0,0.07760274067510492,0.0,113,0.011088132858276367,0.480691764833552,0.480691764833552,27426,3.9704169269276313,0.0
362,1.5617880821228027,4.058498667689526,0.05004686542674484,4.126330750410662,4.00722337292877,0.0,0.11418443107641311,0.1,0.0029718875885009766,0.050661563873291016,0.050179306,2.0878263,3.709353662044351,0.0,0.08101124846053342,0.0,87,0.003379344940185547,0.5324185272874621,0.5324185272874621,27513,4.222333696516547,0.0
363,1.5364413261413574,4.037753724356726,0.02996823202021405,4.081779364161103,4.001039087807051,0.0,0.10427728311536108,0.1,0.0027070045471191406,0.054585933685302734,0.05000326,2.112664,3.7421936682755885,0.0,0.0756215106525592,0.0,66,0.0026445388793945312,0.6150854413445295,0.6150854413445295,27579,3.5412038600090985,0.0
364,1.48781156539917,4.0502265736126155,0.04486776546982977,4.121310176936432,4.003921057431624,0.0,0.11477608737206309,0.1,0.002648591995239258,0.05190777778625488,0.04942504,2.5341895,3.7729969588092915,0.0,0.08093412653530734,0.0,89,0.002710103988647461,0.5107111217244675,0.5107111217244675,27668,3.793667719391397,0.0
365,1.7824616432189941,4.689642440646828,1.0629004196520748,6.528861394364709,4.02414076449486,0.0,0.12240009593944264,0.1,0.0032646656036376953,0.07228374481201172,0.049625844,1.8184396,3.8646615069930452,0.0,0.08359396740307083,0.0,110,0.014920234680175781,0.8621648253851887,0.8621648253851887,27778,4.23194807394082,0.0
366,1.6957626342773438,4.0688090732010505,0.05765770419780427,4.157886102407296,4.0044783177656145,0.0,0.12030986336983887,0.1,0.05005025863647461,0.0738821029663086,0.049578022,3.4948711,3.8850762636138456,0.0,0.08135340575673906,0.0,106,0.014319419860839844,0.4932491991600518,0.4932491991600518,27884,4.040622131109696,0.0
367,1.5667526721954346,4.0333675381205705,0.03187678281309849,4.085154664559197,4.00164175857268,0.0,0.09532057764979751,0.1,0.013010263442993164,0.0658266544342041,0.04951161,2.6133857,3.899905391064518,0.0,0.08061208568834691,0.0,60,0.0028645992279052734,0.6348807089569928,0.6348807089569928,27944,4.193319018592434,0.0
