iteration,time_sampling,stoc_pol_mean,stoc_pol_std,stoc_pol_max,stoc_pol_min,rollout_success,alpha,delta,time_vpg,time_npg,kl_dist,surr_improvement,running_score,rwd_sparse,rwd_dense,success_percentage,num_samples,time_VF,VF_error_before,VF_error_after,env_samples,eval_score,eval_success
0,0.9584989547729492,-0.9999999999991447,2.6179849907304174e-14,-0.9999999999991016,-0.9999999999991687,0.0,2645786.98273612,0.1,0.031661272048950195,0.0027360916137695312,0.049197167,1.2698675e-07,-0.9999999999991447,0.0,-0.039999999958041925,0.0,4,0.0011742115020751953,1.0927520963052901,1.0927520963052901,4,-0.9999999999991297,0.0
1,1.0118632316589355,-0.9999999999991185,5.943582876677033e-15,-0.9999999999991123,-0.9999999999991283,0.0,12115563.93146798,0.1,0.0017085075378417969,0.0037622451782226562,0.051118404,5.1741806e-09,-0.999999999999142,0.0,-0.039999999958041925,0.0,4,0.0013320446014404297,1.0927520963052901,1.0927520963052901,8,-0.9999999999991296,0.0
2,1.0440444946289062,-0.9999999999991431,2.0783422466357178e-14,-0.9999999999991074,-0.9999999999991589,0.0,3159272.380893439,0.1,0.0015740394592285156,0.0030226707458496094,0.04847172,1.15700814e-07,-0.9999999999991422,0.0,-0.039999999958041925,0.0,4,0.0009281635284423828,1.0927520963052901,1.0927520963052901,12,-0.9999999999991275,0.0
3,1.0200908184051514,-0.9999999999991329,1.3824394389680663e-14,-0.9999999999991187,-0.9999999999991527,0.0,5174199.783100976,0.1,0.001252889633178711,0.0026557445526123047,0.049994856,2.6584672e-08,-0.9999999999991414,0.0,-0.039999999958041925,0.0,4,0.0009238719940185547,1.0927520963052901,1.0927520963052901,16,-0.999999999999126,0.0
4,1.0356597900390625,-0.9999999999991223,2.7496125108691792e-14,-0.9999999999990763,-0.999999999999148,0.0,2004019.250992022,0.1,0.0012197494506835938,0.002927064895629883,0.049099743,2.1421893e-07,-0.9999999999991395,0.0,-0.039999999958041925,0.0,4,0.0011286735534667969,1.0927520963052901,1.0927520963052901,20,-0.9999999999991229,0.0
5,0.9085047245025635,-0.999999999999134,9.91087829870088e-15,-0.9999999999991238,-0.9999999999991505,0.0,8499237.160031905,0.1,0.001203775405883789,0.0027403831481933594,0.05027154,1.0922162e-08,-0.9999999999991389,0.0,-0.039999999958041925,0.0,4,0.0011408329010009766,1.0927520963052901,1.0927520963052901,24,-0.9999999999991219,0.0
6,1.1515471935272217,-0.9999999999991217,1.68157562026452e-14,-0.9999999999990967,-0.9999999999991387,0.0,3965277.706501253,0.1,0.0013573169708251953,0.0031015872955322266,0.050294608,4.088436e-08,-0.9999999999991372,0.0,-0.039999999958041925,0.0,4,0.0010154247283935547,1.0927520963052901,1.0927520963052901,28,-0.9999999999991193,0.0
7,1.0160245895385742,-0.9999999999991336,1.6501664271247856e-14,-0.9999999999991098,-0.9999999999991565,0.0,3978568.801343165,0.1,0.0012063980102539062,0.002669811248779297,0.049814492,5.7333285e-08,-0.9999999999991369,0.0,-0.039999999958041925,0.0,4,0.0009052753448486328,1.0927520963052901,1.0927520963052901,32,-0.9999999999991173,0.0
8,1.0697109699249268,-0.9999999999991162,1.85951585492388e-14,-0.9999999999990901,-0.9999999999991389,0.0,4029268.1767806495,0.1,0.0015180110931396484,0.0030112266540527344,0.05047962,2.7796613e-08,-0.9999999999991348,0.0,-0.039999999958041925,0.0,4,0.0009784698486328125,1.0927520963052901,1.0927520963052901,36,-0.9999999999991153,0.0
9,1.028998613357544,-0.9999999999991056,1.2393291872495371e-14,-0.9999999999990932,-0.9999999999991256,0.0,6188592.816319595,0.1,0.001373291015625,0.0029511451721191406,0.051564842,1.0236912e-08,-0.9999999999991319,0.0,-0.039999999958041925,0.0,4,0.0009162425994873047,1.0927520963052901,1.0927520963052901,40,-0.9999999999991139,0.0
10,1.0408718585968018,-0.9999999999991418,1.637832975703189e-14,-0.9999999999991167,-0.9999999999991607,0.0,4995258.697136132,0.1,0.0014867782592773438,0.002996206283569336,0.050493777,2.142705e-08,-0.9999999999991329,0.0,-0.039999999958041925,0.0,4,0.0009214878082275391,1.0927520963052901,1.0927520963052901,44,-0.9999999999991118,0.0
11,1.0971004962921143,-0.9999999999991069,3.4758847135670533e-14,-0.9999999999990539,-0.9999999999991427,0.0,1928743.2819854356,0.1,0.0014314651489257812,0.003032207489013672,0.049735546,1.2732212e-07,-0.9999999999991304,0.0,-0.039999999958041925,0.0,4,0.001010894775390625,1.0927520963052901,1.0927520963052901,48,-0.9999999999991078,0.0
12,1.0190024375915527,-0.9999999999991027,2.7842923745588595e-14,-0.9999999999990548,-0.9999999999991218,0.0,2905110.7558349255,0.1,0.0013022422790527344,0.0028688907623291016,0.04944241,9.067806e-08,-0.9999999999991276,0.0,-0.039999999958041925,0.0,4,0.001127481460571289,1.0927520963052901,1.0927520963052901,52,-0.9999999999991043,0.0
13,0.948406457901001,-0.9999999999991014,2.165959476826066e-14,-0.9999999999990725,-0.9999999999991227,0.0,3217453.78452506,0.1,0.0014455318450927734,0.0030913352966308594,0.05058524,4.1234813e-08,-0.999999999999125,0.0,-0.039999999958041925,0.0,4,0.0009348392486572266,1.0927520963052901,1.0927520963052901,56,-0.9999999999991017,0.0
14,0.9623804092407227,-0.9999999999991007,3.5743836752140205e-14,-0.999999999999059,-0.9999999999991556,0.0,1816037.6971431838,0.1,0.0013456344604492188,0.003146648406982422,0.050946146,6.003137e-08,-0.9999999999991226,0.0,-0.039999999958041925,0.0,4,0.0009372234344482422,1.0927520963052901,1.0927520963052901,60,-0.999999999999098,0.0
15,0.9653923511505127,-0.999999999999085,2.373645402436555e-14,-0.9999999999990585,-0.9999999999991234,0.0,3133540.027614408,0.1,0.0012180805206298828,0.00275421142578125,0.05094567,3.411843e-08,-0.9999999999991188,0.0,-0.039999999958041925,0.0,4,0.0010941028594970703,1.0927520963052901,1.0927520963052901,64,-0.9999999999990958,0.0
16,1.1186120510101318,-0.9999999999990867,1.8356321529494105e-14,-0.9999999999990721,-0.9999999999991183,0.0,4027241.052511833,0.1,0.0014293193817138672,0.002889871597290039,0.0509924,1.643444e-08,-0.9999999999991157,0.0,-0.039999999958041925,0.0,4,0.0010175704956054688,1.0927520963052901,1.0927520963052901,68,-0.9999999999990935,0.0
17,0.9433999061584473,-0.9999999999990994,1.1076665683550962e-14,-0.9999999999990825,-0.9999999999991129,0.0,8034397.291983268,0.1,0.0011949539184570312,0.002652406692504883,0.050718725,1.6630453e-08,-0.999999999999114,0.0,-0.039999999958041925,0.0,4,0.0010902881622314453,1.0927520963052901,1.0927520963052901,72,-0.9999999999990918,0.0
18,1.0336289405822754,-0.9999999999991007,6.237042840057389e-15,-0.9999999999990943,-0.9999999999991076,0.0,10975336.037802787,0.1,0.0015194416046142578,0.0031092166900634766,0.052346945,7.828021e-09,-0.9999999999991127,0.0,-0.039999999958041925,0.0,4,0.0009107589721679688,1.0927520963052901,1.0927520963052901,76,-0.9999999999990906,0.0
19,1.0475823879241943,-0.9999999999990912,2.6451514986406834e-14,-0.9999999999990588,-0.9999999999991218,0.0,2633067.6111024157,0.1,0.0014791488647460938,0.0028009414672851562,0.04976824,7.285722e-08,-0.9999999999991106,0.0,-0.039999999958041925,0.0,4,0.0010437965393066406,1.0927520963052901,1.0927520963052901,80,-0.9999999999990871,0.0
20,1.0206966400146484,-0.9999999999990843,7.279372645901064e-15,-0.9999999999990765,-0.9999999999990961,0.0,9790007.439535232,0.1,0.0013432502746582031,0.002897024154663086,0.052149206,6.3292513e-09,-0.999999999999108,0.0,-0.039999999958041925,0.0,4,0.0009212493896484375,1.0927520963052901,1.0927520963052901,84,-0.9999999999990848,0.0
21,1.008085012435913,-0.9999999999991127,1.3746157234068017e-14,-0.9999999999991003,-0.9999999999991358,0.0,5826133.1346480865,0.1,0.0011992454528808594,0.0033712387084960938,0.051403612,1.0257963e-08,-0.9999999999991085,0.0,-0.039999999958041925,0.0,4,0.0010898113250732422,1.0927520963052901,1.0927520963052901,88,-0.9999999999990831,0.0
22,1.0672707557678223,-0.9999999999991063,2.2157225773630574e-14,-0.9999999999990725,-0.9999999999991342,0.0,3153772.520100588,0.1,0.0012137889862060547,0.002685070037841797,0.051266342,4.796125e-08,-0.9999999999991083,0.0,-0.039999999958041925,0.0,4,0.0009264945983886719,1.0927520963052901,1.0927520963052901,92,-0.9999999999990802,0.0
23,1.0963943004608154,-0.9999999999990932,1.0947384520303166e-14,-0.9999999999990743,-0.9999999999991012,0.0,6383847.057536361,0.1,0.0012102127075195312,0.0026290416717529297,0.048430145,5.7909716e-08,-0.9999999999991067,0.0,-0.039999999958041925,0.0,4,0.0009133815765380859,1.0927520963052901,1.0927520963052901,96,-0.9999999999990782,0.0
24,1.1342427730560303,-0.9999999999990934,2.028672470962552e-14,-0.9999999999990661,-0.9999999999991174,0.0,4120821.5332874525,0.1,0.001340627670288086,0.002889394760131836,0.051220477,2.4139872e-08,-0.9999999999991055,0.0,-0.039999999958041925,0.0,4,0.0009202957153320312,1.0927520963052901,1.0927520963052901,100,-0.9999999999990767,0.0
25,1.0171451568603516,-0.9999999999990837,2.6404875586665612e-14,-0.9999999999990434,-0.9999999999991147,0.0,2539326.022745026,0.1,0.001863718032836914,0.00392460823059082,0.051505774,5.768727e-08,-0.9999999999991034,0.0,-0.039999999958041925,0.0,4,0.0012063980102539062,1.0927520963052901,1.0927520963052901,104,-0.9999999999990741,0.0
26,1.078002691268921,-0.9999999999990719,1.6200889306115377e-14,-0.9999999999990481,-0.9999999999990892,0.0,4566061.131581433,0.1,0.001262664794921875,0.002758026123046875,0.0507226,3.1589533e-08,-0.9999999999991003,0.0,-0.039999999958041925,0.0,4,0.0009310245513916016,1.0927520963052901,1.0927520963052901,108,-0.9999999999990711,0.0
27,1.0495667457580566,-0.9999999999990838,1.3583795350043091e-14,-0.9999999999990716,-0.9999999999991054,0.0,6560283.263483021,0.1,0.001527547836303711,0.0029327869415283203,0.0517492,1.0117608e-08,-0.9999999999990986,0.0,-0.039999999958041925,0.0,4,0.0009913444519042969,1.0927520963052901,1.0927520963052901,112,-0.9999999999990692,0.0
28,1.0354859828948975,-0.9999999999990913,9.828452728412632e-15,-0.9999999999990812,-0.9999999999991012,0.0,8612384.49709611,0.1,0.0013871192932128906,0.0029697418212890625,0.050879747,1.6676957e-08,-0.9999999999990979,0.0,-0.039999999958041925,0.0,4,0.0009183883666992188,1.0927520963052901,1.0927520963052901,116,-0.999999999999067,0.0
29,1.0231812000274658,-0.9999999999990854,6.546551295641109e-15,-0.9999999999990747,-0.9999999999990923,0.0,12352861.899554415,0.1,0.0013899803161621094,0.0029926300048828125,0.050566137,1.3989879e-08,-0.9999999999990967,0.0,-0.039999999958041925,0.0,4,0.0009329319000244141,1.0927520963052901,1.0927520963052901,120,-0.9999999999990656,0.0
30,0.9889986515045166,-0.9999999999990821,2.5998901173119036e-14,-0.9999999999990583,-0.9999999999991254,0.0,2615939.127329027,0.1,0.0014188289642333984,0.0029735565185546875,0.051190674,4.4174882e-08,-0.9999999999990954,0.0,-0.039999999958041925,0.0,4,0.0009281635284423828,1.0927520963052901,1.0927520963052901,124,-0.9999999999990618,0.0
31,0.943047046661377,-0.9999999999990773,1.551653355178861e-14,-0.9999999999990605,-0.9999999999991005,0.0,3971468.241270501,0.1,0.0011970996856689453,0.002693653106689453,0.05078146,2.6069202e-08,-0.9999999999990936,0.0,-0.039999999958041925,0.0,4,0.0011148452758789062,1.0927520963052901,1.0927520963052901,128,-0.9999999999990602,0.0
32,1.1119792461395264,-0.9999999999990588,1.193580115041538e-14,-0.9999999999990472,-0.9999999999990754,0.0,6766620.058174084,0.1,0.0014069080352783203,0.0029773712158203125,0.05130461,1.2330349e-08,-0.9999999999990901,0.0,-0.039999999958041925,0.0,4,0.0009157657623291016,1.0927520963052901,1.0927520963052901,132,-0.9999999999990584,0.0
33,1.0389349460601807,-0.9999999999990762,9.612890276896698e-15,-0.9999999999990634,-0.9999999999990905,0.0,9074562.088176934,0.1,0.0011925697326660156,0.0027163028717041016,0.04956329,1.6592153e-08,-0.9999999999990887,0.0,-0.039999999958041925,0.0,4,0.0011305809020996094,1.0927520963052901,1.0927520963052901,136,-0.9999999999990584,0.0
34,1.0510179996490479,-0.9999999999990803,1.6960996003217017e-14,-0.9999999999990521,-0.9999999999990961,0.0,4299494.963616228,0.1,0.0013532638549804688,0.002983570098876953,0.04941967,5.4357926e-08,-0.999999999999088,0.0,-0.039999999958041925,0.0,4,0.0010023117065429688,1.0927520963052901,1.0927520963052901,140,-0.9999999999990555,0.0
35,1.00494384765625,-0.9999999999990752,1.347675396657125e-14,-0.9999999999990545,-0.9999999999990905,0.0,5049118.4783220375,0.1,0.0013532638549804688,0.00354766845703125,0.050053567,6.223502e-08,-0.9999999999990866,0.0,-0.039999999958041925,0.0,4,0.0010228157043457031,1.0927520963052901,1.0927520963052901,144,-0.9999999999990546,0.0
36,1.036144495010376,-0.9999999999990824,2.4796775955047997e-14,-0.9999999999990463,-0.9999999999991103,0.0,2714898.1524987807,0.1,0.0015106201171875,0.0029442310333251953,0.050501972,8.051954e-08,-0.9999999999990863,0.0,-0.039999999958041925,0.0,4,0.0010156631469726562,1.0927520963052901,1.0927520963052901,148,-0.9999999999990513,0.0
37,1.0572905540466309,-0.9999999999990599,7.811900318733702e-15,-0.9999999999990521,-0.9999999999990721,0.0,10205378.996299023,0.1,0.001196146011352539,0.002707958221435547,0.050005227,1.5416303e-08,-0.9999999999990836,0.0,-0.039999999958041925,0.0,4,0.0010755062103271484,1.0927520963052901,1.0927520963052901,152,-0.9999999999990498,0.0
38,1.0901217460632324,-0.9999999999990739,1.5334748301349e-14,-0.9999999999990516,-0.9999999999990927,0.0,4819362.907915859,0.1,0.0017201900482177734,0.00372314453125,0.05123204,3.8153104e-08,-0.9999999999990826,0.0,-0.039999999958041925,0.0,4,0.0013873577117919922,1.0927520963052901,1.0927520963052901,156,-0.9999999999990474,0.0
39,0.9857079982757568,-0.9999999999990882,9.216188625421228e-15,-0.9999999999990754,-0.9999999999990972,0.0,8715189.379695812,0.1,0.0013933181762695312,0.0028905868530273438,0.05019796,2.020341e-08,-0.9999999999990832,0.0,-0.039999999958041925,0.0,4,0.0009276866912841797,1.0927520963052901,1.0927520963052901,160,-0.9999999999990464,0.0
40,1.1350605487823486,-0.9999999999990616,3.0566438042747734e-15,-0.999999999999059,-0.9999999999990667,0.0,28436672.42797394,0.1,0.0013666152954101562,0.0029456615447998047,0.050780714,2.5189761e-09,-0.9999999999990811,0.0,-0.039999999958041925,0.0,4,0.0009140968322753906,1.0927520963052901,1.0927520963052901,164,-0.999999999999048,0.0
41,0.915215015411377,-0.9999999999990715,2.1280690528154418e-14,-0.999999999999057,-0.9999999999991083,0.0,3262902.605386803,0.1,0.001283407211303711,0.0029571056365966797,0.0517056,2.1160472e-08,-0.9999999999990802,0.0,-0.039999999958041925,0.0,4,0.0011305809020996094,1.0927520963052901,1.0927520963052901,168,-0.9999999999990462,0.0
42,1.005080223083496,-0.9999999999990647,1.588938222605448e-14,-0.9999999999990408,-0.9999999999990836,0.0,5127579.142922149,0.1,0.0014033317565917969,0.0030181407928466797,0.051475108,3.6298182e-08,-0.9999999999990786,0.0,-0.039999999958041925,0.0,4,0.0009272098541259766,1.0927520963052901,1.0927520963052901,172,-0.9999999999990425,0.0
43,1.0056240558624268,-0.9999999999990655,2.7086484078050314e-14,-0.9999999999990299,-0.9999999999991043,0.0,2751178.9852769147,0.1,0.0016646385192871094,0.0038366317749023438,0.051118046,3.8437456e-08,-0.9999999999990774,0.0,-0.039999999958041925,0.0,4,0.0014281272888183594,1.0927520963052901,1.0927520963052901,176,-0.9999999999990393,0.0
44,1.0045092105865479,-0.9999999999990492,1.73628374786746e-14,-0.9999999999990241,-0.9999999999990732,0.0,5042500.836885944,0.1,0.0013532638549804688,0.0027489662170410156,0.05120355,3.2825756e-08,-0.9999999999990746,0.0,-0.039999999958041925,0.0,4,0.0011508464813232422,1.0927520963052901,1.0927520963052901,180,-0.9999999999990369,0.0
45,1.0514581203460693,-0.9999999999990534,1.989375920704949e-14,-0.9999999999990286,-0.9999999999990841,0.0,4841567.576836506,0.1,0.0013704299926757812,0.0029163360595703125,0.051977694,2.410527e-08,-0.9999999999990725,0.0,-0.039999999958041925,0.0,4,0.0009481906890869141,1.0927520963052901,1.0927520963052901,184,-0.9999999999990337,0.0
46,1.0038015842437744,-0.9999999999990541,1.0123139926370033e-14,-0.9999999999990379,-0.9999999999990652,0.0,8796861.546061281,0.1,0.0013453960418701172,0.003003358840942383,0.051118925,1.560802e-08,-0.9999999999990706,0.0,-0.039999999958041925,0.0,4,0.0009315013885498047,1.0927520963052901,1.0927520963052901,188,-0.999999999999032,0.0
47,1.0339164733886719,-0.9999999999990552,4.738974983634191e-15,-0.9999999999990488,-0.9999999999990621,0.0,17917679.328441672,0.1,0.0014324188232421875,0.0029654502868652344,0.049742073,5.6669425e-09,-0.9999999999990691,0.0,-0.039999999958041925,0.0,4,0.0009636878967285156,1.0927520963052901,1.0927520963052901,192,-0.9999999999990331,0.0
48,1.1642029285430908,-0.9999999999990672,2.508465330496313e-14,-0.9999999999990492,-0.99999999999911,0.0,2585266.084651357,0.1,0.0012466907501220703,0.002685070037841797,0.052636772,2.0537442e-08,-0.9999999999990689,0.0,-0.039999999958041925,0.0,4,0.0010819435119628906,1.0927520963052901,1.0927520963052901,196,-0.99999999999903,0.0
49,0.9517614841461182,-0.999999999999058,2.2476190249518478e-14,-0.999999999999035,-0.9999999999990943,0.0,3397336.0423847684,0.1,0.0013573169708251953,0.003173351287841797,0.052268744,2.8428756e-08,-0.9999999999990679,0.0,-0.039999999958041925,0.0,4,0.0009226799011230469,1.0927520963052901,1.0927520963052901,200,-0.9999999999990288,0.0
50,1.061743974685669,-0.9999999999990414,1.443033703955174e-14,-0.9999999999990203,-0.999999999999061,0.0,5437524.797647836,0.1,0.0013275146484375,0.0028367042541503906,0.051613808,2.1898781e-08,-0.9999999999990653,0.0,-0.039999999958041925,0.0,4,0.0009205341339111328,1.0927520963052901,1.0927520963052901,204,-0.9999999999990279,0.0
51,1.0889039039611816,-0.9999999999990455,5.946692800781008e-15,-0.9999999999990377,-0.9999999999990528,0.0,15721450.110751374,0.1,0.001371622085571289,0.0029404163360595703,0.050457507,9.243952e-09,-0.9999999999990634,0.0,-0.039999999958041925,0.0,4,0.0009112358093261719,1.0927520963052901,1.0927520963052901,208,-0.999999999999027,0.0
52,1.0647506713867188,-0.9999999999990469,5.886276418203968e-15,-0.9999999999990408,-0.9999999999990554,0.0,13539704.708436647,0.1,0.001863241195678711,0.0039017200469970703,0.050419062,6.052873e-09,-0.9999999999990619,0.0,-0.039999999958041925,0.0,4,0.0012276172637939453,1.0927520963052901,1.0927520963052901,212,-0.9999999999990266,0.0
53,1.0073533058166504,-0.9999999999990312,1.45562051634932e-14,-0.9999999999990155,-0.999999999999049,0.0,7124709.880135419,0.1,0.0014653205871582031,0.0031404495239257812,0.0514884,1.5428114e-08,-0.9999999999990589,0.0,-0.039999999958041925,0.0,4,0.0009388923645019531,1.0927520963052901,1.0927520963052901,216,-0.9999999999990251,0.0
54,1.12030029296875,-0.9999999999990479,1.2725984388311377e-14,-0.9999999999990374,-0.9999999999990694,0.0,6165131.647104671,0.1,0.001310586929321289,0.0027322769165039062,0.051703274,1.188892e-08,-0.9999999999990579,0.0,-0.039999999958041925,0.0,4,0.0012905597686767578,1.0927520963052901,1.0927520963052901,220,-0.9999999999990244,0.0
55,1.0318498611450195,-0.9999999999990439,1.0703724610233013e-14,-0.9999999999990308,-0.9999999999990588,0.0,12223794.879325377,0.1,0.0013418197631835938,0.002898693084716797,0.051546067,1.0785214e-08,-0.9999999999990565,0.0,-0.039999999958041925,0.0,4,0.000942230224609375,1.0927520963052901,1.0927520963052901,224,-0.999999999999023,0.0
56,1.128662347793579,-0.9999999999990469,8.779189918803538e-15,-0.9999999999990352,-0.9999999999990599,0.0,8678646.973146608,0.1,0.0016090869903564453,0.0029354095458984375,0.049579352,1.5825556e-08,-0.9999999999990556,0.0,-0.039999999958041925,0.0,4,0.0009579658508300781,1.0927520963052901,1.0927520963052901,228,-0.9999999999990231,0.0
57,1.1478114128112793,-0.999999999999045,9.669143872149901e-15,-0.9999999999990297,-0.9999999999990561,0.0,7889739.867121898,0.1,0.0018894672393798828,0.0038764476776123047,0.051402807,1.5182579e-08,-0.9999999999990546,0.0,-0.039999999958041925,0.0,4,0.0012812614440917969,1.0927520963052901,1.0927520963052901,232,-0.9999999999990229,0.0
58,1.0704081058502197,-0.999999999999054,9.00787098447616e-15,-0.9999999999990472,-0.9999999999990692,0.0,8699841.945964605,0.1,0.0014183521270751953,0.002893686294555664,0.05087492,8.732497e-09,-0.9999999999990545,0.0,-0.039999999958041925,0.0,4,0.000982046127319336,1.0927520963052901,1.0927520963052901,236,-0.9999999999990229,0.0
59,0.9813158512115479,-0.9999999999990453,1.4075333771362962e-14,-0.9999999999990314,-0.999999999999067,0.0,6621250.102094438,0.1,0.0019354820251464844,0.003233194351196289,0.05218157,1.44720405e-08,-0.9999999999990536,0.0,-0.039999999958041925,0.0,4,0.001405477523803711,1.0927520963052901,1.0927520963052901,240,-0.9999999999990226,0.0
60,1.020740270614624,-0.99999999999904,9.166570370519273e-15,-0.9999999999990292,-0.9999999999990508,0.0,9840565.683796627,0.1,0.0014159679412841797,0.0029997825622558594,0.051301092,8.709191e-09,-0.9999999999990523,0.0,-0.039999999958041925,0.0,4,0.0009467601776123047,1.0927520963052901,1.0927520963052901,244,-0.9999999999990226,0.0
61,0.9959962368011475,-0.9999999999990368,9.288128743557772e-15,-0.9999999999990212,-0.9999999999990454,0.0,10385920.755143823,0.1,0.0014574527740478516,0.002996683120727539,0.05089128,2.411446e-08,-0.9999999999990509,0.0,-0.039999999958041925,0.0,4,0.001737833023071289,1.0927520963052901,1.0927520963052901,248,-0.9999999999990213,0.0
62,1.195826530456543,-0.9999999999990442,5.168204447650818e-15,-0.9999999999990361,-0.9999999999990499,0.0,16583895.121196281,0.1,0.0018191337585449219,0.003960609436035156,0.05026406,1.2214613e-08,-0.9999999999990502,0.0,-0.039999999958041925,0.0,4,0.001260995864868164,1.0927520963052901,1.0927520963052901,252,-0.9999999999990209,0.0
63,1.0821325778961182,-0.9999999999990329,1.7166862784395647e-14,-0.9999999999990159,-0.9999999999990605,0.0,5063368.593023421,0.1,0.0013735294342041016,0.0031042098999023438,0.052149713,1.47437635e-08,-0.9999999999990484,0.0,-0.039999999958041925,0.0,4,0.0009264945983886719,1.0927520963052901,1.0927520963052901,256,-0.9999999999990195,0.0
64,1.113795280456543,-0.9999999999990379,3.874662450135157e-15,-0.999999999999033,-0.9999999999990437,0.0,19639897.969285667,0.1,0.001405477523803711,0.002899646759033203,0.049275935,5.278891e-09,-0.9999999999990474,0.0,-0.039999999958041925,0.0,4,0.0009264945983886719,1.0927520963052901,1.0927520963052901,260,-0.9999999999990195,0.0
65,1.0336394309997559,-0.9999999999990344,5.1514826884791726e-15,-0.9999999999990257,-0.9999999999990388,0.0,14440673.57397675,0.1,0.0013942718505859375,0.0027489662170410156,0.049982786,2.4272186e-08,-0.9999999999990461,0.0,-0.039999999958041925,0.0,4,0.001123666763305664,1.0927520963052901,1.0927520963052901,264,-0.9999999999990189,0.0
66,1.0175964832305908,-0.9999999999990348,3.9642891350404604e-15,-0.999999999999031,-0.9999999999990401,0.0,22163587.499285642,0.1,0.0013477802276611328,0.002907276153564453,0.050352752,4.4367554e-09,-0.999999999999045,0.0,-0.039999999958041925,0.0,4,0.00090789794921875,1.0927520963052901,1.0927520963052901,268,-0.999999999999019,0.0
67,1.0550293922424316,-0.9999999999990288,1.1391018082560152e-14,-0.999999999999015,-0.9999999999990432,0.0,7341178.318875372,0.1,0.0014281272888183594,0.002881765365600586,0.05101937,1.854879e-08,-0.9999999999990434,0.0,-0.039999999958041925,0.0,4,0.0009438991546630859,1.0927520963052901,1.0927520963052901,272,-0.9999999999990176,0.0
68,0.9849658012390137,-0.9999999999990357,7.822937422276162e-15,-0.9999999999990254,-0.9999999999990463,0.0,12334669.701038448,0.1,0.0013751983642578125,0.0029745101928710938,0.051469117,6.6714057e-09,-0.9999999999990428,0.0,-0.039999999958041925,0.0,4,0.0009186267852783203,1.0927520963052901,1.0927520963052901,276,-0.9999999999990173,0.0
69,1.0945775508880615,-0.9999999999990326,1.1857576919590329e-14,-0.9999999999990135,-0.9999999999990461,0.0,6967774.138320801,0.1,0.0014488697052001953,0.0029098987579345703,0.05020663,2.7072456e-08,-0.9999999999990418,0.0,-0.039999999958041925,0.0,4,0.0010223388671875,1.0927520963052901,1.0927520963052901,280,-0.9999999999990165,0.0
70,1.1088242530822754,-0.9999999999990234,5.27910756352445e-15,-0.9999999999990168,-0.9999999999990288,0.0,16323848.171333672,0.1,0.0013527870178222656,0.0029761791229248047,0.050742745,8.871933e-09,-0.99999999999904,0.0,-0.039999999958041925,0.0,4,0.000919342041015625,1.0927520963052901,1.0927520963052901,284,-0.9999999999990162,0.0
71,0.9908316135406494,-0.9999999999990319,9.69524147392633e-15,-0.9999999999990175,-0.9999999999990448,0.0,8232750.97588762,0.1,0.0013501644134521484,0.0029435157775878906,0.050763607,2.5178423e-08,-0.9999999999990392,0.0,-0.039999999958041925,0.0,4,0.0009350776672363281,1.0927520963052901,1.0927520963052901,288,-0.999999999999016,0.0
72,1.1366231441497803,-0.9999999999990259,8.62122313907906e-15,-0.9999999999990161,-0.9999999999990397,0.0,8150690.108667853,0.1,0.0012900829315185547,0.002724885940551758,0.050623387,9.47771e-09,-0.9999999999990379,0.0,-0.039999999958041925,0.0,4,0.0011246204376220703,1.0927520963052901,1.0927520963052901,292,-0.9999999999990159,0.0
73,1.0521461963653564,-0.9999999999990319,9.889713155383293e-15,-0.9999999999990208,-0.9999999999990472,0.0,6674866.732948488,0.1,0.001361846923828125,0.002926349639892578,0.05133459,1.5335196e-08,-0.9999999999990373,0.0,-0.039999999958041925,0.0,4,0.0009119510650634766,1.0927520963052901,1.0927520963052901,296,-0.999999999999016,0.0
74,1.016190767288208,-0.9999999999990203,2.1152589550219202e-15,-0.9999999999990177,-0.9999999999990228,0.0,36144489.64372027,0.1,0.0018362998962402344,0.003584146499633789,0.04967892,4.032039e-09,-0.9999999999990357,0.0,-0.039999999958041925,0.0,4,0.0012025833129882812,1.0927520963052901,1.0927520963052901,300,-0.9999999999990162,0.0
75,1.1336333751678467,-0.9999999999990328,7.638786231009919e-15,-0.9999999999990257,-0.999999999999045,0.0,11908266.650874175,0.1,0.001386404037475586,0.0029213428497314453,0.051795363,5.6061777e-09,-0.9999999999990354,0.0,-0.039999999958041925,0.0,4,0.0009222030639648438,1.0927520963052901,1.0927520963052901,304,-0.999999999999016,0.0
76,1.029897689819336,-0.9999999999990274,7.595905452671892e-15,-0.9999999999990146,-0.9999999999990337,0.0,11024493.662579115,0.1,0.0013308525085449219,0.0026276111602783203,0.05044973,2.163851e-08,-0.9999999999990347,0.0,-0.039999999958041925,0.0,4,0.0011110305786132812,1.0927520963052901,1.0927520963052901,308,-0.9999999999990158,0.0
77,1.145603895187378,-0.9999999999990228,4.346916593445525e-15,-0.9999999999990177,-0.9999999999990294,0.0,20444527.114635296,0.1,0.001478433609008789,0.002928018569946289,0.049801856,4.384705e-09,-0.9999999999990334,0.0,-0.039999999958041925,0.0,4,0.0010440349578857422,1.0927520963052901,1.0927520963052901,312,-0.9999999999990156,0.0
78,1.0518567562103271,-0.9999999999990211,4.113822019402337e-15,-0.9999999999990168,-0.9999999999990254,0.0,20305223.609718423,0.1,0.0014352798461914062,0.0030536651611328125,0.05071771,5.0581974e-09,-0.9999999999990323,0.0,-0.039999999958041925,0.0,4,0.0009443759918212891,1.0927520963052901,1.0927520963052901,316,-0.9999999999990156,0.0
79,1.128533124923706,-0.9999999999990274,7.28191210966082e-15,-0.9999999999990163,-0.9999999999990361,0.0,10463095.74439499,0.1,0.0016634464263916016,0.003810405731201172,0.050313354,2.4166237e-08,-0.9999999999990319,0.0,-0.039999999958041925,0.0,4,0.0010349750518798828,1.0927520963052901,1.0927520963052901,320,-0.9999999999990155,0.0
80,0.963526725769043,-0.999999999999018,2.9976021664879227e-15,-0.9999999999990143,-0.9999999999990221,0.0,33270914.579191424,0.1,0.0014071464538574219,0.00296783447265625,0.05081153,2.1272615e-09,-0.9999999999990306,0.0,-0.039999999958041925,0.0,4,0.0009374618530273438,1.0927520963052901,1.0927520963052901,324,-0.9999999999990146,0.0
81,0.9757719039916992,-0.999999999999032,9.967923364618893e-15,-0.999999999999019,-0.9999999999990432,0.0,9281790.250459677,0.1,0.0013740062713623047,0.002982616424560547,0.050826162,1.72781e-08,-0.9999999999990307,0.0,-0.039999999958041925,0.0,4,0.0009181499481201172,1.0927520963052901,1.0927520963052901,328,-0.9999999999990145,0.0
82,1.0489766597747803,-0.9999999999990221,3.1145664134658662e-15,-0.9999999999990168,-0.9999999999990246,0.0,28389236.997639596,0.1,0.0016646385192871094,0.00374603271484375,0.049288303,6.762664e-09,-0.9999999999990299,0.0,-0.039999999958041925,0.0,4,0.0014026165008544922,1.0927520963052901,1.0927520963052901,332,-0.9999999999990146,0.0
83,0.974879264831543,-0.9999999999990209,4.143675981565292e-15,-0.9999999999990163,-0.9999999999990277,0.0,25402267.492695853,0.1,0.0012326240539550781,0.0027229785919189453,0.05135271,2.3512854e-09,-0.999999999999029,0.0,-0.039999999958041925,0.0,4,0.0011069774627685547,1.0927520963052901,1.0927520963052901,336,-0.9999999999990145,0.0
84,1.1520066261291504,-0.9999999999990181,2.4069061620089816e-15,-0.9999999999990157,-0.9999999999990221,0.0,40317812.537517846,0.1,0.0014111995697021484,0.0029752254486083984,0.05111137,2.8304932e-09,-0.999999999999028,0.0,-0.039999999958041925,0.0,4,0.0010223388671875,1.0927520963052901,1.0927520963052901,340,-0.9999999999990146,0.0
85,1.020273208618164,-0.9999999999990168,2.4500486629179707e-15,-0.9999999999990143,-0.9999999999990199,0.0,45156500.1797651,0.1,0.0013878345489501953,0.0029876232147216797,0.050256997,2.254059e-09,-0.9999999999990269,0.0,-0.039999999958041925,0.0,4,0.0009052753448486328,1.0927520963052901,1.0927520963052901,344,-0.9999999999990142,0.0
86,0.9702086448669434,-0.9999999999990272,9.674878644465298e-15,-0.999999999999015,-0.9999999999990388,0.0,11180527.389613213,0.1,0.001390695571899414,0.002945423126220703,0.051448405,7.367227e-09,-0.9999999999990269,0.0,-0.039999999958041925,0.0,4,0.00090789794921875,1.0927520963052901,1.0927520963052901,348,-0.9999999999990142,0.0
87,0.9577949047088623,-0.9999999999990212,7.99129247793933e-15,-0.9999999999990161,-0.999999999999035,0.0,9931359.008100362,0.1,0.0012166500091552734,0.0027227401733398438,0.05071658,6.059551e-09,-0.9999999999990263,0.0,-0.039999999958041925,0.0,4,0.0009222030639648438,1.0927520963052901,1.0927520963052901,352,-0.9999999999990145,0.0
88,1.0681791305541992,-0.9999999999990287,5.8946465275414735e-15,-0.9999999999990217,-0.999999999999035,0.0,15370092.378233101,0.1,0.0013561248779296875,0.0029659271240234375,0.04931882,6.076833e-09,-0.9999999999990266,0.0,-0.039999999958041925,0.0,4,0.0009198188781738281,1.0927520963052901,1.0927520963052901,356,-0.9999999999990141,0.0
89,1.1273884773254395,-0.9999999999990259,2.4145755584882908e-15,-0.9999999999990228,-0.9999999999990292,0.0,32656944.26171358,0.1,0.0014333724975585938,0.0031251907348632812,0.051125377,3.6777488e-09,-0.9999999999990266,0.0,-0.039999999958041925,0.0,4,0.0010509490966796875,1.0927520963052901,1.0927520963052901,360,-0.9999999999990141,0.0
90,1.0025739669799805,-0.9999999999990228,1.1262609305538832e-14,-0.9999999999990159,-0.9999999999990423,0.0,7853586.668569601,0.1,0.0013489723205566406,0.002947092056274414,0.051039577,7.620677e-09,-0.9999999999990262,0.0,-0.039999999958041925,0.0,4,0.0009162425994873047,1.0927520963052901,1.0927520963052901,364,-0.999999999999014,0.0
91,1.1360454559326172,-0.9999999999990166,1.0821115497893178e-15,-0.9999999999990152,-0.9999999999990181,0.0,100476426.89491321,0.1,0.001186370849609375,0.0028171539306640625,0.04892814,1.0314968e-09,-0.9999999999990252,0.0,-0.039999999958041925,0.0,4,0.0011022090911865234,1.0927520963052901,1.0927520963052901,368,-0.9999999999990138,0.0
92,0.8773744106292725,-0.9999999999990188,5.295426327528139e-15,-0.9999999999990115,-0.9999999999990259,0.0,16887059.795058887,0.1,0.0014443397521972656,0.0030107498168945312,0.050973296,5.326872e-09,-0.9999999999990246,0.0,-0.039999999958041925,0.0,4,0.0009424686431884766,1.0927520963052901,1.0927520963052901,372,-0.9999999999990138,0.0
93,1.0481336116790771,-0.9999999999990187,2.3785734810242764e-15,-0.999999999999015,-0.9999999999990208,0.0,51907719.466463126,0.1,0.0018777847290039062,0.003966093063354492,0.049355328,2.3597284e-09,-0.999999999999024,0.0,-0.039999999958041925,0.0,4,0.001233816146850586,1.0927520963052901,1.0927520963052901,376,-0.9999999999990138,0.0
94,1.0209393501281738,-0.9999999999990263,9.958644833924648e-15,-0.999999999999015,-0.9999999999990419,0.0,8413217.860947331,0.1,0.0013718605041503906,0.0030639171600341797,0.051490158,1.0995787e-08,-0.9999999999990242,0.0,-0.039999999958041925,0.0,4,0.0009398460388183594,1.0927520963052901,1.0927520963052901,380,-0.9999999999990137,0.0
95,1.0806081295013428,-0.9999999999990223,6.956413311085781e-15,-0.9999999999990137,-0.999999999999031,0.0,11493688.899851449,0.1,0.0012760162353515625,0.002728700637817383,0.050927967,1.2155021e-08,-0.9999999999990241,0.0,-0.039999999958041925,0.0,4,0.0011310577392578125,1.0927520963052901,1.0927520963052901,384,-0.9999999999990128,0.0
96,1.0624775886535645,-0.9999999999990139,2.0045598609095038e-15,-0.9999999999990103,-0.9999999999990152,0.0,45055248.48373738,0.1,0.0013835430145263672,0.0029103755950927734,0.050653934,5.101594e-09,-0.9999999999990231,0.0,-0.039999999958041925,0.0,4,0.0009150505065917969,1.0927520963052901,1.0927520963052901,388,-0.9999999999990127,0.0
97,1.0359292030334473,-0.9999999999990228,2.7307875685720004e-15,-0.9999999999990183,-0.9999999999990257,0.0,30182652.1626089,0.1,0.001390218734741211,0.002889871597290039,0.04896483,9.226637e-09,-0.9999999999990231,0.0,-0.039999999958041925,0.0,4,0.0009121894836425781,1.0927520963052901,1.0927520963052901,392,-0.9999999999990125,0.0
98,1.1062719821929932,-0.9999999999990283,4.845713351197033e-15,-0.9999999999990221,-0.9999999999990354,0.0,18028813.33982808,0.1,0.0018253326416015625,0.0038919448852539062,0.050783783,8.382729e-09,-0.9999999999990237,0.0,-0.039999999958041925,0.0,4,0.0011973381042480469,1.0927520963052901,1.0927520963052901,396,-0.9999999999990125,0.0
99,0.9763524532318115,-0.9999999999990206,7.870063977598499e-15,-0.9999999999990141,-0.9999999999990339,0.0,12072854.625799173,0.1,0.001199960708618164,0.0026688575744628906,0.051119268,8.332823e-09,-0.9999999999990233,0.0,-0.039999999958041925,0.0,4,0.0011272430419921875,1.0927520963052901,1.0927520963052901,400,-0.9999999999990125,0.0
100,0.9938740730285645,-0.9999999999990208,4.690610161234867e-15,-0.9999999999990141,-0.9999999999990259,0.0,17042136.938191894,0.1,0.001216888427734375,0.0026581287384033203,0.051661104,4.980571e-09,-0.9999999999990231,0.0,-0.039999999958041925,0.0,4,0.0011093616485595703,1.0927520963052901,1.0927520963052901,404,-0.9999999999990125,0.0
101,1.0812199115753174,-0.9999999999990219,4.053454519487839e-15,-0.9999999999990168,-0.9999999999990281,0.0,27953348.470728736,0.1,0.0014448165893554688,0.0029659271240234375,0.04957816,4.708117e-09,-0.999999999999023,0.0,-0.039999999958041925,0.0,4,0.0011780261993408203,1.0927520963052901,1.0927520963052901,408,-0.9999999999990123,0.0
102,1.041835069656372,-0.9999999999990201,6.141450319825084e-15,-0.9999999999990117,-0.9999999999990263,0.0,17721872.569712225,0.1,0.0013594627380371094,0.0028839111328125,0.04992193,6.499015e-09,-0.9999999999990228,0.0,-0.039999999958041925,0.0,4,0.0009083747863769531,1.0927520963052901,1.0927520963052901,412,-0.9999999999990122,0.0
103,1.0307481288909912,-0.9999999999990165,5.757124627010134e-15,-0.9999999999990066,-0.9999999999990208,0.0,15773650.015488492,0.1,0.001360177993774414,0.0029714107513427734,0.050522,1.7056841e-08,-0.9999999999990221,0.0,-0.039999999958041925,0.0,4,0.0009055137634277344,1.0927520963052901,1.0927520963052901,416,-0.999999999999012,0.0
104,1.0378496646881104,-0.9999999999990168,2.5072365940373352e-15,-0.9999999999990139,-0.9999999999990208,0.0,34645843.653659664,0.1,0.0011904239654541016,0.00272369384765625,0.050799876,2.4723108e-09,-0.9999999999990217,0.0,-0.039999999958041925,0.0,4,0.001058816909790039,1.0927520963052901,1.0927520963052901,420,-0.999999999999012,0.0
105,0.962989091873169,-0.999999999999015,4.1213057840373734e-15,-0.9999999999990097,-0.999999999999021,0.0,19364832.19426871,0.1,0.0011942386627197266,0.0027222633361816406,0.05072257,7.86177e-09,-0.999999999999021,0.0,-0.039999999958041925,0.0,4,0.001079559326171875,1.0927520963052901,1.0927520963052901,424,-0.999999999999012,0.0
106,1.077751874923706,-0.9999999999990208,7.821361646769739e-15,-0.9999999999990139,-0.9999999999990332,0.0,13766793.496937659,0.1,0.0013518333435058594,0.0031065940856933594,0.05136767,5.6035834e-09,-0.999999999999021,0.0,-0.039999999958041925,0.0,4,0.0008955001831054688,1.0927520963052901,1.0927520963052901,428,-0.9999999999990119,0.0
107,1.026881217956543,-0.9999999999990157,2.531698018113677e-15,-0.9999999999990126,-0.9999999999990188,0.0,34065204.39072534,0.1,0.0013625621795654297,0.0029048919677734375,0.05063498,3.2342946e-09,-0.9999999999990206,0.0,-0.039999999958041925,0.0,4,0.0008945465087890625,1.0927520963052901,1.0927520963052901,432,-0.9999999999990119,0.0
108,1.115814208984375,-0.9999999999990158,1.5100665727558131e-15,-0.9999999999990135,-0.9999999999990177,0.0,57452692.40110018,0.1,0.001344442367553711,0.0029048919677734375,0.050598294,3.88326e-09,-0.9999999999990201,0.0,-0.039999999958041925,0.0,4,0.0009207725524902344,1.0927520963052901,1.0927520963052901,436,-0.9999999999990118,0.0
109,1.2621567249298096,-0.9999999999990206,3.633331007602785e-15,-0.999999999999015,-0.9999999999990239,0.0,26352822.227569178,0.1,0.0013537406921386719,0.0028467178344726562,0.04992315,6.5339214e-09,-0.9999999999990202,0.0,-0.039999999958041925,0.0,4,0.0008969306945800781,1.0927520963052901,1.0927520963052901,440,-0.9999999999990118,0.0
110,0.9360578060150146,-0.9999999999990188,5.87369889011815e-15,-0.9999999999990132,-0.9999999999990283,0.0,16406445.539337246,0.1,0.0014553070068359375,0.0030510425567626953,0.05165133,4.0059023e-09,-0.9999999999990201,0.0,-0.039999999958041925,0.0,4,0.0009129047393798828,1.0927520963052901,1.0927520963052901,444,-0.9999999999990118,0.0
111,1.0747957229614258,-0.9999999999990152,3.621437911838241e-15,-0.9999999999990112,-0.999999999999021,0.0,25167616.245221477,0.1,0.0020661354064941406,0.0037784576416015625,0.05025944,3.8372443e-09,-0.9999999999990197,0.0,-0.039999999958041925,0.0,4,0.0014004707336425781,1.0927520963052901,1.0927520963052901,448,-0.999999999999011,0.0
112,0.9826748371124268,-0.9999999999990175,2.5414166642833352e-15,-0.9999999999990146,-0.9999999999990208,0.0,38780404.681760974,0.1,0.0013270378112792969,0.00281524658203125,0.050546765,2.54857e-09,-0.9999999999990195,0.0,-0.039999999958041925,0.0,4,0.0012519359588623047,1.0927520963052901,1.0927520963052901,452,-0.999999999999011,0.0
113,1.0655081272125244,-0.9999999999990159,4.338401567456334e-15,-0.9999999999990112,-0.9999999999990228,0.0,21879665.98010149,0.1,0.0012094974517822266,0.002757549285888672,0.050546497,4.473933e-09,-0.9999999999990191,0.0,-0.039999999958041925,0.0,4,0.0012006759643554688,1.0927520963052901,1.0927520963052901,456,-0.999999999999011,0.0
114,1.0420753955841064,-0.999999999999016,6.049442158684427e-15,-0.9999999999990081,-0.9999999999990232,0.0,13983835.021628544,0.1,0.001401662826538086,0.0029249191284179688,0.050057173,7.677437e-09,-0.9999999999990188,0.0,-0.039999999958041925,0.0,4,0.0009238719940185547,1.0927520963052901,1.0927520963052901,460,-0.9999999999990109,0.0
115,1.081761121749878,-0.9999999999990155,2.2616962511116513e-15,-0.9999999999990121,-0.9999999999990177,0.0,40708178.84966883,0.1,0.0014219284057617188,0.0029366016387939453,0.05014807,5.6196097e-09,-0.9999999999990186,0.0,-0.039999999958041925,0.0,4,0.0009114742279052734,1.0927520963052901,1.0927520963052901,464,-0.9999999999990106,0.0
116,1.0936009883880615,-0.9999999999990159,5.901960635768871e-15,-0.9999999999990097,-0.9999999999990223,0.0,13019714.147662286,0.1,0.0013480186462402344,0.0029273033142089844,0.050290644,6.6905166e-09,-0.9999999999990183,0.0,-0.039999999958041925,0.0,4,0.0009062290191650391,1.0927520963052901,1.0927520963052901,468,-0.9999999999990105,0.0
117,1.1143271923065186,-0.9999999999990168,1.9984014443252818e-15,-0.9999999999990135,-0.9999999999990183,0.0,40753233.95960692,0.1,0.0014362335205078125,0.003349781036376953,0.049909055,4.4423585e-09,-0.9999999999990182,0.0,-0.039999999958041925,0.0,4,0.001468658447265625,1.0927520963052901,1.0927520963052901,472,-0.9999999999990105,0.0
118,1.0492348670959473,-0.9999999999990152,3.4844027277880974e-15,-0.9999999999990117,-0.999999999999021,0.0,27312398.399200674,0.1,0.0012242794036865234,0.0026903152465820312,0.05085981,1.8760034e-09,-0.9999999999990179,0.0,-0.039999999958041925,0.0,4,0.0009233951568603516,1.0927520963052901,1.0927520963052901,476,-0.9999999999990105,0.0
119,0.994722843170166,-0.9999999999990192,5.7335253583425314e-15,-0.9999999999990137,-0.9999999999990274,0.0,14191183.28130347,0.1,0.001581430435180664,0.003210306167602539,0.050546557,7.022735e-09,-0.9999999999990181,0.0,-0.039999999958041925,0.0,4,0.0009055137634277344,1.0927520963052901,1.0927520963052901,480,-0.9999999999990102,0.0
120,1.0348598957061768,-0.9999999999990168,4.887503891172238e-15,-0.9999999999990086,-0.9999999999990212,0.0,17329195.162633497,0.1,0.0013549327850341797,0.0028655529022216797,0.050015807,9.608552e-09,-0.999999999999018,0.0,-0.039999999958041925,0.0,4,0.0009298324584960938,1.0927520963052901,1.0927520963052901,484,-0.9999999999990102,0.0
121,1.1151416301727295,-0.9999999999990149,5.731375151869636e-15,-0.9999999999990064,-0.9999999999990217,0.0,14184525.516598132,0.1,0.0013718605041503906,0.003268003463745117,0.050079018,1.3854304e-08,-0.9999999999990177,0.0,-0.039999999958041925,0.0,4,0.0012633800506591797,1.0927520963052901,1.0927520963052901,488,-0.9999999999990092,0.0
122,1.1021666526794434,-0.999999999999015,2.6783770938487313e-15,-0.999999999999011,-0.9999999999990186,0.0,33247794.184414186,0.1,0.001184225082397461,0.002671480178833008,0.05017057,3.965038e-09,-0.9999999999990175,0.0,-0.039999999958041925,0.0,4,0.0011060237884521484,1.0927520963052901,1.0927520963052901,492,-0.9999999999990092,0.0
123,0.9770498275756836,-0.9999999999990148,2.8457249041605285e-15,-0.9999999999990123,-0.9999999999990197,0.0,27498966.37470867,0.1,0.001371145248413086,0.0031232833862304688,0.05029288,2.3278799e-09,-0.9999999999990172,0.0,-0.039999999958041925,0.0,4,0.00091552734375,1.0927520963052901,1.0927520963052901,496,-0.9999999999990093,0.0
124,1.099865198135376,-0.9999999999990142,4.6536756481995594e-15,-0.9999999999990075,-0.9999999999990206,0.0,20065501.87741448,0.1,0.0013523101806640625,0.002968311309814453,0.049992323,8.332378e-09,-0.9999999999990169,0.0,-0.039999999958041925,0.0,4,0.000926971435546875,1.0927520963052901,1.0927520963052901,500,-0.9999999999990092,0.0
125,1.1532094478607178,-0.9999999999990137,7.027808210090951e-15,-0.9999999999990077,-0.999999999999025,0.0,11546793.700327408,0.1,0.0018093585968017578,0.003070831298828125,0.050648898,9.287838e-09,-0.9999999999990166,0.0,-0.039999999958041925,0.0,4,0.0013446807861328125,1.0927520963052901,1.0927520963052901,504,-0.9999999999990091,0.0
126,1.084923267364502,-0.999999999999012,5.971513887308523e-15,-0.9999999999990052,-0.9999999999990214,0.0,13758887.015080217,0.1,0.0011949539184570312,0.0027017593383789062,0.050918072,4.2338746e-09,-0.9999999999990161,0.0,-0.039999999958041925,0.0,4,0.0011777877807617188,1.0927520963052901,1.0927520963052901,508,-0.9999999999990089,0.0
127,1.020374059677124,-0.9999999999990148,3.188872858294072e-15,-0.9999999999990112,-0.999999999999019,0.0,22614565.67779481,0.1,0.0017538070678710938,0.0033545494079589844,0.049878955,5.0755617e-09,-0.999999999999016,0.0,-0.039999999958041925,0.0,4,0.000997304916381836,1.0927520963052901,1.0927520963052901,512,-0.9999999999990089,0.0
128,1.0271282196044922,-0.9999999999990167,9.62314266245494e-15,-0.9999999999990092,-0.9999999999990332,0.0,8828018.463083966,0.1,0.0014431476593017578,0.0030493736267089844,0.050831318,7.858167e-09,-0.9999999999990161,0.0,-0.039999999958041925,0.0,4,0.0009229183197021484,1.0927520963052901,1.0927520963052901,516,-0.9999999999990088,0.0
129,1.099034070968628,-0.9999999999990101,2.5942184945888343e-15,-0.9999999999990059,-0.9999999999990126,0.0,29672885.861008693,0.1,0.001360177993774414,0.002849578857421875,0.049670637,7.017028e-09,-0.9999999999990156,0.0,-0.039999999958041925,0.0,4,0.0011107921600341797,1.0927520963052901,1.0927520963052901,520,-0.9999999999990087,0.0
130,1.0547447204589844,-0.9999999999990151,3.989085555926959e-15,-0.9999999999990083,-0.9999999999990186,0.0,18338223.625978563,0.1,0.0017943382263183594,0.0039174556732177734,0.050597638,1.3894246e-08,-0.9999999999990156,0.0,-0.039999999958041925,0.0,4,0.0011909008026123047,1.0927520963052901,1.0927520963052901,524,-0.9999999999990085,0.0
131,1.029088020324707,-0.9999999999990103,1.047382306668854e-15,-0.9999999999990086,-0.9999999999990112,0.0,84476702.79295458,0.1,0.0012667179107666016,0.0027687549591064453,0.049994797,4.0131076e-09,-0.9999999999990151,0.0,-0.039999999958041925,0.0,4,0.0011010169982910156,1.0927520963052901,1.0927520963052901,528,-0.9999999999990083,0.0
132,0.9930460453033447,-0.9999999999990121,6.275461377686122e-15,-0.999999999999007,-0.9999999999990226,0.0,12638907.164879322,0.1,0.0012161731719970703,0.002677440643310547,0.05018708,5.594813e-09,-0.9999999999990148,0.0,-0.039999999958041925,0.0,4,0.001129150390625,1.0927520963052901,1.0927520963052901,532,-0.9999999999990083,0.0
133,0.9646296501159668,-0.9999999999990108,1.3642648929939613e-15,-0.9999999999990097,-0.999999999999013,0.0,72035833.34203167,0.1,0.0013687610626220703,0.0029382705688476562,0.050012916,1.1393831e-09,-0.9999999999990143,0.0,-0.039999999958041925,0.0,4,0.0009076595306396484,1.0927520963052901,1.0927520963052901,536,-0.9999999999990083,0.0
134,1.039278507232666,-0.999999999999011,3.6197357082603754e-15,-0.9999999999990072,-0.999999999999017,0.0,23554833.33956892,0.1,0.0013704299926757812,0.002901315689086914,0.050663114,3.1337075e-09,-0.9999999999990141,0.0,-0.039999999958041925,0.0,4,0.0009016990661621094,1.0927520963052901,1.0927520963052901,540,-0.9999999999990082,0.0
135,1.2117562294006348,-0.999999999999013,4.336980771096812e-15,-0.999999999999009,-0.9999999999990203,0.0,18240935.470523402,0.1,0.0018808841705322266,0.003860950469970703,0.050391674,4.1913433e-09,-0.999999999999014,0.0,-0.039999999958041925,0.0,4,0.0011510848999023438,1.0927520963052901,1.0927520963052901,544,-0.9999999999990075,0.0
136,1.0869624614715576,-0.9999999999990141,2.907851926738657e-15,-0.999999999999011,-0.9999999999990186,0.0,32910712.27149748,0.1,0.0014142990112304688,0.0028831958770751953,0.050763875,2.8749798e-09,-0.999999999999014,0.0,-0.039999999958041925,0.0,4,0.0009772777557373047,1.0927520963052901,1.0927520963052901,548,-0.9999999999990075,0.0
137,0.9780545234680176,-0.9999999999990108,1.530336829712622e-15,-0.999999999999009,-0.9999999999990132,0.0,58024530.7463172,0.1,0.0013585090637207031,0.0029287338256835938,0.050149143,1.6051527e-09,-0.9999999999990137,0.0,-0.039999999958041925,0.0,4,0.0009119510650634766,1.0927520963052901,1.0927520963052901,552,-0.9999999999990073,0.0
138,1.0590753555297852,-0.9999999999990093,1.5818243213922008e-15,-0.999999999999007,-0.999999999999011,0.0,56006414.03158917,0.1,0.0013697147369384766,0.002917766571044922,0.050432503,2.2699633e-09,-0.9999999999990132,0.0,-0.039999999958041925,0.0,4,0.0009100437164306641,1.0927520963052901,1.0927520963052901,556,-0.9999999999990073,0.0
139,1.0167138576507568,-0.9999999999990119,1.137640067256873e-15,-0.999999999999011,-0.9999999999990139,0.0,82338933.79739515,0.1,0.0013580322265625,0.0029320716857910156,0.050420552,1.0115584e-09,-0.9999999999990131,0.0,-0.039999999958041925,0.0,4,0.0009133815765380859,1.0927520963052901,1.0927520963052901,560,-0.9999999999990073,0.0
140,1.1077678203582764,-0.9999999999990102,3.181132864214931e-15,-0.9999999999990075,-0.9999999999990152,0.0,24937354.62409634,0.1,0.0013468265533447266,0.0029244422912597656,0.050359517,2.546237e-09,-0.9999999999990129,0.0,-0.039999999958041925,0.0,4,0.0009181499481201172,1.0927520963052901,1.0927520963052901,564,-0.999999999999007,0.0
141,0.9753580093383789,-0.9999999999990131,4.677452743560217e-15,-0.999999999999009,-0.9999999999990208,0.0,17953023.480995957,0.1,0.0012052059173583984,0.003140687942504883,0.050295115,3.1869711e-09,-0.9999999999990129,0.0,-0.039999999958041925,0.0,4,0.0012366771697998047,1.0927520963052901,1.0927520963052901,568,-0.9999999999990067,0.0
142,1.0498576164245605,-0.9999999999990112,3.233018248352212e-15,-0.9999999999990072,-0.9999999999990161,0.0,27744780.024464123,0.1,0.0013895034790039062,0.0029342174530029297,0.05062759,3.988701e-09,-0.9999999999990128,0.0,-0.039999999958041925,0.0,4,0.0009090900421142578,1.0927520963052901,1.0927520963052901,572,-0.9999999999990066,0.0
143,1.0277066230773926,-0.9999999999990095,2.5775352444066036e-15,-0.9999999999990068,-0.9999999999990132,0.0,35330985.46105458,0.1,0.0014002323150634766,0.0035545825958251953,0.04995194,2.1805338e-09,-0.9999999999990125,0.0,-0.039999999958041925,0.0,4,0.0010302066802978516,1.0927520963052901,1.0927520963052901,576,-0.9999999999990058,0.0
144,1.277111291885376,-0.9999999999990139,7.199349044417092e-15,-0.999999999999009,-0.9999999999990263,0.0,11350427.307427717,0.1,0.001392364501953125,0.0028829574584960938,0.051132947,4.131224e-09,-0.9999999999990126,0.0,-0.039999999958041925,0.0,4,0.0009164810180664062,1.0927520963052901,1.0927520963052901,580,-0.9999999999990057,0.0
145,0.9207179546356201,-0.9999999999990129,3.697226037623727e-15,-0.9999999999990072,-0.9999999999990172,0.0,24873592.46832647,0.1,0.0014529228210449219,0.0030465126037597656,0.050434113,7.319968e-09,-0.9999999999990126,0.0,-0.039999999958041925,0.0,4,0.000926971435546875,1.0927520963052901,1.0927520963052901,584,-0.9999999999990056,0.0
146,0.9824519157409668,-0.9999999999990108,3.911074787101517e-15,-0.9999999999990075,-0.9999999999990175,0.0,19274147.1221269,0.1,0.0014035701751708984,0.0030426979064941406,0.050414294,2.3610327e-09,-0.9999999999990123,0.0,-0.039999999958041925,0.0,4,0.0009412765502929688,1.0927520963052901,1.0927520963052901,588,-0.9999999999990056,0.0
147,1.0126214027404785,-0.9999999999990102,1.3732700395566711e-15,-0.9999999999990083,-0.9999999999990121,0.0,65706680.209568776,0.1,0.001817941665649414,0.00401616096496582,0.050626278,1.4493228e-09,-0.9999999999990122,0.0,-0.039999999958041925,0.0,4,0.0012254714965820312,1.0927520963052901,1.0927520963052901,592,-0.9999999999990054,0.0
148,0.9911108016967773,-0.9999999999990107,1.793620188084545e-15,-0.9999999999990088,-0.9999999999990135,0.0,37966930.850997955,0.1,0.001216888427734375,0.002718210220336914,0.049994618,2.1611473e-09,-0.9999999999990121,0.0,-0.039999999958041925,0.0,4,0.0011715888977050781,1.0927520963052901,1.0927520963052901,596,-0.9999999999990054,0.0
149,1.0609676837921143,-0.9999999999990126,6.7367762285455445e-15,-0.9999999999990044,-0.999999999999023,0.0,11757278.428231122,0.1,0.0012006759643554688,0.00266265869140625,0.05087927,6.8888872e-09,-0.9999999999990122,0.0,-0.039999999958041925,0.0,4,0.0009064674377441406,1.0927520963052901,1.0927520963052901,600,-0.9999999999990052,0.0
150,0.9545044898986816,-0.9999999999990115,3.098695908077623e-15,-0.9999999999990064,-0.9999999999990148,0.0,29001934.676001653,0.1,0.0013012886047363281,0.002722501754760742,0.05042076,7.365096e-09,-0.9999999999990122,0.0,-0.039999999958041925,0.0,4,0.001252889633178711,1.0927520963052901,1.0927520963052901,604,-0.9999999999990052,0.0
151,0.9893381595611572,-0.999999999999011,3.940900794429958e-15,-0.9999999999990055,-0.9999999999990161,0.0,18443971.976401884,0.1,0.0013589859008789062,0.0029077529907226562,0.04983017,8.105981e-09,-0.9999999999990121,0.0,-0.039999999958041925,0.0,4,0.0009198188781738281,1.0927520963052901,1.0927520963052901,608,-0.9999999999990051,0.0
152,1.421785593032837,-0.9999999999990077,1.2462222543165673e-15,-0.9999999999990059,-0.9999999999990092,0.0,76963600.28552671,0.1,0.0016608238220214844,0.0038161277770996094,0.049724787,1.1198855e-09,-0.9999999999990117,0.0,-0.039999999958041925,0.0,4,0.0011985301971435547,1.0927520963052901,1.0927520963052901,612,-0.9999999999990051,0.0
153,1.532843828201294,-0.9999999999990079,2.6529452291309588e-15,-0.9999999999990059,-0.9999999999990123,0.0,37043173.17806781,0.1,0.0013403892517089844,0.0028145313262939453,0.05121711,1.4199599e-09,-0.9999999999990113,0.0,-0.039999999958041925,0.0,4,0.0010943412780761719,1.0927520963052901,1.0927520963052901,616,-0.9999999999990051,0.0
154,1.4009218215942383,-0.9999999999990075,1.7554167342883505e-15,-0.9999999999990057,-0.9999999999990103,0.0,53008818.235871375,0.1,0.0011868476867675781,0.0026726722717285156,0.05046925,1.6142191e-09,-0.9999999999990109,0.0,-0.039999999958041925,0.0,4,0.0009171962738037109,1.0927520963052901,1.0927520963052901,620,-0.9999999999990051,0.0
155,1.5851855278015137,-0.9999999999990083,1.683736582170148e-15,-0.9999999999990064,-0.9999999999990101,0.0,52553334.32349943,0.1,0.0011892318725585938,0.00267791748046875,0.050164312,1.9916568e-09,-0.9999999999990107,0.0,-0.039999999958041925,0.0,4,0.0009090900421142578,1.0927520963052901,1.0927520963052901,624,-0.9999999999990051,0.0
156,1.5734400749206543,-0.9999999999990088,2.019873756993224e-15,-0.9999999999990059,-0.9999999999990115,0.0,46385879.47125107,0.1,0.0013353824615478516,0.002925872802734375,0.05046153,3.0729241e-09,-0.9999999999990106,0.0,-0.039999999958041925,0.0,4,0.0009150505065917969,1.0927520963052901,1.0927520963052901,628,-0.9999999999990051,0.0
157,1.475667953491211,-0.999999999999009,2.3863339371437894e-15,-0.9999999999990066,-0.9999999999990121,0.0,38939129.58023646,0.1,0.0011894702911376953,0.002669811248779297,0.050196767,2.0661561e-09,-0.9999999999990105,0.0,-0.039999999958041925,0.0,4,0.0009016990661621094,1.0927520963052901,1.0927520963052901,632,-0.9999999999990049,0.0
158,1.5926525592803955,-0.9999999999990083,2.3629761096480587e-15,-0.9999999999990057,-0.9999999999990119,0.0,37930511.46639832,0.1,0.0012922286987304688,0.002707958221435547,0.05024594,3.3575778e-09,-0.9999999999990102,0.0,-0.039999999958041925,0.0,4,0.0012514591217041016,1.0927520963052901,1.0927520963052901,636,-0.9999999999990049,0.0
159,1.6681103706359863,-0.9999999999990075,1.4130832128153975e-15,-0.9999999999990059,-0.9999999999990097,0.0,78713965.15240838,0.1,0.0011894702911376953,0.002999544143676758,0.05037579,1.3565424e-09,-0.9999999999990099,0.0,-0.039999999958041925,0.0,4,0.0012080669403076172,1.0927520963052901,1.0927520963052901,640,-0.9999999999990049,0.0
160,1.684077262878418,-0.9999999999990068,2.1355566272775288e-15,-0.9999999999990046,-0.9999999999990099,0.0,47362231.79166581,0.1,0.0012183189392089844,0.0026273727416992188,0.050613582,1.4355669e-09,-0.9999999999990097,0.0,-0.039999999958041925,0.0,4,0.0010797977447509766,1.0927520963052901,1.0927520963052901,644,-0.9999999999990049,0.0
161,1.5254902839660645,-0.9999999999990086,2.638970003411226e-15,-0.9999999999990064,-0.999999999999013,0.0,37231229.47157259,0.1,0.0014352798461914062,0.0030760765075683594,0.050932795,2.041857e-09,-0.9999999999990096,0.0,-0.039999999958041925,0.0,4,0.0009257793426513672,1.0927520963052901,1.0927520963052901,648,-0.9999999999990049,0.0
162,1.526871681213379,-0.9999999999990077,1.0706603116298291e-15,-0.9999999999990068,-0.9999999999990095,0.0,80092020.67705011,0.1,0.0013995170593261719,0.0029506683349609375,0.049914777,1.0968882e-09,-0.9999999999990095,0.0,-0.039999999958041925,0.0,4,0.0009138584136962891,1.0927520963052901,1.0927520963052901,652,-0.9999999999990049,0.0
163,1.4209785461425781,-0.9999999999990061,7.447602459741819e-16,-0.999999999999005,-0.999999999999007,0.0,158015458.70088425,0.1,0.001390218734741211,0.0029587745666503906,0.04928425,8.6965946e-10,-0.9999999999990091,0.0,-0.039999999958041925,0.0,4,0.0009224414825439453,1.0927520963052901,1.0927520963052901,656,-0.9999999999990048,0.0
164,1.4997291564941406,-0.9999999999990051,1.137640067256873e-15,-0.9999999999990032,-0.9999999999990061,0.0,71270957.86362751,0.1,0.0015759468078613281,0.002978086471557617,0.05003783,4.3104267e-09,-0.9999999999990087,0.0,-0.039999999958041925,0.0,4,0.0009310245513916016,1.0927520963052901,1.0927520963052901,660,-0.9999999999990048,0.0
165,1.5064008235931396,-0.9999999999990075,1.5818243213922008e-15,-0.9999999999990055,-0.9999999999990095,0.0,49216599.64999188,0.1,0.0014429092407226562,0.0032050609588623047,0.049629003,2.2322846e-09,-0.9999999999990086,0.0,-0.039999999958041925,0.0,4,0.0010197162628173828,1.0927520963052901,1.0927520963052901,664,-0.9999999999990048,0.0
166,1.4600152969360352,-0.9999999999990086,1.0114613123884174e-15,-0.9999999999990079,-0.9999999999990103,0.0,96392012.08128099,0.1,0.0013954639434814453,0.0029931068420410156,0.049452603,6.286648e-10,-0.9999999999990086,0.0,-0.039999999958041925,0.0,4,0.0009140968322753906,1.0927520963052901,1.0927520963052901,668,-0.9999999999990048,0.0
167,1.382007122039795,-0.9999999999990079,1.4432899320127035e-15,-0.9999999999990061,-0.9999999999990101,0.0,63768878.00277923,0.1,0.0013039112091064453,0.002815723419189453,0.050623864,1.2693472e-09,-0.9999999999990086,0.0,-0.039999999958041925,0.0,4,0.0011487007141113281,1.0927520963052901,1.0927520963052901,672,-0.9999999999990048,0.0
168,1.4856317043304443,-0.9999999999990088,5.535550179266617e-15,-0.9999999999990041,-0.9999999999990181,0.0,13625267.05197949,0.1,0.0016355514526367188,0.003406524658203125,0.050805807,4.395544e-09,-0.9999999999990086,0.0,-0.039999999958041925,0.0,4,0.001035451889038086,1.0927520963052901,1.0927520963052901,676,-0.9999999999990048,0.0
169,1.4955503940582275,-0.9999999999990072,2.819616784322031e-15,-0.999999999999005,-0.9999999999990121,0.0,29277619.16585389,0.1,0.0014455318450927734,0.0029420852661132812,0.050145924,2.5770635e-09,-0.9999999999990085,0.0,-0.039999999958041925,0.0,4,0.0010004043579101562,1.0927520963052901,1.0927520963052901,680,-0.9999999999990048,0.0
170,1.6980175971984863,-0.9999999999990068,1.121270291988505e-15,-0.9999999999990057,-0.9999999999990086,0.0,74602143.99034439,0.1,0.0012154579162597656,0.0027735233306884766,0.049454004,1.5698607e-09,-0.9999999999990083,0.0,-0.039999999958041925,0.0,4,0.001142740249633789,1.0927520963052901,1.0927520963052901,684,-0.9999999999990048,0.0
171,1.626349925994873,-0.9999999999990092,1.4895204919483639e-15,-0.9999999999990072,-0.9999999999990112,0.0,63453163.039251916,0.1,0.001436471939086914,0.002979278564453125,0.050799012,1.643464e-09,-0.9999999999990085,0.0,-0.039999999958041925,0.0,4,0.0009419918060302734,1.0927520963052901,1.0927520963052901,688,-0.9999999999990048,0.0
172,1.5428507328033447,-0.9999999999990098,2.1784148785229476e-15,-0.9999999999990064,-0.9999999999990123,0.0,36034361.34012251,0.1,0.0012423992156982422,0.0026764869689941406,0.05046022,4.033488e-09,-0.9999999999990086,0.0,-0.039999999958041925,0.0,4,0.0009567737579345703,1.0927520963052901,1.0927520963052901,692,-0.9999999999990048,0.0
173,1.537008285522461,-0.9999999999990076,2.5096934653706247e-15,-0.9999999999990035,-0.9999999999990101,0.0,41767624.23812754,0.1,0.0012118816375732422,0.0026993751525878906,0.050523072,3.4626328e-09,-0.9999999999990085,0.0,-0.039999999958041925,0.0,4,0.0011343955993652344,1.0927520963052901,1.0927520963052901,696,-0.9999999999990047,0.0
174,1.5840308666229248,-0.9999999999990067,2.0137621733714643e-15,-0.999999999999005,-0.9999999999990101,0.0,46834131.715251,0.1,0.0013456344604492188,0.002953052520751953,0.050765216,1.2052497e-09,-0.9999999999990083,0.0,-0.039999999958041925,0.0,4,0.0009090900421142578,1.0927520963052901,1.0927520963052901,700,-0.9999999999990047,0.0
175,1.6709938049316406,-0.9999999999990068,2.3155537059576192e-15,-0.9999999999990035,-0.9999999999990097,0.0,43833695.67706417,0.1,0.0013885498046875,0.0029799938201904297,0.050561666,2.686212e-09,-0.9999999999990082,0.0,-0.039999999958041925,0.0,4,0.0010340213775634766,1.0927520963052901,1.0927520963052901,704,-0.9999999999990039,0.0
176,1.7724359035491943,-0.9999999999990068,1.5934698110350668e-15,-0.9999999999990046,-0.9999999999990088,0.0,59311418.138926685,0.1,0.0013415813446044922,0.0030736923217773438,0.04971978,2.0465238e-09,-0.9999999999990081,0.0,-0.039999999958041925,0.0,4,0.0009083747863769531,1.0927520963052901,1.0927520963052901,708,-0.9999999999990039,0.0
177,1.6451570987701416,-0.9999999999990061,1.7019396688362377e-15,-0.9999999999990032,-0.9999999999990072,0.0,50021340.19363736,0.1,0.0013647079467773438,0.0027344226837158203,0.050379843,4.6423723e-09,-0.9999999999990079,0.0,-0.039999999958041925,0.0,4,0.0011751651763916016,1.0927520963052901,1.0927520963052901,712,-0.9999999999990038,0.0
178,1.6142420768737793,-0.9999999999990059,1.3089336417583914e-15,-0.9999999999990044,-0.9999999999990079,0.0,67009836.55023061,0.1,0.001531362533569336,0.0029833316802978516,0.050627172,1.5216166e-09,-0.9999999999990078,0.0,-0.039999999958041925,0.0,4,0.0009150505065917969,1.0927520963052901,1.0927520963052901,716,-0.9999999999990038,0.0
179,1.6638877391815186,-0.9999999999990077,4.221768122166024e-15,-0.9999999999990039,-0.9999999999990146,0.0,21769549.308222543,0.1,0.0012886524200439453,0.0027866363525390625,0.05068621,2.2135485e-09,-0.9999999999990079,0.0,-0.039999999958041925,0.0,4,0.0011157989501953125,1.0927520963052901,1.0927520963052901,720,-0.9999999999990038,0.0
180,1.7818644046783447,-0.999999999999008,4.66161482198069e-15,-0.9999999999990044,-0.9999999999990159,0.0,18199367.385800645,0.1,0.0013446807861328125,0.002924680709838867,0.05063218,3.7695704e-09,-0.999999999999008,0.0,-0.039999999958041925,0.0,4,0.0009021759033203125,1.0927520963052901,1.0927520963052901,724,-0.9999999999990038,0.0
181,1.6179394721984863,-0.9999999999990052,4.1540741810552243e-16,-0.9999999999990046,-0.9999999999990057,0.0,227629608.4392057,0.1,0.00144195556640625,0.003014087677001953,0.049923003,9.715837e-10,-0.9999999999990077,0.0,-0.039999999958041925,0.0,4,0.0009264945983886719,1.0927520963052901,1.0927520963052901,728,-0.9999999999990038,0.0
182,1.5617780685424805,-0.9999999999990061,2.184065769673227e-15,-0.9999999999990037,-0.9999999999990086,0.0,41956636.53698946,0.1,0.001416921615600586,0.0031189918518066406,0.050412804,3.0763547e-09,-0.9999999999990076,0.0,-0.039999999958041925,0.0,4,0.0009582042694091797,1.0927520963052901,1.0927520963052901,732,-0.9999999999990036,0.0
183,1.552049160003662,-0.9999999999990039,7.850462293418876e-16,-0.999999999999003,-0.9999999999990048,0.0,110899446.82118581,0.1,0.001417398452758789,0.002933502197265625,0.04985571,1.465656e-09,-0.9999999999990072,0.0,-0.039999999958041925,0.0,4,0.0010390281677246094,1.0927520963052901,1.0927520963052901,736,-0.9999999999990036,0.0
184,1.4995546340942383,-0.9999999999990077,1.951593978782523e-15,-0.9999999999990048,-0.9999999999990099,0.0,49218067.08040792,0.1,0.001856088638305664,0.003729581832885742,0.050049037,2.1333382e-09,-0.9999999999990072,0.0,-0.039999999958041925,0.0,4,0.0012106895446777344,1.0927520963052901,1.0927520963052901,740,-0.9999999999990036,0.0
185,1.5178189277648926,-0.999999999999005,1.3460738804684947e-15,-0.9999999999990032,-0.999999999999007,0.0,77385585.10829952,0.1,0.0015227794647216797,0.0030112266540527344,0.04981026,9.480253e-10,-0.999999999999007,0.0,-0.039999999958041925,0.0,4,0.000926971435546875,1.0927520963052901,1.0927520963052901,744,-0.9999999999990036,0.0
186,1.6023969650268555,-0.9999999999990048,1.8610729195778454e-15,-0.9999999999990017,-0.9999999999990064,0.0,51207390.64824193,0.1,0.0013649463653564453,0.002725839614868164,0.049743056,2.6051372e-09,-0.9999999999990068,0.0,-0.039999999958041925,0.0,4,0.0011034011840820312,1.0927520963052901,1.0927520963052901,748,-0.9999999999990035,0.0
187,1.5963962078094482,-0.9999999999990046,1.5895974606912448e-15,-0.9999999999990028,-0.999999999999007,0.0,53687494.87930739,0.1,0.0015790462493896484,0.003053426742553711,0.050643265,1.5928286e-09,-0.9999999999990067,0.0,-0.039999999958041925,0.0,4,0.0015027523040771484,1.0927520963052901,1.0927520963052901,752,-0.9999999999990035,0.0
188,1.3612174987792969,-0.9999999999990066,1.793620188084545e-15,-0.9999999999990044,-0.9999999999990092,0.0,55839169.15558963,0.1,0.001285552978515625,0.0027501583099365234,0.050339043,1.5125927e-09,-0.9999999999990068,0.0,-0.039999999958041925,0.0,4,0.0009315013885498047,1.0927520963052901,1.0927520963052901,756,-0.9999999999990035,0.0
189,1.4524409770965576,-0.9999999999990061,8.95090418262362e-16,-0.999999999999005,-0.9999999999990075,0.0,103043993.29867518,0.1,0.0014379024505615234,0.0030548572540283203,0.050290138,9.0794106e-10,-0.9999999999990068,0.0,-0.039999999958041925,0.0,4,0.0009121894836425781,1.0927520963052901,1.0927520963052901,760,-0.9999999999990034,0.0
190,1.5039112567901611,-0.9999999999990075,2.7532635654997073e-15,-0.9999999999990046,-0.9999999999990117,0.0,28471517.676822565,0.1,0.0015604496002197266,0.003021717071533203,0.0500966,2.5513005e-09,-0.9999999999990069,0.0,-0.039999999958041925,0.0,4,0.0009667873382568359,1.0927520963052901,1.0927520963052901,764,-0.9999999999990034,0.0
191,1.4533817768096924,-0.9999999999990061,1.903635937714726e-15,-0.9999999999990041,-0.9999999999990092,0.0,52436185.295866005,0.1,0.0016832351684570312,0.003526449203491211,0.05053407,1.6501631e-09,-0.9999999999990068,0.0,-0.039999999958041925,0.0,4,0.0009257793426513672,1.0927520963052901,1.0927520963052901,768,-0.9999999999990034,0.0
192,1.4238309860229492,-0.9999999999990039,9.08756711201214e-16,-0.9999999999990032,-0.9999999999990055,0.0,99534833.3114667,0.1,0.0013539791107177734,0.0029647350311279297,0.049725592,7.1781964e-10,-0.9999999999990066,0.0,-0.039999999958041925,0.0,4,0.0009198188781738281,1.0927520963052901,1.0927520963052901,772,-0.9999999999990034,0.0
193,1.4858372211456299,-0.9999999999990054,1.047382306668854e-15,-0.9999999999990044,-0.999999999999007,0.0,76641195.80207509,0.1,0.0013644695281982422,0.002930164337158203,0.05066067,8.127157e-10,-0.9999999999990065,0.0,-0.039999999958041925,0.0,4,0.0009083747863769531,1.0927520963052901,1.0927520963052901,776,-0.9999999999990034,0.0
194,1.4155902862548828,-0.9999999999990055,2.3603665272841412e-15,-0.9999999999990021,-0.9999999999990088,0.0,41146791.24485701,0.1,0.0013570785522460938,0.002954721450805664,0.05054283,2.72785e-09,-0.9999999999990064,0.0,-0.039999999958041925,0.0,4,0.0009157657623291016,1.0927520963052901,1.0927520963052901,780,-0.9999999999990034,0.0
195,1.474548101425171,-0.9999999999990054,9.61481343191782e-16,-0.9999999999990039,-0.9999999999990066,0.0,88718755.32652642,0.1,0.0012366771697998047,0.0028574466705322266,0.049794525,1.1674252e-09,-0.9999999999990062,0.0,-0.039999999958041925,0.0,4,0.0009088516235351562,1.0927520963052901,1.0927520963052901,784,-0.9999999999990031,0.0
196,1.5666828155517578,-0.9999999999990064,2.5918417478740246e-15,-0.9999999999990037,-0.9999999999990106,0.0,29896909.311473407,0.1,0.0012328624725341797,0.0027472972869873047,0.05065626,1.9562407e-09,-0.9999999999990062,0.0,-0.039999999958041925,0.0,4,0.0011446475982666016,1.0927520963052901,1.0927520963052901,788,-0.9999999999990031,0.0
197,1.5165627002716064,-0.9999999999990055,8.671119018262734e-16,-0.9999999999990046,-0.9999999999990068,0.0,108928060.9954912,0.1,0.001352548599243164,0.0029714107513427734,0.0504694,9.337826e-10,-0.9999999999990061,0.0,-0.039999999958041925,0.0,4,0.0009145736694335938,1.0927520963052901,1.0927520963052901,792,-0.9999999999990031,0.0
198,1.5954360961914062,-0.9999999999990044,5.661048867003676e-16,-0.9999999999990035,-0.999999999999005,0.0,165752298.2490834,0.1,0.0012195110321044922,0.0029230117797851562,0.050082833,1.4416384e-09,-0.9999999999990059,0.0,-0.039999999958041925,0.0,4,0.001129150390625,1.0927520963052901,1.0927520963052901,796,-0.9999999999990031,0.0
199,1.5354909896850586,-0.9999999999990039,1.5141423334015086e-15,-0.9999999999990015,-0.9999999999990055,0.0,70599375.41685851,0.1,0.001215219497680664,0.0026543140411376953,0.05044341,2.6127234e-09,-0.9999999999990057,0.0,-0.039999999958041925,0.0,4,0.001115560531616211,1.0927520963052901,1.0927520963052901,800,-0.999999999999003,0.0
200,1.4441206455230713,-0.9999999999990068,1.7659178253678205e-15,-0.9999999999990046,-0.9999999999990095,0.0,46994607.638818346,0.1,0.0013675689697265625,0.002801656723022461,0.050320774,3.3320917e-09,-0.9999999999990059,0.0,-0.039999999958041925,0.0,4,0.0011112689971923828,1.0927520963052901,1.0927520963052901,804,-0.999999999999003,0.0
201,1.4553940296173096,-0.9999999999990049,1.9229626863835638e-16,-0.9999999999990046,-0.999999999999005,0.0,435364008.6608256,0.1,0.0012385845184326172,0.002881765365600586,0.04869765,2.633713e-10,-0.9999999999990058,0.0,-0.039999999958041925,0.0,4,0.0011267662048339844,1.0927520963052901,1.0927520963052901,808,-0.999999999999003,0.0
202,1.3257064819335938,-0.9999999999990059,2.2259902427727487e-15,-0.9999999999990028,-0.9999999999990081,0.0,39367317.1255207,0.1,0.0014910697937011719,0.002962827682495117,0.05042973,3.9975148e-09,-0.9999999999990058,0.0,-0.039999999958041925,0.0,4,0.0009441375732421875,1.0927520963052901,1.0927520963052901,812,-0.999999999999003,0.0
203,1.3929855823516846,-0.9999999999990046,1.456043846448818e-15,-0.9999999999990028,-0.9999999999990059,0.0,60889539.78866921,0.1,0.0014531612396240234,0.002927064895629883,0.050190628,1.8706632e-09,-0.9999999999990057,0.0,-0.039999999958041925,0.0,4,0.0009152889251708984,1.0927520963052901,1.0927520963052901,816,-0.9999999999990022,0.0
204,1.6384851932525635,-0.9999999999990055,1.3732700395566711e-15,-0.9999999999990032,-0.9999999999990068,0.0,62075759.55744332,0.1,0.0013720989227294922,0.002941608428955078,0.050433338,3.0677767e-09,-0.9999999999990057,0.0,-0.039999999958041925,0.0,4,0.0009064674377441406,1.0927520963052901,1.0927520963052901,820,-0.9999999999990022,0.0
205,1.297821044921875,-0.9999999999990046,8.3820000221454525e-16,-0.9999999999990032,-0.9999999999990055,0.0,92380973.55561897,0.1,0.0011997222900390625,0.0026726722717285156,0.0496383,1.6483294e-09,-0.9999999999990057,0.0,-0.039999999958041925,0.0,4,0.0010752677917480469,1.0927520963052901,1.0927520963052901,824,-0.9999999999990021,0.0
206,1.2799756526947021,-0.9999999999990052,8.3820000221454525e-16,-0.9999999999990044,-0.9999999999990066,0.0,123024750.95574164,0.1,0.0013675689697265625,0.002907276153564453,0.050411135,7.705059e-10,-0.9999999999990057,0.0,-0.039999999958041925,0.0,4,0.000904083251953125,1.0927520963052901,1.0927520963052901,828,-0.9999999999990021,0.0
207,1.3712611198425293,-0.9999999999990054,1.2511578073120693e-15,-0.9999999999990041,-0.9999999999990075,0.0,67943840.69243489,0.1,0.0012013912200927734,0.002665281295776367,0.05023849,1.0496857e-09,-0.9999999999990057,0.0,-0.039999999958041925,0.0,4,0.0012028217315673828,1.0927520963052901,1.0927520963052901,832,-0.9999999999990021,0.0
208,1.4314281940460205,-0.9999999999990044,1.8742721836921976e-15,-0.9999999999990017,-0.9999999999990066,0.0,49681283.46828073,0.1,0.0013637542724609375,0.002930879592895508,0.04988733,3.6695498e-09,-0.9999999999990057,0.0,-0.039999999958041925,0.0,4,0.0009036064147949219,1.0927520963052901,1.0927520963052901,836,-0.9999999999990021,0.0
209,1.4765982627868652,-0.9999999999990039,7.447602459741819e-16,-0.999999999999003,-0.9999999999990048,0.0,105014343.90262327,0.1,0.0012450218200683594,0.0027446746826171875,0.05016932,9.574767e-10,-0.9999999999990056,0.0,-0.039999999958041925,0.0,4,0.0011310577392578125,1.0927520963052901,1.0927520963052901,840,-0.999999999999002,0.0
210,1.4735407829284668,-0.9999999999990066,3.844322569874944e-15,-0.9999999999990037,-0.9999999999990132,0.0,22579406.177466452,0.1,0.0012001991271972656,0.0028607845306396484,0.050914288,1.8448327e-09,-0.9999999999990057,0.0,-0.039999999958041925,0.0,4,0.0011076927185058594,1.0927520963052901,1.0927520963052901,844,-0.999999999999002,0.0
211,1.3872954845428467,-0.9999999999990048,2.016820280180126e-15,-0.9999999999990017,-0.9999999999990072,0.0,53384754.79728711,0.1,0.0014121532440185547,0.0029222965240478516,0.0503636,2.7114688e-09,-0.9999999999990057,0.0,-0.039999999958041925,0.0,4,0.0009357929229736328,1.0927520963052901,1.0927520963052901,848,-0.999999999999002,0.0
212,1.3650734424591064,-0.9999999999990035,8.233634315563857e-16,-0.9999999999990021,-0.9999999999990041,0.0,109499802.68605849,0.1,0.001363992691040039,0.003248929977416992,0.05018887,2.0765711e-09,-0.9999999999990056,0.0,-0.039999999958041925,0.0,4,0.0009634494781494141,1.0927520963052901,1.0927520963052901,852,-0.999999999999002,0.0
213,1.4069266319274902,-0.9999999999990038,7.108895957933346e-16,-0.9999999999990028,-0.9999999999990048,0.0,133296687.57772791,0.1,0.0012843608856201172,0.0027527809143066406,0.049896836,1.5389371e-09,-0.9999999999990055,0.0,-0.039999999958041925,0.0,4,0.001115560531616211,1.0927520963052901,1.0927520963052901,856,-0.999999999999002,0.0
214,1.405411720275879,-0.999999999999005,4.002966042486721e-16,-0.9999999999990046,-0.9999999999990055,0.0,211073967.17806426,0.1,0.0014407634735107422,0.00293731689453125,0.04959327,3.6217762e-10,-0.9999999999990055,0.0,-0.039999999958041925,0.0,4,0.0009198188781738281,1.0927520963052901,1.0927520963052901,860,-0.9999999999990018,0.0
215,1.4520947933197021,-0.9999999999990032,8.95090418262362e-16,-0.9999999999990021,-0.9999999999990046,0.0,106192166.94376148,0.1,0.0013840198516845703,0.0029103755950927734,0.049729735,1.3812861e-09,-0.9999999999990052,0.0,-0.039999999958041925,0.0,4,0.0009021759033203125,1.0927520963052901,1.0927520963052901,864,-0.9999999999990018,0.0
216,1.4238882064819336,-0.9999999999990039,9.61481343191782e-16,-0.999999999999003,-0.9999999999990055,0.0,83722278.61821498,0.1,0.0017604827880859375,0.0038423538208007812,0.050426543,1.6937745e-09,-0.9999999999990051,0.0,-0.039999999958041925,0.0,4,0.0011284351348876953,1.0927520963052901,1.0927520963052901,868,-0.9999999999990018,0.0
217,1.45143723487854,-0.999999999999005,2.0014830212433605e-15,-0.9999999999990026,-0.9999999999990081,0.0,44158702.69621642,0.1,0.0013744831085205078,0.0029196739196777344,0.050448895,1.9295416e-09,-0.9999999999990051,0.0,-0.039999999958041925,0.0,4,0.0009148120880126953,1.0927520963052901,1.0927520963052901,872,-0.9999999999990017,0.0
218,1.335801362991333,-0.9999999999990034,5.978733960281817e-16,-0.9999999999990024,-0.9999999999990039,0.0,167209225.48171473,0.1,0.0014235973358154297,0.003090381622314453,0.050121993,1.0261216e-09,-0.999999999999005,0.0,-0.039999999958041925,0.0,4,0.0009140968322753906,1.0927520963052901,1.0927520963052901,876,-0.9999999999990017,0.0
219,1.5570967197418213,-0.9999999999990025,1.0934428697813141e-15,-0.9999999999990006,-0.9999999999990032,0.0,86752336.54470712,0.1,0.0012125968933105469,0.0026557445526123047,0.049978107,2.2916786e-09,-0.9999999999990048,0.0,-0.039999999958041925,0.0,4,0.001104593276977539,1.0927520963052901,1.0927520963052901,880,-0.9999999999990017,0.0
220,1.492706537246704,-0.9999999999990028,9.992007221626409e-16,-0.9999999999990015,-0.9999999999990039,0.0,99318035.62552984,0.1,0.0014259815216064453,0.002885580062866211,0.050348878,1.3301796e-09,-0.9999999999990046,0.0,-0.039999999958041925,0.0,4,0.0009236335754394531,1.0927520963052901,1.0927520963052901,884,-0.9999999999990017,0.0
221,1.3438770771026611,-0.9999999999990037,1.2994827337208943e-15,-0.9999999999990017,-0.999999999999005,0.0,67237128.7196174,0.1,0.0013666152954101562,0.0029065608978271484,0.049923807,1.9687403e-09,-0.9999999999990046,0.0,-0.039999999958041925,0.0,4,0.0009069442749023438,1.0927520963052901,1.0927520963052901,888,-0.9999999999990016,0.0
222,1.4668846130371094,-0.9999999999990039,1.2462222543165673e-15,-0.9999999999990026,-0.9999999999990059,0.0,72889389.8419072,0.1,0.00142669677734375,0.002951383590698242,0.050053924,1.0301007e-09,-0.9999999999990046,0.0,-0.039999999958041925,0.0,4,0.0009405612945556641,1.0927520963052901,1.0927520963052901,892,-0.9999999999990016,0.0
223,1.4875576496124268,-0.9999999999990035,6.568167990716596e-16,-0.9999999999990028,-0.9999999999990046,0.0,129942438.05193189,0.1,0.0013675689697265625,0.002954721450805664,0.05058056,4.0205775e-10,-0.9999999999990046,0.0,-0.039999999958041925,0.0,4,0.00106048583984375,1.0927520963052901,1.0927520963052901,896,-0.9999999999990016,0.0
224,1.3758721351623535,-0.9999999999990037,7.108895957933346e-16,-0.9999999999990028,-0.9999999999990048,0.0,133865619.86660711,0.1,0.001409769058227539,0.002920389175415039,0.050407946,7.910459e-10,-0.9999999999990046,0.0,-0.039999999958041925,0.0,4,0.0009336471557617188,1.0927520963052901,1.0927520963052901,900,-0.9999999999990016,0.0
225,1.4291083812713623,-0.9999999999990045,1.709166621382058e-15,-0.9999999999990024,-0.999999999999007,0.0,48226878.52915885,0.1,0.0013682842254638672,0.0029349327087402344,0.05079922,1.207075e-09,-0.9999999999990046,0.0,-0.039999999958041925,0.0,4,0.0009083747863769531,1.0927520963052901,1.0927520963052901,904,-0.9999999999990016,0.0
226,1.35235595703125,-0.9999999999990032,1.1046579618885443e-15,-0.9999999999990021,-0.999999999999005,0.0,77760127.38305001,0.1,0.0013582706451416016,0.0029251575469970703,0.05030042,1.4454282e-09,-0.9999999999990046,0.0,-0.039999999958041925,0.0,4,0.0009515285491943359,1.0927520963052901,1.0927520963052901,908,-0.9999999999990014,0.0
227,1.3090553283691406,-0.9999999999990017,4.839349969133127e-16,-0.999999999999001,-0.9999999999990024,0.0,183642497.72358787,0.1,0.001497030258178711,0.0032236576080322266,0.050061315,7.6709394e-10,-0.9999999999990044,0.0,-0.039999999958041925,0.0,4,0.0012993812561035156,1.0927520963052901,1.0927520963052901,912,-0.9999999999990014,0.0
228,1.4398200511932373,-0.9999999999990026,1.5934698110350668e-15,-0.9999999999990012,-0.9999999999990052,0.0,49223044.30374044,0.1,0.0013701915740966797,0.002928018569946289,0.050282925,1.175866e-09,-0.9999999999990042,0.0,-0.039999999958041925,0.0,4,0.0009169578552246094,1.0927520963052901,1.0927520963052901,916,-0.9999999999990014,0.0
229,1.50620698928833,-0.9999999999990041,2.7487830685268716e-15,-0.9999999999990019,-0.9999999999990088,0.0,33801197.23747955,0.1,0.001390695571899414,0.0029306411743164062,0.05034575,2.2057844e-09,-0.9999999999990042,0.0,-0.039999999958041925,0.0,4,0.0009186267852783203,1.0927520963052901,1.0927520963052901,920,-0.9999999999990012,0.0
230,1.3665997982025146,-0.9999999999990029,9.08756711201214e-16,-0.9999999999990015,-0.9999999999990037,0.0,100136943.17702359,0.1,0.0012011528015136719,0.0027146339416503906,0.05006954,1.7816254e-09,-0.9999999999990041,0.0,-0.039999999958041925,0.0,4,0.001111745834350586,1.0927520963052901,1.0927520963052901,924,-0.9999999999990012,0.0
231,1.5947318077087402,-0.9999999999990026,5.661048867003676e-16,-0.9999999999990017,-0.9999999999990032,0.0,193159755.99441558,0.1,0.0017218589782714844,0.004388332366943359,0.049480617,8.147073e-10,-0.999999999999004,0.0,-0.039999999958041925,0.0,4,0.0013747215270996094,1.0927520963052901,1.0927520963052901,928,-0.9999999999990012,0.0
232,1.4834039211273193,-0.9999999999990035,2.2093159237770886e-15,-0.9999999999990006,-0.9999999999990068,0.0,39173644.14096603,0.1,0.0011992454528808594,0.0027391910552978516,0.050358832,2.9226728e-09,-0.999999999999004,0.0,-0.039999999958041925,0.0,4,0.0011677742004394531,1.0927520963052901,1.0927520963052901,932,-0.9999999999990012,0.0
233,1.561880350112915,-0.9999999999990037,1.0706603116298291e-15,-0.9999999999990019,-0.9999999999990046,0.0,76388520.74492703,0.1,0.0014510154724121094,0.002892732620239258,0.05006197,3.0839455e-09,-0.999999999999004,0.0,-0.039999999958041925,0.0,4,0.0010476112365722656,1.0927520963052901,1.0927520963052901,936,-0.9999999999990012,0.0
234,1.4733307361602783,-0.9999999999990024,1.1853938111129682e-15,-0.9999999999990012,-0.9999999999990044,0.0,93457023.77682446,0.1,0.0015254020690917969,0.003656625747680664,0.05022475,6.690497e-10,-0.9999999999990039,0.0,-0.039999999958041925,0.0,4,0.0011756420135498047,1.0927520963052901,1.0927520963052901,940,-0.9999999999990012,0.0
235,1.4436798095703125,-0.9999999999990035,8.81212206892831e-16,-0.9999999999990021,-0.9999999999990046,0.0,115872252.216825,0.1,0.00157928466796875,0.0032019615173339844,0.050154597,1.1349974e-09,-0.9999999999990039,0.0,-0.039999999958041925,0.0,4,0.0009808540344238281,1.0927520963052901,1.0927520963052901,944,-0.9999999999990012,0.0
236,1.5012152194976807,-0.9999999999990026,6.473657049138938e-16,-0.9999999999990017,-0.9999999999990035,0.0,138368252.19297484,0.1,0.0013010501861572266,0.002777576446533203,0.0500291,6.137287e-10,-0.9999999999990038,0.0,-0.039999999958041925,0.0,4,0.0011050701141357422,1.0927520963052901,1.0927520963052901,948,-0.9999999999990012,0.0
237,1.3536291122436523,-0.9999999999990026,1.0532500405730103e-15,-0.9999999999990012,-0.9999999999990041,0.0,96171416.55104463,0.1,0.0014278888702392578,0.003121614456176758,0.049759716,1.1629384e-09,-0.9999999999990037,0.0,-0.039999999958041925,0.0,4,0.0009779930114746094,1.0927520963052901,1.0927520963052901,952,-0.9999999999990012,0.0
238,1.468402624130249,-0.9999999999990019,4.577566798522237e-16,-0.9999999999990012,-0.9999999999990024,0.0,184536489.54108155,0.1,0.0013401508331298828,0.003027677536010742,0.05004552,1.547598e-09,-0.9999999999990035,0.0,-0.039999999958041925,0.0,4,0.0011570453643798828,1.0927520963052901,1.0927520963052901,956,-0.9999999999990011,0.0
239,1.3484487533569336,-0.9999999999990024,6.753223014464259e-16,-0.9999999999990015,-0.9999999999990032,0.0,130719687.48495741,0.1,0.0013773441314697266,0.00296783447265625,0.04995522,8.8287566e-10,-0.9999999999990035,0.0,-0.039999999958041925,0.0,4,0.0009126663208007812,1.0927520963052901,1.0927520963052901,960,-0.9999999999990011,0.0
240,1.4464762210845947,-0.9999999999990024,1.4977727461875691e-15,-0.999999999999001,-0.9999999999990048,0.0,60699340.119322024,0.1,0.0014188289642333984,0.002941608428955078,0.050142437,1.2168335e-09,-0.9999999999990035,0.0,-0.039999999958041925,0.0,4,0.0009367465972900391,1.0927520963052901,1.0927520963052901,964,-0.9999999999990011,0.0
241,1.4460208415985107,-0.9999999999990027,7.447602459741819e-16,-0.9999999999990019,-0.9999999999990039,0.0,132183369.80705717,0.1,0.0014126300811767578,0.003081083297729492,0.04970953,9.729264e-10,-0.9999999999990035,0.0,-0.039999999958041925,0.0,4,0.0009286403656005859,1.0927520963052901,1.0927520963052901,968,-0.9999999999990011,0.0
242,1.5462768077850342,-0.9999999999990022,8.527784864785346e-16,-0.9999999999990012,-0.9999999999990035,0.0,106600678.59721453,0.1,0.0013790130615234375,0.0029511451721191406,0.050353855,5.899749e-10,-0.9999999999990035,0.0,-0.039999999958041925,0.0,4,0.0009138584136962891,1.0927520963052901,1.0927520963052901,972,-0.9999999999990011,0.0
243,1.4597663879394531,-0.999999999999002,7.447602459741819e-16,-0.9999999999990012,-0.9999999999990032,0.0,137779655.3938218,0.1,0.001528024673461914,0.0029969215393066406,0.04973641,4.5730497e-10,-0.9999999999990034,0.0,-0.039999999958041925,0.0,4,0.0009083747863769531,1.0927520963052901,1.0927520963052901,976,-0.9999999999990011,0.0
244,1.6034698486328125,-0.9999999999990024,1.0175362097255202e-15,-0.9999999999990008,-0.9999999999990035,0.0,98588004.09177488,0.1,0.0014379024505615234,0.0034203529357910156,0.050143093,1.418906e-09,-0.9999999999990034,0.0,-0.039999999958041925,0.0,4,0.001253366470336914,1.0927520963052901,1.0927520963052901,980,-0.9999999999990011,0.0
245,1.5669283866882324,-0.9999999999990035,2.1355566272775288e-15,-0.9999999999990017,-0.999999999999007,0.0,41804033.0214481,0.1,0.0012292861938476562,0.00849461555480957,0.050511837,1.5100452e-09,-0.9999999999990035,0.0,-0.039999999958041925,0.0,4,0.0014460086822509766,1.0927520963052901,1.0927520963052901,984,-0.9999999999990011,0.0
246,1.5293958187103271,-0.9999999999990019,6.753223014464259e-16,-0.999999999999001,-0.9999999999990028,0.0,130493213.17154948,0.1,0.0013794898986816406,0.00407719612121582,0.05021447,8.571664e-10,-0.9999999999990034,0.0,-0.039999999958041925,0.0,4,0.0012362003326416016,1.0927520963052901,1.0927520963052901,988,-0.9999999999990011,0.0
247,1.4702646732330322,-0.9999999999990026,1.1644117316690922e-15,-0.9999999999990017,-0.9999999999990046,0.0,84300046.94130044,0.1,0.001188039779663086,0.002688169479370117,0.05000508,7.264317e-10,-0.9999999999990034,0.0,-0.039999999958041925,0.0,4,0.0009090900421142578,1.0927520963052901,1.0927520963052901,992,-0.9999999999990011,0.0
248,1.5470705032348633,-0.9999999999990019,8.3820000221454525e-16,-0.999999999999001,-0.9999999999990032,0.0,107869283.70672221,0.1,0.001363515853881836,0.0029397010803222656,0.050466627,5.777291e-10,-0.9999999999990032,0.0,-0.039999999958041925,0.0,4,0.0009179115295410156,1.0927520963052901,1.0927520963052901,996,-0.9999999999990011,0.0
249,1.706949234008789,-0.9999999999990017,2.220446049250313e-16,-0.9999999999990015,-0.9999999999990019,0.0,469071550.77966344,0.1,0.0011997222900390625,0.0026357173919677734,0.04880601,2.1169536e-10,-0.9999999999990031,0.0,-0.039999999958041925,0.0,4,0.0011038780212402344,1.0927520963052901,1.0927520963052901,1000,-0.9999999999990011,0.0
250,1.4791126251220703,-0.9999999999990022,1.7019396688362377e-15,-0.9999999999990012,-0.9999999999990052,0.0,44565640.71180806,0.1,0.0014195442199707031,0.0028722286224365234,0.050228924,1.2867143e-09,-0.999999999999003,0.0,-0.039999999958041925,0.0,4,0.0009241104125976562,1.0927520963052901,1.0927520963052901,1004,-0.9999999999990011,0.0
251,1.5016765594482422,-0.9999999999990021,8.455206652451151e-16,-0.9999999999990015,-0.9999999999990035,0.0,103856996.87984473,0.1,0.001444101333618164,0.003040313720703125,0.04981041,9.0440433e-10,-0.999999999999003,0.0,-0.039999999958041925,0.0,4,0.0009276866912841797,1.0927520963052901,1.0927520963052901,1008,-0.9999999999990011,0.0
252,1.5365376472473145,-0.9999999999990015,6.933340566559918e-16,-0.9999999999990008,-0.9999999999990026,0.0,145125629.47844306,0.1,0.0013916492462158203,0.002991199493408203,0.050240874,4.7036747e-10,-0.9999999999990029,0.0,-0.039999999958041925,0.0,4,0.0010356903076171875,1.0927520963052901,1.0927520963052901,1012,-0.9999999999990011,0.0
253,1.4239814281463623,-0.9999999999990024,7.928578270080922e-16,-0.9999999999990015,-0.9999999999990035,0.0,124386411.78121504,0.1,0.0013973712921142578,0.003172159194946289,0.049858868,9.0399666e-10,-0.9999999999990029,0.0,-0.039999999958041925,0.0,4,0.0009229183197021484,1.0927520963052901,1.0927520963052901,1016,-0.9999999999990011,0.0
254,1.6909704208374023,-0.9999999999990022,8.08254562088053e-16,-0.9999999999990012,-0.9999999999990035,0.0,115301765.2689567,0.1,0.0015761852264404297,0.003311634063720703,0.049883932,4.1101933e-10,-0.9999999999990028,0.0,-0.039999999958041925,0.0,4,0.0010809898376464844,1.0927520963052901,1.0927520963052901,1020,-0.9999999999990011,0.0
255,1.379070520401001,-0.9999999999990015,6.843874359417885e-16,-0.9999999999990008,-0.9999999999990026,0.0,128577465.29614042,0.1,0.0014138221740722656,0.003034353256225586,0.04986742,5.913082e-10,-0.9999999999990027,0.0,-0.039999999958041925,0.0,4,0.0009329319000244141,1.0927520963052901,1.0927520963052901,1024,-0.9999999999990004,0.0
256,1.3681762218475342,-0.9999999999990015,2.220446049250313e-16,-0.9999999999990012,-0.9999999999990017,0.0,390334214.8692895,0.1,0.0014767646789550781,0.002894878387451172,0.049099594,2.3221429e-10,-0.9999999999990026,0.0,-0.039999999958041925,0.0,4,0.0010113716125488281,1.0927520963052901,1.0927520963052901,1028,-0.9999999999990004,0.0
257,1.5168421268463135,-0.9999999999990021,5.20740757162067e-16,-0.9999999999990012,-0.9999999999990026,0.0,171797978.64087552,0.1,0.0013539791107177734,0.0029408931732177734,0.04981911,1.3235683e-09,-0.9999999999990026,0.0,-0.039999999958041925,0.0,4,0.001018524169921875,1.0927520963052901,1.0927520963052901,1032,-0.9999999999990011,0.0
258,1.3678503036499023,-0.9999999999990022,1.814119370099142e-15,-0.9999999999990004,-0.9999999999990052,0.0,42647623.616655275,0.1,0.0012001991271972656,0.0028562545776367188,0.050401777,1.5783539e-09,-0.9999999999990026,0.0,-0.039999999958041925,0.0,4,0.0011239051818847656,1.0927520963052901,1.0927520963052901,1036,-0.9999999999990011,0.0
259,1.4033708572387695,-0.9999999999990019,1.4770556661825108e-15,-0.9999999999990006,-0.9999999999990044,0.0,58157935.86377701,0.1,0.0013582706451416016,0.0029382705688476562,0.050474823,1.3812907e-09,-0.9999999999990025,0.0,-0.039999999958041925,0.0,4,0.0009317398071289062,1.0927520963052901,1.0927520963052901,1040,-0.9999999999990004,0.0
260,1.4702064990997314,-0.9999999999990022,6.753223014464259e-16,-0.9999999999990012,-0.999999999999003,0.0,145173545.97303286,0.1,0.0012962818145751953,0.0027763843536376953,0.050080866,8.4866153e-10,-0.9999999999990024,0.0,-0.039999999958041925,0.0,4,0.0011072158813476562,1.0927520963052901,1.0927520963052901,1044,-0.9999999999990004,0.0
261,1.4986708164215088,-0.9999999999990028,5.551115123125783e-16,-0.9999999999990019,-0.9999999999990032,0.0,172601064.68813977,0.1,0.0017313957214355469,0.0038444995880126953,0.049642295,7.914801e-10,-0.9999999999990025,0.0,-0.039999999958041925,0.0,4,0.0011017322540283203,1.0927520963052901,1.0927520963052901,1048,-0.9999999999990011,0.0
262,1.4654982089996338,-0.9999999999990014,1.0114613123884174e-15,-0.9999999999990004,-0.999999999999003,0.0,88053686.90700412,0.1,0.0014104843139648438,0.0029053688049316406,0.050478935,6.659411e-10,-0.9999999999990024,0.0,-0.039999999958041925,0.0,4,0.0009107589721679688,1.0927520963052901,1.0927520963052901,1052,-0.9999999999990004,0.0
263,1.4454734325408936,-0.9999999999990016,3.6821932062951477e-16,-0.9999999999990012,-0.9999999999990021,0.0,235858252.6130661,0.1,0.0012676715850830078,0.0027642250061035156,0.049841553,6.214118e-10,-0.9999999999990024,0.0,-0.039999999958041925,0.0,4,0.0011191368103027344,1.0927520963052901,1.0927520963052901,1056,-0.9999999999990004,0.0
264,1.4543776512145996,-0.9999999999990022,1.7377739072730912e-15,-0.9999999999990004,-0.9999999999990046,0.0,52955607.82581495,0.1,0.0013570785522460938,0.0029304027557373047,0.050365895,2.3863433e-09,-0.9999999999990024,0.0,-0.039999999958041925,0.0,4,0.0009145736694335938,1.0927520963052901,1.0927520963052901,1060,-0.9999999999990004,0.0
265,1.6533763408660889,-0.9999999999990016,3.3306690738754696e-16,-0.9999999999990012,-0.9999999999990021,0.0,281498720.49479634,0.1,0.0013718605041503906,0.0029611587524414062,0.04926169,5.046058e-10,-0.9999999999990024,0.0,-0.039999999958041925,0.0,4,0.0008988380432128906,1.0927520963052901,1.0927520963052901,1064,-0.9999999999990004,0.0
266,1.3819901943206787,-0.9999999999990021,4.710277376051325e-16,-0.9999999999990015,-0.9999999999990026,0.0,219158546.87326565,0.1,0.0013728141784667969,0.0029206275939941406,0.050002664,7.0667794e-10,-0.9999999999990024,0.0,-0.039999999958041925,0.0,4,0.0009005069732666016,1.0927520963052901,1.0927520963052901,1068,-0.9999999999990004,0.0
267,1.587852954864502,-0.9999999999990019,8.15843973306311e-16,-0.9999999999990012,-0.9999999999990032,0.0,114657012.73808832,0.1,0.001207590103149414,0.002712249755859375,0.049926043,8.913207e-10,-0.9999999999990024,0.0,-0.039999999958041925,0.0,4,0.0011508464813232422,1.0927520963052901,1.0927520963052901,1072,-0.9999999999990004,0.0
268,1.379438877105713,-0.9999999999990028,1.831026719408895e-15,-0.9999999999990015,-0.9999999999990059,0.0,41265625.9102828,0.1,0.001447439193725586,0.0028073787689208984,0.0507223,1.6077075e-09,-0.9999999999990025,0.0,-0.039999999958041925,0.0,4,0.0011637210845947266,1.0927520963052901,1.0927520963052901,1076,-0.9999999999990004,0.0
269,1.4841248989105225,-0.9999999999990012,2.482534153247273e-16,-0.9999999999990008,-0.9999999999990015,0.0,403954786.0870196,0.1,0.0013637542724609375,0.003083944320678711,0.04923168,6.4392797e-10,-0.9999999999990024,0.0,-0.039999999958041925,0.0,4,0.0009043216705322266,1.0927520963052901,1.0927520963052901,1080,-0.9999999999990004,0.0
270,1.4513270854949951,-0.9999999999990015,7.28021923224409e-16,-0.9999999999990004,-0.9999999999990024,0.0,130285135.92457241,0.1,0.0013575553894042969,0.002923727035522461,0.049848557,1.2600522e-09,-0.9999999999990024,0.0,-0.039999999958041925,0.0,4,0.0009207725524902344,1.0927520963052901,1.0927520963052901,1084,-0.9999999999990004,0.0
271,1.3987793922424316,-0.9999999999990008,7.928578270080922e-16,-0.9999999999989999,-0.9999999999990019,0.0,103683614.26078083,0.1,0.0013675689697265625,0.0029048919677734375,0.05029273,9.644274e-10,-0.9999999999990022,0.0,-0.039999999958041925,0.0,4,0.0009236335754394531,1.0927520963052901,1.0927520963052901,1088,-0.9999999999990004,0.0
272,1.5127527713775635,-0.999999999999002,1.4261072965499199e-15,-0.9999999999990006,-0.9999999999990039,0.0,64849520.68537163,0.1,0.0013489723205566406,0.0029053688049316406,0.050329506,1.8814457e-09,-0.9999999999990022,0.0,-0.039999999958041925,0.0,4,0.0009150505065917969,1.0927520963052901,1.0927520963052901,1092,-0.9999999999990004,0.0
273,1.4011316299438477,-0.9999999999990026,1.2412670766236366e-15,-0.9999999999990008,-0.9999999999990039,0.0,70278481.88939951,0.1,0.0012335777282714844,0.0026552677154541016,0.050219536,2.382827e-09,-0.9999999999990024,0.0,-0.039999999958041925,0.0,4,0.0010728836059570312,1.0927520963052901,1.0927520963052901,1096,-0.9999999999990004,0.0
274,1.3427510261535645,-0.9999999999990015,3.510833468576701e-16,-0.9999999999990008,-0.9999999999990017,0.0,293411835.58973545,0.1,0.0013537406921386719,0.0029222965240478516,0.049733937,7.9236684e-10,-0.9999999999990024,0.0,-0.039999999958041925,0.0,4,0.0008950233459472656,1.0927520963052901,1.0927520963052901,1100,-0.9999999999990004,0.0
275,1.4754579067230225,-0.999999999999001,1.9229626863835638e-16,-0.9999999999990008,-0.9999999999990012,0.0,380119668.14083296,0.1,0.0015003681182861328,0.0029363632202148438,0.049541205,1.318037e-10,-0.9999999999990024,0.0,-0.039999999958041925,0.0,4,0.000997781753540039,1.0927520963052901,1.0927520963052901,1104,-0.9999999999990002,0.0
276,1.4871554374694824,-0.999999999999001,5.551115123125783e-16,-0.9999999999990001,-0.9999999999990015,0.0,195852426.9526123,0.1,0.001378774642944336,0.002878904342651367,0.049840033,5.818086e-10,-0.9999999999990024,0.0,-0.039999999958041925,0.0,4,0.0009143352508544922,1.0927520963052901,1.0927520963052901,1108,-0.9999999999990002,0.0
277,1.411799669265747,-0.9999999999990011,5.978733960281817e-16,-0.9999999999990006,-0.9999999999990021,0.0,146784633.1177953,0.1,0.0018124580383300781,0.0038499832153320312,0.049834877,5.675261e-10,-0.9999999999990024,0.0,-0.039999999958041925,0.0,4,0.0012204647064208984,1.0927520963052901,1.0927520963052901,1112,-0.9999999999990002,0.0
278,1.2728652954101562,-0.9999999999990007,4.2998752849492583e-16,-0.9999999999990001,-0.9999999999990012,0.0,189498971.04602316,0.1,0.0013680458068847656,0.0029108524322509766,0.049963295,3.4538894e-10,-0.9999999999990022,0.0,-0.039999999958041925,0.0,4,0.0009472370147705078,1.0927520963052901,1.0927520963052901,1116,-0.9999999999990002,0.0
279,1.3199329376220703,-0.999999999999002,7.28021923224409e-16,-0.9999999999990012,-0.9999999999990028,0.0,131801611.78986624,0.1,0.0013790130615234375,0.002891063690185547,0.04958093,7.668275e-10,-0.9999999999990022,0.0,-0.039999999958041925,0.0,4,0.0009124279022216797,1.0927520963052901,1.0927520963052901,1120,-0.9999999999990002,0.0
280,1.39089035987854,-0.9999999999990019,7.447602459741819e-16,-0.999999999999001,-0.9999999999990028,0.0,122635445.30648896,0.1,0.0014007091522216797,0.002945423126220703,0.050244153,7.998799e-10,-0.9999999999990022,0.0,-0.039999999958041925,0.0,4,0.0009539127349853516,1.0927520963052901,1.0927520963052901,1124,-0.9999999999990002,0.0
281,1.4163336753845215,-0.9999999999990019,7.195067539997724e-16,-0.9999999999990008,-0.9999999999990028,0.0,150581086.17354372,0.1,0.0014946460723876953,0.0035195350646972656,0.050039083,1.0908219e-09,-0.9999999999990022,0.0,-0.039999999958041925,0.0,4,0.0013191699981689453,1.0927520963052901,1.0927520963052901,1128,-0.9999999999990002,0.0
282,1.3622870445251465,-0.9999999999990017,7.928578270080922e-16,-0.9999999999990006,-0.9999999999990028,0.0,112288981.91512653,0.1,0.0014231204986572266,0.0028846263885498047,0.050055534,1.0035651e-09,-0.9999999999990022,0.0,-0.039999999958041925,0.0,4,0.0009205341339111328,1.0927520963052901,1.0927520963052901,1132,-0.9999999999990002,0.0
283,1.4106237888336182,-0.9999999999990012,5.768888059150692e-16,-0.9999999999990006,-0.9999999999990021,0.0,181202635.44340357,0.1,0.0013682842254638672,0.002911090850830078,0.050340176,4.7818716e-10,-0.9999999999990022,0.0,-0.039999999958041925,0.0,4,0.0009152889251708984,1.0927520963052901,1.0927520963052901,1136,-0.9999999999990002,0.0
284,1.4211041927337646,-0.999999999999001,4.2998752849492583e-16,-0.9999999999990006,-0.9999999999990017,0.0,224158142.33825758,0.1,0.0013201236724853516,0.0028333663940429688,0.05018875,3.1275693e-10,-0.9999999999990021,0.0,-0.039999999958041925,0.0,4,0.00122833251953125,1.0927520963052901,1.0927520963052901,1140,-0.9999999999990002,0.0
285,1.4939112663269043,-0.9999999999990008,4.2998752849492583e-16,-0.9999999999990004,-0.9999999999990015,0.0,222046364.3371226,0.1,0.0013594627380371094,0.002907276153564453,0.049558192,6.38438e-10,-0.999999999999002,0.0,-0.039999999958041925,0.0,4,0.0009608268737792969,1.0927520963052901,1.0927520963052901,1144,-0.9999999999990002,0.0
286,1.3258202075958252,-0.9999999999990008,1.1102230246251565e-16,-0.9999999999990006,-0.9999999999990008,0.0,927732109.4390258,0.1,0.0013644695281982422,0.0030460357666015625,0.045435756,2.5503138e-10,-0.9999999999990019,0.0,-0.039999999958041925,0.0,4,0.0009212493896484375,1.0927520963052901,1.0927520963052901,1148,-0.9999999999990002,0.0
287,1.8411009311676025,-0.9999999999990014,2.482534153247273e-16,-0.999999999999001,-0.9999999999990017,0.0,340486001.66086525,0.1,0.0011899471282958984,0.0027947425842285156,0.049477637,1.540105e-10,-0.9999999999990019,0.0,-0.039999999958041925,0.0,4,0.0010952949523925781,1.0927520963052901,1.0927520963052901,1152,-0.9999999999990002,0.0
288,1.4795522689819336,-0.9999999999990012,9.61481343191782e-16,-0.9999999999990004,-0.9999999999990028,0.0,93424536.3157291,0.1,0.0017676353454589844,0.0039479732513427734,0.050367832,9.809332e-10,-0.9999999999990019,0.0,-0.039999999958041925,0.0,4,0.0011928081512451172,1.0927520963052901,1.0927520963052901,1156,-0.9999999999990002,0.0
289,1.3855736255645752,-0.9999999999990008,7.850462293418876e-16,-0.9999999999990001,-0.9999999999990021,0.0,115709694.99001488,0.1,0.0014095306396484375,0.0029020309448242188,0.050086528,5.4422933e-10,-0.9999999999990018,0.0,-0.039999999958041925,0.0,4,0.0009472370147705078,1.0927520963052901,1.0927520963052901,1160,-0.9999999999990002,0.0
290,1.4019203186035156,-0.9999999999990012,2.220446049250313e-16,-0.999999999999001,-0.9999999999990015,0.0,357264445.6266704,0.1,0.002090930938720703,0.0029478073120117188,0.049041867,4.0297854e-10,-0.9999999999990018,0.0,-0.039999999958041925,0.0,4,0.0010406970977783203,1.0927520963052901,1.0927520963052901,1164,-0.9999999999990002,0.0
291,1.4050345420837402,-0.9999999999990009,2.9373740229761033e-16,-0.9999999999990006,-0.9999999999990012,0.0,293927970.95385677,0.1,0.0013759136199951172,0.002978801727294922,0.049600065,9.226637e-10,-0.9999999999990017,0.0,-0.039999999958041925,0.0,4,0.0009081363677978516,1.0927520963052901,1.0927520963052901,1168,-0.9999999999990002,0.0
292,1.532942771911621,-0.9999999999990012,7.28021923224409e-16,-0.9999999999990004,-0.9999999999990024,0.0,120343480.70626524,0.1,0.0014319419860839844,0.0029833316802978516,0.05024454,7.209895e-10,-0.9999999999990017,0.0,-0.039999999958041925,0.0,4,0.0009047985076904297,1.0927520963052901,1.0927520963052901,1172,-0.9999999999990002,0.0
293,1.6568059921264648,-0.999999999999001,8.455206652451151e-16,-0.9999999999990004,-0.9999999999990024,0.0,92870954.24798787,0.1,0.001371145248413086,0.0029604434967041016,0.050382853,7.033509e-10,-0.9999999999990017,0.0,-0.039999999958041925,0.0,4,0.0009167194366455078,1.0927520963052901,1.0927520963052901,1176,-0.9999999999990002,0.0
294,1.7233877182006836,-0.9999999999990011,8.95090418262362e-16,-0.9999999999990001,-0.9999999999990026,0.0,96445819.7448889,0.1,0.001360177993774414,0.0029692649841308594,0.050361723,7.9942253e-10,-0.9999999999990017,0.0,-0.039999999958041925,0.0,4,0.0009109973907470703,1.0927520963052901,1.0927520963052901,1180,-0.9999999999990002,0.0
295,1.4293899536132812,-0.9999999999990006,1.9229626863835638e-16,-0.9999999999990004,-0.9999999999990008,0.0,449777858.173074,0.1,0.0012671947479248047,0.0035860538482666016,0.048807293,2.3551197e-10,-0.9999999999990016,0.0,-0.039999999958041925,0.0,4,0.0010597705841064453,1.0927520963052901,1.0927520963052901,1184,-0.9999999999990002,0.0
296,1.4636805057525635,-0.9999999999990009,9.61481343191782e-16,-0.9999999999990001,-0.9999999999990026,0.0,102948328.06641853,0.1,0.0014407634735107422,0.002992868423461914,0.05044824,7.7592904e-10,-0.9999999999990015,0.0,-0.039999999958041925,0.0,4,0.0009293556213378906,1.0927520963052901,1.0927520963052901,1188,-0.9999999999990002,0.0
297,1.3848237991333008,-0.999999999999002,1.0235750533041806e-15,-0.9999999999990006,-0.9999999999990035,0.0,109318718.14747094,0.1,0.001239776611328125,0.0027315616607666016,0.04999137,9.0154273e-10,-0.9999999999990015,0.0,-0.039999999958041925,0.0,4,0.001123666763305664,1.0927520963052901,1.0927520963052901,1192,-0.9999999999990002,0.0
298,1.3865065574645996,-0.9999999999990012,9.155133597044475e-16,-0.9999999999990006,-0.9999999999990028,0.0,87999034.99116777,0.1,0.0014913082122802734,0.0029845237731933594,0.050321907,8.040312e-10,-0.9999999999990015,0.0,-0.039999999958041925,0.0,4,0.0009446144104003906,1.0927520963052901,1.0927520963052901,1196,-0.999999999999,0.0
299,1.288200855255127,-0.9999999999990006,5.087681048627601e-16,-0.9999999999989997,-0.999999999999001,0.0,198955977.04556048,0.1,0.0015468597412109375,0.0030694007873535156,0.049874663,9.1225705e-10,-0.9999999999990014,0.0,-0.039999999958041925,0.0,4,0.0008976459503173828,1.0927520963052901,1.0927520963052901,1200,-0.999999999999,0.0
300,1.5092129707336426,-0.9999999999990005,4.577566798522237e-16,-0.9999999999989999,-0.999999999999001,0.0,207122725.3029732,0.1,0.0013546943664550781,0.0029633045196533203,0.04991758,4.928747e-10,-0.9999999999990012,0.0,-0.039999999958041925,0.0,4,0.0008974075317382812,1.0927520963052901,1.0927520963052901,1204,-0.999999999999,0.0
301,1.310986042022705,-0.9999999999990015,9.222205069512407e-16,-0.9999999999989999,-0.9999999999990024,0.0,100797231.62051867,0.1,0.0013821125030517578,0.0030715465545654297,0.050257444,1.6034419e-09,-0.9999999999990014,0.0,-0.039999999958041925,0.0,4,0.0008726119995117188,1.0927520963052901,1.0927520963052901,1208,-0.999999999999,0.0
302,1.5812923908233643,-0.9999999999990008,5.661048867003676e-16,-0.9999999999990001,-0.9999999999990015,0.0,148293587.535719,0.1,0.0011911392211914062,0.0027618408203125,0.050213754,7.604808e-10,-0.9999999999990012,0.0,-0.039999999958041925,0.0,4,0.00110626220703125,1.0927520963052901,1.0927520963052901,1212,-0.999999999999,0.0
303,1.4264333248138428,-0.9999999999990008,5.20740757162067e-16,-0.9999999999990004,-0.9999999999990017,0.0,193925010.0835528,0.1,0.0013577938079833984,0.0029764175415039062,0.04972723,3.4168007e-10,-0.9999999999990012,0.0,-0.039999999958041925,0.0,4,0.000919342041015625,1.0927520963052901,1.0927520963052901,1216,-0.999999999999,0.0
304,1.4459457397460938,-0.9999999999990008,5.978733960281817e-16,-0.9999999999990001,-0.9999999999990017,0.0,150583444.52377543,0.1,0.0012519359588623047,0.0027077198028564453,0.049874812,6.0000227e-10,-0.9999999999990012,0.0,-0.039999999958041925,0.0,4,0.0009419918060302734,1.0927520963052901,1.0927520963052901,1220,-0.999999999999,0.0
305,1.420806884765625,-0.9999999999990008,7.447602459741819e-16,-0.9999999999989999,-0.9999999999990017,0.0,134663035.81943592,0.1,0.001195669174194336,0.002766847610473633,0.050029606,1.0149988e-09,-0.9999999999990012,0.0,-0.039999999958041925,0.0,4,0.0011184215545654297,1.0927520963052901,1.0927520963052901,1224,-0.999999999999,0.0
306,1.3972547054290771,-0.9999999999990006,2.7194799110210365e-16,-0.9999999999990004,-0.999999999999001,0.0,307965321.8619686,0.1,0.0012128353118896484,0.002639293670654297,0.049788296,2.9676786e-10,-0.9999999999990012,0.0,-0.039999999958041925,0.0,4,0.0010902881622314453,1.0927520963052901,1.0927520963052901,1228,-0.999999999999,0.0
307,1.6739797592163086,-0.9999999999990021,2.269856336252304e-15,-0.9999999999989999,-0.9999999999990059,0.0,42784661.10287988,0.1,0.0013468265533447266,0.0030868053436279297,0.050493896,1.8206507e-09,-0.9999999999990015,0.0,-0.039999999958041925,0.0,4,0.0009355545043945312,1.0927520963052901,1.0927520963052901,1232,-0.999999999999,0.0
308,1.646177053451538,-0.9999999999990006,4.2998752849492583e-16,-0.9999999999989999,-0.999999999999001,0.0,185953761.65320933,0.1,0.001194000244140625,0.0027456283569335938,0.049854457,1.1766206e-09,-0.9999999999990014,0.0,-0.039999999958041925,0.0,4,0.0009131431579589844,1.0927520963052901,1.0927520963052901,1236,-0.999999999999,0.0
309,1.4307618141174316,-0.9999999999990001,4.2998752849492583e-16,-0.9999999999989997,-0.9999999999990008,0.0,240638733.43177608,0.1,0.0013496875762939453,0.0029289722442626953,0.049679816,2.470848e-10,-0.9999999999990012,0.0,-0.039999999958041925,0.0,4,0.0009059906005859375,1.0927520963052901,1.0927520963052901,1240,-0.9999999999989999,0.0
310,1.3723363876342773,-0.999999999999001,5.551115123125783e-16,-0.9999999999990006,-0.9999999999990019,0.0,191827669.94936523,0.1,0.0011849403381347656,0.0027227401733398438,0.05012265,3.0269823e-10,-0.9999999999990012,0.0,-0.039999999958041925,0.0,4,0.0010974407196044922,1.0927520963052901,1.0927520963052901,1244,-0.9999999999989999,0.0
311,1.4965035915374756,-0.9999999999990004,4.2998752849492583e-16,-0.9999999999989999,-0.999999999999001,0.0,208458479.368346,0.1,0.0011730194091796875,0.0025849342346191406,0.050114036,2.242126e-10,-0.9999999999990012,0.0,-0.039999999958041925,0.0,4,0.0011093616485595703,1.0927520963052901,1.0927520963052901,1248,-0.9999999999989999,0.0
312,1.8792526721954346,-0.9999999999990002,2.482534153247273e-16,-0.9999999999989999,-0.9999999999990006,0.0,378271140.79858047,0.1,0.0017657279968261719,0.0037026405334472656,0.04936239,4.179072e-10,-0.9999999999990012,0.0,-0.039999999958041925,0.0,4,0.001149892807006836,1.0927520963052901,1.0927520963052901,1252,-0.9999999999989999,0.0
313,1.322880506515503,-0.9999999999990006,4.1540741810552243e-16,-0.9999999999990001,-0.9999999999990012,0.0,225997045.19567668,0.1,0.001500844955444336,0.0030477046966552734,0.049943715,3.2688746e-10,-0.9999999999990012,0.0,-0.039999999958041925,0.0,4,0.0009369850158691406,1.0927520963052901,1.0927520963052901,1256,-0.9999999999989999,0.0
314,1.3153777122497559,-0.9999999999990015,9.155133597044475e-16,-0.9999999999990004,-0.9999999999990026,0.0,100319851.71688056,0.1,0.0013897418975830078,0.0030050277709960938,0.050354272,1.2221387e-09,-0.9999999999990014,0.0,-0.039999999958041925,0.0,4,0.0009298324584960938,1.0927520963052901,1.0927520963052901,1260,-0.9999999999989999,0.0
315,1.4992754459381104,-0.9999999999990009,4.2998752849492583e-16,-0.9999999999990004,-0.9999999999990015,0.0,237205894.13499463,0.1,0.0012521743774414062,0.0028657913208007812,0.049978018,4.4248072e-10,-0.9999999999990012,0.0,-0.039999999958041925,0.0,4,0.0009522438049316406,1.0927520963052901,1.0927520963052901,1264,-0.9999999999989999,0.0
316,1.5477375984191895,-0.9999999999990008,8.881784197001252e-16,-0.9999999999989999,-0.9999999999990017,0.0,88639328.80338666,0.1,0.0013885498046875,0.0029866695404052734,0.05019352,9.0556357e-10,-0.9999999999990012,0.0,-0.039999999958041925,0.0,4,0.0009143352508544922,1.0927520963052901,1.0927520963052901,1268,-0.9999999999989999,0.0
317,1.2630531787872314,-0.9999999999990008,6.568167990716596e-16,-0.9999999999990001,-0.9999999999990019,0.0,131962895.6099055,0.1,0.00122833251953125,0.0026865005493164062,0.050133795,4.718358e-10,-0.9999999999990012,0.0,-0.039999999958041925,0.0,4,0.001094818115234375,1.0927520963052901,1.0927520963052901,1272,-0.9999999999989999,0.0
318,1.1400835514068604,-0.9999999999990004,3.510833468576701e-16,-0.9999999999990001,-0.999999999999001,0.0,300377949.233105,0.1,0.0013573169708251953,0.002939939498901367,0.049918205,2.871383e-10,-0.9999999999990012,0.0,-0.039999999958041925,0.0,4,0.0009291172027587891,1.0927520963052901,1.0927520963052901,1276,-0.9999999999989999,0.0
319,1.4808855056762695,-0.9999999999990005,4.839349969133127e-16,-0.9999999999989999,-0.9999999999990012,0.0,179672770.6108823,0.1,0.0013556480407714844,0.0030913352966308594,0.049934655,2.7247593e-10,-0.9999999999990012,0.0,-0.039999999958041925,0.0,4,0.0009083747863769531,1.0927520963052901,1.0927520963052901,1280,-0.9999999999989999,0.0
320,1.3353211879730225,-0.9999999999990006,4.2998752849492583e-16,-0.9999999999990001,-0.9999999999990012,0.0,273893668.17042416,0.1,0.001463174819946289,0.0029239654541015625,0.04981357,2.6167368e-10,-0.9999999999990012,0.0,-0.039999999958041925,0.0,4,0.0009174346923828125,1.0927520963052901,1.0927520963052901,1284,-0.9999999999989999,0.0
321,1.3088293075561523,-0.9999999999990001,2.482534153247273e-16,-0.9999999999989999,-0.9999999999990006,0.0,383444420.20280105,0.1,0.0012001991271972656,0.0026559829711914062,0.049175918,2.3178733e-10,-0.9999999999990012,0.0,-0.039999999958041925,0.0,4,0.0011334419250488281,1.0927520963052901,1.0927520963052901,1288,-0.9999999999989999,0.0
322,1.3498344421386719,-0.9999999999990007,7.447602459741819e-16,-0.9999999999989999,-0.9999999999990019,0.0,101800888.35401987,0.1,0.00150299072265625,0.002954721450805664,0.050150007,7.8190243e-10,-0.9999999999990012,0.0,-0.039999999958041925,0.0,4,0.0009703636169433594,1.0927520963052901,1.0927520963052901,1292,-0.9999999999989999,0.0
323,1.3523967266082764,-0.9999999999990005,2.482534153247273e-16,-0.9999999999990001,-0.9999999999990008,0.0,300341778.08494323,0.1,0.0015225410461425781,0.003602743148803711,0.050000906,1.4389986e-10,-0.9999999999990012,0.0,-0.039999999958041925,0.0,4,0.001337289810180664,1.0927520963052901,1.0927520963052901,1296,-0.9999999999989999,0.0
324,1.3886749744415283,-0.9999999999990019,1.951593978782523e-15,-0.9999999999989997,-0.999999999999005,0.0,47153127.80297258,0.1,0.0013649463653564453,0.0030221939086914062,0.050401777,1.6669265e-09,-0.9999999999990014,0.0,-0.039999999958041925,0.0,4,0.0009205341339111328,1.0927520963052901,1.0927520963052901,1300,-0.9999999999989999,0.0
325,1.4594590663909912,-0.9999999999990007,2.9373740229761033e-16,-0.9999999999990004,-0.999999999999001,0.0,310157902.6782858,0.1,0.0013556480407714844,0.003156423568725586,0.04970932,2.9690975e-10,-0.9999999999990012,0.0,-0.039999999958041925,0.0,4,0.0009055137634277344,1.0927520963052901,1.0927520963052901,1304,-0.9999999999989998,0.0
326,1.6127524375915527,-0.9999999999990006,4.839349969133127e-16,-0.9999999999989999,-0.9999999999990012,0.0,181019134.97657993,0.1,0.0011932849884033203,0.002855539321899414,0.049949884,6.442074e-10,-0.9999999999990012,0.0,-0.039999999958041925,0.0,4,0.0009157657623291016,1.0927520963052901,1.0927520963052901,1308,-0.9999999999989999,0.0
327,1.5958456993103027,-0.9999999999990004,4.839349969133127e-16,-0.9999999999989997,-0.999999999999001,0.0,231065213.84583348,0.1,0.001539468765258789,0.0032854080200195312,0.049865693,7.350284e-10,-0.9999999999990012,0.0,-0.039999999958041925,0.0,4,0.0014500617980957031,1.0927520963052901,1.0927520963052901,1312,-0.9999999999989998,0.0
328,1.4594364166259766,-0.9999999999990001,5.087681048627601e-16,-0.9999999999989997,-0.999999999999001,0.0,187794706.71987304,0.1,0.0013813972473144531,0.002942323684692383,0.049973935,2.9575462e-10,-0.9999999999990012,0.0,-0.039999999958041925,0.0,4,0.0009083747863769531,1.0927520963052901,1.0927520963052901,1316,-0.9999999999989998,0.0
329,1.4494774341583252,-0.9999999999990004,5.874748045952207e-16,-0.9999999999989997,-0.999999999999001,0.0,146504183.38179013,0.1,0.0013630390167236328,0.0029783248901367188,0.04976231,8.243225e-10,-0.9999999999990012,0.0,-0.039999999958041925,0.0,4,0.0009253025054931641,1.0927520963052901,1.0927520963052901,1320,-0.9999999999989998,0.0
330,1.1885311603546143,-0.9999999999990004,3.510833468576701e-16,-0.9999999999989999,-0.9999999999990008,0.0,240344319.03994766,0.1,0.0014731884002685547,0.003083944320678711,0.049495727,5.7462085e-10,-0.9999999999990012,0.0,-0.039999999958041925,0.0,4,0.0009226799011230469,1.0927520963052901,1.0927520963052901,1324,-0.9999999999989998,0.0
331,1.3062453269958496,-0.9999999999990004,1.5700924586837752e-16,-0.9999999999990001,-0.9999999999990006,0.0,667955690.2517285,0.1,0.001413106918334961,0.0030226707458496094,0.04771027,1.5313541e-10,-0.9999999999990012,0.0,-0.039999999958041925,0.0,4,0.0009319782257080078,1.0927520963052901,1.0927520963052901,1328,-0.9999999999989998,0.0
332,1.2313380241394043,-0.9999999999990001,1.1102230246251565e-16,-0.9999999999990001,-0.9999999999990004,0.0,993644714.999278,0.1,0.0013823509216308594,0.0031070709228515625,0.04502508,4.517467e-11,-0.9999999999990012,0.0,-0.039999999958041925,0.0,4,0.0009305477142333984,1.0927520963052901,1.0927520963052901,1332,-0.9999999999989998,0.0
333,1.3459887504577637,-0.999999999999001,5.087681048627601e-16,-0.9999999999990001,-0.9999999999990015,0.0,208119320.77553096,0.1,0.0012352466583251953,0.0026984214782714844,0.050060302,5.3026755e-10,-0.9999999999990012,0.0,-0.039999999958041925,0.0,4,0.0009157657623291016,1.0927520963052901,1.0927520963052901,1336,-0.9999999999989998,0.0
334,1.244671106338501,-0.9999999999990001,2.7194799110210365e-16,-0.9999999999989999,-0.9999999999990006,0.0,319742202.29374164,0.1,0.0015225410461425781,0.003109455108642578,0.049239516,6.1814015e-10,-0.9999999999990012,0.0,-0.039999999958041925,0.0,4,0.0009028911590576172,1.0927520963052901,1.0927520963052901,1340,-0.9999999999989998,0.0
335,1.1811106204986572,-0.9999999999990001,4.710277376051325e-16,-0.9999999999989997,-0.9999999999990008,0.0,200630410.81717086,0.1,0.0012335777282714844,0.002901315689086914,0.049934953,4.0617e-10,-0.9999999999990012,0.0,-0.039999999958041925,0.0,4,0.0009500980377197266,1.0927520963052901,1.0927520963052901,1344,-0.9999999999989998,0.0
336,1.241424798965454,-0.9999999999990004,2.9373740229761033e-16,-0.9999999999989999,-0.9999999999990006,0.0,353131727.72776055,0.1,0.001371622085571289,0.0029146671295166016,0.049127907,4.171838e-10,-0.9999999999990012,0.0,-0.039999999958041925,0.0,4,0.0009088516235351562,1.0927520963052901,1.0927520963052901,1348,-0.9999999999989998,0.0
337,1.2673039436340332,-0.9999999999990008,1.5700924586837752e-16,-0.9999999999990006,-0.999999999999001,0.0,598903183.7590287,0.1,0.0015461444854736328,0.0029897689819335938,0.048112035,2.0241839e-10,-0.9999999999990012,0.0,-0.039999999958041925,0.0,4,0.0009129047393798828,1.0927520963052901,1.0927520963052901,1352,-0.9999999999989998,0.0
338,1.3454139232635498,-0.9999999999990001,2.9373740229761033e-16,-0.9999999999989999,-0.9999999999990006,0.0,312766506.1286667,0.1,0.0015382766723632812,0.0031518936157226562,0.049705774,2.1160151e-10,-0.9999999999990012,0.0,-0.039999999958041925,0.0,4,0.0009708404541015625,1.0927520963052901,1.0927520963052901,1356,-0.9999999999989998,0.0
339,1.871934175491333,-0.9999999999990004,1.5700924586837752e-16,-0.9999999999990001,-0.9999999999990006,0.0,567402583.8486706,0.1,0.0013439655303955078,0.002719879150390625,0.048523962,1.6927112e-10,-0.9999999999990012,0.0,-0.039999999958041925,0.0,4,0.0012936592102050781,1.0927520963052901,1.0927520963052901,1360,-0.9999999999989998,0.0
340,1.4367642402648926,-0.9999999999990006,2.7194799110210365e-16,-0.9999999999990004,-0.999999999999001,0.0,380172706.8429741,0.1,0.001508474349975586,0.0029287338256835938,0.04958582,1.693869e-10,-0.9999999999990012,0.0,-0.039999999958041925,0.0,4,0.0009067058563232422,1.0927520963052901,1.0927520963052901,1364,-0.9999999999989998,0.0
341,1.6129677295684814,-0.9999999999989999,1.1102230246251565e-16,-0.9999999999989999,-0.9999999999990001,0.0,877149211.6350698,0.1,0.0014660358428955078,0.002935171127319336,0.046384484,4.761598e-11,-0.9999999999990012,0.0,-0.039999999958041925,0.0,4,0.0009312629699707031,1.0927520963052901,1.0927520963052901,1368,-0.9999999999989998,0.0
342,1.3826491832733154,-0.9999999999990004,3.510833468576701e-16,-0.9999999999989999,-0.9999999999990008,0.0,299297329.2570342,0.1,0.0013611316680908203,0.002974987030029297,0.04985279,2.5664526e-10,-0.9999999999990012,0.0,-0.039999999958041925,0.0,4,0.0009362697601318359,1.0927520963052901,1.0927520963052901,1372,-0.9999999999989998,0.0
343,1.3318016529083252,-0.9999999999990001,3.510833468576701e-16,-0.9999999999989997,-0.9999999999990006,0.0,250781370.88590848,0.1,0.0013685226440429688,0.002958536148071289,0.049663603,3.074574e-10,-0.9999999999990012,0.0,-0.039999999958041925,0.0,4,0.0009129047393798828,1.0927520963052901,1.0927520963052901,1376,-0.9999999999989998,0.0
344,1.3303947448730469,-0.9999999999990006,3.3306690738754696e-16,-0.9999999999990001,-0.999999999999001,0.0,230906578.07901838,0.1,0.0014331340789794922,0.003040790557861328,0.049907893,8.118762e-10,-0.9999999999990012,0.0,-0.039999999958041925,0.0,4,0.0009093284606933594,1.0927520963052901,1.0927520963052901,1380,-0.9999999999989998,0.0
345,1.4263699054718018,-0.9999999999990001,5.661048867003676e-16,-0.9999999999989995,-0.999999999999001,0.0,179414269.36038268,0.1,0.0014231204986572266,0.003097057342529297,0.049746484,7.604448e-10,-0.9999999999990012,0.0,-0.039999999958041925,0.0,4,0.00095367431640625,1.0927520963052901,1.0927520963052901,1384,-0.9999999999989996,0.0
346,1.381633996963501,-0.9999999999990008,8.308148362110449e-16,-0.9999999999989999,-0.9999999999990021,0.0,103678903.16396299,0.1,0.0014204978942871094,0.0028793811798095703,0.05015841,5.5193544e-10,-0.9999999999990012,0.0,-0.039999999958041925,0.0,4,0.001007080078125,1.0927520963052901,1.0927520963052901,1388,-0.9999999999989996,0.0
347,1.6649363040924072,-0.9999999999990001,1.9229626863835638e-16,-0.9999999999989999,-0.9999999999990004,0.0,409938636.3193998,0.1,0.00128936767578125,0.002856731414794922,0.049566746,1.2919986e-10,-0.9999999999990012,0.0,-0.039999999958041925,0.0,4,0.0011265277862548828,1.0927520963052901,1.0927520963052901,1392,-0.9999999999989996,0.0
348,1.3851292133331299,-0.999999999999001,1.926164957854745e-15,-0.9999999999989997,-0.9999999999990044,0.0,38710320.02119169,0.1,0.0013856887817382812,0.0029306411743164062,0.04997617,1.8761983e-09,-0.9999999999990012,0.0,-0.039999999958041925,0.0,4,0.0009055137634277344,1.0927520963052901,1.0927520963052901,1396,-0.9999999999989996,0.0
349,1.3209764957427979,-0.9999999999990005,7.447602459741819e-16,-0.9999999999989997,-0.9999999999990017,0.0,99125928.37670627,0.1,0.0012667179107666016,0.002769947052001953,0.050368637,5.177325e-10,-0.9999999999990012,0.0,-0.039999999958041925,0.0,4,0.001093149185180664,1.0927520963052901,1.0927520963052901,1400,-0.9999999999989996,0.0
350,1.3451874256134033,-0.9999999999990001,2.482534153247273e-16,-0.9999999999989999,-0.9999999999990006,0.0,385829491.05185694,0.1,0.0012238025665283203,0.002780437469482422,0.049309134,1.5794518e-10,-0.9999999999990012,0.0,-0.039999999958041925,0.0,4,0.0011425018310546875,1.0927520963052901,1.0927520963052901,1404,-0.9999999999989996,0.0
351,1.454648494720459,-0.9999999999989999,4.002966042486721e-16,-0.9999999999989995,-0.9999999999990006,0.0,216190055.9619356,0.1,0.0012645721435546875,0.0027320384979248047,0.050006986,3.5103867e-10,-0.9999999999990012,0.0,-0.039999999958041925,0.0,4,0.0010864734649658203,1.0927520963052901,1.0927520963052901,1408,-0.9999999999989996,0.0
