iteration,time_sampling,stoc_pol_mean,stoc_pol_std,stoc_pol_max,stoc_pol_min,rollout_success,alpha,delta,time_vpg,time_npg,kl_dist,surr_improvement,running_score,rwd_sparse,rwd_dense,success_percentage,num_samples,time_VF,VF_error_before,VF_error_after,env_samples,eval_score,eval_success
0,1.326817512512207,0.018613404292915883,0.007750643101418979,0.030080366958265325,0.00822852235025903,0.0,0.1354861047394495,0.1,0.04684019088745117,0.05868268013000488,0.05166607,2.048848,0.018613404292915883,0.0,0.0003697694826379872,0.0,200,0.11559653282165527,11.194647830391556,3.877701286338574,200,0.021497696620363774,0.0
1,1.2270336151123047,0.021105902358577178,0.007061014051210216,0.030736642322785578,0.012348617103039566,0.0,0.14264726132735944,0.1,0.0028350353240966797,0.05645632743835449,0.058864966,1.4096152,0.018862654099482012,0.0,0.0004087327817785119,0.0,200,0.04773855209350586,2.885976617172983,0.3314142363569874,400,0.019646333336070694,0.0
2,1.2150893211364746,0.011675357318021787,0.005652292879823297,0.019655045129994296,0.004224529542587626,0.0,0.15737662376098238,0.1,0.0029451847076416016,0.05401968955993652,0.04953435,0.8084697,0.01814392442133599,0.0,0.00023317198747532688,0.0,200,0.08971786499023438,1.019053959198016,3.1895488447807696,600,0.013201906838395608,0.0
3,1.5067131519317627,0.03255421003845072,0.02636597185966736,0.07466995848742974,0.004035675333055303,0.0,0.14693862021577142,0.1,0.0029196739196777344,0.050894975662231445,0.052772075,1.139938,0.019584952983047462,0.0,0.0006491832402191454,0.0,200,0.1402742862701416,1.362592469660363,0.5850761607562956,800,0.02123472870697223,0.0
4,1.434882402420044,0.038197316131013084,0.018696026477530776,0.06345683236558022,0.013417392725769778,0.0,0.151172336758661,0.1,0.0028753280639648438,0.05575847625732422,0.05012722,0.95986146,0.021446189297844025,0.0,0.0007630080985000219,0.0,200,0.05088496208190918,0.4943912696330629,0.5782896751796446,1000,0.022132908959596343,0.0
5,1.3297045230865479,0.032715070554724154,0.010999071421378537,0.04328303693863925,0.015859429794231973,0.0,0.14797680908405264,0.1,0.0026063919067382812,0.055422306060791016,0.049178,0.9294142,0.022573077423532036,0.0,0.0006418753901269978,0.0,200,0.11850237846374512,0.7245450350912325,0.5024008128283134,1200,0.02507744958273043,0.0
6,1.2842965126037598,0.03808425074554158,0.035244200793076524,0.09468198593079408,0.007959316955390885,0.0,0.1544567722366118,0.1,0.0026552677154541016,0.055341482162475586,0.051528748,1.2716194,0.02412419475573299,0.0,0.0007598656618755621,0.0,200,0.0370945930480957,0.6222307489271651,0.5840212212451225,1400,0.05696669706881032,0.0
7,1.2808213233947754,0.026458236987349032,0.026811272649370815,0.07142571786150072,0.004313710384149451,0.0,0.1528524639583715,0.1,0.00273895263671875,0.05403637886047363,0.05223765,1.5678111,0.0243575989788946,0.0,0.0005248634720817778,0.0,200,0.11351704597473145,0.6003479780397212,0.603578007117236,1600,0.0751758139645059,0.0
8,1.3507590293884277,0.05963445541765913,0.08633068098282866,0.2090008978066102,0.0037459472563913083,0.0,0.14081452609764017,0.1,0.01649641990661621,0.07596206665039062,0.05058813,1.772594,0.027885284622771053,0.0,0.001187360084410457,0.0,200,0.13316011428833008,0.8540573182673333,0.7611906739681494,1800,0.1471172489575445,0.0
9,1.3406476974487305,0.05013002735951729,0.02701150028759169,0.08981621849831699,0.01393752726020755,0.0,0.15291226206934228,0.1,0.0025548934936523438,0.05408000946044922,0.04988182,0.8916619,0.03010975889644568,0.0,0.0009980590761373346,0.0,200,0.06981587409973145,0.3473258681228902,0.3497821088425071,2000,0.22247281407846267,0.0
10,1.3899550437927246,0.11440116334712536,0.16247060025948015,0.39434006437180086,0.0025792502015522844,0.0,0.1403814335849508,0.1,0.002521514892578125,0.050936222076416016,0.049096495,1.7197489,0.038538899341513645,0.0,0.0022865694079701924,0.0,200,0.09067940711975098,0.7819249933145486,0.7219132421161003,2200,0.1638067563707748,0.0
11,1.313985824584961,0.07021402676796358,0.058791093277893544,0.15434936827323556,0.006778218238686237,0.0,0.13871886136728107,0.1,0.0026502609252929688,0.05730891227722168,0.0474241,1.7151865,0.04170641208415864,0.0,0.001395439740336827,0.0,200,0.02781224250793457,0.6110003119850954,0.5756787599010764,2400,0.11038847258552416,0.0
12,1.3149423599243164,0.04694593757320235,0.023057965829471148,0.08645431815648642,0.029073803131907664,0.0,0.15423687881457257,0.1,0.0028738975524902344,0.05655503273010254,0.05125133,1.1420887,0.04223036463306301,0.0,0.0009307466456174507,0.0,200,0.11385798454284668,1.6321199655037788,0.28063751988893454,2600,0.1295776787742082,0.0
13,1.3193554878234863,0.058330330550115175,0.0702153641349658,0.17622693092640293,0.004049426057092422,0.0,0.1347940471994016,0.1,0.008593082427978516,0.06953096389770508,0.049781803,2.1705737,0.043840361224768226,0.0,0.0011661161082903992,0.0,200,0.061595916748046875,0.6873040366748604,0.8047119923941392,2800,0.54616782416066,0.0
14,1.2961134910583496,0.1826062579085332,0.2368681526602952,0.5927847815312673,0.03930408486808716,0.0,0.13489678236893524,0.1,0.002624988555908203,0.10176253318786621,0.049181662,1.9189764,0.05771695089314473,0.0,0.0036494794927277655,0.0,200,0.1497957706451416,0.931172059526308,0.809165944277958,3000,0.5522063703889789,0.0
15,1.3825788497924805,0.040007379096870195,0.010010072753820315,0.049100331841342486,0.023347734554612067,0.0,0.13993917165148934,0.1,0.0027663707733154297,0.05642533302307129,0.05045472,1.1138371,0.05594599371351727,0.0,0.0007928429119871777,0.0,200,0.07451581954956055,0.7479417772489517,3.060651639359848,3200,0.43494453411394945,0.0
16,1.3925578594207764,0.06214634702938729,0.042524119593834515,0.12868843238092756,0.01135341144548315,0.0,0.14059645580557353,0.1,0.0028967857360839844,0.08475828170776367,0.050326727,1.1699891,0.05656602904510428,0.0,0.0011915786112940217,0.0,200,0.0678248405456543,0.5635810388544673,0.5495059265119622,3400,0.7766997970546062,0.0
17,1.337266206741333,0.07797042853672707,0.03838443688021007,0.13875132674551277,0.03936011967509008,0.0,0.14476164917231232,0.1,0.01972508430480957,0.08227014541625977,0.04955731,1.0230573,0.058706468994266556,0.0,0.0015527242176436506,0.0,200,0.1416170597076416,0.39335787367587605,0.3325639340128926,3600,0.7762460677816799,0.0
18,1.307927131652832,0.22643959175845746,0.1850586730422005,0.5184564184005754,0.013079857443020815,0.0,0.12645512537931558,0.1,0.0028667449951171875,0.09230685234069824,0.049258765,1.9706727,0.07547978127068565,0.0,0.004527606331921849,0.0,200,0.08206772804260254,0.6794898571900447,0.6028265361623835,3800,0.776438712536932,0.0
19,1.6079392433166504,0.11189886451908827,0.10567907245391618,0.27950876767176785,0.01577997736123546,0.0,0.13980557952246855,0.1,0.0028510093688964844,0.09893035888671875,0.050680727,1.2102052,0.07912168959552592,0.0,0.0022235194656885175,0.0,200,0.05914735794067383,0.49769199549063503,0.544363989703451,4000,0.7841249404122214,0.0
20,1.3905560970306396,0.10367627853859279,0.11311659962612472,0.2985372969419841,0.021154796730872616,0.0,0.13836627564872922,0.1,0.002601146697998047,0.04843568801879883,0.04973892,1.5445833,0.08157714848983261,0.0,0.002072364696159102,0.0,200,0.036581993103027344,0.7122033050078883,0.6882081195648094,4200,0.8661107248767325,0.0
21,1.4187636375427246,0.1510498562424484,0.10675289610880383,0.3058040761249685,0.01895235598399078,0.0,0.14409261850807267,0.1,0.0027039051055908203,0.0548858642578125,0.0506017,1.0217208,0.08852441926509419,0.0,0.0029939433276598205,0.0,200,0.04953408241271973,0.4292367564565503,0.4240836443888591,4400,0.9235416615469512,0.0
22,1.3605945110321045,0.23981623571193217,0.19879342112891857,0.4723891066892202,0.021002090152692866,0.0,0.1392218450621953,0.1,0.0027828216552734375,0.05351758003234863,0.05045978,1.2200807,0.10365360090977799,0.0,0.004781707725018057,0.0,200,0.11432194709777832,0.564520981085089,0.5048695213099602,4600,0.8996336955844781,0.0
23,1.3604626655578613,0.1910806885770872,0.10259988488207071,0.362472348371707,0.09199903684289536,0.0,0.14201633955431334,0.1,0.002886056900024414,0.05556297302246094,0.05039864,1.8477325,0.1123963096765089,0.0,0.003797482978004569,0.0,200,0.07337403297424316,0.30989728661811156,0.2998663681752286,4800,0.9930756274257546,0.0
24,1.424431562423706,0.4696245546560748,0.40298890321767555,1.1238041137549697,0.023595264501674765,0.0,0.12756924421834986,0.1,0.0028886795043945312,0.05002331733703613,0.04920409,2.1920948,0.14811913417446548,0.0,0.00931463861452693,0.0,200,0.28236913681030273,0.6600987026523495,0.5248573568549162,5000,0.9909435269544283,0.0
25,1.5431852340698242,0.10620139110966643,0.06279712574905189,0.1826066899162518,0.03552388673030151,0.0,0.137681451633105,0.1,0.0024633407592773438,0.047986745834350586,0.04928927,1.5138562,0.1439273598679856,0.0,0.0020684929622379646,0.0,200,0.11181282997131348,4.652466160911599,3.582516288196049,5200,0.7089578504374735,0.0
26,1.39894437789917,0.09064765993857807,0.09034719963925585,0.24498530457626042,0.021011159537035216,0.0,0.1345061543856469,0.1,0.0028276443481445312,0.061676740646362305,0.049720384,1.0196984,0.13859938987504486,0.0,0.0018085268681055963,0.0,200,0.0387883186340332,3.7788307696770347,1.2185683441603048,5400,0.8163203288423198,0.0
27,1.5054571628570557,0.06406894015985638,0.04177131220095867,0.1320389766670493,0.019034391319211363,0.0,0.134669104913178,0.1,0.002608060836791992,0.06424498558044434,0.050318055,1.020543,0.131146344903526,0.0,0.001281211450343713,0.0,200,0.08982133865356445,3.410914171920011,0.7045209153699301,5600,0.8067571710136242,0.0
28,1.419724464416504,0.23472090679084914,0.1821700956559826,0.4496826851495716,0.025043148761301096,0.0,0.12981405811128036,0.1,0.0030574798583984375,0.0532071590423584,0.049124908,1.4892111,0.14150380109225832,0.0,0.00468990506794503,0.0,200,0.10095858573913574,0.642059148228641,0.710159209421441,5800,0.7625033358087379,0.0
29,1.49595308303833,0.15667603661628737,0.1471760350520054,0.3809223945287787,0.016413215645379793,0.0,0.1314422279691831,0.1,0.0025687217712402344,0.07127857208251953,0.05088893,1.5291803,0.1430210246446612,0.0,0.003114234088868679,0.0,200,0.0991981029510498,0.5968053300341103,0.5753120800533676,6000,0.602597332284671,0.0
30,1.4249510765075684,0.42893756438098296,0.3180315768177759,0.9188844676854458,0.028258420976616887,0.0,0.13966021611779098,0.1,0.014261245727539062,0.056649208068847656,0.049533416,1.2014865,0.17161267861829338,0.0,0.008577359401959556,0.0,200,0.042439937591552734,0.7789128529751578,0.7131966645068133,6200,0.6400709344803296,0.0
31,1.4685447216033936,0.31064754496960023,0.25606655381163523,0.7265402400922153,0.03058205133087513,0.0,0.1364665962580414,0.1,0.0028533935546875,0.11121177673339844,0.049634732,1.3808331,0.18551616525342407,0.0,0.0061654096057030565,0.0,200,0.09320545196533203,0.6706473552146582,0.5852688431750283,6400,0.6706779415632848,0.0
32,1.3437848091125488,0.20341166151899245,0.22510198690017677,0.5932742300533481,0.06926875708099117,0.0,0.13865265068435007,0.1,0.014221668243408203,0.05552077293395996,0.04918145,1.6869955,0.1873057148799809,0.0,0.004053616118718701,0.0,200,0.04765033721923828,0.6568438121656538,0.6617333824491667,6600,0.6189647261602673,0.0
33,1.3767812252044678,0.3832879676531802,0.19675873361024931,0.6320056593853601,0.08704028564831622,0.0,0.13799803449851214,0.1,0.002689838409423828,0.05546832084655762,0.049958933,1.0212501,0.20690394015730085,0.0,0.007625904395008385,0.0,200,0.04569435119628906,0.42934910027167267,0.36344180608517457,6800,0.5505554051379956,0.0
34,1.50858473777771,0.16259498105454873,0.10517662520373895,0.29754596475667633,0.03254810745570968,0.0,0.13440919436277451,0.1,0.0029871463775634766,0.056527137756347656,0.05034414,1.2250352,0.20247304424702564,0.0,0.0032420935921860204,0.0,200,0.17124438285827637,0.7803868447175332,0.8927359999005368,7000,0.6371963929359711,0.0
35,1.5017566680908203,0.23930936186529092,0.2258700005138445,0.6109283515963391,0.044167017931337704,0.0,0.13182528691046014,0.1,0.006170511245727539,0.06643414497375488,0.0506439,3.669618,0.20615667600885215,0.0,0.004776483768735899,0.0,200,0.09798479080200195,0.549421490581238,0.5416557640748599,7200,0.6335402909692585,0.0
36,1.4936683177947998,0.25232066302996087,0.23305544293513752,0.6350718916583047,0.032280273724512656,0.0,0.12313777552868996,0.1,0.0027425289154052734,0.05716133117675781,0.04973095,2.2479641,0.21077307471096304,0.0,0.0049763588798574015,0.0,200,0.07272863388061523,0.5482628669673438,0.5408248158215868,7400,0.6433884630009742,0.0
37,1.4829223155975342,0.15255466949442764,0.08391975668200918,0.2823152435904156,0.06543495367081417,0.0,0.13721553901556593,0.1,0.002707242965698242,0.05198264122009277,0.04937302,1.1370978,0.20495123418930952,0.0,0.003044655184458174,0.0,200,0.08635830879211426,0.7738099792271856,0.5503242810960287,7600,0.6133858036564205,0.0
38,1.3530478477478027,0.33953282936641455,0.11439384618906719,0.44236448668805867,0.14865422193353836,0.0,0.13583284748184501,0.1,0.002744913101196289,0.05023980140686035,0.05012517,0.80877686,0.21840939370702003,0.0,0.00673429521012882,0.0,200,0.08062481880187988,0.2904694518850273,0.2965604572164699,7800,0.49094920038595213,0.0
39,1.4739208221435547,0.30775315232666733,0.2883918788199434,0.7277545593471243,0.04011285626438666,0.0,0.1410030257801037,0.1,0.0958259105682373,0.056079864501953125,0.050007474,1.0849707,0.22734376956898478,0.0,0.0060873104280466574,0.0,200,0.062280893325805664,0.5563826350574109,0.5356459007519248,8000,0.5381742611793303,0.0
40,1.5000255107879639,0.2378160984312398,0.12713948618726942,0.3622391747651078,0.042215858470077784,0.0,0.14016222797283553,0.1,0.03631854057312012,0.05920267105102539,0.049453646,1.0718949,0.22839100245521027,0.0,0.004716135003689232,0.0,200,0.1587679386138916,0.2931634919923751,0.30017747744105533,8200,0.4012516297140742,0.0
41,1.4607582092285156,0.427358889744876,0.18753451039591829,0.5876204994553208,0.12383817249614848,0.0,0.1350643481441804,0.1,0.0027103424072265625,0.052739858627319336,0.049561027,1.0159687,0.24828779118417685,0.0,0.008491126520920583,0.0,200,0.0532071590423584,0.37099785452429,0.31374199616684606,8400,0.37202021899107257,0.0
42,1.4164633750915527,0.41844002925069884,0.26026722040277195,0.8505494385048581,0.18752229180342886,0.0,0.14295054989116357,0.1,0.011101722717285156,0.0568995475769043,0.050298795,1.4394575,0.26530301499082903,0.0,0.008335854764771458,0.0,200,0.04707956314086914,0.39072277426764374,0.3419237680783318,8600,0.3913243639556116,0.0
43,1.4322621822357178,0.6357602391512909,0.20659829504725444,0.8386934551053337,0.2940472374020517,0.0,0.13447496868248035,0.1,0.0028285980224609375,0.057703495025634766,0.04963505,1.0258187,0.30234873740687523,0.0,0.012470326303971543,0.0,200,0.0852963924407959,0.30786184426925167,0.20100524011187323,8800,0.4662443327856971,0.0
44,1.530034065246582,0.4916917731219743,0.2820053028119349,0.8657533405380019,0.07858438627437253,0.0,0.13348600786267403,0.1,0.0026221275329589844,0.06882143020629883,0.050016657,1.4127405,0.32128304097838517,0.0,0.009786805563693865,0.0,200,0.0722808837890625,0.31760513070287666,0.35726879867710015,9000,0.5213141309075727,0.0
45,1.5474441051483154,0.35652687498150265,0.1824018551134741,0.6163037964813227,0.10283791848166464,0.0,0.12847378764043715,0.1,0.031830787658691406,0.08765316009521484,0.04912805,1.4351517,0.3248074243786969,0.0,0.007036846298541513,0.0,200,0.05276370048522949,0.6655894649523479,0.38921840705218663,9200,0.28728180453735463,0.0
46,1.5552234649658203,0.3434049640701702,0.21144722079399011,0.5994562777327596,0.015009023026489442,0.0,0.13248614807282155,0.1,0.0028192996978759766,0.06632614135742188,0.050951034,1.1893314,0.32666717834784426,0.0,0.006865542263031885,0.0,200,0.04393291473388672,0.5121918359037756,0.3587560939542784,9400,0.39654065857959936,0.0
47,1.3572535514831543,0.42693679418718955,0.34509968382055334,1.0131143015783144,0.14196133920548293,0.0,0.12609214881685177,0.1,0.0023512840270996094,0.045415639877319336,0.04873286,3.10483,0.33669413993177877,0.0,0.008406262456973014,0.0,200,0.13354277610778809,0.4573335980945837,0.48145886837366014,9600,0.4184743037529825,0.0
48,1.4201762676239014,0.3910885318312476,0.19921969392632283,0.5816040357151326,0.05649746978832833,0.0,0.13187078545170758,0.1,0.0021326541900634766,0.042555809020996094,0.050100546,1.187195,0.3421335791217257,0.0,0.007768331347645806,0.0,200,0.08176708221435547,0.27437888611379996,0.28040837279373787,9800,0.4082812389620078,0.0
49,1.6240513324737549,0.48123329619171956,0.29367380243166685,0.9076625364670624,0.17269054561515212,0.0,0.1351247655701347,0.1,0.0033652782440185547,0.05848836898803711,0.049831547,1.3890992,0.3560435508287251,0.0,0.009544443864940806,0.0,200,0.40506601333618164,0.42204066957127995,0.3946128195421428,10000,0.4493993323999177,0.0
50,1.3624141216278076,0.2307696693958908,0.14494488566625208,0.4312581400763965,0.06019388376663927,0.0,0.13436251051866197,0.1,0.0026264190673828125,0.05018162727355957,0.049221072,1.099934,0.34351616268544166,0.0,0.004552619959258826,0.0,200,0.09622716903686523,0.4186780410072987,0.44526895316166254,10200,0.6704384290822042,0.0
51,1.3982481956481934,0.3933521322872871,0.18833284107420795,0.6763344665729117,0.169623640619739,0.0,0.12981879936231788,0.1,0.0029115676879882812,0.05422091484069824,0.05012499,1.6719295,0.3484997596456262,0.0,0.007847789137140444,0.0,200,0.08582615852355957,0.2582750399573697,0.2539821435744441,10400,0.8425250179481925,0.0
52,1.5143513679504395,0.3150377964407776,0.3303149428534093,0.8802787052578567,0.04925153955021379,0.0,0.134716062542392,0.1,0.0027844905853271484,0.10322165489196777,0.049725924,1.2878495,0.3451535633251413,0.0,0.006165003644741582,0.0,200,0.02660346031188965,0.5977953087494536,0.5874831381773117,10600,0.725561503082189,0.0
53,1.4503083229064941,0.47223813896373024,0.27422123257037534,0.9249380989083681,0.22715840369570614,0.0,0.14225448971598922,0.1,0.0026793479919433594,0.05549788475036621,0.049258247,1.3433627,0.3578620208890002,0.0,0.009298456408360425,0.0,200,0.03528118133544922,0.34292376202861535,0.333013924493489,10800,0.7288305715626525,0.0
54,1.6019139289855957,0.44448220879629546,0.11866438214230332,0.542657404322135,0.2416762327751884,0.0,0.13134842232042587,0.1,0.0029201507568359375,0.05560159683227539,0.04980867,1.0008323,0.3665240396797298,0.0,0.008788425264611077,0.0,200,0.08340978622436523,0.1517153378300241,0.12281677876855476,11000,0.6597100788151825,0.0
55,1.5206928253173828,0.39777250998415487,0.3416471365749282,0.952329701470953,0.10710159012739782,0.0,0.12201581293704641,0.1,0.002896547317504883,0.05357503890991211,0.049053617,1.5978492,0.3696488867101723,0.0,0.0078025675087648235,0.0,200,0.04705238342285156,0.4811521140731162,0.478931345332437,11200,0.7218848020568406,0.0
56,1.427260398864746,0.3376421931085102,0.18679125261648277,0.5917107236280981,0.12704685118855963,0.0,0.12707028825998978,0.1,0.0027501583099365234,0.05424761772155762,0.0495756,1.2871138,0.3664482173500061,0.0,0.006530579886428621,0.0,200,0.029922962188720703,0.30773519456302784,0.2932717925568194,11400,0.5447930208443948,0.0
57,1.4674603939056396,0.5925770292053845,0.3944855721764976,1.174018772812719,0.10321119286889377,0.0,0.12857137821161543,0.1,0.0026400089263916016,0.05621480941772461,0.05079612,1.4420582,0.38906109853554394,0.0,0.011730084525818788,0.0,200,0.05315661430358887,0.3952521950896405,0.3732532955845188,11600,0.4775611606782648,0.0
58,1.461179256439209,0.43521094392294046,0.13890744260370763,0.5673516879910365,0.20603570665219548,0.0,0.13315882775093135,0.1,0.0027463436126708984,0.054500579833984375,0.04975297,1.0100833,0.39367608307428364,0.0,0.008679830195039633,0.0,200,0.08559918403625488,0.15250722140967218,0.1625145721699683,11800,0.4798027440541777,0.0
59,1.5079622268676758,0.2775274935835798,0.1231939991329438,0.4139579031694743,0.08988859570711466,0.0,0.13519133732614022,0.1,0.002912282943725586,0.06217074394226074,0.049920093,1.477633,0.38206122412521326,0.0,0.0055249002725421305,0.0,200,0.11287283897399902,0.6724171699311212,0.5080573994177641,12000,0.5809849956811969,0.0
60,1.558377981185913,0.15521840891291133,0.061456170545544,0.22816019885079597,0.06303852284936785,0.0,0.13756567226403943,0.1,0.002673625946044922,0.05789995193481445,0.04983839,0.7778043,0.3593769426039831,0.0,0.003103811469892496,0.0,200,0.08189916610717773,3.4558110073637365,1.4619533179252402,12200,0.5002884132282863,0.0
61,1.4546103477478027,0.5565047297828178,0.33973671380579773,1.1274577132047052,0.2728984456965348,0.0,0.1240938301750083,0.1,0.027309894561767578,0.0549471378326416,0.05009551,2.8383055,0.37908972132186664,0.0,0.010908533586799465,0.0,200,0.041388750076293945,0.4516022168943564,0.47361609067820803,12400,0.4351724818990519,0.0
62,1.504953145980835,0.4682803915100939,0.16773055000181508,0.7018743787450044,0.23798912976784173,0.0,0.13955236052149617,0.1,0.006472349166870117,0.05479860305786133,0.05036581,1.0186553,0.3880087883406894,0.0,0.009343757835884911,0.0,200,0.05141305923461914,0.2705014671747324,0.2337098306407427,12600,0.38706609138801323,0.0
63,1.522883653640747,0.4531807791834092,0.061236810515354956,0.5198153127915612,0.3789492534641102,0.0,0.12537333721403013,0.1,0.0026578903198242188,0.0584568977355957,0.049401294,0.7458829,0.3945259874249614,0.0,0.008931521669054506,0.0,200,0.0839533805847168,0.15903446630423623,0.11564266347553574,12800,0.36138202749187515,0.0
64,1.6224489212036133,0.3440665439056285,0.1380971647455683,0.5236515859297001,0.13593541545386487,0.0,0.1352935317856129,0.1,0.002912759780883789,0.05493021011352539,0.04870612,0.72154146,0.38948004307302814,0.0,0.006837477174317752,0.0,200,0.05939078330993652,0.23265384194978733,0.25728348169221565,13000,0.3749203160017207,0.0
65,1.554781198501587,0.5184270107958442,0.27032110671557136,0.8477125032380828,0.1098417179474745,0.0,0.12768321490204418,0.1,0.002615690231323242,0.05074167251586914,0.049571633,1.6940665,0.40237473984530975,0.0,0.01033619002026879,0.0,200,0.06531882286071777,0.34568491375774546,0.3371729259931672,13200,0.26227629562574656,0.0
66,1.5847201347351074,0.5299710332039491,0.15586633464773425,0.6695743883358156,0.289272618240805,0.0,0.13207993129001055,0.1,0.04678082466125488,0.0672454833984375,0.04938519,1.1869545,0.4151343691811737,0.0,0.010578338662406359,0.0,200,0.12672686576843262,0.1710789953701544,0.1497655090480031,13400,0.4124226178857509,0.0
67,1.4441583156585693,0.35267330821494136,0.27486788155655606,0.7785865252791844,0.08331805563083275,0.0,0.12957370862437334,0.1,0.0035767555236816406,0.051355838775634766,0.05014895,1.5820324,0.40888826308455045,0.0,0.007045333050612213,0.0,200,0.13310766220092773,0.5341285030463321,0.5073530704629858,13600,0.3436665913159383,0.0
68,1.4689154624938965,0.4315896412245265,0.31268878627244806,0.9496294939602968,0.1539537889186182,0.0,0.13824529046336462,0.1,0.003051280975341797,0.061246395111083984,0.05063386,1.4381928,0.41115840089854805,0.0,0.008609702730526447,0.0,200,0.028749704360961914,0.4065768915347538,0.3944652195784708,13800,0.35050689415800756,0.0
69,1.4257054328918457,0.6345622175230794,0.3719669609615781,1.0721190150352247,0.10824271331894521,0.0,0.12669053670815555,0.1,0.0028781890869140625,0.05504250526428223,0.049721412,1.078248,0.43349878256100116,0.0,0.012453677130906334,0.0,200,0.04309487342834473,0.38032699043877244,0.3589568312083991,14000,0.36731154002174415,0.0
70,1.533991813659668,0.5245386452999672,0.4545382878611007,1.201815420974071,0.0569918606819626,0.0,0.12772578371020518,0.1,0.003014802932739258,0.05634951591491699,0.04881632,1.6502763,0.4426027688348978,0.0,0.010342942843008945,0.0,200,0.025574684143066406,0.47280328891016743,0.4589297401912235,14200,0.4211770297415543,0.0
71,1.5115749835968018,0.625255668197478,0.3615793254753591,1.0522922238281263,0.06290604515361839,0.0,0.13209670619748387,0.1,0.0028104782104492188,0.05473613739013672,0.050025664,1.1282783,0.46086805877115583,0.0,0.012364107570272793,0.0,200,0.04815530776977539,0.2912697027742328,0.2768769015285626,14400,0.41442541118183335,0.0
72,1.4644713401794434,0.6886710110995987,0.46158475611600597,1.481180733057817,0.3338075678597797,0.0,0.1340120202188489,0.1,0.0030307769775390625,0.05653691291809082,0.04914538,2.2970736,0.48364835400400014,0.0,0.013502104524608448,0.0,200,0.07269668579101562,0.35676364314550335,0.3505699870090133,14600,0.3787041076905095,0.0
73,1.4912114143371582,0.567781041377639,0.2594391810546667,0.964668651778169,0.2915344785915067,0.0,0.13584187097579997,0.1,0.0032868385314941406,0.052565813064575195,0.049551807,0.91970277,0.49206162274136406,0.0,0.011310548042652715,0.0,200,0.21837067604064941,0.27305028390330727,0.2382973163934872,14800,0.35811922652222333,0.0
74,1.592221975326538,0.6344534876925074,0.26526423260313536,0.9221933571340071,0.20156563869018415,0.0,0.1291618240907681,0.1,0.0028388500213623047,0.05807209014892578,0.04978773,1.0528407,0.5063008092364785,0.0,0.012626142445822074,0.0,200,0.1284778118133545,0.2160342652527053,0.19990961156590117,15000,0.25095500421939315,0.0
75,1.584425926208496,0.5531330378577559,0.22459726629084037,0.8993546617853317,0.2789778087396999,0.0,0.12876921372000427,0.1,0.0027151107788085938,0.054696083068847656,0.04976385,1.2017165,0.5109840320986062,0.0,0.011024783360162932,0.0,200,0.08402085304260254,0.22906180835742143,0.22473490376762012,15200,0.26372461278894527,0.0
76,1.2600960731506348,0.434171536498539,0.17576820701581386,0.7139960700077047,0.25732251906602044,0.0,0.12832306902481555,0.1,0.002289295196533203,0.04011082649230957,0.05020404,1.075852,0.5033027825385995,0.0,0.008631434394480324,0.0,200,0.05764365196228027,0.25034051290637854,0.20734989450565908,15400,0.18078727821588728,0.0
77,1.288118839263916,0.4283641996028769,0.28788430537433285,0.7820369517752934,0.0105374417619287,0.0,0.12542833598342656,0.1,0.0019922256469726562,0.037210941314697266,0.05062438,1.0000129,0.49580892424502726,0.0,0.008539376512959329,0.0,200,0.0357060432434082,0.34321455786047017,0.33013122036606385,15600,0.31207251921067014,0.0
78,1.2556257247924805,0.5207536649904521,0.3409307658938112,1.0724097725963613,0.14415781115896556,0.0,0.13137889361146868,0.1,0.002071857452392578,0.03732705116271973,0.04948563,1.4243369,0.49830339831956977,0.0,0.01026923448616075,0.0,200,0.03479170799255371,0.388756410194797,0.3824880629912856,15800,0.3515972258775441,0.0
79,1.2587134838104248,0.6091330565924175,0.25498025647465417,0.8821345697922867,0.20276547282901516,0.0,0.13029641841965003,0.1,0.0020143985748291016,0.060472726821899414,0.049853772,0.9473109,0.5093863641468546,0.0,0.012089995457721414,0.0,200,0.04039430618286133,0.24633535447349342,0.2149168454203157,16000,0.3591648933546457,0.0
80,1.2525362968444824,0.5598513599540356,0.23588331640822985,0.9573477910083595,0.3689283929058376,0.0,0.13400042493717146,0.1,0.0019719600677490234,0.03692436218261719,0.050751112,1.3570894,0.5144328637275727,0.0,0.011173680119484226,0.0,200,0.034612417221069336,0.19898900882832246,0.18756094591514852,16200,0.39975312035324534,0.0
81,1.1612226963043213,0.7423547547085029,0.453004354957089,1.5142089396727447,0.38263532470323003,0.0,0.12344026277221151,0.1,0.002411365509033203,0.039923906326293945,0.05030617,1.9560859,0.5372250528256657,0.0,0.014645792542541197,0.0,200,0.03064560890197754,0.36487765195779515,0.32492668218207366,16400,0.3256674215264407,0.0
82,1.2136423587799072,0.4534497792890336,0.2896943339368386,0.8585039251400812,0.10826472744573243,0.0,0.1286180984449878,0.1,0.0020744800567626953,0.038478851318359375,0.0499397,1.2670145,0.5288475254720025,0.0,0.009066068031018844,0.0,200,0.029375791549682617,0.47844151402361756,0.44024080946542987,16600,0.5565618068921355,0.0
83,1.2499957084655762,0.6460701906236388,0.16057196629181422,0.908897873895419,0.4832391581677317,0.0,0.12448922448947328,0.1,0.002015352249145508,0.0378262996673584,0.049661145,1.2662717,0.5405697919871661,0.0,0.012826822154117772,0.0,200,0.01759481430053711,0.10074456044115747,0.10929089514758777,16800,0.6084503344035553,0.0
84,1.2491419315338135,0.627953861400165,0.34917162991495404,1.103736934874412,0.19693080043441755,0.0,0.12398006221584162,0.1,0.002095937728881836,0.03732919692993164,0.049129676,1.4936618,0.549308198928466,0.0,0.012308844549898341,0.0,200,0.04634237289428711,0.2786837402302284,0.27273539975834643,17000,0.5772134816662902,0.0
85,1.193342924118042,0.63847422075425,0.3524706057060389,0.9805484288920833,0.0619222447810906,0.0,0.1263951208637233,0.1,0.001989603042602539,0.040454864501953125,0.050069705,0.92835546,0.5582248011110444,0.0,0.012744560208330646,0.0,200,0.03615212440490723,0.2893898475956629,0.28112750371060535,17200,0.9606013124397171,0.0
86,1.2245869636535645,0.44388983808689414,0.25493415243557255,0.8427434898100317,0.21823672824615498,0.0,0.13320814478559864,0.1,0.0021820068359375,0.03953981399536133,0.05051,1.2803483,0.5467913048086294,0.0,0.008783201826548938,0.0,200,0.04766345024108887,0.41657493787685546,0.3633890150202441,17400,0.7485375650034506,0.0
87,1.2265868186950684,0.444130184166704,0.23410052226441325,0.7852775494982783,0.13105571282858164,0.0,0.125446429266812,0.1,0.0020186901092529297,0.03843522071838379,0.04910026,1.087232,0.5365251927444369,0.0,0.008832713559968128,0.0,200,0.030292987823486328,0.33231128322916637,0.2836238530082134,17600,0.9296349006404422,0.0
88,1.2394957542419434,0.29047611117556416,0.16516124873344926,0.5411287276144555,0.13733366117563583,0.0,0.12238818820628328,0.1,0.002232789993286133,0.039537668228149414,0.0490988,1.8322015,0.5119202845875496,0.0,0.005804502044000895,0.0,200,0.04803037643432617,0.5954001137396621,0.3630448292097657,17800,0.8570740284309245,0.0
89,1.2884883880615234,0.7083421695824228,0.36505346068698813,1.0287353231825798,0.10039471608845042,0.0,0.12733595837446646,0.1,0.0023326873779296875,0.03977465629577637,0.05040583,0.7972902,0.531562473087037,0.0,0.014084356875582049,0.0,200,0.020357131958007812,0.4145486861751877,0.4043050724351957,18000,1.425297064597786,0.0
90,1.2527127265930176,0.8246939844424532,0.39167648908619496,1.3804407136487966,0.38966653379950267,0.0,0.1290062986592198,0.1,0.0021033287048339844,0.03765106201171875,0.050365597,1.3581325,0.5608756242225786,0.0,0.016332525007014903,0.0,200,0.017734766006469727,0.45809292209962366,0.34587906416541264,18200,1.6069023205638626,0.0
91,1.261472225189209,0.2954867442290018,0.1855865649925966,0.5876869526572293,0.07865234519717346,0.0,0.13337412692223125,0.1,0.0020208358764648438,0.03758406639099121,0.05038868,1.2574544,0.534336736223221,0.0,0.005744264083550463,0.0,200,0.02854466438293457,0.6883368563319091,0.9427640012001891,18400,1.6330470117418858,0.0
92,1.2856202125549316,0.3247103289288706,0.3260721561503219,0.8713232623980578,0.039035734556030606,0.0,0.1255971448802541,0.1,0.002056598663330078,0.03747081756591797,0.049664117,2.3731294,0.513374095493786,0.0,0.006461156518626537,0.0,200,0.0382843017578125,0.8063715396093508,0.6875460120548657,18600,1.1257994274883474,0.0
93,1.3030622005462646,0.5073719239795985,0.27584604472660246,0.8414493288203843,0.09011835257354768,0.0,0.12592184343032647,0.1,0.0021996498107910156,0.03864574432373047,0.049829345,1.2248939,0.5127738783423672,0.0,0.009989781804666578,0.0,200,0.06541180610656738,0.256734836263728,0.2615825716106753,18800,1.260382127519955,0.0
94,1.2547049522399902,0.8065498831827781,0.47246233177832236,1.589867471183976,0.3320464989560802,0.0,0.12626518199105435,0.1,0.0024552345275878906,0.04459571838378906,0.050077096,1.7438018,0.5421514788264084,0.0,0.015894986615242718,0.0,200,0.07413196563720703,0.4091445034540621,0.37634603025904967,19000,1.4042215734952508,0.0
95,1.2352983951568604,0.5508017838911683,0.28960531536188894,0.9613748245477357,0.22073447266686866,0.0,0.12717264634491363,0.1,0.002322673797607422,0.04419994354248047,0.049724855,1.0651212,0.5430165093328844,0.0,0.010979691303591953,0.0,200,0.0314173698425293,0.2778038278198714,0.2717082606044443,19200,1.5557499665071044,0.0
96,1.2642791271209717,0.7715917510704797,0.17222694103454014,1.0185918509437066,0.5925595665489796,0.0,0.1332628371625096,0.1,0.007142782211303711,0.20512843132019043,0.049471688,1.1695125,0.5658740335066439,0.0,0.015312889821813986,0.0,200,0.06136441230773926,0.15750138685169,0.11879936209829067,19400,1.581697046262817,0.0
97,1.2551071643829346,0.8808157731573028,0.4266344052095807,1.513704121590733,0.3660069576352409,0.0,0.12959290366268475,0.1,0.0020775794982910156,0.042052507400512695,0.049501747,1.127969,0.5973682074717098,0.0,0.017185011981398383,0.0,200,0.038134098052978516,0.2894651105594421,0.24851839192687022,19600,1.65960486146681,0.0
98,1.326225757598877,1.0435781643952247,0.2792299873664124,1.4628120060841263,0.7089661204605537,0.0,0.1297509431092594,0.1,0.002594470977783203,0.04241609573364258,0.05048462,1.1797246,0.6419892031640613,0.0,0.020728303087767193,0.0,200,0.026223421096801758,0.16221532996048812,0.1120269282571234,19800,1.812961285255228,0.0
99,1.3034064769744873,0.9685676581706789,0.4934720075886847,1.7206982869478893,0.4200133626748753,0.0,0.13011401169927242,0.1,0.006289243698120117,0.038826942443847656,0.050124407,1.2729648,0.6746470486647231,0.0,0.01905204007316848,0.0,200,0.033394813537597656,0.2600768331275225,0.2702276688838564,20000,1.5065864487597393,0.0
100,1.310492753982544,0.4731960713835785,0.12533978683411548,0.6383205981527198,0.3083862352854996,0.0,0.1319399978457133,0.1,0.002120494842529297,0.0377810001373291,0.049735527,1.0188085,0.6545019509366087,0.0,0.00923817732214949,0.0,200,0.05393671989440918,1.5518048848361679,0.5447529262390477,20200,0.942520179178835,0.0
101,1.2893455028533936,0.6701554477975042,0.31108244689212394,0.8778757571274932,0.1322210397827421,0.0,0.12361869561607505,0.1,0.0019659996032714844,0.038140058517456055,0.050084516,1.809519,0.6560673006226982,0.0,0.013308078569277865,0.0,200,0.04038262367248535,0.2818204516091288,0.2634283158392938,20400,1.3555380899355607,0.0
102,1.3854713439941406,0.75272197175456,0.42160152990208166,1.4009316730932442,0.3032794093370035,0.0,0.1344402010705555,0.1,0.002147674560546875,0.03957772254943848,0.049232095,1.3095173,0.6657327677358844,0.0,0.014753004568857433,0.0,200,0.14529871940612793,0.30554063516788443,0.33545686335307623,20600,1.9002913992859158,0.0
103,1.3004345893859863,0.8353755464255765,0.34461443778700696,1.3774025383030375,0.5066054637281256,0.0,0.12130943221840312,0.1,0.002088308334350586,0.03994607925415039,0.049331807,1.990149,0.6826970456048537,0.0,0.016558056300869376,0.0,200,0.02170848846435547,0.32597884572608854,0.29752926767980387,20800,1.9309936267950494,0.0
104,1.350858211517334,0.6452658841599258,0.15115418391927782,0.8515007510902797,0.4471102153334575,0.0,0.12975002650951678,0.1,0.024034500122070312,0.03799271583557129,0.04949697,1.4849362,0.6789539294603609,0.0,0.012799467228420203,0.0,200,0.021799802780151367,0.07265363434392778,0.07882809707741227,21000,1.4178254205005845,0.0
105,1.3200340270996094,0.5621198537058713,0.2783054512110517,0.832928150011704,0.10343793827848531,0.0,0.130602784519509,0.1,0.0020956993103027344,0.038611650466918945,0.05012024,0.85536546,0.667270521884912,0.0,0.010977486142535452,0.0,200,0.05769991874694824,0.2479198158238178,0.2528718208297222,21200,1.0996280540008205,0.0
106,1.2987420558929443,0.8147196151063778,0.12798257105945263,0.965217961873476,0.6653206079453293,0.0,0.1319809944266654,0.1,0.002017498016357422,0.03737783432006836,0.05057555,0.9777329,0.6820154312070585,0.0,0.016141309959946733,0.0,200,0.05281662940979004,0.09899186352489397,0.08956093717544311,21400,1.3226458635309186,0.0
107,1.3029794692993164,0.7173885420619517,0.3969007921190818,1.3548424080432577,0.3099050313482207,0.0,0.13328876047024033,0.1,0.002180337905883789,0.05314445495605469,0.04964181,1.5034009,0.6855527422925479,0.0,0.01416911849224195,0.0,200,0.0307619571685791,0.27023543232879443,0.26377574823717226,21600,1.3404039847279232,0.0
108,1.311762809753418,0.7484323374762405,0.3916477929049688,1.4206048251548125,0.4590681772020238,0.0,0.1312754326555127,0.1,0.002091646194458008,0.03917884826660156,0.04962138,1.8145481,0.6918407018109172,0.0,0.014774931466091505,0.0,200,0.02206587791442871,0.23817001625986012,0.23220700929432453,21800,1.0986287099057528,0.0
109,1.3655338287353516,0.5580104262852585,0.10093952543820234,0.6996730171926656,0.4254999231152627,0.0,0.13156766786437166,0.1,0.00220489501953125,0.03797268867492676,0.05073453,1.0053146,0.6784576742583512,0.0,0.01081374590927244,0.0,200,0.022632122039794922,0.14652015525297155,0.14159176255864628,22000,0.9173596096781521,0.0
110,1.3803036212921143,0.6036946973169088,0.13759393744674306,0.8127856410672217,0.4474546904260953,0.0,0.1348903625838114,0.1,0.0021393299102783203,0.03713560104370117,0.049184266,1.0120342,0.670981376564207,0.0,0.011922324946008426,0.0,200,0.056943655014038086,0.12052737755878332,0.0957342456520464,22200,1.4799528551073318,0.0
111,1.397367238998413,0.700166470756852,0.3525135429799934,1.201608944087944,0.348018858065149,0.0,0.1307542005258302,0.1,0.0021674633026123047,0.03788280487060547,0.04971151,1.1713208,0.6738998859834715,0.0,0.013733384676326208,0.0,200,0.021907806396484375,0.22903912268390977,0.23355448679807272,22400,1.1090652650410957,0.0
112,1.426567554473877,0.4567993750534449,0.26607520992883554,0.89821703980955,0.19385687403499677,0.0,0.1334440407690497,0.1,0.0020923614501953125,0.03732562065124512,0.048944093,1.5126202,0.6521898348904689,0.0,0.009011104678379638,0.0,200,0.021661043167114258,0.4704447807601572,0.4137526197942265,22600,1.3243337723594093,0.0
113,1.3972187042236328,0.6368334439584031,0.3593358492770017,1.066793807611875,0.10303211476266164,0.0,0.1306525475672305,0.1,0.002125263214111328,0.03708386421203613,0.049629565,0.94641846,0.6506541957972624,0.0,0.012593649517915632,0.0,200,0.039259910583496094,0.29574488658798453,0.2971669531970523,22800,1.2556067038981185,0.0
114,1.3659780025482178,1.1030179488761744,0.5370968343698698,1.4971630932381275,0.18208229496091521,0.0,0.13502767756060077,0.1,0.0019414424896240234,0.037541866302490234,0.05063725,0.720131,0.6958905711051536,0.0,0.02137385467887168,0.0,200,0.030658960342407227,0.4049761665553194,0.3369991168425856,23000,1.1610616530355098,0.0
115,1.3170735836029053,0.7771414377373489,0.37287271772449315,1.312418227711261,0.29301613803307414,0.0,0.12375402670447849,0.1,0.0022687911987304688,0.03853964805603027,0.05005732,1.5809004,0.7040156577683732,0.0,0.015166836247021816,0.0,200,0.03062295913696289,0.2600025743147673,0.24525659281810255,23200,1.8682211229399606,0.0
116,1.3195784091949463,0.7147564459303922,0.22466163793938185,0.9953405288483013,0.40282553772562163,0.0,0.1205552861765618,0.1,0.0023946762084960938,0.038346052169799805,0.050105166,0.8755358,0.7050897365845751,0.0,0.013807927788706199,0.0,200,0.022368907928466797,0.09741886929584347,0.12020931923831084,23400,1.2874963217737483,0.0
117,1.3782868385314941,0.5186803471744508,0.3667581700749435,1.0065783960319523,0.1388248470643614,0.0,0.1284952040013976,0.1,0.0022368431091308594,0.04543948173522949,0.050296236,1.1237025,0.6864487976435626,0.0,0.010104619933585204,0.0,200,0.03122568130493164,0.7025794474609058,0.5649922198634798,23600,0.996894231401786,0.0
118,1.2904906272888184,0.522894373002836,0.1641443904281301,0.786430324556779,0.3432283694484353,0.0,0.13899104433987866,0.1,0.0021114349365234375,0.03819394111633301,0.049625937,0.9702323,0.6700933551794899,0.0,0.010413398690404002,0.0,200,0.03861093521118164,0.39124724564037183,0.16845891946718533,23800,1.4010135145477556,0.0
119,1.3422043323516846,0.6846443632454764,0.31850842813337304,1.092361770333387,0.2606692247230664,0.0,0.12896204845870332,0.1,0.0023827552795410156,0.03944540023803711,0.05017154,1.2415848,0.6715484559860886,0.0,0.013675238612722958,0.0,200,0.025034189224243164,0.2513644727680057,0.26864357413600437,24000,0.8726467942191456,0.0
120,1.2993884086608887,0.5520398522613222,0.29180528754102497,0.8548302500549511,0.10353347535907126,0.0,0.1282386356925555,0.1,0.002376079559326172,0.03967475891113281,0.049645834,1.0219642,0.659597595613612,0.0,0.010885880185322216,0.0,200,0.03503584861755371,0.2658066732051175,0.2663071460770547,24200,1.059149604514299,0.0
121,1.3296289443969727,0.8149027568250709,0.5553841007280667,1.4740973881361594,0.15055018842024173,0.0,0.12880719684817896,0.1,0.0021390914916992188,0.038926124572753906,0.050061215,1.0400915,0.675128111734758,0.0,0.015886422587613344,0.0,200,0.02156686782836914,0.45418148544886583,0.4353087903721649,24400,1.9118195708989392,0.0
122,1.371025800704956,0.4013844926645215,0.3621309195800019,0.9901931561581091,0.07173070990637374,0.0,0.1251010068834864,0.1,0.002119302749633789,0.03821277618408203,0.05073004,1.5090301,0.6477537498277344,0.0,0.007911952690485554,0.0,200,0.04406261444091797,0.4866594262702235,0.5035810298029791,24600,1.0702705359965876,0.0
123,1.3246779441833496,0.5445476080419723,0.1318826700461186,0.6514790011303654,0.3187729829185484,0.0,0.1169315689612911,0.1,0.0020749568939208984,0.03929924964904785,0.049683027,2.906084,0.6374331356491582,0.0,0.01081470797012157,0.0,200,0.01945781707763672,0.11416508830013716,0.11179529047103913,24800,1.8081501635244555,0.0
124,1.3729918003082275,0.5266153091937017,0.07329527884976915,0.6530112955164941,0.4761869645934768,0.0,0.12754878711967796,0.1,0.002125978469848633,0.037017107009887695,0.04998047,1.2640339,0.6263513530036126,0.0,0.010303133644475508,0.0,200,0.02305316925048828,0.08172848236119291,0.07994773281832414,25000,1.2573273357188746,0.0
125,1.3358690738677979,0.9073648519373969,0.26511091233662615,1.3477671934390076,0.6441195802047599,0.0,0.13680007995384208,0.1,0.0020647048950195312,0.03914070129394531,0.049783524,0.86997294,0.654452702896991,0.0,0.017769589629283537,0.0,200,0.03385305404663086,0.2738649351190576,0.23863215536123428,25200,1.3998548567609326,0.0
126,1.3993439674377441,0.574728087618749,0.16865563995369243,0.7203197448536277,0.2962563108874684,0.0,0.1278556047039842,0.1,0.002096891403198242,0.046840667724609375,0.04957666,0.9219515,0.6464802413691668,0.0,0.01120646008603697,0.0,200,0.02200150489807129,0.11512459292226813,0.12512288966387264,25400,1.3492542335447257,0.0
127,1.389887809753418,0.8871144989478081,0.08802588951543341,0.9784701555452512,0.7423294552132403,0.0,0.12864743931759962,0.1,0.0022521018981933594,0.03789210319519043,0.049853224,1.044341,0.6705436671270311,0.0,0.01738682197553959,0.0,200,0.057753801345825195,0.1363287975826077,0.10430718557151758,25600,1.15536788477848,0.0
128,1.3534352779388428,0.6852580488424942,0.32543383988166913,1.2212230704971256,0.35162123252238503,0.0,0.12631859528006573,0.1,0.00205230712890625,0.038482666015625,0.049464226,1.628261,0.6720151052985774,0.0,0.013307179447342596,0.0,200,0.030158042907714844,0.23314258684463735,0.24079549284554025,25800,1.0107503065990788,0.0
129,1.3799540996551514,0.7067099566729466,0.2034029289312108,0.9193232377130262,0.40536952114936564,0.0,0.13007976215901082,0.1,0.0020792484283447266,0.03838348388671875,0.049885675,1.0195575,0.6754845904360144,0.0,0.013776156163016227,0.0,200,0.02132558822631836,0.17341670213955238,0.16861065050514476,26000,0.584063470701144,0.0
130,1.3588001728057861,0.7885024852774645,0.0834997170362839,0.9194083814338563,0.7055359137123869,0.0,0.13945343728959453,0.1,0.0019850730895996094,0.03767514228820801,0.05021144,0.72926486,0.6867863799201595,0.0,0.015421828023989842,0.0,200,0.06929683685302734,0.05856163534644284,0.05155573085829515,26200,0.3858708666009864,0.0
131,1.367241621017456,0.9983349918858577,0.41602251671244567,1.566126075230573,0.5536978240023344,0.0,0.13259505703960195,0.1,0.0019986629486083984,0.04189610481262207,0.04987683,1.1689658,0.7179412411167293,0.0,0.019778373556611595,0.0,200,0.03839731216430664,0.22430337857927216,0.21078002882511812,26400,0.6169932890169002,0.0
132,1.3605453968048096,0.37522996438045814,0.17121104869586062,0.6332233545499277,0.15214593707408286,0.0,0.13112269524639017,0.1,0.002038717269897461,0.038964271545410156,0.049370557,0.86346656,0.6836701134431021,0.0,0.007303617718604118,0.0,200,0.04622244834899902,1.2735377257985865,1.040907147945828,26600,0.24744348458174906,0.0
133,1.7199387550354004,0.6587337191370206,0.16524882485073605,0.8816482878346728,0.42475543611901717,0.0,0.12594737645119516,0.1,0.0020792484283447266,0.039710044860839844,0.049231753,1.86377,0.6811764740124939,0.0,0.012956487990675551,0.0,200,0.0323328971862793,0.12817932478652205,0.09814053637324409,26800,0.22287475778240226,0.0
134,1.3078491687774658,0.6606299347201421,0.47448650115697766,1.4800445531608986,0.3371805310072655,0.0,0.12859318816988205,0.1,0.0021944046020507812,0.039557456970214844,0.05010062,1.4898471,0.6791218200832587,0.0,0.012744933312043174,0.0,200,0.017489910125732422,0.35312468088365173,0.3577455215236332,27000,0.24063924399840977,0.0
135,1.3528861999511719,0.7263767386285673,0.4522891723743377,1.2916216748734686,0.14294010853667152,0.0,0.12755645119306738,0.1,0.0021810531616210938,0.038496971130371094,0.04958324,1.2334863,0.6838473119377896,0.0,0.014120023709955099,0.0,200,0.03562188148498535,0.34558735285681597,0.3346136370729035,27200,0.218000040557059,0.0
136,1.4378139972686768,0.8019775180622098,0.12640149164456965,0.9813469714455781,0.6732999809591749,0.0,0.12032550651635043,0.1,0.0021605491638183594,0.0385432243347168,0.04902923,0.82144624,0.6956603325502316,0.0,0.015622944754311214,0.0,200,0.05722522735595703,0.13240880770815486,0.10316961946188428,27400,0.21544805068925035,0.0
137,1.3205666542053223,0.7351535872060994,0.33290251743789123,1.2739408833083967,0.3666862163999454,0.0,0.12714350404797964,0.1,0.002084970474243164,0.039138078689575195,0.049135543,2.3025808,0.6996096580158184,0.0,0.014526062163061893,0.0,200,0.017871379852294922,0.22603632539017418,0.22306768686212025,27600,0.22518862001625192,0.0
138,1.3143682479858398,0.8335275205023396,0.30918256136621625,1.1196555914152333,0.3323282402606603,0.0,0.13370087191002475,0.1,0.0020601749420166016,0.04292726516723633,0.04949665,0.98892456,0.7130014442644705,0.0,0.01623511387786704,0.0,200,0.021631240844726562,0.15286225230008713,0.1429214310641973,27800,0.30266718462490816,0.0
139,1.3230998516082764,0.8711182892998683,0.25501970484852743,1.157952752626266,0.5361519545995872,0.0,0.1248275543292141,0.1,0.0020711421966552734,0.0404202938079834,0.050169803,1.4259343,0.7288131287680103,0.0,0.016939065836325026,0.0,200,0.034227609634399414,0.11721084442136777,0.1060337905564147,28000,0.359550799218095,0.0
140,1.315450668334961,0.6072776858368159,0.19116323567683532,0.8962681826011073,0.4093802783045266,0.0,0.1253909366567149,0.1,0.002073049545288086,0.050821542739868164,0.049954776,1.0864484,0.7166595844748909,0.0,0.011890839608665327,0.0,200,0.04371333122253418,0.30168481393872504,0.2507823795046343,28200,0.3449502446502631,0.0
141,1.3548333644866943,0.4651840559801761,0.18613126622307835,0.6735089526637322,0.21960571763920417,0.0,0.13312045853420912,0.1,0.0020322799682617188,0.04113626480102539,0.049668483,1.0820729,0.6915120316254194,0.0,0.009159778894814544,0.0,200,0.030425071716308594,0.6320053659134498,0.363150610040683,28400,0.2624804290624852,0.0
142,1.3497748374938965,0.7074422147542218,0.33423769109262724,1.2690028485981453,0.3962468501562818,0.0,0.13239508166588934,0.1,0.0025615692138671875,0.043257713317871094,0.04982962,1.3631941,0.6931050499382996,0.0,0.013740260183650538,0.0,200,0.05260658264160156,0.20003823739453996,0.21718640525574276,28600,0.302617361765892,0.0
143,1.3796436786651611,0.7993027452330221,0.2607145401155778,1.2250281321770307,0.518283789775685,0.0,0.1179962635982084,0.1,0.0026352405548095703,0.03854107856750488,0.04916956,1.7891217,0.7037248194677719,0.0,0.01587842097776889,0.0,200,0.04735708236694336,0.20961070310949592,0.2104181961148761,28800,0.9125215412428908,0.0
144,1.3607940673828125,0.7242446285332903,0.19552905389298625,0.9707088082946745,0.4348332816246459,0.0,0.12411430111874741,0.1,0.002077341079711914,0.038591623306274414,0.04955139,1.2253528,0.7057768003743238,0.0,0.014329000290820595,0.0,200,0.052289724349975586,0.11598740143072787,0.10666348347574427,29000,1.179847471888419,0.0
145,1.5191876888275146,0.8165655043493942,0.4884893165358111,1.5210908598915263,0.2668086877004146,0.0,0.1323509619657151,0.1,0.0020294189453125,0.054593563079833984,0.04994159,1.1927687,0.7168556707718309,0.0,0.015943889229391252,0.0,200,0.03989362716674805,0.32941198348348527,0.3104040562292976,29200,1.0619276012668664,0.0
146,1.3687705993652344,0.46345291870965016,0.256665232380389,0.8675230435503503,0.1720858799688238,0.0,0.1222367687608774,0.1,0.002303600311279297,0.03845477104187012,0.0496897,2.0462341,0.6915153955656128,0.0,0.009062796246631637,0.0,200,0.027125835418701172,0.5001112524181128,0.4925439687180082,29400,2.0273335238230357,0.0
147,1.3842041492462158,0.5194484988814239,0.11492275025043351,0.6186638683116502,0.32391847967749854,0.0,0.13121878108062704,0.1,0.0020003318786621094,0.03744244575500488,0.04946395,1.6250821,0.6743087058971939,0.0,0.01015186913008031,0.0,200,0.02400803565979004,0.17602581996664549,0.1319952287414019,29600,1.9141618048653346,0.0
148,1.45231032371521,0.7787459546727585,0.48371517132176456,1.3655991770851972,0.04390499755532462,0.0,0.13102617124453153,0.1,0.0021102428436279297,0.03876614570617676,0.050008398,1.0584893,0.6847524307747503,0.0,0.015402062608100474,0.0,200,0.035250186920166016,0.32444714173307165,0.3316966526395159,29800,2.011787327017949,0.0
149,1.4807713031768799,0.6883707386372702,0.2803464797609059,0.9178247612530553,0.2095175324837847,0.0,0.13151066980784634,0.1,0.0021467208862304688,0.03763985633850098,0.05015837,0.7990685,0.6851142615610024,0.0,0.013573194450474932,0.0,200,0.04675936698913574,0.19248948528854828,0.18763896110386905,30000,2.0862022625595844,0.0
150,1.7365326881408691,0.4358661534723752,0.07536907267011317,0.544906709168699,0.34122192971701554,0.0,0.13015598377575646,0.1,0.002076387405395508,0.04141521453857422,0.049085684,1.2161283,0.6601894507521398,0.0,0.008659044652315283,0.0,200,0.026493310928344727,0.2962653118241045,0.24812969632058005,30200,1.7598619300170917,0.0
151,1.4176058769226074,0.9458701651873784,0.3351734686845809,1.3369852892345462,0.5915145979883303,0.0,0.12775958901395126,0.1,0.002500295639038086,0.039893388748168945,0.050592884,1.1139807,0.6887575221956637,0.0,0.0185247147531581,0.0,200,0.04064607620239258,0.24384616850055138,0.22447239296025964,30400,1.9209028387626932,0.0
152,1.503495693206787,0.9657853409741237,0.5977178716956149,1.9628278235477206,0.4765564935354663,0.0,0.1293370671517987,0.1,0.002286195755004883,0.03874850273132324,0.0497934,1.6538527,0.7164603040735097,0.0,0.018891795455107326,0.0,200,0.04267477989196777,0.3815472468364831,0.33563930040036255,30600,1.3130930464955866,0.0
153,1.4787309169769287,0.7405972040566755,0.47947338786795335,1.5652272166402972,0.3998456001489344,0.0,0.13602514954273714,0.1,0.0023164749145507812,0.04006171226501465,0.049644727,1.3945,0.7188739940718263,0.0,0.014467152469243266,0.0,200,0.017112016677856445,0.3498137947053187,0.3616143060230226,30800,1.5062122750831524,0.0
154,1.4433801174163818,0.4511156986597993,0.2089451125232929,0.7222408882498819,0.1438402292119629,0.0,0.12533881309065423,0.1,0.0024983882904052734,0.038919687271118164,0.04954715,1.5243368,0.6920981645306237,0.0,0.00891969136601202,0.0,200,0.026093721389770508,0.8921581142780882,0.6962275514616045,31000,0.99618145988968,0.0
155,1.4186384677886963,0.7650279477111659,0.4334483947569781,1.3181299589693636,0.14245303206320875,0.0,0.126072523009475,0.1,0.0023779869079589844,0.03897213935852051,0.04972886,1.1023924,0.6993911428486779,0.0,0.01495942248670498,0.0,200,0.031835317611694336,0.26299695788236827,0.26284168017835285,31200,0.7538212681148361,0.0
156,1.4728777408599854,0.997494263582549,0.4309090572194549,1.5839316553285887,0.5025920461970012,0.0,0.1343868126811622,0.1,0.0020623207092285156,0.04030895233154297,0.05051969,1.1331724,0.729201454922065,0.0,0.019360081167063354,0.0,200,0.021490812301635742,0.2528088011181302,0.24055262035015051,31400,0.3141970938870537,0.0
157,1.431645393371582,0.7879209202566473,0.514306809810189,1.5008097715906517,0.13672244284833335,0.0,0.12489086078078358,0.1,0.0020554065704345703,0.03943943977355957,0.050414898,1.1364545,0.7350734014555232,0.0,0.015478907205134316,0.0,200,0.04760313034057617,0.3361626323852802,0.33539870583922293,31600,0.5990153837167068,0.0
158,1.4301395416259766,0.6891587532048264,0.49484697926570986,1.236817168101109,0.13940247494847022,0.0,0.13160698671849058,0.1,0.0021698474884033203,0.0379793643951416,0.050205708,0.99652785,0.7304819366304536,0.0,0.013377510973834349,0.0,200,0.046418190002441406,0.46881938640426285,0.4672842891692418,31800,0.6533902333371524,0.0
159,1.4074852466583252,1.1180181359457448,0.3904676533802969,1.5010185037019772,0.4965860543701705,0.0,0.1282283596605086,0.1,0.0021333694458007812,0.038257598876953125,0.049395103,1.0897117,0.7692355565619827,0.0,0.021910883867420527,0.0,200,0.02615809440612793,0.20147546506985847,0.17160737619320565,32000,1.8048409675026642,0.0
160,1.424360990524292,0.8591486520844993,0.4264177366934818,1.3875980775785004,0.41279606297466087,0.0,0.13228377778432684,0.1,0.0020513534545898438,0.037508487701416016,0.04992555,1.1269869,0.7782268661142344,0.0,0.016933506298809402,0.0,200,0.05171656608581543,0.27370140754759603,0.2895795029262855,32200,1.6711559053539917,0.0
161,1.538614273071289,0.699483055653746,0.19255152190728794,0.9855077280789799,0.47831444489789027,0.0,0.12840473660714039,0.1,0.0021474361419677734,0.04317426681518555,0.050284185,1.4716246,0.7703524850681855,0.0,0.013784839969121547,0.0,200,0.02627396583557129,0.2091337459578873,0.15714292550240663,32400,1.3148781489514165,0.0
162,1.4763004779815674,0.7649200317958584,0.035100967556468424,0.8057118722851501,0.7144843212847488,0.0,0.1336041292621498,0.1,0.002003908157348633,0.041095733642578125,0.050534762,1.3974475,0.7698092397409528,0.0,0.015075947570925372,0.0,200,0.027086734771728516,0.07465786077620976,0.03692668838123837,32600,1.6023046468508486,0.0
163,1.513556957244873,1.1684470049100377,0.22923396606962765,1.502552091370989,0.9554934780323576,0.0,0.13119492959972504,0.1,0.005812168121337891,0.039032697677612305,0.049918022,0.8454655,0.8096730162578614,0.0,0.022807204331819618,0.0,200,0.025844097137451172,0.15426979446346248,0.15365433867749395,32800,0.8850545838226668,0.0
164,1.4715847969055176,0.597363956343502,0.3469925465828617,1.1180984180584521,0.21119245084692104,0.0,0.12963081037371132,0.1,0.002060413360595703,0.03861188888549805,0.049812436,1.2001617,0.7884421102664254,0.0,0.011781249601385503,0.0,200,0.033646345138549805,0.37703001276045345,0.3613937134839808,33000,1.7947126687152946,0.0
165,1.5449151992797852,1.1553118109517488,0.5775049533170001,1.7058413168837863,0.27808773033769635,0.0,0.12651990852446687,0.1,0.002034902572631836,0.038938045501708984,0.04999849,1.0127739,0.8251290803349578,0.0,0.022654487339041716,0.0,200,0.013004064559936523,0.2965669946778621,0.2719872477721563,33200,1.455133823497951,0.0
166,1.5241034030914307,0.9666833867039524,0.21399468159812565,1.1726089301143607,0.6096525912013702,0.0,0.13251612551648842,0.1,0.002044200897216797,0.037609100341796875,0.05021285,1.1096634,0.8392845109718573,0.0,0.01908275325633214,0.0,200,0.018579959869384766,0.103015246091718,0.09267331739322769,33400,0.6953916289412225,0.0
167,1.4370708465576172,0.7403262902543194,0.2689281023480987,1.1511684235251072,0.4530939457287693,0.0,0.13563813987610046,0.1,0.002256631851196289,0.04036426544189453,0.04999565,1.5261862,0.8293886889001035,0.0,0.014390374493759135,0.0,200,0.03498244285583496,0.2131175321420992,0.22416109791238853,33600,1.035444983196371,0.0
168,1.474137544631958,0.7778522894004314,0.2878268342153451,1.2274373687603097,0.45173445390115424,0.0,0.1388333365102223,0.1,0.0021822452545166016,0.04008793830871582,0.049886923,1.657083,0.8242350489501363,0.0,0.01510138634158886,0.0,200,0.03872060775756836,0.20071511369560163,0.17854027705319075,33800,0.32507817320334803,0.0
169,1.466343641281128,1.1016659267146922,0.3559803197608051,1.5852769433073415,0.5868801229629784,0.0,0.12794403172977925,0.1,0.002329587936401367,0.04324221611022949,0.048886057,1.3827606,0.851978136726592,0.0,0.021711218986797627,0.0,200,0.0298922061920166,0.16155038817861697,0.163010420956871,34000,0.7101864056653736,0.0
170,1.5752887725830078,1.0360704209681169,0.4043571596163745,1.6104921760710282,0.6159735083828223,0.0,0.12918103194141212,0.1,0.004040956497192383,0.061669111251831055,0.049608286,1.147584,0.8703873651507444,0.0,0.020229031098356415,0.0,200,0.11212921142578125,0.18203497495601334,0.1691718398273874,34200,0.42357354479270254,0.0
171,1.4659221172332764,1.0277391874259174,0.47478610074903355,1.62842572201825,0.36098182781663496,0.0,0.13205089663391642,0.1,0.002054452896118164,0.03798556327819824,0.04938804,0.9134388,0.8861225473782618,0.0,0.020023319216794566,0.0,200,0.025643348693847656,0.21654336147420922,0.21006229682701477,34400,0.439131584837478,0.0
172,1.4623370170593262,0.8797192684536094,0.34794140647923316,1.2040103725288933,0.2927636778870409,0.0,0.12747053338733752,0.1,0.002196788787841797,0.03937673568725586,0.05049489,0.9238752,0.8854822194857965,0.0,0.01703703302436116,0.0,200,0.042763471603393555,0.18934226051780656,0.18614152683256693,34600,0.32503937055223375,0.0
173,1.5230956077575684,0.9319073476700688,0.42622688247005747,1.431835895636794,0.2531216731375389,0.0,0.12431756748048993,0.1,0.0033063888549804688,0.04338431358337402,0.05086097,1.0160718,0.8901247323042238,0.0,0.0180920562690579,0.0,200,0.03164505958557129,0.216925050406399,0.20452667736895488,34800,0.2768275590863087,0.0
174,1.489957332611084,1.0236353277947658,0.3568438776886812,1.398416984830372,0.6152489877226104,0.0,0.1297738904718534,0.1,0.0022063255310058594,0.03876233100891113,0.04976642,1.1720452,0.9034757918532781,0.0,0.020237814289818464,0.0,200,0.04887747764587402,0.14973936938152754,0.14725971480674832,35000,0.3722978454510481,0.0
175,1.5835373401641846,0.7478134988613825,0.5197034972640364,1.546332616131705,0.08999090139663474,0.0,0.12398178880223468,0.1,0.002049684524536133,0.03790903091430664,0.050661426,1.0768628,0.8879095625540886,0.0,0.014693024778304437,0.0,200,0.06840133666992188,0.3618159796747632,0.33835217216544206,35200,0.24619574459900717,0.0
176,1.4756741523742676,1.0248235093774767,0.48571167575914587,1.7776414937328409,0.43073411761977604,0.0,0.1270140010492842,0.1,0.0021216869354248047,0.037514686584472656,0.049905322,1.7582915,0.9016009572364274,0.0,0.01983758279681004,0.0,200,0.019427061080932617,0.21017346408558443,0.21069153708653737,35400,0.24360900066368849,0.0
177,1.5137009620666504,0.740230236266396,0.42048496410459285,1.3166247176259074,0.31115076787073787,0.0,0.12066680418560508,0.1,0.0020475387573242188,0.04071545600891113,0.05002327,1.3204826,0.8854638851394243,0.0,0.014399055967913264,0.0,200,0.05054974555969238,0.29252797133080854,0.28685658192018837,35600,0.21828513194555257,0.0
178,1.4941024780273438,0.9190684358342939,0.471284961285468,1.728025627923547,0.5490639756480592,0.0,0.1266161014262055,0.1,0.0028502941131591797,0.04717540740966797,0.050140534,2.010274,0.8888243402089113,0.0,0.01796067241254258,0.0,200,0.07761597633361816,0.2216503445291591,0.2203805766617115,35800,0.20532550935084556,0.0
179,1.5817110538482666,1.3602470572818879,0.4600777091801192,1.7026019359083568,0.5697870919492074,0.0,0.13505329978509953,0.1,0.002064943313598633,0.03758382797241211,0.05016051,0.7999662,0.935966611916209,0.0,0.02650435782724834,0.0,200,0.017493724822998047,0.2263734352594495,0.17664611172418523,36000,0.20077401844240436,0.0
180,1.501305103302002,0.9769833347139002,0.45556245413235397,1.5802063480703183,0.3048578051445594,0.0,0.13290943413838477,0.1,0.0020122528076171875,0.03819537162780762,0.04995573,0.8939444,0.9400682841959781,0.0,0.01885434572406032,0.0,200,0.035017967224121094,0.20873060024979992,0.22984481271648374,36200,0.27266712570807,0.0
181,1.540745496749878,0.7415039946950617,0.288966826880335,1.1907360715663333,0.4010716583971415,0.0,0.13114209233667248,0.1,0.0023810863494873047,0.03856039047241211,0.050570145,1.120477,0.9202118552458864,0.0,0.014472172585629281,0.0,200,0.04256725311279297,0.446001649028741,0.3016158047293482,36400,0.25882701872139113,0.0
182,1.430025577545166,0.9779303748916661,0.5364260361832506,1.846035848698253,0.4176836501290028,0.0,0.13283152151935199,0.1,0.0022263526916503906,0.03846001625061035,0.05017945,1.4631813,0.9259837072104644,0.0,0.018792785989300086,0.0,200,0.06506538391113281,0.25715407312835287,0.2567003019376494,36600,0.24555542585912626,0.0
183,1.5187599658966064,0.7289541030220822,0.28976998934708054,1.0987616528287585,0.4232370538757705,0.0,0.1287893419163523,0.1,0.002111673355102539,0.038643598556518555,0.05049372,1.068878,0.9062807467916263,0.0,0.01405618065944021,0.0,200,0.026053428649902344,0.21306953455593658,0.16576656136218604,36800,0.5661130299586683,0.0
184,1.4451875686645508,0.951749420190365,0.4199231608477777,1.4654020548124855,0.48315073026587535,0.0,0.12988899305561863,0.1,0.0021173954010009766,0.03766131401062012,0.050080724,0.94528025,0.9108276141315003,0.0,0.018446286200457494,0.0,200,0.05272388458251953,0.19265790154793605,0.20085688458063042,37000,0.5390425541108363,0.0
185,1.4507761001586914,0.7744194258316558,0.5628972524704701,1.7271080034734252,0.27042727749946144,0.0,0.1263096291020832,0.1,0.0020830631256103516,0.0589146614074707,0.050129727,1.370762,0.8971867953015159,0.0,0.015245795798839319,0.0,200,0.06444358825683594,0.3509951438870142,0.3481360924759637,37200,0.3821801956909158,0.0
186,1.4760067462921143,1.3824661018248876,0.10013582591341345,1.489000454373787,1.2180578845232293,0.0,0.12864665758126864,0.1,0.0021724700927734375,0.039016008377075195,0.050433002,1.0420766,0.9457147259538531,0.0,0.02689962146734315,0.0,200,0.026177406311035156,0.214786545911498,0.14958463234288324,37400,0.5534611105715659,0.0
187,1.6189470291137695,0.7714221572590743,0.23213147566673434,1.0679622499131545,0.44153947852633474,0.0,0.1254408804549897,0.1,0.0020666122436523438,0.038542747497558594,0.04961034,1.2568284,0.9282854690843751,0.0,0.015149711465097058,0.0,200,0.03910326957702637,0.19720613359931763,0.2683766714636578,37600,1.4923660075561604,0.0
188,1.5680906772613525,1.3443829261751021,0.5114871394342616,1.7995718389984432,0.5100271970385769,0.0,0.13175629296117028,0.1,0.0020759105682373047,0.03920269012451172,0.050172023,0.9141272,0.9698952147934479,0.0,0.026322046728935927,0.0,200,0.04727911949157715,0.2157812382742522,0.18838280576735728,37800,0.5389485547683988,0.0
189,1.5068621635437012,1.1327989761909685,0.42637139183578454,1.6090964423763314,0.44234645953097596,0.0,0.12500315171478818,0.1,0.002445697784423828,0.039597511291503906,0.0492242,0.9286188,0.9861855909331999,0.0,0.02194545867686108,0.0,200,0.08479166030883789,0.1350915889402524,0.13582911984135704,38000,0.41362073541558186,0.0
190,1.5213534832000732,1.0744875097214117,0.3015263396150297,1.462878395171646,0.750113387654276,0.0,0.1327377787548366,0.1,0.002185821533203125,0.040059566497802734,0.050134655,0.9576996,0.9950157828120212,0.0,0.020889932007947035,0.0,200,0.03856992721557617,0.13817778234485775,0.13286113346456102,38200,0.25651624006359863,0.0
191,1.6233277320861816,0.7498805538199038,0.317550416343152,1.1030194902329542,0.42988161574592704,0.0,0.13431052585846023,0.1,0.002031087875366211,0.03747200965881348,0.048947617,1.1375692,0.9705022599128095,0.0,0.014783720948740298,0.0,200,0.034725189208984375,0.6028770739721596,0.3507890853748322,38400,0.31194699700062584,0.0
192,1.5407557487487793,0.936480996997584,0.7929826962047211,1.7331600211996703,0.007871966412838884,0.0,0.13040307813238053,0.1,0.002082347869873047,0.05437421798706055,0.04946699,0.9576191,0.967100133621287,0.0,0.0183112600714573,0.0,200,0.08056163787841797,0.43840148481784885,0.426268787012892,38600,0.2558793565681528,0.0
193,1.5263338088989258,0.8917280444613526,0.608480531470777,1.5493908552839282,0.09208905982225662,0.0,0.12614495507496892,0.1,0.002039194107055664,0.0381779670715332,0.049956337,0.81280357,0.9595629247052936,0.0,0.017600301914340238,0.0,200,0.03686332702636719,0.35488311008032847,0.3686695608064573,38800,0.6555965126824901,0.0
194,1.5955195426940918,0.47632604295408787,0.2932189007946891,0.931935012902262,0.13057619650586952,0.0,0.1266958360267944,0.1,0.002066373825073242,0.04102921485900879,0.049598888,0.957446,0.911239236530173,0.0,0.009414851142142622,0.0,200,0.017940044403076172,0.5565638878630702,0.41748469863352416,39000,0.4086593210144776,0.0
195,1.5135910511016846,1.076665017283782,0.5390560010025012,1.960614030706825,0.5999779271930998,0.0,0.13045629192391495,0.1,0.002276897430419922,0.038507699966430664,0.049548656,1.7982309,0.927781814605534,0.0,0.020791543070790883,0.0,200,0.03653693199157715,0.34198124032861216,0.3179942090120927,39200,0.5079604317926324,0.0
196,1.4457392692565918,1.1488956696219663,0.1589145454641444,1.3464031408172872,0.9348848364680924,0.0,0.13048929824401218,0.1,0.0027074813842773438,0.21347332000732422,0.049780272,0.74818975,0.9498932001071773,0.0,0.022161373737546595,0.0,200,0.060999155044555664,0.18928211644211243,0.11933438159884366,39400,1.2726778135174368,0.0
197,1.508962869644165,1.239967817907441,0.2821833808173767,1.7132152544963073,0.9791622840022035,0.0,0.11934804889652513,0.1,0.0020852088928222656,0.03905344009399414,0.049574014,2.6286907,0.9789006618872037,0.0,0.02404356367766506,0.0,200,0.06088733673095703,0.18752472473776582,0.12230014671256727,39600,1.3109381040589574,0.0
198,1.5590872764587402,1.2565922452770282,0.14490602399211583,1.3642659384493563,1.0083773536866225,0.0,0.1315099377368405,0.1,0.0020771026611328125,0.039406538009643555,0.0503041,0.88128793,1.0066698202261861,0.0,0.02449378751069702,0.0,200,0.017601728439331055,0.07568267972011222,0.051881268432137445,39800,1.6707022624346666,0.0
199,1.4954605102539062,1.3838236783333158,0.32224973607064294,1.8719172684337135,1.0844187799213816,0.0,0.13876981608819552,0.1,0.002117633819580078,0.039078474044799805,0.04980018,1.1683781,1.0443852060368992,0.0,0.027013220614320755,0.0,200,0.025641918182373047,0.10204701174677011,0.08828233042406702,40000,1.6857633538777328,0.0
200,1.543335199356079,1.1351133902361887,0.3616971467511098,1.6274440179762597,0.6079550142536734,0.0,0.12910541655090224,0.1,0.0020956993103027344,0.03894495964050293,0.05032718,1.3862938,1.0534580244568281,0.0,0.022248855130241458,0.0,200,0.04960012435913086,0.14092851897006686,0.1505552719100527,40200,1.7438717156712549,0.0
201,1.551811695098877,1.1339548401609436,0.4224910320494734,1.6117308812347952,0.4943464458439836,0.0,0.12979636515763152,0.1,0.0020782947540283203,0.0435032844543457,0.050091773,1.3497324,1.0615077060272398,0.0,0.022340050216645018,0.0,200,0.018622875213623047,0.25013647544595863,0.19313326037546716,40400,1.7995762376354518,0.0
202,1.5633885860443115,0.9797703299644736,0.4719749565802155,1.4970756629675999,0.24267789293614836,0.0,0.13542142372713745,0.1,0.0023386478424072266,0.040294647216796875,0.04979065,1.0113059,1.0533339684209633,0.0,0.019098234498600528,0.0,200,0.025800704956054688,0.30814573573051873,0.22494797629558452,40600,1.7869475213309274,0.0
203,1.546673059463501,0.7759437671635925,0.5232459253823609,1.4464505790082307,0.16248508735288997,0.0,0.12483963642453882,0.1,0.002048969268798828,0.03955411911010742,0.05049974,0.94191253,1.0255949482952262,0.0,0.01514620113945329,0.0,200,0.034516334533691406,0.5034672101172389,0.3950941121700192,40800,1.7020268542573005,0.0
204,1.583669662475586,1.4306938874929318,0.49824636970860775,1.917745821830132,0.6586249036433247,0.0,0.12593388896682706,0.1,0.0021066665649414062,0.04197263717651367,0.050212603,0.8366167,1.0661048422149968,0.0,0.027852836166064703,0.0,200,0.012957334518432617,0.252695422452067,0.2571381780256034,41000,1.7583353290783992,0.0
