Iter | Sampling Pol | Evaluation Pol | Best (Sampled) 
   0  0.02  0.02 -100000000.00 
   1  0.02  0.02  0.02 
   2  0.02  0.02  0.02 
   3  0.02  0.03  0.02 
   4  0.07  0.04  0.02 
   5  0.06  0.05  0.07 
   6  0.03  0.07  0.07 
   7  0.02  0.06  0.07 
   8  0.11  0.07  0.07 
   9  0.09  0.09  0.11 
  10  0.03  0.08  0.11 
  11  0.10  0.08  0.11 
  12  0.08  0.10  0.11 
  13  0.10  0.16  0.11 
  14  0.19  0.26  0.11 
  15  0.07  0.24  0.19 
  16  0.08  0.32  0.19 
  17  0.11  0.39  0.19 
  18  0.30  0.27  0.19 
  19  0.12  0.26  0.30 
  20  0.14  0.35  0.30 
  21  0.09  0.24  0.30 
  22  0.19  0.31  0.30 
  23  0.10  0.42  0.30 
  24  0.13  0.33  0.30 
  25  0.09  0.27  0.30 
  26  0.12  0.31  0.30 
  27  0.09  0.34  0.30 
  28  0.06  0.59  0.30 
  29  0.14  0.43  0.30 
  30  0.14  0.41  0.30 
  31  0.18  0.41  0.30 
  32  0.10  0.43  0.30 
  33  0.24  0.44  0.30 
  34  0.11  0.38  0.30 
  35  0.21  0.45  0.30 
  36  0.18  0.42  0.30 
  37  0.14  0.53  0.30 
  38  0.11  0.57  0.30 
  39  0.14  0.59  0.30 
  40  0.24  0.50  0.30 
  41  0.31  0.50  0.30 
  42  0.22  0.75  0.31 
  43  0.34  0.54  0.31 
  44  0.29  0.41  0.34 
  45  0.11  0.60  0.34 
  46  0.19  0.62  0.34 
  47  0.23  0.57  0.34 
  48  0.36  0.63  0.34 
  49  0.20  0.72  0.36 
  50  0.22  0.56  0.36 
  51  0.27  0.61  0.36 
  52  0.16  0.65  0.36 
  53  0.21  0.64  0.36 
  54  0.24  0.71  0.36 
  55  0.26  0.70  0.36 
  56  0.22  0.52  0.36 
  57  0.27  0.52  0.36 
  58  0.25  0.76  0.36 
  59  0.14  0.41  0.36 
  60  0.18  0.46  0.36 
  61  0.27  0.50  0.36 
  62  0.28  0.46  0.36 
  63  0.31  0.45  0.36 
  64  0.23  0.40  0.36 
  65  0.23  0.64  0.36 
  66  0.36  0.54  0.36 
  67  0.30  0.38  0.36 
  68  0.36  0.36  0.36 
  69  0.33  0.43  0.36 
  70  0.23  0.37  0.36 
  71  0.30  0.47  0.36 
  72  0.36  0.53  0.36 
  73  0.43  0.46  0.36 
  74  0.33  0.48  0.43 
  75  0.33  0.47  0.43 
  76  0.25  0.54  0.43 
  77  0.36  0.62  0.43 
  78  0.20  0.75  0.43 
  79  0.52  0.33  0.43 
  80  0.33  0.36  0.52 
  81  0.38  0.33  0.52 
  82  0.25  0.51  0.52 
  83  0.38  0.50  0.52 
  84  0.43  0.34  0.52 
  85  0.44  0.35  0.52 
  86  0.53  0.91  0.52 
  87  0.24  0.72  0.53 
  88  0.42  0.51  0.53 
  89  0.44  0.37  0.53 
  90  0.40  0.48  0.53 
  91  0.23  0.49  0.53 
  92  0.28  0.41  0.53 
  93  0.33  0.47  0.53 
  94  0.57  0.45  0.53 
  95  0.46  0.48  0.57 
  96  0.53  0.50  0.57 
  97  0.41  0.95  0.57 
  98  0.51  0.44  0.57 
  99  0.67  0.58  0.57 
 100  0.20  0.47  0.67 
 101  0.26  0.36  0.67 
 102  0.42  0.67  0.67 
 103  0.45  0.58  0.67 
 104  0.34  0.34  0.67 
 105  0.34  0.57  0.67 
 106  0.35  0.56  0.67 
 107  0.54  0.32  0.67 
 108  0.46  0.58  0.67 
 109  0.23  0.45  0.67 
 110  0.47  0.39  0.67 
 111  0.37  0.50  0.67 
 112  0.51  0.28  0.67 
 113  0.37  0.94  0.67 
 114  0.66  0.34  0.67 
 115  0.60  0.27  0.67 
 116  0.37  0.50  0.67 
 117  0.47  0.51  0.67 
 118  0.47  0.58  0.67 
 119  0.61  0.58  0.67 
 120  0.38  0.82  0.67 
 121  0.52  0.23  0.67 
 122  0.38  0.21  0.67 
 123  0.41  0.12  0.67 
 124  0.28  0.07  0.67 
 125  0.67  0.09  0.67 
 126  0.29  0.28  0.67 
 127  0.45  0.24  0.67 
 128  0.48  0.27  0.67 
 129  0.52  0.18  0.67 
 130  0.46  0.27  0.67 
 131  0.49  0.29  0.67 
 132  0.47  0.35  0.67 
 133  0.64  0.34  0.67 
 134  0.43  0.25  0.67 
 135  0.37  0.31  0.67 
 136  0.39  0.32  0.67 
 137  0.41  0.32  0.67 
 138  0.50  0.25  0.67 
 139  0.46  0.22  0.67 
 140  0.48  0.43  0.67 
 141  0.30  0.49  0.67 
 142  0.30  0.46  0.67 
 143  0.54  0.38  0.67 
 144  0.47  0.30  0.67 
 145  0.43  0.36  0.67 
 146  0.38  0.68  0.67 
 147  0.44  0.48  0.67 
 148  0.29  0.83  0.67 
 149  0.54  0.41  0.67 
 150  0.49  0.44  0.67 
 151  0.68  0.33  0.67 
 152  0.76  0.69  0.68 
 153  0.50  0.94  0.76 
 154  0.32  0.40  0.76 
 155  0.51  0.35  0.76 
 156  0.57  0.33  0.76 
 157  0.40  0.32  0.76 
 158  0.49  0.42  0.76 
 159  0.48  0.58  0.76 
 160  0.49  0.52  0.76 
 161  0.57  0.46  0.76 
 162  0.38  0.46  0.76 
 163  0.73  0.47  0.76 
 164  0.44  0.44  0.76 
 165  0.73  0.49  0.76 
 166  0.60  0.29  0.76 
 167  0.38  0.52  0.76 
 168  0.45  0.32  0.76 
 169  0.67  0.30  0.76 
 170  0.66  0.30  0.76 
 171  0.48  0.72  0.76 
 172  0.67  0.65  0.76 
 173  0.86  0.54  0.76 
 174  0.39  0.55  0.86 
 175  0.50  0.35  0.86 
 176  0.60  0.52  0.86 
 177  0.54  0.29  0.86 
 178  0.54  0.30  0.86 
 179  0.62  0.38  0.86 
 180  0.50  0.32  0.86 
 181  0.61  0.40  0.86 
 182  0.44  0.43  0.86 
 183  0.40  0.25  0.86 
 184  0.57  0.30  0.86 
 185  0.39  0.38  0.86 
 186  0.62  0.32  0.86 
 187  0.68  0.44  0.86 
 188  0.81  0.30  0.86 
 189  0.50  0.68  0.86 
 190  0.62  0.46  0.86 
 191  0.46  0.24  0.86 
 192  0.28  0.84  0.86 
 193  0.58  0.77  0.86 
 194  0.49  0.80  0.86 
 195  0.42  0.79  0.86 
 196  0.65  0.59  0.86 
 197  0.67  0.57  0.86 
 198  0.38  0.57  0.86 
 199  0.63  0.29  0.86 
 200  0.67  0.32  0.86 
 201  0.56  0.64  0.86 
 202  0.54  0.51  0.86 
 203  0.38  0.40  0.86 
 204  0.34  0.37  0.86 
 205  0.64  0.25  0.86 
 206  0.48  0.35  0.86 
 207  0.70  0.46  0.86 
 208  0.48  0.24  0.86 
 209  0.57  0.24  0.86 
 210  0.59  0.30  0.86 
 211  0.80  0.46  0.86 
 212  0.35  0.93  0.86 
 213  0.62  0.36  0.86 
 214  0.62  0.65  0.86 
 215  0.71  0.46  0.86 
 216  0.52  0.63  0.86 
 217  0.67  0.55  0.86 
 218  0.31  0.50  0.86 
 219  0.67  0.51  0.86 
 220  0.45  0.46  0.86 
 221  0.50  0.26  0.86 
 222  0.71  0.32  0.86 
 223  0.59  0.47  0.86 
 224  0.53  0.36  0.86 
 225  0.63  0.36  0.86 
 226  0.64  0.21  0.86 
 227  0.72  0.18  0.86 
 228  0.40  0.21  0.86 
 229  0.58  0.22  0.86 
 230  0.55  0.21  0.86 
 231  0.26  0.20  0.86 
 232  0.78  0.39  0.86 
 233  0.60  0.32  0.86 
 234  0.52  0.34  0.86 
 235  0.44  0.32  0.86 
 236  0.82  0.38  0.86 
 237  0.63  0.56  0.86 
 238  0.54  0.48  0.86 
 239  0.59  0.61  0.86 
 240  0.58  0.82  0.86 
 241  0.50  0.94  0.86 
 242  0.82  0.77  0.86 
 243  0.64  0.70  0.86 
 244  0.76  0.42  0.86 
 245  0.71  0.45  0.86 
 246  0.54  1.04  0.86 
 247  0.72  1.02  0.86 
 248  0.36  1.15  0.86 
 249  0.77  0.90  0.86 
 250  0.68  1.05  0.86 
 251  0.74  0.83  0.86 
 252  0.70  1.02  0.86 
 253  0.60  0.44  0.86 
 254  0.62  0.87  0.86 
 255  0.74  0.45  0.86 
 256  0.82  1.18  0.86 
 257  0.66  1.14  0.86 
 258  0.59  1.13  0.86 
 259  0.77  0.96  0.86 
 260  0.53  0.76  0.86 
 261  0.72  0.80  0.86 
 262  0.45  0.70  0.86 
 263  0.65  0.89  0.86 
 264  0.59  0.84  0.86 
 265  0.69  1.04  0.86 
 266  0.82  1.12  0.86 
 267  0.68  1.13  0.86 
 268  0.76  1.15  0.86 
 269  0.72  1.23  0.86 
 270  0.61  0.87  0.86 
 271  0.54  0.50  0.86 
 272  0.63  0.84  0.86 
 273  0.56  0.78  0.86 
 274  0.72  0.72  0.86 
 275  0.43  0.72  0.86 
 276  0.75  0.60  0.86 
 277  0.81  0.59  0.86 
 278  0.51  0.93  0.86 
 279  0.69  0.88  0.86 
 280  0.52  1.14  0.86 
 281  0.54  0.39  0.86 
 282  0.72  0.37  0.86 
 283  0.72  0.31  0.86 
 284  0.38  0.35  0.86 
 285  0.54  0.36  0.86 
 286  0.85  0.41  0.86 
 287  0.51  0.40  0.86 
 288  0.59  0.98  0.86 
 289  0.46  1.00  0.86 
 290  0.75  0.87  0.86 
 291  0.77  0.94  0.86 
 292  0.63  0.92  0.86 
 293  0.66  0.88  0.86 
 294  0.78  0.83  0.86 
 295  0.52  0.87  0.86 
 296  0.68  0.88  0.86 
 297  0.63  0.99  0.86 
 298  0.57  0.94  0.86 
 299  0.71  0.95  0.86 
 300  0.61  0.54  0.86 
 301  0.61  0.94  0.86 
 302  0.63  0.34  0.86 
 303  0.71  1.17  0.86 
 304  0.71  0.37  0.86 
 305  0.59  1.08  0.86 
 306  0.44  1.04  0.86 
 307  0.77  0.86  0.86 
 308  0.57  0.94  0.86 
 309  0.70  0.93  0.86 
 310  0.80  0.72  0.86 
 311  0.48  1.15  0.86 
 312  0.91  0.99  0.86 
 313  0.67  1.00  0.91 
 314  0.84  1.06  0.91 
 315  0.61  0.92  0.91 
 316  0.86  0.92  0.91 
 317  0.72  0.90  0.91 
 318  0.72  1.03  0.91 
 319  0.45  0.84  0.91 
 320  0.64  0.81  0.91 
 321  0.89  0.86  0.91 
 322  0.80  0.94  0.91 
 323  0.93  0.76  0.91 
 324  0.61  0.73  0.93 
 325  0.67  1.07  0.93 
 326  0.95  1.04  0.93 
 327  0.49  0.96  0.95 
 328  0.67  1.23  0.95 
 329  0.54  0.94  0.95 
 330  0.62  1.21  0.95 
 331  0.84  1.23  0.95 
 332  0.78  1.20  0.95 
 333  0.62  1.22  0.95 
 334  0.72  1.04  0.95 
 335  0.69  0.72  0.95 
 336  0.68  0.78  0.95 
 337  0.70  1.06  0.95 
 338  0.52  1.01  0.95 
 339  0.89  1.02  0.95 
 340  0.45  0.92  0.95 
 341  0.62  1.04  0.95 
 342  0.58  0.84  0.95 
 343  0.57  0.83  0.95 
 344  0.82  0.41  0.95 
 345  1.05  1.07  0.95 
 346  0.75  0.97  1.05 
 347  0.86  0.99  1.05 
 348  0.81  0.41  1.05 
 349  0.71  0.98  1.05 
 350  0.82  1.01  1.05 
 351  0.75  1.16  1.05 
 352  0.59  1.13  1.05 
 353  0.71  1.24  1.05 
 354  0.76  1.17  1.05 
 355  0.69  1.27  1.05 
 356  0.79  1.21  1.05 
 357  0.64  1.18  1.05 
 358  0.73  1.19  1.05 
 359  0.71  1.18  1.05 
 360  0.77  1.16  1.05 
 361  0.85  1.01  1.05 
 362  0.85  0.93  1.05 
 363  0.65  1.17  1.05 
 364  0.88  0.68  1.05 
 365  0.74  0.95  1.05 
 366  0.92  1.06  1.05 
 367  0.82  0.95  1.05 
 368  0.80  1.01  1.05 
 369  0.53  1.00  1.05 
 370  0.93  1.08  1.05 
 371  0.74  0.57  1.05 
 372  0.59  0.92  1.05 
 373  0.90  1.12  1.05 
 374  0.76  1.11  1.05 
 375  0.64  1.12  1.05 
 376  0.64  1.11  1.05 
 377  0.94  0.54  1.05 
 378  0.78  1.16  1.05 
 379  0.64  1.09  1.05 
 380  0.41  0.97  1.05 
 381  0.77  1.30  1.05 
 382  0.41  1.15  1.05 
 383  0.73  1.06  1.05 
 384  0.70  1.06  1.05 
 385  0.64  1.27  1.05 
 386  0.85  1.10  1.05 
 387  0.62  1.30  1.05 
 388  0.72  1.31  1.05 
 389  0.66  1.07  1.05 
 390  0.31  0.94  1.05 
 391  0.64  1.15  1.05 
 392  0.66  0.97  1.05 
 393  0.67  1.25  1.05 
 394  0.76  1.11  1.05 
 395  0.76  0.97  1.05 
 396  0.93  0.71  1.05 
 397  0.89  0.70  1.05 
 398  0.68  1.02  1.05 
 399  0.68  0.96  1.05 
 400  0.88  1.13  1.05 
 401  0.58  1.10  1.05 
 402  0.76  0.61  1.05 
 403  0.73  0.31  1.05 
 404  1.06  0.44  1.05 
 405  0.65  0.52  1.06 
 406  0.85  0.52  1.06 
 407  0.88  0.65  1.06 
 408  0.70  0.66  1.06 
 409  0.65  1.07  1.06 
 410  0.92  0.55  1.06 
 411  0.78  0.47  1.06 
 412  0.85  1.03  1.06 
 413  0.74  0.89  1.06 
 414  0.76  1.23  1.06 
 415  0.74  1.23  1.06 
 416  0.73  1.13  1.06 
 417  0.86  1.19  1.06 
 418  0.72  1.12  1.06 
 419  0.97  1.23  1.06 
 420  0.73  1.31  1.06 
 421  0.85  0.74  1.06 
 422  0.62  1.06  1.06 
 423  0.72  0.97  1.06 
 424  0.62  0.64  1.06 
 425  0.88  1.03  1.06 
 426  0.99  1.05  1.06 
 427  0.88  0.87  1.06 
 428  0.55  1.04  1.06 
 429  0.79  0.66  1.06 
 430  0.35  1.00  1.06 
 431  0.83  0.50  1.06 
 432  0.85  0.32  1.06 
 433  0.75  0.70  1.06 
 434  0.60  0.64  1.06 
 435  0.76  0.12  1.06 
 436  0.95  0.38  1.06 
 437  0.82  0.36  1.06 
 438  0.45  0.15  1.06 
 439  0.88  0.19  1.06 
 440  0.58  0.34  1.06 
 441  0.78  0.71  1.06 
 442  0.71  0.44  1.06 
 443  0.56  0.79  1.06 
 444  0.81  0.81  1.06 
 445  0.63  0.72  1.06 
 446  0.77  0.54  1.06 
 447  0.89  0.57  1.06 
 448  0.76  0.61  1.06 
 449  0.68  0.87  1.06 
 450  0.78  0.61  1.06 
 451  0.85  0.44  1.06 
 452  0.74  0.42  1.06 
 453  0.75  0.44  1.06 
 454  0.65  0.31  1.06 
 455  0.80  0.49  1.06 
 456  0.76  0.61  1.06 
 457  0.65  0.88  1.06 
 458  0.48  0.74  1.06 
 459  0.56  0.89  1.06 
 460  0.63  0.84  1.06 
 461  0.86  0.88  1.06 
 462  0.78  0.94  1.06 
 463  0.88  0.89  1.06 
 464  0.72  1.00  1.06 
 465  0.77  0.96  1.06 
 466  0.86  1.12  1.06 
 467  0.73  1.14  1.06 
 468  0.97  1.10  1.06 
 469  0.65  0.96  1.06 
 470  0.64  1.11  1.06 
 471  0.42  1.09  1.06 
 472  0.65  1.12  1.06 
 473  0.62  1.07  1.06 
 474  0.67  1.11  1.06 
 475  0.55  1.10  1.06 
 476  0.82  0.99  1.06 
 477  0.57  0.81  1.06 
 478  0.70  0.80  1.06 
 479  0.73  0.82  1.06 
 480  0.81  1.08  1.06 
 481  0.62  1.00  1.06 
 482  0.78  1.06  1.06 
 483  0.57  1.10  1.06 
 484  0.57  1.10  1.06 
 485  0.77  1.12  1.06 
 486  0.67  1.09  1.06 
 487  0.75  1.01  1.06 
 488  0.90  0.98  1.06 
 489  0.71  1.07  1.06 
 490  0.72  1.00  1.06 
 491  0.76  1.12  1.06 
 492  0.66  1.18  1.06 
 493  0.83  1.17  1.06 
 494  0.92  1.17  1.06 
 495  0.89  1.19  1.06 
 496  0.83  1.11  1.06 
 497  0.80  1.27  1.06 
 498  0.84  1.10  1.06 
 499  0.72  1.05  1.06 
 500  0.55  1.02  1.06 
 501  0.70  1.05  1.06 
 502  0.54  1.09  1.06 
 503  0.86  0.81  1.06 
 504  0.95  1.05  1.06 
 505  0.71  1.08  1.06 
 506  0.85  1.02  1.06 
 507  0.81  1.06  1.06 
 508  0.84  0.92  1.06 
 509  0.64  1.10  1.06 
 510  0.77  1.00  1.06 
 511  0.46  1.15  1.06 
 512  0.82  1.06  1.06 
 513  0.85  1.15  1.06 
 514  0.87  1.09  1.06 
 515  1.10  1.13  1.06 
 516  0.81  1.14  1.10 
 517  0.69  1.13  1.10 
 518  0.87  1.09  1.10 
 519  0.78  1.00  1.10 
 520  0.76  1.03  1.10 
 521  0.77  1.06  1.10 
 522  0.83  1.07  1.10 
 523  0.48  0.98  1.10 
 524  0.78  0.98  1.10 
 525  0.84  0.97  1.10 
 526  0.71  0.89  1.10 
 527  0.72  1.02  1.10 
 528  0.56  1.01  1.10 
 529  0.63  0.99  1.10 
 530  0.78  1.02  1.10 
 531  0.50  1.05  1.10 
 532  0.63  1.01  1.10 
 533  0.90  1.03  1.10 
 534  0.75  1.00  1.10 
 535  0.76  1.04  1.10 
 536  0.68  0.87  1.10 
 537  0.75  0.79  1.10 
 538  0.90  0.99  1.10 
 539  0.91  1.02  1.10 
 540  0.84  0.83  1.10 
 541  0.61  0.89  1.10 
 542  0.65  1.00  1.10 
 543  0.92  1.03  1.10 
 544  0.87  1.13  1.10 
 545  0.99  1.02  1.10 
 546  0.74  1.07  1.10 
 547  0.82  1.08  1.10 
 548  0.66  1.06  1.10 
 549  0.85  1.10  1.10 
 550  0.89  1.09  1.10 
 551  0.88  1.02  1.10 
 552  0.92  0.95  1.10 
 553  0.68  0.96  1.10 
 554  0.73  1.03  1.10 
 555  0.84  1.08  1.10 
 556  0.87  1.05  1.10 
 557  0.86  0.75  1.10 
 558  0.78  1.12  1.10 
 559  0.90  1.19  1.10 
 560  0.78  0.99  1.10 
 561  0.98  0.58  1.10 
 562  0.92  0.97  1.10 
 563  0.79  0.49  1.10 
 564  0.92  1.05  1.10 
 565  0.74  0.77  1.10 
 566  0.81  0.53  1.10 
 567  0.90  1.02  1.10 
 568  0.86  1.02  1.10 
 569  0.70  0.64  1.10 
 570  0.98  0.62  1.10 
 571  0.82  0.47  1.10 
 572  0.80  0.99  1.10 
 573  0.88  1.02  1.10 
 574  0.89  1.03  1.10 
 575  0.85  1.01  1.10 
 576  0.92  0.44  1.10 
 577  0.78  0.42  1.10 
 578  0.57  0.76  1.10 
 579  0.76  0.44  1.10 
 580  0.84  0.47  1.10 
 581  0.87  0.69  1.10 
 582  0.98  0.71  1.10 
 583  0.92  1.03  1.10 
 584  0.83  0.63  1.10 
 585  0.82  0.78  1.10 
 586  1.07  1.09  1.10 
 587  0.74  0.97  1.10 
 588  0.93  0.99  1.10 
 589  0.76  1.05  1.10 
 590  0.95  1.17  1.10 
 591  0.98  0.75  1.10 
 592  0.92  1.21  1.10 
 593  0.72  1.24  1.10 
 594  0.81  1.11  1.10 
 595  0.85  1.21  1.10 
 596  0.66  1.06  1.10 
 597  0.87  1.25  1.10 
 598  0.87  1.28  1.10 
 599  0.89  1.26  1.10 
 600  0.72  1.18  1.10 
 601  0.79  1.08  1.10 
 602  0.79  1.14  1.10 
 603  0.95  1.20  1.10 
 604  0.95  1.18  1.10 
 605  0.90  1.18  1.10 
 606  0.72  0.72  1.10 
 607  0.99  1.00  1.10 
 608  1.03  0.93  1.10 
 609  0.90  0.63  1.10 
 610  0.86  0.60  1.10 
 611  1.02  1.22  1.10 
 612  0.88  0.87  1.10 
 613  0.60  0.73  1.10 
 614  0.95  0.48  1.10 
 615  0.74  0.94  1.10 
 616  0.86  0.70  1.10 
 617  1.01  1.18  1.10 
 618  0.87  0.49  1.10 
 619  0.76  0.97  1.10 
 620  0.92  1.13  1.10 
 621  0.88  0.79  1.10 
 622  0.59  1.25  1.10 
 623  1.08  1.27  1.10 
 624  0.92  1.15  1.10 
 625  0.83  0.91  1.10 
 626  1.02  0.89  1.10 
 627  0.92  0.89  1.10 
 628  0.77  0.94  1.10 
 629  0.98  1.03  1.10 
 630  0.83  0.82  1.10 
 631  0.84  1.14  1.10 
 632  0.60  0.95  1.10 
 633  0.71  1.05  1.10 
 634  0.98  1.12  1.10 
 635  0.84  0.88  1.10 
 636  0.81  0.92  1.10 
 637  0.81  0.95  1.10 
 638  1.02  0.88  1.10 
 639  0.89  0.83  1.10 
 640  0.87  1.05  1.10 
 641  0.83  1.11  1.10 
 642  0.96  0.82  1.10 
 643  0.98  1.08  1.10 
 644  1.05  0.91  1.10 
 645  0.72  0.57  1.10 
 646  0.79  0.93  1.10 
 647  0.71  0.96  1.10 
 648  0.94  1.05  1.10 
 649  0.91  0.96  1.10 
 650  0.91  0.95  1.10 
 651  0.93  1.01  1.10 
 652  1.00  1.10  1.10 
 653  0.74  1.08  1.10 
 654  0.89  1.14  1.10 
 655  0.86  1.14  1.10 
 656  0.95  1.15  1.10 
 657  1.02  1.12  1.10 
 658  0.99  0.95  1.10 
 659  0.97  1.02  1.10 
 660  0.98  1.09  1.10 
 661  0.91  1.16  1.10 
 662  1.01  1.09  1.10 
 663  0.96  1.08  1.10 
 664  1.03  1.07  1.10 
 665  0.86  1.07  1.10 
 666  0.94  1.11  1.10 
 667  0.95  1.04  1.10 
 668  0.70  1.07  1.10 
 669  1.02  1.06  1.10 
 670  0.87  0.99  1.10 
 671  0.68  0.93  1.10 
 672  0.64  1.15  1.10 
 673  1.05  1.02  1.10 
 674  0.90  1.02  1.10 
 675  0.87  1.00  1.10 
 676  0.78  1.23  1.10 
 677  0.84  1.23  1.10 
 678  0.93  1.23  1.10 
 679  0.96  1.19  1.10 
 680  1.03  1.20  1.10 
 681  0.91  1.17  1.10 
 682  0.83  1.08  1.10 
 683  0.90  1.15  1.10 
 684  1.05  1.19  1.10 
 685  0.89  1.01  1.10 
 686  0.84  1.16  1.10 
 687  0.85  1.11  1.10 
 688  0.61  1.12  1.10 
 689  0.76  1.07  1.10 
 690  1.03  1.17  1.10 
 691  0.96  1.05  1.10 
 692  0.94  1.02  1.10 
 693  0.64  1.06  1.10 
 694  1.01  0.98  1.10 
 695  1.05  0.96  1.10 
 696  0.87  0.95  1.10 
 697  0.93  1.02  1.10 
 698  0.74  1.03  1.10 
 699  0.86  1.04  1.10 
 700  1.07  1.00  1.10 
 701  0.85  1.08  1.10 
 702  0.89  1.00  1.10 
 703  1.11  1.03  1.10 
 704  1.01  1.04  1.11 
 705  1.01  1.00  1.11 
 706  0.91  1.02  1.11 
 707  0.91  0.92  1.11 
 708  0.98  0.99  1.11 
 709  1.02  0.96  1.11 
 710  1.07  0.97  1.11 
 711  0.89  0.93  1.11 
 712  0.60  0.93  1.11 
 713  0.75  1.00  1.11 
 714  0.81  0.96  1.11 
 715  0.85  0.94  1.11 
 716  0.80  1.07  1.11 
 717  0.97  1.00  1.11 
 718  0.98  0.80  1.11 
 719  0.92  0.86  1.11 
 720  0.87  0.74  1.11 
 721  0.96  1.03  1.11 
 722  0.63  1.03  1.11 
 723  0.86  1.00  1.11 
 724  0.87  1.02  1.11 
 725  0.88  1.03  1.11 
 726  0.96  0.99  1.11 
 727  0.88  0.99  1.11 
 728  0.80  1.10  1.11 
 729  0.95  0.99  1.11 
 730  0.91  1.08  1.11 
 731  0.85  0.98  1.11 
 732  0.90  0.99  1.11 
 733  0.91  0.90  1.11 
 734  0.81  0.65  1.11 
 735  0.78  0.94  1.11 
 736  0.93  0.64  1.11 
 737  0.92  0.57  1.11 
 738  0.84  1.05  1.11 
 739  0.93  0.99  1.11 
 740  0.73  0.95  1.11 
 741  0.90  0.90  1.11 
 742  0.84  0.90  1.11 
 743  0.83  0.96  1.11 
 744  0.93  1.00  1.11 
 745  0.73  0.80  1.11 
 746  0.94  0.99  1.11 
 747  0.88  1.04  1.11 
 748  0.91  1.01  1.11 
 749  0.93  1.02  1.11 
 750  0.99  1.00  1.11 
 751  0.84  1.01  1.11 
 752  0.92  0.69  1.11 
 753  1.06  0.98  1.11 
 754  0.92  0.86  1.11 
 755  0.97  0.96  1.11 
 756  1.04  0.99  1.11 
 757  0.86  1.02  1.11 
 758  0.74  0.94  1.11 
 759  0.75  1.03  1.11 
 760  0.90  1.00  1.11 
 761  0.87  0.94  1.11 
 762  0.90  0.97  1.11 
 763  0.87  0.89  1.11 
 764  0.67  1.00  1.11 
 765  0.87  0.95  1.11 
 766  0.72  1.04  1.11 
 767  1.07  1.02  1.11 
 768  0.98  1.03  1.11 
 769  0.68  1.03  1.11 
 770  0.77  1.08  1.11 
 771  0.92  0.98  1.11 
 772  0.85  1.01  1.11 
 773  0.74  1.04  1.11 
 774  0.93  0.98  1.11 
 775  0.86  1.05  1.11 
 776  1.00  0.94  1.11 
 777  1.01  0.97  1.11 
 778  1.05  0.98  1.11 
 779  0.97  1.02  1.11 
 780  1.04  1.04  1.11 
 781  0.66  1.02  1.11 
 782  1.04  1.02  1.11 
 783  1.05  1.03  1.11 
 784  0.94  1.05  1.11 
 785  0.91  1.05  1.11 
 786  0.98  1.04  1.11 
 787  0.83  1.11  1.11 
 788  1.08  1.03  1.11 
 789  0.86  1.16  1.11 
 790  0.88  1.07  1.11 
 791  0.98  1.08  1.11 
 792  0.97  1.03  1.11 
 793  1.06  1.05  1.11 
 794  0.93  0.95  1.11 
 795  0.80  1.01  1.11 
 796  0.81  1.01  1.11 
 797  0.98  0.91  1.11 
 798  0.96  0.93  1.11 
 799  0.97  0.92  1.11 
 800  0.99  0.93  1.11 
 801  1.08  0.95  1.11 
 802  1.10  0.92  1.11 
 803  1.04  0.87  1.11 
 804  1.08  0.87  1.11 
 805  0.96  0.88  1.11 
 806  0.89  0.99  1.11 
 807  0.99  1.03  1.11 
 808  1.11  0.96  1.11 
 809  1.03  0.97  1.11 
 810  1.00  1.01  1.11 
 811  0.84  1.12  1.11 
 812  0.88  1.03  1.11 
 813  0.97  1.07  1.11 
 814  0.94  1.02  1.11 
 815  0.81  1.18  1.11 
 816  0.82  1.03  1.11 
 817  0.98  0.90  1.11 
 818  1.01  0.85  1.11 
 819  0.92  0.99  1.11 
 820  1.06  0.97  1.11 
 821  0.92  0.98  1.11 
 822  0.98  1.00  1.11 
 823  1.13  1.00  1.11 
 824  1.01  1.03  1.13 
 825  0.98  1.04  1.13 
 826  1.06  0.97  1.13 
 827  0.98  0.99  1.13 
 828  1.03  0.99  1.13 
 829  1.00  0.93  1.13 
 830  0.81  0.89  1.13 
 831  0.94  0.97  1.13 
 832  0.78  0.95  1.13 
 833  0.96  0.91  1.13 
 834  1.11  0.92  1.13 
 835  0.90  0.92  1.13 
 836  0.88  0.84  1.13 
 837  0.90  0.84  1.13 
 838  0.87  0.90  1.13 
 839  0.95  0.77  1.13 
 840  0.91  0.93  1.13 
 841  1.09  0.94  1.13 
 842  0.89  0.84  1.13 
 843  0.85  0.87  1.13 
 844  1.00  0.91  1.13 
 845  0.92  0.90  1.13 
 846  0.99  0.79  1.13 
 847  0.86  0.80  1.13 
 848  1.12  0.80  1.13 
 849  1.10  0.93  1.13 
 850  1.08  0.95  1.13 
 851  0.76  0.91  1.13 
 852  0.91  0.85  1.13 
 853  0.91  0.79  1.13 
 854  1.15  0.91  1.13 
 855  1.05  0.91  1.15 
 856  0.94  0.97  1.15 
 857  1.14  0.97  1.15 
 858  1.12  1.03  1.15 
 859  1.09  0.95  1.15 
 860  0.74  0.88  1.15 
 861  0.92  0.78  1.15 
 862  1.10  0.66  1.15 
 863  0.89  0.73  1.15 
 864  1.12  0.68  1.15 
 865  1.09  0.78  1.15 
 866  0.89  0.88  1.15 
 867  0.77  0.73  1.15 
 868  0.97  0.76  1.15 
 869  0.84  0.71  1.15 
 870  0.86  0.75  1.15 
 871  0.91  0.65  1.15 
 872  0.80  0.64  1.15 
 873  0.92  0.74  1.15 
 874  0.92  0.69  1.15 
 875  0.79  0.77  1.15 
 876  0.76  0.78  1.15 
 877  0.97  0.85  1.15 
 878  1.04  0.96  1.15 
 879  1.04  0.80  1.15 
 880  1.07  0.69  1.15 
 881  1.04  0.81  1.15 
 882  1.05  0.58  1.15 
 883  0.83  0.79  1.15 
 884  1.02  0.68  1.15 
 885  1.08  0.72  1.15 
 886  0.95  0.60  1.15 
 887  0.97  0.75  1.15 
 888  0.98  0.86  1.15 
 889  0.98  0.93  1.15 
 890  0.91  0.92  1.15 
 891  1.01  0.87  1.15 
 892  0.99  0.86  1.15 
 893  1.04  0.93  1.15 
 894  0.93  0.82  1.15 
 895  0.95  0.78  1.15 
 896  0.93  0.88  1.15 
 897  0.95  0.80  1.15 
 898  0.95  0.84  1.15 
 899  0.77  0.85  1.15 
 900  0.85  0.98  1.15 
 901  0.98  0.98  1.15 
 902  1.06  0.97  1.15 
 903  0.93  1.02  1.15 
 904  0.95  0.99  1.15 
 905  0.95  0.99  1.15 
 906  1.04  1.01  1.15 
 907  1.07  0.98  1.15 
 908  0.90  0.89  1.15 
 909  0.93  0.90  1.15 
 910  1.03  0.87  1.15 
 911  0.66  0.97  1.15 
 912  0.93  0.96  1.15 
 913  0.95  0.98  1.15 
 914  1.05  0.94  1.15 
 915  1.05  0.98  1.15 
 916  0.90  0.99  1.15 
 917  1.03  0.91  1.15 
 918  0.94  0.86  1.15 
 919  1.00  0.87  1.15 
 920  0.92  0.83  1.15 
 921  1.14  0.95  1.15 
 922  1.06  0.88  1.15 
 923  1.00  0.94  1.15 
 924  1.04  0.95  1.15 
 925  0.97  0.96  1.15 
 926  0.93  0.82  1.15 
 927  0.97  0.92  1.15 
 928  0.91  1.02  1.15 
 929  1.02  0.96  1.15 
 930  0.93  0.95  1.15 
 931  1.02  0.92  1.15 
 932  1.13  1.00  1.15 
 933  0.98  0.88  1.15 
 934  0.80  0.94  1.15 
 935  1.03  0.85  1.15 
 936  0.96  0.97  1.15 
 937  0.98  0.99  1.15 
 938  1.08  0.95  1.15 
 939  1.10  0.91  1.15 
 940  0.96  1.00  1.15 
 941  1.05  0.93  1.15 
 942  0.99  0.93  1.15 
 943  1.00  0.94  1.15 
 944  1.04  0.91  1.15 
 945  1.04  0.94  1.15 
 946  0.76  0.95  1.15 
 947  1.00  1.03  1.15 
 948  0.85  0.96  1.15 
 949  1.07  1.09  1.15 
 950  0.88  1.06  1.15 
 951  0.78  0.95  1.15 
 952  1.09  0.70  1.15 
 953  0.94  0.66  1.15 
 954  0.91  0.77  1.15 
 955  0.97  0.83  1.15 
 956  1.03  0.96  1.15 
 957  0.91  0.81  1.15 
 958  0.96  0.68  1.15 
 959  0.95  0.83  1.15 
 960  0.94  0.85  1.15 
 961  1.00  0.95  1.15 
 962  0.89  0.76  1.15 
 963  1.02  0.72  1.15 
 964  0.99  0.78  1.15 
 965  0.81  0.87  1.15 
 966  0.79  0.79  1.15 
 967  0.98  0.98  1.15 
 968  0.99  0.87  1.15 
 969  0.91  0.76  1.15 
 970  0.97  0.99  1.15 
 971  0.89  0.99  1.15 
 972  0.89  0.93  1.15 
 973  0.98  0.94  1.15 
 974  1.06  1.02  1.15 
 975  1.10  0.94  1.15 
 976  0.98  0.97  1.15 
 977  0.99  0.94  1.15 
 978  1.11  0.94  1.15 
 979  1.00  0.96  1.15 
 980  0.96  0.98  1.15 
 981  1.06  0.91  1.15 
 982  0.92  1.10  1.15 
 983  1.02  1.11  1.15 
 984  1.01  1.11  1.15 
 985  0.93  1.01  1.15 
 986  1.04  0.99  1.15 
 987  1.03  1.11  1.15 
 988  0.83  1.06  1.15 
 989  0.98  1.04  1.15 
 990  1.04  1.02  1.15 
 991  1.02  0.80  1.15 
 992  1.05  1.07  1.15 
 993  0.99  1.08  1.15 
 994  1.06  0.97  1.15 
 995  1.11  1.04  1.15 
 996  1.03  0.75  1.15 
 997  0.89  0.74  1.15 
 998  1.04  0.88  1.15 
 999  1.10  0.79  1.15 
1000  0.91  0.72  1.15 
1001  0.95  0.77  1.15 
1002  1.07  0.75  1.15 
1003  1.02  0.73  1.15 
1004  1.06  0.90  1.15 
1005  1.08  0.95  1.15 
1006  0.83  1.01  1.15 
1007  0.87  1.10  1.15 
1008  0.92  0.94  1.15 
1009  0.95  0.98  1.15 
1010  0.85  1.03  1.15 
1011  1.02  0.94  1.15 
1012  1.05  0.82  1.15 
1013  0.94  0.93  1.15 
1014  0.77  0.72  1.15 
1015  1.01  0.87  1.15 
1016  0.87  0.68  1.15 
1017  1.03  0.77  1.15 
1018  0.86  0.88  1.15 
1019  0.87  0.72  1.15 
1020  0.92  0.74  1.15 
1021  0.99  0.84  1.15 
1022  0.99  0.77  1.15 
1023  0.77  0.80  1.15 
1024  0.75  0.59  1.15 
1025  1.04  0.54  1.15 
1026  1.08  0.66  1.15 
1027  0.94  0.73  1.15 
1028  0.97  0.75  1.15 
1029  0.86  0.74  1.15 
1030  1.02  0.88  1.15 
1031  0.94  0.75  1.15 
1032  0.96  0.98  1.15 
1033  0.95  0.93  1.15 
1034  0.74  0.92  1.15 
1035  0.91  0.84  1.15 
1036  1.02  0.99  1.15 
1037  0.83  0.84  1.15 
1038  0.93  0.88  1.15 
1039  0.95  1.02  1.15 
1040  1.03  0.92  1.15 
1041  0.96  1.05  1.15 
1042  1.06  1.00  1.15 
1043  1.11  1.04  1.15 
1044  0.84  0.97  1.15 
1045  0.92  0.75  1.15 
1046  0.96  1.08  1.15 
1047  0.72  1.07  1.15 
1048  0.74  1.12  1.15 
1049  0.96  1.04  1.15 
1050  1.06  0.93  1.15 
1051  0.96  0.87  1.15 
1052  0.99  1.05  1.15 
1053  1.12  1.01  1.15 
1054  0.87  1.22  1.15 
1055  0.73  1.12  1.15 
1056  1.04  1.08  1.15 
1057  0.98  1.11  1.15 
1058  0.98  0.96  1.15 
1059  1.00  1.08  1.15 
1060  1.09  1.09  1.15 
1061  0.96  1.02  1.15 
1062  1.14  1.02  1.15 
1063  0.86  1.01  1.15 
1064  0.80  0.99  1.15 
1065  1.05  0.90  1.15 
1066  0.95  0.94  1.15 
1067  1.16  0.89  1.15 
1068  0.97  0.85  1.16 
1069  1.09  1.01  1.16 
1070  1.12  1.01  1.16 
1071  1.12  0.99  1.16 
1072  1.03  0.79  1.16 
1073  0.94  1.02  1.16 
1074  0.96  1.06  1.16 
1075  1.02  0.90  1.16 
1076  1.01  1.02  1.16 
1077  1.03  0.98  1.16 
1078  0.82  0.83  1.16 
1079  1.00  1.04  1.16 
1080  0.71  0.88  1.16 
1081  0.92  1.10  1.16 
1082  0.87  1.06  1.16 
1083  0.87  1.07  1.16 
1084  1.07  1.18  1.16 
1085  0.79  1.13  1.16 
1086  1.05  1.05  1.16 
1087  0.96  1.18  1.16 
1088  1.10  1.15  1.16 
1089  0.86  1.05  1.16 
1090  1.02  1.12  1.16 
1091  0.90  1.10  1.16 
1092  0.95  1.01  1.16 
1093  1.05  1.03  1.16 
1094  0.89  1.03  1.16 
1095  0.96  1.10  1.16 
1096  0.99  1.12  1.16 
1097  1.09  1.15  1.16 
1098  1.04  1.01  1.16 
1099  1.03  1.14  1.16 
1100  1.05  1.06  1.16 
1101  1.11  0.68  1.16 
1102  0.83  0.95  1.16 
1103  1.04  1.11  1.16 
1104  1.23  0.98  1.16 
1105  1.07  1.04  1.23 
1106  1.11  1.06  1.23 
1107  0.95  1.14  1.23 
1108  1.02  1.05  1.23 
1109  1.17  1.05  1.23 
1110  0.99  1.06  1.23 
1111  0.97  1.08  1.23 
1112  1.09  1.09  1.23 
1113  0.95  1.04  1.23 
1114  1.08  1.17  1.23 
1115  1.13  1.05  1.23 
1116  1.08  1.08  1.23 
1117  1.02  1.13  1.23 
1118  1.02  1.12  1.23 
1119  1.01  0.92  1.23 
1120  0.92  1.15  1.23 
1121  1.05  1.12  1.23 
1122  1.10  1.12  1.23 
1123  1.08  1.07  1.23 
1124  0.92  1.10  1.23 
1125  0.99  1.04  1.23 
1126  0.97  0.93  1.23 
1127  0.86  0.98  1.23 
1128  1.17  1.06  1.23 
1129  1.19  1.14  1.23 
1130  1.17  1.04  1.23 
1131  0.89  1.09  1.23 
1132  1.01  1.02  1.23 
1133  0.95  1.08  1.23 
1134  0.86  1.01  1.23 
1135  1.07  1.16  1.23 
1136  1.04  1.10  1.23 
1137  0.97  1.05  1.23 
1138  0.99  1.10  1.23 
1139  0.97  1.08  1.23 
1140  1.06  1.12  1.23 
1141  0.99  1.12  1.23 
1142  1.13  1.15  1.23 
1143  0.87  1.15  1.23 
1144  1.08  1.18  1.23 
1145  0.97  1.15  1.23 
1146  0.92  1.10  1.23 
1147  1.05  0.97  1.23 
1148  1.06  0.97  1.23 
1149  1.14  1.01  1.23 
1150  1.11  0.96  1.23 
1151  1.07  0.91  1.23 
1152  1.05  0.88  1.23 
1153  1.04  1.00  1.23 
1154  1.01  1.06  1.23 
1155  0.99  1.09  1.23 
1156  0.96  1.08  1.23 
1157  1.09  1.07  1.23 
1158  1.05  1.08  1.23 
1159  1.14  1.07  1.23 
1160  1.08  1.02  1.23 
1161  1.09  1.18  1.23 
1162  1.15  0.51  1.23 
1163  1.14  1.10  1.23 
1164  1.05  1.08  1.23 
1165  1.04  0.82  1.23 
1166  0.98  1.02  1.23 
1167  1.07  0.95  1.23 
1168  1.11  0.85  1.23 
1169  1.04  0.91  1.23 
1170  1.06  1.03  1.23 
1171  1.05  0.99  1.23 
1172  1.07  0.94  1.23 
1173  0.85  0.93  1.23 
1174  1.15  1.00  1.23 
1175  1.00  1.00  1.23 
1176  0.95  1.04  1.23 
1177  1.06  0.95  1.23 
1178  1.09  0.82  1.23 
1179  1.04  1.05  1.23 
1180  1.07  0.99  1.23 
1181  0.91  0.99  1.23 
1182  1.13  0.88  1.23 
1183  1.03  0.83  1.23 
1184  1.09  0.88  1.23 
1185  1.06  1.05  1.23 
1186  0.99  0.95  1.23 
1187  1.09  0.89  1.23 
1188  1.03  0.96  1.23 
1189  0.92  0.81  1.23 
1190  1.06  1.00  1.23 
1191  1.09  0.90  1.23 
1192  1.04  0.99  1.23 
1193  1.08  0.92  1.23 
1194  1.10  0.94  1.23 
1195  0.96  0.96  1.23 
1196  1.06  0.87  1.23 
1197  1.17  0.92  1.23 
1198  0.86  1.08  1.23 
1199  1.09  1.14  1.23 
1200  1.10  1.00  1.23 
1201  1.01  0.83  1.23 
1202  1.00  0.93  1.23 
1203  1.06  1.01  1.23 
1204  0.88  1.14  1.23 
1205  1.11  0.95  1.23 
1206  1.02  1.13  1.23 
1207  1.05  1.06  1.23 
1208  1.05  1.13  1.23 
1209  0.98  1.13  1.23 
1210  1.13  1.10  1.23 
1211  1.03  1.25  1.23 
1212  0.96  1.22  1.23 
1213  1.11  1.13  1.23 
1214  0.99  1.06  1.23 
1215  1.04  1.15  1.23 
1216  0.97  1.07  1.23 
1217  1.04  1.03  1.23 
1218  0.96  1.19  1.23 
1219  0.98  1.14  1.23 
1220  1.09  1.03  1.23 
1221  1.03  0.99  1.23 
1222  1.10  1.03  1.23 
1223  1.06  0.99  1.23 
1224  0.89  1.08  1.23 
1225  0.97  1.09  1.23 
1226  0.95  1.17  1.23 
1227  1.07  1.05  1.23 
1228  0.97  1.11  1.23 
1229  1.06  1.03  1.23 
1230  1.11  1.09  1.23 
1231  0.95  1.09  1.23 
1232  0.86  1.12  1.23 
1233  1.08  1.11  1.23 
1234  1.15  1.14  1.23 
1235  1.04  0.89  1.23 
1236  0.97  0.99  1.23 
1237  0.94  1.11  1.23 
1238  1.09  1.14  1.23 
1239  1.06  1.06  1.23 
1240  1.07  1.06  1.23 
1241  0.81  1.09  1.23 
1242  0.97  1.16  1.23 
1243  0.92  1.13  1.23 
1244  0.92  1.14  1.23 
1245  1.05  1.20  1.23 
1246  1.12  1.08  1.23 
1247  0.95  1.23  1.23 
1248  1.00  1.17  1.23 
1249  0.87  1.13  1.23 
1250  1.20  1.22  1.23 
1251  1.11  1.19  1.23 
1252  1.16  1.18  1.23 
1253  1.00  1.28  1.23 
1254  0.96  1.20  1.23 
1255  1.11  1.22  1.23 
1256  1.13  1.07  1.23 
1257  1.13  1.16  1.23 
1258  1.00  1.14  1.23 
1259  1.11  1.19  1.23 
1260  1.14  1.13  1.23 
1261  1.08  1.15  1.23 
1262  1.05  1.20  1.23 
1263  1.07  1.10  1.23 
1264  1.03  1.19  1.23 
1265  1.03  1.16  1.23 
1266  1.09  1.20  1.23 
1267  1.08  1.21  1.23 
1268  0.87  1.17  1.23 
1269  1.05  1.10  1.23 
1270  1.09  1.21  1.23 
1271  1.03  1.02  1.23 
1272  1.10  1.18  1.23 
1273  1.13  1.15  1.23 
1274  0.96  1.14  1.23 
1275  0.96  1.10  1.23 
1276  1.03  1.21  1.23 
1277  1.20  1.05  1.23 
1278  1.13  1.07  1.23 
1279  0.99  1.25  1.23 
1280  1.01  1.20  1.23 
1281  1.02  1.25  1.23 
1282  1.17  1.12  1.23 
1283  0.93  0.94  1.23 
1284  1.11  1.18  1.23 
1285  1.02  1.13  1.23 
1286  1.05  1.22  1.23 
1287  0.96  1.21  1.23 
1288  1.10  1.05  1.23 
1289  1.05  1.08  1.23 
1290  1.06  1.11  1.23 
1291  1.10  1.04  1.23 
1292  1.02  0.75  1.23 
1293  1.09  0.97  1.23 
1294  1.02  1.10  1.23 
1295  1.00  0.86  1.23 
1296  0.99  0.72  1.23 
1297  0.99  0.78  1.23 
1298  1.05  1.15  1.23 
1299  1.16  1.05  1.23 
1300  1.10  1.14  1.23 
1301  0.91  1.12  1.23 
1302  1.17  1.18  1.23 
1303  1.09  1.07  1.23 
1304  1.09  1.01  1.23 
1305  1.14  0.97  1.23 
1306  1.02  1.10  1.23 
1307  0.95  1.07  1.23 
1308  1.17  1.18  1.23 
1309  1.11  1.09  1.23 
1310  1.00  1.11  1.23 
1311  1.02  1.20  1.23 
1312  1.07  1.16  1.23 
1313  1.08  1.08  1.23 
1314  0.99  0.99  1.23 
1315  1.16  1.04  1.23 
1316  1.03  1.08  1.23 
1317  1.15  1.07  1.23 
1318  1.02  1.09  1.23 
1319  1.13  0.98  1.23 
1320  1.10  0.98  1.23 
1321  0.98  1.03  1.23 
1322  1.08  1.18  1.23 
1323  1.14  1.09  1.23 
1324  1.07  1.15  1.23 
1325  1.04  1.15  1.23 
1326  1.21  1.15  1.23 
1327  1.05  1.13  1.23 
1328  1.11  1.12  1.23 
1329  1.10  1.08  1.23 
1330  1.09  1.03  1.23 
1331  1.06  1.13  1.23 
1332  1.17  1.08  1.23 
1333  1.12  1.10  1.23 
1334  0.95  1.14  1.23 
1335  1.15  1.17  1.23 
1336  1.05  1.12  1.23 
1337  1.12  1.14  1.23 
1338  1.04  1.21  1.23 
1339  1.23  1.23  1.23 
1340  1.12  1.17  1.23 
1341  1.03  1.05  1.23 
1342  1.09  1.13  1.23 
1343  1.08  1.08  1.23 
1344  0.86  1.01  1.23 
1345  1.12  1.07  1.23 
1346  1.18  0.95  1.23 
1347  1.12  1.22  1.23 
1348  1.13  1.11  1.23 
1349  1.13  1.21  1.23 
1350  1.07  1.22  1.23 
1351  1.10  1.23  1.23 
1352  1.06  1.22  1.23 
1353  1.03  1.15  1.23 
1354  1.00  0.97  1.23 
1355  0.95  1.00  1.23 
1356  1.11  1.02  1.23 
1357  1.13  0.97  1.23 
1358  1.14  1.05  1.23 
1359  1.01  1.16  1.23 
1360  0.99  1.16  1.23 
1361  1.08  0.86  1.23 
1362  1.00  1.06  1.23 
1363  1.13  1.09  1.23 
1364  1.14  1.07  1.23 
1365  1.00  1.08  1.23 
1366  0.91  0.92  1.23 
1367  1.08  1.09  1.23 
1368  1.02  1.08  1.23 
1369  1.07  1.17  1.23 
1370  1.20  1.01  1.23 
1371  1.03  1.12  1.23 
1372  0.80  1.19  1.23 
1373  0.87  0.93  1.23 
1374  1.07  1.20  1.23 
1375  1.24  1.09  1.23 
1376  1.07  1.11  1.24 
1377  1.10  1.16  1.24 
1378  1.00  1.01  1.24 
1379  0.96  0.91  1.24 
1380  1.16  1.03  1.24 
1381  0.75  1.12  1.24 
1382  1.06  1.15  1.24 
1383  1.17  1.23  1.24 
1384  1.08  1.17  1.24 
1385  1.08  1.09  1.24 
1386  1.08  1.10  1.24 
1387  1.10  1.10  1.24 
1388  1.02  1.04  1.24 
1389  1.18  1.05  1.24 
1390  1.05  1.29  1.24 
1391  1.09  1.06  1.24 
1392  1.10  1.18  1.24 
1393  1.24  1.24  1.24 
1394  1.18  1.14  1.24 
1395  0.78  1.22  1.24 
1396  0.84  1.29  1.24 
1397  1.02  1.12  1.24 
1398  0.93  0.96  1.24 
1399  1.05  0.98  1.24 
1400  1.10  0.93  1.24 
1401  1.13  1.19  1.24 
1402  1.12  1.18  1.24 
1403  1.11  1.11  1.24 
1404  0.98  1.24  1.24 
1405  0.97  1.20  1.24 
1406  1.15  1.06  1.24 
1407  0.84  1.23  1.24 
1408  1.23  1.24  1.24 
1409  0.92  1.10  1.24 
1410  1.05  1.19  1.24 
1411  1.15  1.18  1.24 
1412  1.16  1.20  1.24 
1413  1.06  1.10  1.24 
1414  1.16  1.15  1.24 
1415  1.12  1.20  1.24 
1416  0.93  1.14  1.24 
1417  0.92  1.20  1.24 
1418  0.91  1.14  1.24 
1419  1.07  1.12  1.24 
1420  1.12  1.10  1.24 
1421  1.07  1.15  1.24 
1422  1.03  0.93  1.24 
1423  1.11  1.20  1.24 
1424  1.15  1.08  1.24 
1425  1.09  0.96  1.24 
1426  1.07  1.06  1.24 
1427  1.07  1.07  1.24 
1428  0.97  1.08  1.24 
1429  1.04  1.20  1.24 
1430  1.06  1.18  1.24 
1431  1.14  1.27  1.24 
1432  0.81  1.06  1.24 
1433  0.99  1.20  1.24 
1434  1.16  1.21  1.24 
1435  1.08  1.16  1.24 
1436  1.04  1.01  1.24 
1437  1.09  1.16  1.24 
1438  1.15  1.06  1.24 
1439  1.06  1.24  1.24 
1440  1.09  1.23  1.24 
1441  1.20  1.03  1.24 
1442  0.84  1.14  1.24 
1443  1.05  1.14  1.24 
1444  1.07  1.11  1.24 
1445  1.00  1.09  1.24 
1446  1.10  1.21  1.24 
1447  0.98  1.09  1.24 
1448  1.05  1.21  1.24 
1449  1.03  1.04  1.24 
1450  0.96  1.12  1.24 
1451  1.11  1.08  1.24 
1452  0.98  1.27  1.24 
1453  1.15  1.06  1.24 
1454  1.12  1.22  1.24 
1455  1.07  1.05  1.24 
1456  1.07  1.17  1.24 
1457  1.11  1.10  1.24 
1458  1.02  1.12  1.24 
1459  1.21  1.12  1.24 
1460  1.04  1.12  1.24 
1461  1.01  1.14  1.24 
1462  1.10  1.08  1.24 
1463  0.95  1.16  1.24 
1464  1.08  1.01  1.24 
1465  1.09  1.14  1.24 
1466  0.90  1.13  1.24 
1467  1.13  1.11  1.24 
1468  1.10  1.13  1.24 
1469  0.95  1.12  1.24 
1470  0.81  1.03  1.24 
1471  1.09  1.14  1.24 
1472  1.16  1.09  1.24 
1473  1.00  1.23  1.24 
1474  1.03  1.13  1.24 
1475  1.10  1.13  1.24 
1476  1.21  1.13  1.24 
1477  1.10  1.10  1.24 
1478  1.13  1.11  1.24 
1479  1.04  1.13  1.24 
1480  0.99  1.19  1.24 
1481  0.93  1.17  1.24 
1482  1.15  1.04  1.24 
1483  1.11  1.14  1.24 
1484  1.02  1.10  1.24 
1485  1.11  1.06  1.24 
1486  1.08  0.92  1.24 
1487  0.93  1.12  1.24 
1488  1.07  1.07  1.24 
1489  1.10  1.03  1.24 
1490  1.05  1.21  1.24 
1491  0.95  1.14  1.24 
1492  1.09  1.17  1.24 
1493  0.88  1.17  1.24 
1494  1.04  1.19  1.24 
1495  1.05  1.16  1.24 
1496  1.09  1.20  1.24 
1497  1.08  1.22  1.24 
1498  1.03  1.23  1.24 
1499  1.12  1.26  1.24 
1500  1.14  1.09  1.24 
1501  0.91  1.16  1.24 
1502  1.09  1.24  1.24 
1503  1.14  1.21  1.24 
1504  1.11  1.15  1.24 
1505  1.14  1.31  1.24 
1506  1.21  1.19  1.24 
1507  1.13  1.18  1.24 
1508  1.11  1.32  1.24 
1509  0.95  1.20  1.24 
1510  1.10  1.13  1.24 
1511  1.05  1.20  1.24 
1512  1.10  1.17  1.24 
1513  0.96  1.22  1.24 
1514  1.16  1.16  1.24 
1515  1.02  1.22  1.24 
1516  1.07  1.30  1.24 
1517  1.08  1.32  1.24 
1518  1.14  1.28  1.24 
1519  1.10  1.18  1.24 
1520  1.02  1.32  1.24 
1521  1.19  1.25  1.24 
1522  1.20  1.24  1.24 
1523  1.01  1.12  1.24 
1524  0.96  1.05  1.24 
1525  1.08  1.17  1.24 
1526  1.16  1.06  1.24 
1527  1.13  1.14  1.24 
1528  1.15  1.11  1.24 
1529  1.09  1.17  1.24 
1530  1.00  1.18  1.24 
1531  0.83  1.18  1.24 
1532  1.10  1.24  1.24 
1533  1.11  1.13  1.24 
1534  1.12  1.16  1.24 
1535  1.06  1.14  1.24 
1536  1.06  1.18  1.24 
1537  1.11  0.95  1.24 
1538  1.03  1.12  1.24 
1539  0.96  1.17  1.24 
1540  1.11  1.19  1.24 
1541  1.15  1.14  1.24 
1542  1.12  1.16  1.24 
1543  1.05  1.05  1.24 
1544  1.10  1.09  1.24 
1545  1.08  1.16  1.24 
1546  1.01  0.83  1.24 
1547  0.96  1.22  1.24 
1548  0.93  1.17  1.24 
1549  1.20  1.21  1.24 
1550  1.11  1.20  1.24 
1551  0.95  1.19  1.24 
1552  1.15  1.00  1.24 
1553  1.10  1.16  1.24 
1554  1.14  1.16  1.24 
1555  0.76  1.12  1.24 
1556  1.13  0.99  1.24 
1557  1.09  1.03  1.24 
1558  1.14  0.55  1.24 
1559  1.15  0.39  1.24 
1560  0.98  0.72  1.24 
1561  1.08  0.54  1.24 
1562  1.06  1.01  1.24 
1563  0.96  0.92  1.24 
1564  0.63  0.91  1.24 
1565  1.08  1.07  1.24 
1566  1.20  1.06  1.24 
1567  0.86  0.66  1.24 
1568  1.09  0.69  1.24 
1569  1.07  0.93  1.24 
1570  1.14  0.86  1.24 
1571  1.00  0.45  1.24 
1572  1.03  0.59  1.24 
1573  0.99  0.93  1.24 
1574  1.13  0.76  1.24 
1575  1.11  0.88  1.24 
1576  0.91  0.90  1.24 
1577  1.03  0.94  1.24 
1578  1.13  0.88  1.24 
1579  1.07  0.93  1.24 
1580  1.11  0.91  1.24 
1581  1.16  0.89  1.24 
1582  1.12  1.01  1.24 
1583  0.92  1.10  1.24 
1584  1.05  1.06  1.24 
1585  1.08  0.79  1.24 
1586  1.02  0.85  1.24 
1587  1.05  0.75  1.24 
1588  1.11  0.91  1.24 
1589  1.05  0.59  1.24 
1590  0.93  0.89  1.24 
1591  0.94  1.00  1.24 
1592  1.09  0.98  1.24 
1593  1.09  0.99  1.24 
1594  1.10  0.82  1.24 
1595  1.08  0.79  1.24 
1596  1.10  0.67  1.24 
1597  0.92  0.93  1.24 
1598  1.08  0.95  1.24 
1599  1.13  0.82  1.24 
1600  1.23  1.02  1.24 
1601  0.98  0.88  1.24 
1602  1.11  1.04  1.24 
1603  0.99  0.84  1.24 
1604  1.11  0.71  1.24 
1605  1.09  0.78  1.24 
1606  1.14  0.97  1.24 
1607  1.12  0.94  1.24 
1608  1.07  0.91  1.24 
1609  1.17  0.99  1.24 
1610  1.06  1.03  1.24 
1611  1.14  0.74  1.24 
1612  1.07  0.73  1.24 
1613  1.10  0.83  1.24 
1614  1.04  1.09  1.24 
1615  1.08  0.97  1.24 
1616  1.07  0.76  1.24 
1617  1.08  0.85  1.24 
1618  1.03  0.79  1.24 
1619  1.06  0.77  1.24 
1620  1.08  0.85  1.24 
1621  1.10  0.69  1.24 
1622  1.01  1.10  1.24 
1623  0.91  1.04  1.24 
1624  1.12  1.23  1.24 
1625  1.08  1.16  1.24 
1626  1.15  1.10  1.24 
1627  1.16  1.19  1.24 
1628  1.03  1.24  1.24 
1629  1.05  1.21  1.24 
1630  1.10  1.24  1.24 
1631  1.01  1.15  1.24 
1632  1.13  1.17  1.24 
1633  1.10  1.12  1.24 
1634  1.20  1.21  1.24 
1635  1.21  1.24  1.24 
1636  1.07  1.24  1.24 
1637  1.08  1.23  1.24 
1638  1.12  1.10  1.24 
1639  1.12  1.08  1.24 
1640  0.92  1.11  1.24 
1641  1.06  1.10  1.24 
1642  1.16  1.14  1.24 
1643  1.14  1.09  1.24 
1644  1.16  1.05  1.24 
1645  1.09  1.07  1.24 
1646  0.97  0.98  1.24 
1647  1.00  1.07  1.24 
1648  1.08  0.86  1.24 
1649  1.05  1.03  1.24 
1650  1.06  0.96  1.24 
1651  0.97  1.00  1.24 
1652  1.13  1.02  1.24 
1653  1.10  1.04  1.24 
1654  1.01  1.02  1.24 
1655  0.99  1.07  1.24 
1656  1.03  1.08  1.24 
1657  1.06  0.83  1.24 
