iteration,time_sampling,stoc_pol_mean,stoc_pol_std,stoc_pol_max,stoc_pol_min,rollout_success,alpha,delta,time_vpg,time_npg,kl_dist,surr_improvement,running_score,rwd_sparse,rwd_dense,success_percentage,num_samples,time_VF,VF_error_before,VF_error_after,env_samples,eval_score,eval_success
0,1.3515136241912842,0.028792110332932424,0.021678247975646735,0.059479767989054265,0.0028595007652730954,0.0,0.14129044467851834,0.1,0.19999361038208008,1.0287842750549316,0.05552806,1.3967551,0.028792110332932424,0.0,0.0005694074398098126,0.0,200,0.20516610145568848,2.3758547044766316,0.8344303617999167,200,0.02595161594520599,0.0
1,1.2523038387298584,0.03376148320658649,0.014253993313071941,0.053596565531408784,0.018543647653550578,0.0,0.14659117403236666,0.1,0.0033648014068603516,0.10441422462463379,0.04837303,0.75517035,0.029289047620297833,0.0,0.0006428411455435125,0.0,200,0.18039917945861816,0.6661661432373581,0.36420353961139956,400,0.031188539965480863,0.0
2,1.3039312362670898,0.026041900721046583,0.006070598228481593,0.03475962723484258,0.017857865675490418,0.0,0.14934556717448236,0.1,0.09885406494140625,0.3884768486022949,0.052401684,0.97434855,0.02896433293037271,0.0,0.0005184812122190376,0.0,200,0.21080589294433594,0.7892243986330736,0.2561198598843049,600,0.03355804501517943,0.0
3,1.311103105545044,0.03895355812275801,0.03809522542064686,0.10159799286883757,0.005781175682150261,0.0,0.1458736450625722,0.1,0.003147602081298828,0.34142518043518066,0.050185345,1.1800445,0.02996325544961124,0.0,0.0007715188987931099,0.0,200,0.2126295566558838,0.6490233393819158,0.5474393647378445,800,0.050748365837960184,0.0
4,1.281611680984497,0.13959276011700644,0.11062082149531541,0.31191697647705185,0.014321857861571318,0.0,0.13787947419854027,0.1,0.06557369232177734,0.6037871837615967,0.050531603,1.4628979,0.04092620591635076,0.0,0.002726833842904882,0.0,200,0.18001151084899902,0.8088826106697987,0.5200960064177199,1000,0.06279259261639514,0.0
5,1.3650386333465576,0.12858560558492388,0.056569884201912946,0.20227024883030842,0.06934569334038658,0.0,0.13577927541757587,0.1,0.006113529205322266,0.37723708152770996,0.050038394,1.0681701,0.049692145883208076,0.0,0.0025342313903833234,0.0,200,0.17419028282165527,0.37770800080800476,0.4230419046432535,1200,0.09270017295004555,0.0
6,1.399465799331665,0.04161209251049919,0.042644814970471664,0.11505632425245997,0.009735409387679734,0.0,0.15200346905674475,0.1,0.00534820556640625,0.05875706672668457,0.04879568,0.99080473,0.048884140545937184,0.0,0.0008271751647186912,0.0,200,0.14582395553588867,4.360442275311409,2.3622359657623764,1400,0.20000332054641226,0.0
7,1.312408208847046,0.032340841723364,0.021619493910551714,0.06722177953673311,0.00787416642724089,0.0,0.15322898095101964,0.1,0.005367279052734375,0.3049583435058594,0.053506456,0.9533627,0.047229810663679865,0.0,0.0006371622785708391,0.0,200,0.04583168029785156,6.442909080958504,1.1740313773785152,1600,0.14090101811210615,0.0
8,1.3672025203704834,0.10483212341528401,0.07847663986973774,0.22171260890415306,0.02189749968225323,0.0,0.14245796481788572,0.1,0.00528717041015625,0.062166690826416016,0.051134773,1.1592714,0.05299004193884028,0.0,0.0020727561746716546,0.0,200,0.18499040603637695,0.5129427766898993,0.6549889538793626,1800,0.24989340322282896,0.0
9,1.3645479679107666,0.15903737726986794,0.18343901822412678,0.4627671167214308,0.010611049482823992,0.0,0.1356019155624278,0.1,0.07847404479980469,0.5645406246185303,0.05178303,1.7479016,0.06359477547194305,0.0,0.0031667641942281595,0.0,200,0.24456501007080078,0.8290054799190756,0.7728951886843551,2000,0.23735984837031232,0.0
10,1.5034146308898926,0.03524089072200924,0.021163496956472946,0.05759395416178651,0.0065226035443598455,0.0,0.1414321673005792,0.1,0.01689314842224121,0.16030550003051758,0.048643317,1.1686903,0.06075938699694967,0.0,0.0007047792271413762,0.0,200,0.3179492950439453,0.6742900543152243,1.2457643498578226,2200,0.150514225726845,0.0
11,1.2894306182861328,0.10744195912656934,0.10328817345901274,0.2746557656430415,0.01452753341779345,0.0,0.13392297846734505,0.1,0.10275697708129883,0.5056166648864746,0.048565846,1.4628452,0.06542764420991164,0.0,0.002147466440225775,0.0,200,0.0579829216003418,0.6451245594454637,0.6254955692344989,2400,0.17985332325671335,0.0
12,1.292079210281372,0.11019434932935775,0.09142272142405343,0.2660519808446449,0.04084778358737055,0.0,0.1377462925255977,0.1,0.005828142166137695,0.15651440620422363,0.051096268,2.6253633,0.06990431472185625,0.0,0.0022026316533646307,0.0,200,0.17051935195922852,0.5897619424187636,0.5618599428343326,2600,0.21676122811328827,0.0
13,1.250044345855713,0.11230573042478366,0.12277817694203244,0.31723535775414285,0.0156272426028346,0.0,0.14035840003893435,0.1,0.017182350158691406,0.10770440101623535,0.049958535,1.5086383,0.07414445629214898,0.0,0.002232089148425889,0.0,200,0.09455204010009766,0.6183516125196291,0.6031546413299053,2800,0.18445368321884717,0.0
14,1.3274328708648682,0.21391344953019037,0.16112319008768994,0.47532568077557713,0.08026114610130577,0.0,0.13369445612293582,0.1,0.0037772655487060547,0.06423306465148926,0.049174987,1.6612175,0.08812135561595313,0.0,0.004250914580833709,0.0,200,0.062316179275512695,0.5870958300681897,0.5081091962936418,3000,0.5223559371705591,0.0
15,1.3082516193389893,0.10383195774959306,0.04955102519629194,0.18951473391584472,0.07199062330999008,0.0,0.1374946342196961,0.1,0.10065889358520508,0.2974996566772461,0.04966601,1.1468693,0.08969241582931713,0.0,0.0019129936120039525,0.0,200,0.23908638954162598,0.3979904434920343,0.5715232312929546,3200,0.4558585253619685,0.0
16,1.3317747116088867,0.09606087062854518,0.04991139105596278,0.18050367665522396,0.05855891466911249,0.0,0.12962523285475547,0.1,0.005799055099487305,0.4937264919281006,0.05049614,1.886449,0.09032926130923993,0.0,0.0018743480123863993,0.0,200,0.08155560493469238,0.6241990542629016,0.48998707998352703,3400,0.4269628843743745,0.0
17,1.3857288360595703,0.1768632156297176,0.08650974505371989,0.28022546462776277,0.05371704872579969,0.0,0.13490031159292656,0.1,0.09810972213745117,0.9583375453948975,0.048923276,1.1727381,0.0989826567412877,0.0,0.003505478843747021,0.0,200,0.21541380882263184,0.29553451031131955,0.30302940003604667,3600,0.3924698636628361,0.0
18,1.3953571319580078,0.45376064150777407,0.1528819264986181,0.5685857176675,0.19497076557633872,0.0,0.13654856693432182,0.1,0.0056514739990234375,0.5613360404968262,0.04921259,0.96495456,0.13446045521793634,0.0,0.00906893907259284,0.0,200,0.22355413436889648,0.5915447123281553,0.4635037188118204,3800,0.6012136097178298,0.0
19,1.3638968467712402,0.18826081144402407,0.14679340427191687,0.42250771291311573,0.028624194170551134,0.0,0.13760571142073608,0.1,0.10302352905273438,0.39493846893310547,0.04869977,1.1651502,0.13984049084054512,0.0,0.0036390842993015305,0.0,200,0.17891287803649902,0.42050753261144014,0.4987992516630122,4000,0.4540185422242431,0.0
20,1.3572595119476318,0.18204402090299734,0.029896613920991116,0.22625328732406022,0.152761846955656,0.0,0.1360075230826792,0.1,0.1040034294128418,0.22121953964233398,0.05082886,1.4450104,0.14406084384679035,0.0,0.003630897404492113,0.0,200,0.14700722694396973,0.3042199420957365,0.29063229224013587,4200,0.4492674654811382,0.0
21,1.3837592601776123,0.13861535792440013,0.10585611668417304,0.3122314084194323,0.0254084195291777,0.0,0.12771249159383435,0.1,0.09250473976135254,0.05894064903259277,0.04933757,2.4477966,0.14351629525455134,0.0,0.0027598086116176032,0.0,200,0.1376492977142334,1.0131792938438915,0.6150880118076463,4400,0.4346957307129848,0.0
22,1.382969856262207,0.6501180503936408,0.5784310601747673,1.5906073985247335,0.026336458276646362,0.0,0.1282995885235111,0.1,0.0033304691314697266,0.40151071548461914,0.049481567,3.7947555,0.19417647076846029,0.0,0.012942730401487763,0.0,200,0.22686076164245605,0.7451397874755533,0.6990143646228053,4600,0.39328406665680066,0.0
23,1.394089937210083,0.147251269577715,0.050713294024677155,0.186909914234245,0.06083830872482316,0.0,0.1461172918935905,0.1,0.0068399906158447266,0.7247705459594727,0.04970088,0.8535524,0.18948395064938578,0.0,0.0028502609219959625,0.0,200,0.2481386661529541,0.6078586451594703,0.9145039711681562,4800,0.3511039222067663,0.0
24,1.5165050029754639,0.423447023087012,0.2489348946132047,0.7056784380123363,0.08298193308834236,0.0,0.1314256091242476,0.1,0.027480363845825195,0.18274593353271484,0.04942899,1.2930397,0.2128802578931484,0.0,0.008401373403723236,0.0,200,0.14541888236999512,0.4264137875512901,0.40129639400548034,5000,0.34685840499932025,0.0
25,1.3760972023010254,0.16166306339783632,0.09536425624685944,0.31810399827700697,0.07747345319389856,0.0,0.1363846702047345,0.1,0.15400910377502441,1.6840884685516357,0.04987999,1.4155618,0.20775853844361722,0.0,0.0031942666513885645,0.0,200,0.18338584899902344,0.9146139241859464,0.8875659878126217,5200,0.9798259158686732,0.0
26,1.4296610355377197,0.14062358315516457,0.06792049887743397,0.19300744125253877,0.024460030480337097,0.0,0.13533080946267653,0.1,0.0031490325927734375,1.1370832920074463,0.04854201,1.3333015,0.20104504291477193,0.0,0.002810798790111593,0.0,200,0.13604402542114258,1.7492336656636618,0.979471261009677,5400,0.4743426984045563,0.0
27,1.4039700031280518,0.1737192043253712,0.17311998943989407,0.4663168061756125,0.014768235068032353,0.0,0.1274075586567817,0.1,0.0919187068939209,0.3989436626434326,0.049587682,1.7846956,0.19831245905583186,0.0,0.003471770610082894,0.0,200,0.21698832511901855,0.6462962206224271,0.5510785961154334,5600,0.4365772374840026,0.0
28,1.464418888092041,0.07331529377732623,0.027416767881975165,0.1164466455762533,0.04206039263237975,0.0,0.13236006654354687,0.1,0.007404804229736328,0.05950117111206055,0.05050312,0.9417902,0.1858127425279813,0.0,0.0014545873206586678,0.0,200,0.17452383041381836,3.4025636273933806,1.2848220180072154,5800,0.4827866868429995,0.0
29,1.343277931213379,0.413799500410517,0.5204351785621861,1.3061371600865448,0.018962931565348194,0.0,0.13273211388887232,0.1,0.005728244781494141,0.0981605052947998,0.048502024,1.8318807,0.20861141831623486,0.0,0.008259451449240828,0.0,200,0.1734476089477539,0.8097431356173935,0.7956239898562476,6000,1.2778493531164778,0.0
30,1.5009088516235352,0.24635476090129457,0.2244291179632174,0.6281838918865361,0.05073502595587766,0.0,0.14472616411535805,0.1,0.09985494613647461,0.30881190299987793,0.050968345,1.7609012,0.21238575257474082,0.0,0.004896795297876286,0.0,200,0.23720645904541016,0.6021885250554371,0.5610151136613831,6200,0.511819346430495,0.0
31,1.4018642902374268,0.19597192920337134,0.08007850378711728,0.31234892104204026,0.10526273996781474,0.0,0.13637725553482133,0.1,0.005297660827636719,0.281341552734375,0.049673136,1.0992234,0.21074437023760387,0.0,0.003880985316699422,0.0,200,0.10458970069885254,0.21339261851899222,0.23285768346002378,6400,0.9251456318433449,0.0
32,1.3459441661834717,0.10618022754599424,0.0480929533916987,0.1716400632400441,0.03893266850761031,0.0,0.13483990819598513,0.1,0.09804081916809082,0.20087242126464844,0.049732164,0.81693286,0.2002879559684429,0.0,0.0021118213221811124,0.0,200,0.17409014701843262,1.0994082483820145,1.092594914183159,6600,0.5099365280993037,0.0
33,1.4889230728149414,0.32855995982987946,0.07343855680232875,0.40466509435788606,0.2094137147723376,0.0,0.1303912528769379,0.1,0.005651950836181641,0.061847686767578125,0.050724708,0.82344127,0.21311515635458655,0.0,0.006425464043789481,0.0,200,0.16991496086120605,0.3204366586020972,0.31072607195953883,6800,0.4489171971119273,0.0
34,1.396813154220581,0.09724369467472377,0.0224073826420723,0.12641842281942542,0.06549567796537656,0.0,0.14058579549487155,0.1,0.10015630722045898,0.557138204574585,0.049564432,0.9894704,0.20152801018660027,0.0,0.0019390235272228576,0.0,200,0.1820981502532959,1.609537894677125,1.541592388261909,7000,0.5739586970647587,0.0
35,1.4022302627563477,0.3981344706412707,0.04787831099190053,0.4703969922529173,0.3414121597720934,0.0,0.1352455550509628,0.1,0.09787487983703613,0.9348571300506592,0.050225392,0.891724,0.22118865623206732,0.0,0.007875767415441225,0.0,200,0.037595272064208984,0.33668504978810776,0.30809563255764283,7200,0.7537078648812005,0.0
36,1.3999013900756836,0.2881829290539713,0.36374265507454434,0.9105286578093186,0.020373496406725655,0.0,0.1270237142213401,0.1,0.02863907814025879,0.06298971176147461,0.05057309,2.6046557,0.22788808351425774,0.0,0.005758923134233682,0.0,200,0.10381197929382324,0.6850987216532164,0.6735920863728089,7400,0.7925675134077288,0.0
37,1.416550874710083,0.09146218893264776,0.05951583865183753,0.18620181476211203,0.02954373261559849,0.0,0.12957863626630117,0.1,0.003213167190551758,0.05846238136291504,0.05029512,1.3471669,0.21424549405609675,0.0,0.0018132230008166914,0.0,200,0.11287999153137207,2.9748120394464084,2.9111458194429978,7600,1.4211024617353674,0.0
38,1.4181232452392578,0.5211539656670432,0.590685736701584,1.5410754731087823,0.10523323053320968,0.0,0.14105239172565504,0.1,0.003370523452758789,0.05799698829650879,0.05001688,1.4343083,0.2449363412171914,0.0,0.010422730620523702,0.0,200,0.1813809871673584,0.7433510571652154,0.727293147247967,7800,1.0395440742369202,0.0
39,1.487450361251831,0.2030378010447877,0.13529081447279223,0.34265745896656574,0.03022659943622794,0.0,0.13286365763842686,0.1,0.008201122283935547,0.07920169830322266,0.050452817,1.1042619,0.24074648719995104,0.0,0.004017933701178664,0.0,200,0.18007159233093262,0.389418823446165,0.42934817200167136,8000,1.4710957300729406,0.0
40,1.4777636528015137,0.2715571090778876,0.26961447322106075,0.7184769340091134,0.05501513354339267,0.0,0.12834211673600485,0.1,0.005187511444091797,0.30704236030578613,0.04973068,1.8169436,0.2438275493877447,0.0,0.00533838889236775,0.0,200,0.03136587142944336,0.5582938171203079,0.5537172431635685,8200,0.5938472144003722,0.0
41,1.4514620304107666,0.41215973393093464,0.18187528862934935,0.6689059633229726,0.18129925143352327,0.0,0.12870723359146743,0.1,0.004976749420166016,0.5079264640808105,0.050501123,2.6121104,0.2606607678420637,0.0,0.00819379295530514,0.0,200,0.08479619026184082,0.31428311623681043,0.289558726287503,8400,1.9827445324792559,0.0
42,1.3084907531738281,0.2626856272881035,0.1971605536916415,0.5938605900238425,0.08375872429765784,0.0,0.12986758251311928,0.1,0.09750604629516602,0.8320190906524658,0.048161067,1.8992517,0.2608632537866677,0.0,0.005249671229372646,0.0,200,0.09628033638000488,0.4270776705255983,0.4202817101810191,8600,3.0256420169446137,0.0
43,1.4546637535095215,0.9535596010899055,0.6537816894353469,1.9765174113699489,0.18391859674897462,0.0,0.12994953156733827,0.1,0.0057392120361328125,0.4541783332824707,0.04978595,1.7990652,0.3301328885169915,0.0,0.019049487513876046,0.0,200,0.16954636573791504,0.6484099470862352,0.5686373176228844,8800,1.35356665492848,0.0
44,1.3515338897705078,0.4796609519720844,0.16490002223179095,0.6498161586427442,0.2213500580942757,0.0,0.12948664958399392,0.1,0.09971976280212402,0.21518230438232422,0.049423307,0.9853146,0.34508569486250085,0.0,0.009533997206917347,0.0,200,0.17342519760131836,0.21487590319046063,0.2169618299803557,9000,2.7680268174184235,0.0
45,1.4072775840759277,0.3303970421262442,0.24473991535494719,0.6950500325168766,0.04985293880467461,0.0,0.13792143938309515,0.1,0.09773087501525879,0.3311583995819092,0.050578736,1.0216188,0.3436168295888752,0.0,0.0064744098326343594,0.0,200,0.16995549201965332,0.7005871066834275,0.6933435543079689,9200,2.9631676676903003,0.0
46,1.4600038528442383,0.3191610726565397,0.18844190716064232,0.5339304014491262,0.07558396466134681,0.0,0.12792345371885117,0.1,0.0052335262298583984,0.397463321685791,0.050667945,1.282864,0.3411712538956416,0.0,0.006370777695730028,0.0,200,0.050272464752197266,0.778576556603895,0.46811809715711317,9400,1.6717632957052977,0.0
47,1.4773492813110352,0.4419012315842337,0.3126337414409157,0.7629669419602277,0.07370750237508882,0.0,0.13781751559982247,0.1,0.0034317970275878906,0.08659529685974121,0.050049838,1.0500277,0.35124425166450085,0.0,0.008576904168409472,0.0,200,0.23743462562561035,0.36335331486425887,0.3744855518164491,9600,4.263214429799667,0.0
48,1.4269435405731201,0.7145942549377324,0.4696853250002916,1.377122488233376,0.16152534242007416,0.0,0.12974789653172653,0.1,0.10037875175476074,0.16674017906188965,0.049172577,1.492123,0.387579251991824,0.0,0.014289531730848199,0.0,200,0.1654965877532959,0.4634511385092532,0.4403368442568722,9800,1.5568717805539196,0.0
