iteration,time_sampling,stoc_pol_mean,stoc_pol_std,stoc_pol_max,stoc_pol_min,rollout_success,alpha,delta,time_vpg,time_npg,kl_dist,surr_improvement,running_score,rwd_sparse,rwd_dense,success_percentage,num_samples,time_VF,VF_error_before,VF_error_after,env_samples,eval_score,eval_success
0,0.6619532108306885,78.67474080823357,16.733291142673327,96.75065116604952,52.55712854569755,100.0,0.09239956704836037,0.1,0.03880000114440918,0.058158159255981445,0.20420758,2.1592236,78.67474080823357,1.6505429441390036,0.190952516240212,100.0,155,0.01522684097290039,1.0001804130663536,0.9995519391661258,155,167.69975236136995,100.0
1,0.5587248802185059,83.59252617946953,24.830683248513584,113.41026583393412,52.520303337977026,100.0,0.17211123222556457,0.1,0.0033140182495117188,0.06740570068359375,0.04985091,0.73389494,79.16651934535716,1.6640420749588714,0.1936701038380577,100.0,144,0.013582706451416016,0.9996368711533068,0.9992059162240945,299,160.19680136263102,100.0
2,0.5706322193145752,65.85897641701813,25.320778754802536,91.7268448609278,35.624481920022745,100.0,0.17212008808698148,0.1,0.0032949447631835938,0.06090879440307617,0.050027773,0.7471752,77.83576505252327,1.6789274947091855,0.17640977705549632,100.0,142,0.013238668441772461,0.9989221284367137,0.9983672757155655,441,146.45419156574138,100.0
3,0.6052758693695068,74.02013173474802,19.26419238828867,106.59001890588617,58.01844850514736,100.0,0.17583907683068312,0.1,0.003453493118286133,0.08880782127380371,0.04987929,0.6316765,77.45420172074574,1.6455895888847876,0.18605408440412524,100.0,151,0.016768455505371094,0.9984897426606869,0.99799481712135,592,139.15114845530852,100.0
4,0.6166892051696777,83.91179708090357,24.47339681416608,123.32046057053236,57.74749914898635,100.0,0.1799865607627663,0.1,0.0032110214233398438,0.08696675300598145,0.050086237,0.8034449,78.09996125676153,1.6620756386727193,0.19590748382870535,100.0,157,0.017729759216308594,0.9982238685565173,0.9977170751541522,749,149.71364335348017,100.0
5,0.6107308864593506,88.33624269481948,36.90902975266024,150.47729004589044,55.90564965161991,100.0,0.16779750521083434,0.1,0.0032193660736083984,0.07857084274291992,0.05048908,1.1993718,79.12358940056733,1.6504975769642125,0.19824921607203044,100.0,140,0.014267206192016602,0.9984802701395424,0.99806992142865,889,143.27632351778286,100.0
6,0.6292319297790527,76.65783250879676,14.615530049119934,94.4645055537398,53.88942283090786,100.0,0.16766740984681325,0.1,0.0052454471588134766,0.08348965644836426,0.049583144,0.8030786,78.87701371139026,1.657003116551862,0.18736354325730795,100.0,148,0.016298770904541016,0.9968373539724013,0.9960512374890851,1037,134.30453022082975,100.0
7,0.6468210220336914,81.02284553521284,12.523718165917261,101.46362024708168,69.87918937809769,100.0,0.16067769949853947,0.1,0.003710031509399414,0.08469867706298828,0.050773818,0.8861979,79.09159689377252,1.661130272913446,0.19303714768592756,100.0,152,0.016216516494750977,0.996153403312501,0.9952150780666466,1189,144.68981687493223,100.0
8,0.6429476737976074,86.25791537478028,27.1061605796502,115.93647651783566,50.6738376381563,100.0,0.16516005506404102,0.1,0.005169391632080078,0.09204840660095215,0.050346192,0.80134845,79.8082287418733,1.6420779035085555,0.19836380796908673,100.0,147,0.026499509811401367,0.99597022458116,0.9950108861761017,1336,147.3836039113493,100.0
9,0.6266546249389648,75.23414881770525,32.464242908413695,111.77530502170879,28.15074183102692,100.0,0.15614334001868274,0.1,0.0032994747161865234,0.06297588348388672,0.05001842,0.8792321,79.35082074945649,1.6715926122004012,0.18500251996589612,100.0,140,0.014416217803955078,0.9942968880651869,0.9930190967319614,1476,150.5115538386801,100.0
10,0.6782307624816895,106.76441817278607,29.000847729494797,152.78352538032817,77.0509770627279,100.0,0.16573719720113378,0.1,0.0031430721282958984,0.05642223358154297,0.05005635,0.78177506,82.09218049178946,1.625066216051723,0.21998160119873036,100.0,157,0.012127876281738281,0.9955698916401767,0.9945819758677191,1633,155.35863043515695,100.0
11,0.6780104637145996,76.99650631186795,18.081735302425123,92.22835234377884,46.137812849313875,100.0,0.16850985203537466,0.1,0.004037618637084961,0.058095693588256836,0.050016996,0.9783859,81.58261307379732,1.673140020509993,0.18905093728471747,100.0,148,0.01232767105102539,0.9910974713015057,0.9892016610602307,1781,161.64855362060058,100.0
12,0.6917738914489746,82.90390799331496,35.22715391059669,135.721935512683,38.56610828201093,100.0,0.16978952868754332,0.1,0.003455638885498047,0.0580296516418457,0.050392095,0.7758685,81.71474256574908,1.6684597130692569,0.19418615433256317,100.0,150,0.01236414909362793,0.9904260595109938,0.9884334976995006,1931,164.46881352725154,100.0
13,1.0855517387390137,67.35458658068542,25.876797953344145,100.40315657244916,37.70600411219037,100.0,0.1615818041421088,0.1,0.0033364295959472656,0.05846118927001953,0.050343826,0.9895098,80.2787269672427,1.6735833147065595,0.17778047440013156,100.0,142,0.015045404434204102,0.9856710729276044,0.9827891537601551,2073,158.2696033426101,100.0
14,0.6294913291931152,79.81401946220905,23.90127086669409,115.30746171469184,48.852951243593125,100.0,0.16676484935696104,0.1,0.0054247379302978516,0.06048083305358887,0.05016948,0.8120485,80.23225621673933,1.6602841651588787,0.1909318204265924,100.0,144,0.01990222930908203,0.9856401498497649,0.9828458146040683,2217,146.7440955220334,100.0
15,0.6357965469360352,90.06376470395733,15.405349812707486,111.7000507389864,69.95864962938529,100.0,0.15967539480577944,0.1,0.00383758544921875,0.05792737007141113,0.04943602,0.8463968,81.21540706546114,1.6224105749304671,0.2009086890527498,100.0,148,0.01257634162902832,0.985071952000461,0.9822487653848777,2365,152.47677239575935,100.0
16,0.6414055824279785,77.11570839228575,15.107896422021089,94.72168084157754,58.01936383540507,100.0,0.15779108280872628,0.1,0.0033593177795410156,0.057912349700927734,0.050665073,0.85088927,80.8054371981436,1.6463023636591243,0.18782563488308024,100.0,141,0.016567707061767578,0.976927721332759,0.9727450480998298,2506,158.95993706696115,100.0
17,0.6424105167388916,70.4137052729032,18.63193838585895,100.23104145562199,49.75704849144904,100.0,0.15545137658153554,0.1,0.003072500228881836,0.05550360679626465,0.05043374,0.9562814,79.76626400561956,1.6378862045552407,0.18030308291906377,100.0,133,0.013614177703857422,0.972629771731542,0.9677907861195695,2639,166.15604984586022,100.0
18,0.6671733856201172,90.03792737933527,15.635175622957751,104.71035479381513,64.62005168442177,100.0,0.16524974776163553,0.1,0.0033235549926757812,0.06290745735168457,0.04994792,0.9023775,80.79343034299113,1.6567792057907074,0.201261877811766,100.0,151,0.012703418731689453,0.9745803757311575,0.9702615977059764,2790,166.14747036834495,100.0
19,0.6664316654205322,97.7782181549709,16.41786637362304,122.19922953003021,79.796804663451,100.0,0.1657147605834108,0.1,0.003362894058227539,0.059125661849975586,0.0495282,0.78875124,82.4919091241891,1.6321871858018553,0.2080509516556511,100.0,143,0.01519155502319336,0.9760233416832393,0.9721371918924177,2933,170.41185159901934,100.0
20,0.6784980297088623,60.181996511895605,19.23970177877474,86.18798553834003,32.87625807958635,100.0,0.14313453371471457,0.1,0.0033483505249023438,0.058011531829833984,0.050357454,1.6400645,80.26091786295976,1.6608816215867246,0.170585602924816,100.0,143,0.015463113784790039,0.9470575363177564,0.938812605378591,3076,162.83491449688998,100.0
21,0.6953144073486328,77.78596043119474,22.31555483181781,114.67666688655778,54.97692455095296,100.0,0.15529554940552792,0.1,0.0031082630157470703,0.05761456489562988,0.049612064,1.1066567,80.01342211978326,1.6770396141050155,0.18933131710802525,100.0,149,0.014576196670532227,0.9518209134270849,0.9445903637242191,3225,172.0779917559614,100.0
22,0.7038030624389648,105.54674110479033,26.20239004942587,127.28584742867268,60.92237367117215,100.0,0.1584442769139591,0.1,0.0049860477447509766,0.05881094932556152,0.050121967,0.9504473,82.56675401828397,1.6263521603322513,0.21685830617049467,100.0,149,0.014844655990600586,0.9716220617795006,0.96772065295314,3374,159.35227578537797,100.0
23,0.7127425670623779,95.78059431680136,38.46852312461372,150.0295166168908,43.59134941510666,100.0,0.1637950765158323,0.1,0.003919124603271484,0.06449365615844727,0.049978413,0.7387402,83.88813804813572,1.651253389423043,0.20828013418038355,100.0,151,0.013872623443603516,0.9570025334266777,0.9514267019421212,3525,167.03471409071406,100.0
24,0.724088191986084,63.48802686554718,14.075303987162261,80.72259463060922,46.02829562468271,100.0,0.14629419362348775,0.1,0.0034050941467285156,0.05814361572265625,0.04921164,0.92406005,81.84812692987687,1.661157923527507,0.17475367539302722,100.0,147,0.012660741806030273,0.913524654701021,0.9023827543147446,3672,156.45873594168913,100.0
25,0.7371866703033447,77.23559920801193,26.394464594572955,104.83682405057121,50.531663339193884,100.0,0.16456598659647173,0.1,0.0043256282806396484,0.06204724311828613,0.049221817,0.8964977,81.38687415769037,1.6740827403637362,0.19039185725756985,100.0,154,0.013638019561767578,0.9189257894568376,0.9086156754318402,3826,155.6496931032079,100.0
26,0.7161824703216553,59.13738995257321,20.371464956352693,93.1265436506955,39.115539755926804,100.0,0.15709262579213318,0.1,0.0062220096588134766,0.057546377182006836,0.050644226,1.1317511,79.16192573717865,1.6521963438650946,0.16919409713578346,100.0,136,0.013364076614379883,0.8829432187996031,0.8685780553340084,3962,160.71764212122307,100.0
27,0.7455220222473145,92.77123306782732,15.938837104740172,116.87868541231285,73.87696097966385,100.0,0.15312219079151046,0.1,0.0030121803283691406,0.05735278129577637,0.05031602,1.0751078,80.52285647024351,1.6670648427568096,0.20404743340651424,100.0,149,0.013715744018554688,0.9179962838047419,0.9087718609464843,4111,166.46713076642754,100.0
28,0.6602678298950195,119.74564193784738,18.622599421429715,136.7753250735625,88.25148935255298,100.0,0.1471545464537888,0.1,0.003201007843017578,0.057878732681274414,0.050040305,0.9722497,84.4451350170039,1.6800282970708176,0.23004515018933883,100.0,140,0.013396501541137695,0.9636234797190856,0.9602002725283425,4251,170.88628511896027,100.0
29,0.6749453544616699,68.63064149361966,37.23822597741871,129.2805691031554,34.62199493896085,100.0,0.14701964401260692,0.1,0.00310516357421875,0.05624747276306152,0.04951187,1.4879823,82.86368566466548,1.663912534038003,0.1800129403943507,100.0,147,0.013333797454833984,0.8760083035036625,0.8640757478414179,4398,158.25309384381893,100.0
30,0.6761200428009033,62.58831473242498,14.513967258975576,81.66401198596782,43.32843061726193,100.0,0.15460108094994526,0.1,0.004899740219116211,0.0569303035736084,0.0502134,1.4392357,80.83614857144143,1.64589818169116,0.17321494344026486,100.0,144,0.012699365615844727,0.83456228487697,0.8190114034524189,4542,153.95735528405956,100.0
31,0.693972110748291,95.54018287611088,28.07168436860177,126.54111754845057,65.64493952532536,100.0,0.16019059392281101,0.1,0.0031538009643554688,0.057924747467041016,0.050224148,0.8831049,82.30655200190837,1.647599640481194,0.20792104225441485,100.0,154,0.013990402221679688,0.8887586310740068,0.8787206666183837,4696,155.26244900918772,100.0
32,0.6876211166381836,81.09767968181984,15.129740112314748,98.43528058797028,62.2166858665249,100.0,0.15435463806660393,0.1,0.00337982177734375,0.055219173431396484,0.050005842,0.8290525,82.18566476989952,1.6380089172941983,0.1919795592608155,100.0,145,0.01419973373413086,0.8587887705923611,0.8474256589926998,4841,145.36140688195619,100.0
33,0.6991336345672607,103.36174402032772,17.42705277165156,119.69189018523231,77.3833181839671,100.0,0.1577684857722435,0.1,0.0033893585205078125,0.0633692741394043,0.050656293,0.8200759,84.30327269494234,1.6422255641394519,0.21251547367595097,100.0,140,0.012740135192871094,0.9324133711052186,0.9292414557365847,4981,149.15371224984975,100.0
34,0.7156164646148682,127.38142138537128,19.147078105349035,144.5066926910203,95.55699473022126,100.0,0.15038187823249557,0.1,0.0030524730682373047,0.05539107322692871,0.05070936,1.0487436,88.61108756398524,1.6628754919103164,0.2383690300695491,100.0,141,0.012567996978759766,0.9689564294326733,0.9675457821813123,5122,152.08027733281327,100.0
35,0.7313745021820068,92.11978759968883,21.84199050880746,118.4291072934882,67.28820642304917,100.0,0.15587331319070946,0.1,0.0031006336212158203,0.05552506446838379,0.049692962,1.2709655,88.9619575675556,1.6559124495844848,0.20319770532218046,100.0,146,0.020641088485717773,0.8685829023252102,0.8624469589470923,5268,153.25896818539877,100.0
36,0.723853588104248,74.94470575081341,20.97330498846993,99.65048978703894,42.37533658027532,100.0,0.1686797366773118,0.1,0.0030913352966308594,0.0549619197845459,0.050488103,1.071656,87.56023238588138,1.666764804827403,0.18501290775619428,100.0,139,0.013356447219848633,0.8085557795635152,0.7986957056724338,5407,143.19604189711052,100.0
37,0.7550444602966309,98.47280796039576,30.139265125438946,142.15374484642595,69.63488051510278,100.0,0.15705833668028377,0.1,0.0030493736267089844,0.05679130554199219,0.05020137,0.8929303,88.65148994333282,1.6864079106512058,0.20936161994338903,100.0,143,0.012196540832519531,0.8952590965582234,0.8911299798030833,5550,141.40408655223425,100.0
38,0.7471082210540771,72.27462488842433,19.58135802418922,104.68429906925591,54.08322387641584,100.0,0.16292801787343078,0.1,0.0029015541076660156,0.0574345588684082,0.050205782,0.85857946,87.01380343784197,1.6787740022569317,0.1835833368056483,100.0,147,0.010989665985107422,0.7533832329190204,0.7409083547686949,5697,143.94853438673243,100.0
39,0.7533094882965088,91.07094861672414,30.027775964514415,133.69871535506178,61.54515981370034,100.0,0.15804107389852193,0.1,0.0031621456146240234,0.05584883689880371,0.049725976,1.4144635,87.41951795573019,1.663199863344345,0.20311352085785894,100.0,149,0.013342142105102539,0.8311792624104218,0.8233709970242777,5846,153.48130630485358,100.0
40,0.7767064571380615,102.20965480368321,39.81706102008233,153.77437281150293,42.74012075933673,100.0,0.1616062710821844,0.1,0.003195047378540039,0.05699038505554199,0.049993034,1.0543848,88.89853164052549,1.6398261697806535,0.21389616537719844,100.0,148,0.0159912109375,0.8799394357468329,0.875661311201401,5994,152.24702290395047,100.0
41,0.6935229301452637,108.78470765724369,25.554348227091435,152.05727120686316,86.36820882218134,100.0,0.15637089005451552,0.1,0.0031969547271728516,0.0602259635925293,0.050025776,1.1295267,90.88714924219731,1.6485637299604763,0.21994781744364242,100.0,147,0.012764453887939453,0.8539062284880257,0.8478947755931664,6141,163.4786409338879,100.0
42,0.6811347007751465,107.51531668931483,46.30468548162915,154.56939184389483,34.06761075610633,100.0,0.16741243664461775,0.1,0.003085613250732422,0.05711102485656738,0.05035469,0.91591954,92.54996598690906,1.6476060246089825,0.21841251873837084,100.0,142,0.014494657516479492,0.9137756930326847,0.9118742184328069,6283,154.12445037406079,100.0
43,0.7033863067626953,87.28197109531524,29.27125118455988,121.07625973749846,57.66579734011262,100.0,0.15801777665104766,0.1,0.003149747848510742,0.059927940368652344,0.05017387,0.92177695,92.02316649774967,1.6701955242872724,0.19824551328371703,100.0,141,0.020373106002807617,0.7951678915462185,0.788741464668465,6424,163.49218777055333,100.0
44,0.7076787948608398,85.168458886487,22.788919985900513,123.34607000302933,67.13142453158363,100.0,0.15494539630678664,0.1,0.0030596256256103516,0.061142683029174805,0.05011956,0.80499345,91.3376957366234,1.67483426266783,0.19562603964287711,100.0,137,0.01297903060913086,0.7701745589427135,0.7634890998149587,6561,164.47390529814675,100.0
45,0.7204110622406006,117.90454357681178,19.397520128333337,149.2555712228537,100.74123613043655,100.0,0.1615035785215568,0.1,0.0030705928802490234,0.05615043640136719,0.05004504,0.9001483,93.99438052064224,1.6403109446720336,0.2277279002994304,100.0,144,0.013774394989013672,0.9620654032567788,0.9596149625837891,6705,168.20525240349818,100.0
46,0.7224838733673096,101.61243042537407,28.555323239038085,135.9738890104761,57.72479112020886,100.0,0.16639415076343006,0.1,0.003189563751220703,0.05768871307373047,0.049590405,1.3582453,94.75618551111542,1.642585433582398,0.21270718552554882,100.0,145,0.013547897338867188,0.8300957388499233,0.8248272380247692,6850,177.5587623626191,100.0
47,0.720350980758667,86.79756910827209,46.81944965051559,151.64538153324133,33.52263317312483,100.0,0.1604448562436324,0.1,0.0033190250396728516,0.05863547325134277,0.050325643,1.3326964,93.96032387083109,1.6452835796516876,0.1972613306742674,100.0,143,0.011928796768188477,0.7908154682632239,0.7857557197773021,6993,172.33971725595572,100.0
48,0.7327558994293213,76.7625255059796,19.3763467096425,96.19971018211454,51.210982762476704,100.0,0.158495123586724,0.1,0.003296375274658203,0.056566476821899414,0.049929485,0.8884974,92.24054403434594,1.6684173561389768,0.18696873718843177,100.0,139,0.010923385620117188,0.7041122600443855,0.697831589787968,7132,174.26849770155243,100.0
49,0.7399799823760986,95.08321880447247,46.96727440749285,173.17988926706425,48.003459459802244,100.0,0.15762066022828686,0.1,0.003022909164428711,0.05855369567871094,0.050087314,1.17877,92.52481151135859,1.6798006557448528,0.2068085000631861,100.0,147,0.013875722885131836,0.8051977410072343,0.8000228330762259,7279,177.42456587283894,100.0
50,0.7656195163726807,83.12683120719828,13.38699415616731,102.5540753304653,68.02787488654981,100.0,0.16795652101911362,0.1,0.0033218860626220703,0.058519840240478516,0.05015229,0.9362431,91.58501348094256,1.6353731741796675,0.19591598373497746,100.0,157,0.014375448226928711,0.670927212421667,0.6634344030697766,7436,172.15202633643108,100.0
51,0.7612054347991943,85.36947639901085,19.73080397569043,110.82296299254712,55.384959796642704,100.0,0.15406173805719509,0.1,0.0032346248626708984,0.059737205505371094,0.049863346,0.9309368,90.9634597727494,1.6407858354011209,0.1965173896482869,100.0,144,0.0110321044921875,0.7208152192061048,0.7136259844835889,7580,153.07426494786668,100.0
52,0.7716388702392578,86.16004057884686,23.267884990268026,116.468342973359,60.914050269294634,100.0,0.16088638395003796,0.1,0.003083467483520508,0.06042218208312988,0.050058965,0.7947001,90.48311785335915,1.6533862102751928,0.19768696474153977,100.0,148,0.01377725601196289,0.7020455459727178,0.6939257375654707,7728,152.46493545796832,100.0
53,0.7819507122039795,90.59871210472863,24.83582545471623,117.03352841621108,50.968414729444575,100.0,0.1627489735300255,0.1,0.0031113624572753906,0.05733346939086914,0.05043224,0.8866528,90.4946772784961,1.6574529675034047,0.2019888720408756,100.0,149,0.013057231903076172,0.7204394395632464,0.7130918493977636,7877,137.34728061924255,100.0
54,1.1645944118499756,97.28518337355104,36.64264839644905,155.48943132227362,56.79709802578137,100.0,0.15853230041697433,0.1,0.002997875213623047,0.06290578842163086,0.050013572,0.8903243,91.1737278880016,1.6668891604747718,0.2082377766536339,100.0,150,0.014206886291503906,0.8107711776920599,0.8058908477629015,8027,125.689937805728,100.0
55,0.7002451419830322,91.33423721139306,11.877344674998538,105.3507214321681,74.67927085645779,100.0,0.15739587330923444,0.1,0.003148794174194336,0.06339573860168457,0.049441352,0.86533,91.18977882034075,1.6695910048479532,0.20161695272592026,100.0,141,0.014068126678466797,0.7093210090764543,0.7007512342373442,8168,123.84185832969136,100.0
56,0.7217302322387695,115.84910493331374,35.03800721627499,172.03224120067233,76.6066533559195,100.0,0.16818270253710876,0.1,0.005133152008056641,0.06070137023925781,0.050064143,0.87626785,93.65571143163805,1.6641793461946355,0.228666219259071,100.0,155,0.01090097427368164,0.7916936172697016,0.784776008210357,8323,128.78158172759922,100.0
57,0.7106575965881348,75.84181881407554,7.209937599360861,87.9789798929339,69.07243513141505,100.0,0.15564311579643822,0.1,0.0030031204223632812,0.05677509307861328,0.05076325,0.8626471,91.87432216988181,1.6953421694525772,0.18625045333435858,100.0,138,0.013701200485229492,0.578083927194653,0.5688471781495091,8461,124.68033444610313,100.0
58,0.7424302101135254,100.62116458424347,39.1884421999041,147.78762680557784,40.30712249094961,100.0,0.14935027686469407,0.1,0.0030739307403564453,0.06097912788391113,0.04966008,1.3912615,92.74900641131796,1.6312250189836037,0.21359476499454672,100.0,156,0.012847423553466797,0.7224128451880958,0.7147939161673965,8617,131.81970852000958,100.0
59,0.7262427806854248,115.41968970719546,28.90484743664528,145.65699847660125,72.11695553789637,100.0,0.15938943078744897,0.1,0.0032548904418945312,0.056896209716796875,0.04962057,1.0656464,95.01607474090572,1.6516645103554544,0.22670755046167698,100.0,144,0.014113664627075195,0.8054726771228412,0.793327388757573,8761,125.81209037858481,100.0
60,0.7282893657684326,74.63874943345107,10.095646142276294,88.09830205783564,61.64653217352759,100.0,0.15138804089698565,0.1,0.0029091835021972656,0.05477571487426758,0.05004786,0.90519303,92.97834221016025,1.6783851376047765,0.18359018577206015,100.0,133,0.01657843589782715,0.6081437674090093,0.5971434514357303,8894,129.115504070951,100.0
61,0.7404584884643555,115.38475660380374,17.474509658165417,137.59927002812384,94.19447416782809,100.0,0.1574738918447356,0.1,0.0032618045806884766,0.05957365036010742,0.050102443,0.88348705,95.2189836495246,1.6433884985647116,0.2264687991273672,100.0,145,0.016341447830200195,0.7816913655598022,0.7704024398599828,9039,152.4782579355392,100.0
62,0.7447874546051025,102.57625876231825,26.520716579666118,134.79387358799485,67.85235221603777,100.0,0.1503394900645553,0.1,0.0032067298889160156,0.05813932418823242,0.05003233,1.1487112,95.95471116080397,1.655550613090097,0.21377953857674803,100.0,149,0.012851476669311523,0.6871360228704818,0.6763031032365655,9188,137.9837154310535,100.0
63,0.7529497146606445,100.58810757838722,38.277000618445435,160.12601036388557,53.8489664222089,100.0,0.17071299070562337,0.1,0.0032682418823242188,0.060684919357299805,0.049471192,0.89043176,96.4180508025623,1.6749350420893954,0.21220444023403173,100.0,148,0.013951539993286133,0.7149289562192286,0.70332748729632,9336,133.90856235606472,100.0
64,0.7503576278686523,84.06860045240222,25.623765201778834,110.0952888680535,45.42513954957167,100.0,0.16158311171551193,0.1,0.0030612945556640625,0.05923295021057129,0.05001616,1.2132723,95.1831057675463,1.6572854065004026,0.19532948214795479,100.0,149,0.012803316116333008,0.5729613110232797,0.5622095238787131,9485,152.32290352226275,100.0
65,0.7575645446777344,86.27945978581663,18.18744144101073,109.36565492694446,58.694116380410094,100.0,0.1556028949178691,0.1,0.0029811859130859375,0.05544424057006836,0.049888957,1.0842328,94.29274116937333,1.6821093048239504,0.19714135949501388,100.0,144,0.012830257415771484,0.5654525242842605,0.5529706480907494,9629,144.6994141193293,100.0
66,0.7690074443817139,86.43603811849229,13.275067184986797,103.29947544482896,73.22503869891419,100.0,0.15333499778349416,0.1,0.0031914710998535156,0.058832645416259766,0.05006257,1.0065532,93.50707086428523,1.6438505576400293,0.1981057071425855,100.0,152,0.012338399887084961,0.5662978858374871,0.5540962271417292,9781,156.18745578897452,100.0
67,0.7748503684997559,111.13481344425315,25.879837719102444,147.33328414040858,80.17055132551103,100.0,0.1711788296097324,0.1,0.0031659603118896484,0.05976295471191406,0.050131854,0.7728398,95.26984512228202,1.6341834425852113,0.22296315797288987,100.0,157,0.013435840606689453,0.6884348524224587,0.6778377147815414,9938,160.17855920119177,100.0
68,0.7783386707305908,94.19344471909307,21.2323986357183,119.51333941158722,62.827860422436856,100.0,0.15281342306437293,0.1,0.002994537353515625,0.05745673179626465,0.04999636,1.0011332,95.16220508196314,1.6174607216585435,0.204847652505824,100.0,147,0.012294530868530273,0.5871923812785711,0.5754509380780088,10085,169.75832537376525,100.0
69,0.9248123168945312,83.24520567109973,28.89527232437506,120.51157676548303,44.8821458027726,100.0,0.1529637417136592,0.1,0.0030226707458496094,0.057004451751708984,0.04954523,1.4482807,93.9705051408768,1.6548711526177806,0.19439202322358257,100.0,148,0.016689538955688477,0.5517940140286983,0.5403170493685211,10233,161.7081276373399,100.0
70,0.7104427814483643,88.17766193283401,51.75268702468218,176.19896308866382,48.49855332760343,100.0,0.154264468405867,0.1,0.0031900405883789062,0.0575559139251709,0.05003651,1.3334917,93.39122082007252,1.6649030090514638,0.20060326504182452,100.0,155,0.013752937316894531,0.5756000866083839,0.5646270419091467,10388,159.89733088311147,100.0
71,0.710233211517334,102.03936596262116,31.22892222867632,132.8096612154966,56.91459397461256,100.0,0.15460952165545405,0.1,0.0029571056365966797,0.056162357330322266,0.049834993,1.1627173,94.25603533432738,1.6572891716225282,0.21292402976822736,100.0,149,0.01362156867980957,0.6450559836319104,0.6348285532111432,10537,161.3943651125312,100.0
72,0.7208025455474854,118.25628127237235,9.43047204781562,131.43153699880187,107.43875713844858,100.0,0.15226828927988112,0.1,0.003072023391723633,0.055535078048706055,0.049469367,1.0597714,96.65605992813188,1.5967427565637755,0.22858694666039317,100.0,144,0.012772083282470703,0.7120522684704916,0.6963233255153193,10681,165.502939788001,100.0
73,0.7338728904724121,107.4159376382598,17.19500517200915,128.4244538783193,80.54253169492678,100.0,0.1517440325936481,0.1,0.0031576156616210938,0.06100821495056152,0.04993436,1.1885998,97.73204769914469,1.6579437127956913,0.2188982299480742,100.0,154,0.012832403182983398,0.597501815479882,0.5849781614070432,10835,176.93140094310456,100.0
74,0.7227792739868164,114.04819215526258,21.518390602434042,150.18335299376162,93.45876890933567,100.0,0.16309187941243833,0.1,0.002997875213623047,0.05623197555541992,0.049888846,1.0401658,99.36366214475647,1.6480363331227077,0.22440273975396074,100.0,144,0.012286901473999023,0.6940951638392859,0.6787729012638611,10979,170.05427014065882,100.0
75,0.7111761569976807,110.29185516219334,26.90297946449113,134.7180853771224,65.60533111524472,100.0,0.15968413605434115,0.1,0.003056764602661133,0.05583310127258301,0.050689947,1.1511904,100.45648144650016,1.655492378141217,0.22017106548013052,100.0,141,0.012725591659545898,0.6328896701904086,0.622511772417415,11120,174.3147444626868,100.0
76,0.7324745655059814,82.71887814627553,25.854581387980886,123.65689897574535,57.42938464236539,100.0,0.15427718752805164,0.1,0.0030193328857421875,0.05755186080932617,0.049610984,1.2703156,98.6827211164777,1.6347957570956613,0.19489806940094848,100.0,154,0.015538930892944336,0.44719411749173843,0.4367777961976421,11274,156.20497394277413,100.0
77,0.7207634449005127,86.55943002274593,21.41755048228914,109.52745672749734,56.118400937572446,100.0,0.1479743215674361,0.1,0.0029883384704589844,0.05320310592651367,0.04931042,1.3159428,97.47039200710452,1.6472376174729457,0.1953939105208798,100.0,136,0.01280522346496582,0.47603695342672464,0.4635979902731111,11410,147.2445854349869,100.0
78,0.7599878311157227,105.8922711873251,34.833495804138074,159.47473091201755,66.58540741900093,100.0,0.16353398324503776,0.1,0.003049612045288086,0.05683588981628418,0.050212752,1.1628655,98.31257992512658,1.648204770271486,0.2181859363748048,100.0,157,0.0134429931640625,0.505339681353126,0.49092364142144795,11567,160.92645514657215,100.0
79,0.7510735988616943,123.34838232850795,34.10784099307175,158.06099636712446,69.66237914918759,100.0,0.1539070845386522,0.1,0.002839326858520508,0.05401778221130371,0.050401352,1.0076654,100.81616016546472,1.6116166209308538,0.2335705812162277,100.0,143,0.017040252685546875,0.6472783623143796,0.6382086398974333,11710,154.63165536602952,100.0
80,0.7671926021575928,108.83387606471653,24.078290244868256,147.85878067844396,84.25415765766923,100.0,0.15073459943360062,0.1,0.0030128955841064453,0.055939674377441406,0.049961768,0.918401,101.6179317553899,1.6486182852954618,0.218953547097499,100.0,144,0.012804746627807617,0.5603707533703445,0.5493745957005819,11854,141.8716813083295,100.0
81,0.7767055034637451,116.74928241386726,36.360908179106886,146.38268342969468,55.75527275387577,100.0,0.15963604542188592,0.1,0.0031003952026367188,0.055063486099243164,0.049982656,0.9709587,103.13106682123764,1.6252274835007037,0.22875678462893256,100.0,157,0.01313018798828125,0.5725847161933537,0.5605492126948771,12011,140.9690836907208,100.0
82,0.7684276103973389,88.62745065423545,35.70054499485946,145.56896480583524,53.47599177040358,100.0,0.1510073857096001,0.1,0.0033080577850341797,0.056050777435302734,0.049937975,2.2990158,101.68070520453742,1.665440940860005,0.19983151917048658,100.0,148,0.013072490692138672,0.43658255203412555,0.4247356632235783,12159,133.63005958327267,100.0
83,0.7872631549835205,131.18285977282233,27.940907365043063,166.2640875239316,88.47679339902312,100.0,0.1569025586454556,0.1,0.0029234886169433594,0.05957746505737305,0.05028567,1.3543663,104.6309206613659,1.608240335719603,0.24291297970739512,100.0,150,0.017792224884033203,0.6123816051217548,0.6015899045556296,12309,139.08588811841858,100.0
84,0.7925481796264648,107.29010601367366,29.82679653001315,155.2598607969431,75.93457239494566,100.0,0.15160654028149398,0.1,0.0028901100158691406,0.056667327880859375,0.05100976,1.3557394,104.89683919659669,1.677047097744652,0.2183073700298443,100.0,143,0.012876749038696289,0.4883496750835829,0.47648367134835695,12452,134.3109615415444,100.0
85,0.7280664443969727,115.47589528498375,30.08363997107505,148.59093000208617,76.46743625964325,100.0,0.16560709405662355,0.1,0.0030498504638671875,0.057533979415893555,0.050213445,0.8162885,105.9547448054354,1.638653071376902,0.22670180104624021,100.0,150,0.013678550720214844,0.5297693966484325,0.5179201813818787,12602,123.58707759545685,100.0
86,0.7408387660980225,134.78883401610048,12.299844255639842,148.62178112662593,117.67877456229529,100.0,0.155099023228506,0.1,0.003330230712890625,0.05962872505187988,0.050417196,1.1959541,108.8381537265019,1.6441862325679724,0.24596286099010145,100.0,146,0.01745462417602539,0.5871552121822134,0.5711804915865442,12748,129.79845159987963,100.0
87,0.7443208694458008,93.36190892899464,30.765363847995385,130.55148256527343,50.971619269888535,100.0,0.14834263795746608,0.1,0.0029642581939697266,0.058629512786865234,0.049590595,1.5096619,107.29052924675118,1.6192837324859197,0.20532158163998696,100.0,155,0.015212535858154297,0.36087309491983294,0.3488242254221405,12903,139.85149453845816,100.0
88,0.7342610359191895,124.3002654747306,22.976644550305743,156.719191149825,95.40636107124148,100.0,0.15063402861448225,0.1,0.0030527114868164062,0.059441328048706055,0.05014054,1.2654862,108.99150286954912,1.6449458789656604,0.23325539311479948,100.0,136,0.015237808227539062,0.5783383845048138,0.560210212447157,13039,134.10868483826357,100.0
89,0.7446792125701904,108.99878454510906,32.72374340300187,156.02487928421806,63.96925277330338,100.0,0.14622887512686983,0.1,0.002997875213623047,0.05710911750793457,0.05029776,1.5057235,108.99223103710513,1.6414980384720177,0.2189528039722931,100.0,139,0.0240023136138916,0.45609045667816644,0.4433180984496141,13178,142.12729859627757,100.0
90,0.7478034496307373,106.46529395016208,29.081363425475836,141.41332888213702,75.62725103493104,100.0,0.14951511037080736,0.1,0.003048419952392578,0.059517860412597656,0.05042815,1.8940011,108.73953732841082,1.684314103667633,0.21637610606940666,100.0,140,0.012188434600830078,0.40881095260901723,0.39530967775763276,13318,154.9075797496681,100.0
91,0.7693004608154297,139.35229078908634,20.123377951925526,160.79876421652298,106.32700494004804,100.0,0.1506514870101571,0.1,0.0029630661010742188,0.06423592567443848,0.050053105,1.3983603,111.80081267447838,1.6089460622088363,0.2508010086948854,100.0,149,0.012993574142456055,0.5538376943029871,0.538220435441792,13467,150.67145483175366,100.0
92,0.7735452651977539,154.34778456552402,24.856477741407442,184.38028141513516,118.58396515023495,100.0,0.14861584473846018,0.1,0.0031228065490722656,0.05619335174560547,0.050024837,1.732021,116.05550986358296,1.6365342198713484,0.2633929388991504,100.0,142,0.014289379119873047,0.6185211861126758,0.5963100078206687,13609,146.25879600978038,100.0
93,0.7654500007629395,138.59437167311174,15.5942485168171,162.37961211731164,118.8528606500855,100.0,0.14863169476298865,0.1,0.003205537796020508,0.05986475944519043,0.05012022,1.6293938,118.30939604453583,1.6013765292681155,0.24960057561932242,100.0,151,0.01088857650756836,0.46882240965723665,0.45451817573747827,13760,152.90299322694088,100.0
94,0.7884247303009033,140.47256937606465,36.22706760911075,171.00954565450445,81.46291943220398,100.0,0.1511521442388176,0.1,0.002973794937133789,0.05827903747558594,0.049858045,1.2178389,120.52571337768872,1.6337966363657932,0.25256687630548474,100.0,155,0.011156082153320312,0.4966641998551488,0.48036852441328803,13915,158.73449506827112,100.0
95,0.7787337303161621,110.48119092961564,23.76638181412026,147.10400465805006,80.78163275048128,100.0,0.13944227851699384,0.1,0.0031082630157470703,0.05607271194458008,0.049696147,1.8707236,119.52126113288142,1.6339286113745677,0.21942341324805162,100.0,140,0.02787613868713379,0.3637487695641475,0.34610066220721825,14055,155.82716692631308,100.0
96,0.8053035736083984,157.91113933015788,14.075329938656706,176.30963376664732,137.6820423460503,100.0,0.15102101588822947,0.1,0.0031061172485351562,0.0586698055267334,0.050093565,1.3314527,123.36024895260907,1.6300669390326787,0.2687105829996568,100.0,158,0.01178741455078125,0.5378265871016309,0.5212238979578095,14213,165.67079689111986,100.0
97,0.808509349822998,119.40223387367689,18.727842474391895,141.67061534574898,89.79337233400675,100.0,0.14435730562820748,0.1,0.002944469451904297,0.05597829818725586,0.050404374,1.6224147,122.96444744471586,1.6319662905155952,0.22973493781103482,100.0,143,0.011807918548583984,0.3514655120757671,0.3352178147653725,14356,172.00999670487946,100.0
98,0.8096797466278076,140.4827953021973,14.430070273619602,161.12763763481558,124.02163925412879,100.0,0.15151712620121793,0.1,0.003356456756591797,0.05789828300476074,0.05030033,1.539865,124.716282230464,1.630485402244275,0.25117754860618374,100.0,149,0.015898942947387695,0.4265284434786688,0.409839461975383,14505,167.98939409478632,100.0
99,0.7413768768310547,136.81505328007793,39.05206966815961,171.38759402388737,71.75844639573572,100.0,0.14161649129758222,0.1,0.00316619873046875,0.059746742248535156,0.049496446,1.5652062,125.92615933542541,1.6597843764846438,0.24720049289913762,100.0,142,0.014205694198608398,0.4348146789719518,0.4172690855649588,14647,160.4268618881052,100.0
100,0.763312578201294,138.07691845241382,36.43076678329551,180.2636245307782,81.63815358536442,100.0,0.148089094139618,0.1,0.0032825469970703125,0.0583953857421875,0.04985439,2.0873592,127.14123524712426,1.616507936326305,0.2502060072780129,100.0,156,0.014633893966674805,0.3959821242041652,0.3783482248414767,14803,152.57214879410284,100.0
101,0.7631750106811523,156.39794895011784,38.455947936361916,221.6802564770038,126.0246773653466,100.0,0.15155075827091813,0.1,0.003258228302001953,0.06412935256958008,0.050251942,1.2366476,130.06690661742363,1.665480061991561,0.26673198581584046,100.0,144,0.02594590187072754,0.4989817565743021,0.47829911199443026,14947,153.5835174589072,100.0
102,0.7769310474395752,155.22440569660176,27.11431547346093,190.20919637580667,120.70008697148667,100.0,0.15125818758486226,0.1,0.003409862518310547,0.08705830574035645,0.050425705,1.0967932,132.58265652534146,1.626086849702829,0.2649501057221202,100.0,149,0.017236709594726562,0.41636810745944064,0.39713280685436597,15096,157.68305422115245,100.0
103,0.7932755947113037,141.48716893207066,31.16068993994367,175.84893255725356,99.62838609866628,100.0,0.15283228015749162,0.1,0.007782459259033203,0.09050369262695312,0.050475307,2.1396754,133.47310776601438,1.6369746376800132,0.2526520438122549,100.0,148,0.030370473861694336,0.3548792801271165,0.33467966917068237,15244,153.18902008504708,100.0
104,0.7744464874267578,175.68930687487625,12.284251485984628,193.25903394677687,158.601702516229,100.0,0.14922034817065633,0.1,0.0033309459686279297,0.08099699020385742,0.049986288,1.6384734,137.69472767690058,1.6467012422925449,0.28485272710693027,100.0,139,0.01628255844116211,0.4664985179581582,0.4434900206818661,15383,154.73330065260606,100.0
105,0.8082602024078369,170.30535300541496,12.606119179082677,185.6568626093483,154.80564798488925,100.0,0.1486927000739952,0.1,0.003343820571899414,0.08691716194152832,0.05020565,2.212309,140.95579020975202,1.6567528625169787,0.28209987103775325,100.0,158,0.018572092056274414,0.3923871892983883,0.3724691573263078,15541,164.52409067373077,100.0
106,0.8244681358337402,156.48671658196332,19.423151235085694,183.86144731535944,130.5634353975311,100.0,0.14446944544256943,0.1,0.005041837692260742,0.06705188751220703,0.049715508,2.3310757,142.50888284697317,1.6361296187413388,0.2669093671870798,100.0,148,0.014249086380004883,0.32956267960180324,0.3069529805835716,15689,163.16791941296324,100.0
107,0.823798418045044,146.70788539338264,23.624752245820442,182.17685956788605,118.18237201071129,100.0,0.14185130520371364,0.1,0.003012418746948242,0.0786585807800293,0.04949495,5.9518304,142.92878310161413,1.601266093507606,0.25627535604680013,100.0,143,0.01758599281311035,0.28627194150205304,0.2668361988617304,15832,163.730358807692,100.0
108,0.8278858661651611,164.3420429937981,6.894854932690169,173.78890981101642,154.35128304608287,100.0,0.14181576826219736,0.1,0.003254413604736328,0.07450485229492188,0.04993907,2.876022,145.07010909083255,1.5887759739086997,0.27355057596634363,100.0,139,0.01942586898803711,0.30580521516682146,0.2852051029775658,15971,153.06945052343318,100.0
109,0.8610198497772217,178.3225494048627,8.244233584668267,190.06541973150877,169.5446850623165,100.0,0.14346842620266126,0.1,0.004916191101074219,0.0596616268157959,0.049123075,3.3142598,148.39535312223558,1.609290020149802,0.28840079381005934,100.0,151,0.014006614685058594,0.33273654875228975,0.311046161241723,16122,165.3475588802995,100.0
110,0.8529183864593506,135.7137494810915,12.035668732940696,155.21467911281812,122.55017742767592,100.0,0.14000855211413105,0.1,0.002972841262817383,0.06289505958557129,0.049390525,3.8929296,147.12719275812117,1.6238651880023538,0.24652070425528155,100.0,152,0.013790130615234375,0.1921946250440542,0.1778446617755455,16274,153.6306961459718,100.0
111,0.8784971237182617,169.64488529574498,7.160802164485306,180.40484470169972,161.88929497454518,100.0,0.14913423351569097,0.1,0.002942323684692383,0.06518793106079102,0.050059784,2.3146691,149.37896201188357,1.606793360194001,0.28219773789562047,100.0,156,0.01314401626586914,0.25641584363698505,0.23664837859497978,16430,165.2863328922671,100.0
112,0.8792819976806641,179.6512514670649,4.304738404306128,186.9708487410909,175.93998739909387,100.0,0.14878586462036655,0.1,0.0030825138092041016,0.05803966522216797,0.05042837,2.8874567,152.40619095740172,1.667697702581371,0.28992709332513966,100.0,147,0.013806343078613281,0.28901091955526037,0.26991576878149137,16577,153.04370312408713,100.0
113,0.8940017223358154,150.8686254349887,35.50350344166556,185.8778151579549,92.55638837552048,100.0,0.1399811956151691,0.1,0.0031723976135253906,0.060779571533203125,0.049368188,10.604713,152.25243440516044,1.6281393575519814,0.26173520979536263,100.0,150,0.013517618179321289,0.19874327390243005,0.18472585189823923,16727,166.47347852995424,100.0
114,0.8851630687713623,148.01115738130824,14.57349943701659,162.3117819439962,126.3664366362368,100.0,0.13742863792746915,0.1,0.0029854774475097656,0.055681467056274414,0.049542338,4.0712547,151.82830670277522,1.5879090637171143,0.2575314104716423,100.0,143,0.016106843948364258,0.1898302233743396,0.1786969041385342,16870,158.9595451559005,100.0
115,0.7892928123474121,152.82533368273369,11.8547596624615,170.38730502692516,137.48246744781986,100.0,0.13372213151648096,0.1,0.003258943557739258,0.05780792236328125,0.050089985,5.430479,151.92800940077106,1.6001696185865333,0.26353863175504805,100.0,146,0.013050079345703125,0.16284420514237896,0.14495204269748801,17016,155.45110488987208,100.0
116,0.7982742786407471,154.80970845791774,20.601041537467733,176.2355414953149,125.60708528136534,100.0,0.1344188346059387,0.1,0.0031347274780273438,0.05938911437988281,0.050193086,5.5484695,152.21617930648574,1.5873417187649772,0.2650711741351157,100.0,148,0.01396632194519043,0.1489938265830639,0.14096132245689202,17164,154.86558728280352,100.0
117,0.7988598346710205,175.39673987143755,23.668441111308596,197.2850033706109,139.18602585671064,100.0,0.14723783069009705,0.1,0.003249645233154297,0.059128522872924805,0.04991476,2.1978161,154.53423536298092,1.6095559199180003,0.28585355805930535,100.0,143,0.012990474700927734,0.28592868940304883,0.2771879262991398,17307,155.76134306556693,100.0
118,0.8180334568023682,164.62039741810787,20.57377815210581,190.39131777051398,138.99866614808937,100.0,0.1595572643644597,0.1,0.0032422542572021484,0.05944371223449707,0.04986048,2.1413817,155.54285156849363,1.6324168651841764,0.2767619432926878,100.0,155,0.012448310852050781,0.20579957474432375,0.19247650141502595,17462,142.8130712270986,100.0
119,0.807553768157959,138.68433996151853,39.33396379453144,183.63649314528377,75.97605167010823,100.0,0.14334385752369735,0.1,0.0033447742462158203,0.0619053840637207,0.050084647,3.8691936,153.85700040779614,1.6285650517853003,0.2487318184632095,100.0,141,0.013068437576293945,0.1603947740991527,0.15112488602419014,17603,131.30555668571563,100.0
120,0.8302421569824219,179.38004538176853,7.3580886238101995,188.163894976647,168.43433304923812,100.0,0.13552014152520356,0.1,0.0031807422637939453,0.0616912841796875,0.050516527,7.3840857,156.40930490519338,1.5983279803096826,0.29069320420198996,100.0,149,0.014008760452270508,0.15655948188206228,0.14616548527511156,17752,134.13634728692767,100.0
121,0.834439754486084,153.42230467342245,19.544256137938206,173.7329889875058,128.08267726046003,100.0,0.14835076390981003,0.1,0.0029816627502441406,0.06050848960876465,0.049793154,3.1197422,156.11060488201628,1.6258666211889234,0.2664699429135808,100.0,153,0.01254415512084961,0.18327740937652057,0.16497814184542497,17905,133.89138896096733,100.0
122,0.8309094905853271,160.93037481580382,23.879753032116465,195.88168230062365,138.6371892377681,100.0,0.15084404543309893,0.1,0.0028853416442871094,0.05683636665344238,0.04912368,2.522656,156.59258187539504,1.592269776695856,0.27173576932612326,100.0,142,0.013124704360961914,0.13037009286695334,0.13014861260262459,18047,147.81924323328914,100.0
123,0.8190312385559082,151.2869878563991,19.527876057023303,170.86459524970493,124.009471814797,100.0,0.1266846854426437,0.1,0.0029141902923583984,0.05647730827331543,0.04924598,7.28944,156.06202247349543,1.6117441389189713,0.2602190454412656,100.0,131,0.018887042999267578,0.0985924105289418,0.09590821827679112,18178,150.0494853302885,100.0
124,0.8303754329681396,167.46587773182475,20.941271848328423,197.53392801110823,146.88290094112685,100.0,0.13843080544907937,0.1,0.0031859874725341797,0.05855703353881836,0.05071754,2.1277525,157.2024079993284,1.6319148699325794,0.27681402977043623,100.0,134,0.014740467071533203,0.17756860949875738,0.17355408048137103,18312,149.2835524032616,100.0
125,0.8518116474151611,163.93929206667718,24.240855950560054,201.39117471959756,133.61908107409295,100.0,0.14297278615369877,0.1,0.0033097267150878906,0.0587763786315918,0.049988423,4.454166,157.87609640606325,1.6332500731605166,0.2739576134517918,100.0,140,0.012125015258789062,0.1690789562253363,0.15361534032171484,18452,156.8624868199544,100.0
126,0.8434245586395264,152.39642178884554,21.86697808317017,184.93611691212442,124.12515689434512,100.0,0.14228276840803228,0.1,0.0030951499938964844,0.05279803276062012,0.04945459,4.861245,157.3281289443415,1.5961895407698188,0.2610487286339175,100.0,129,0.013953447341918945,0.19987699026674036,0.19952065108817707,18581,152.8044556563798,100.0
127,0.8435370922088623,161.39775922440052,8.404268569120616,168.17852523721325,147.4231531445026,100.0,0.1306862033240822,0.1,0.0032901763916015625,0.056648969650268555,0.049726337,5.661945,157.7350919723474,1.5888096834702168,0.26953404963401095,100.0,130,0.014641761779785156,0.1159856887522524,0.11244787629254512,18711,145.8323537504261,100.0
128,0.7950396537780762,177.35925368069252,21.30059382083003,197.54693630954824,141.51625860444784,100.0,0.14760137444555171,0.1,0.0030536651611328125,0.05756521224975586,0.04947965,2.6724002,159.6975081431819,1.6361239896914948,0.2886955881992428,100.0,146,0.012653827667236328,0.1199072735855111,0.1127300119052915,18857,146.58431096468598,100.0
129,0.7973864078521729,179.5133591372218,20.266637000443048,209.1783693621075,152.08097388076885,100.0,0.14523246342497106,0.1,0.002949237823486328,0.05639243125915527,0.050180797,1.8513224,161.67909324258588,1.6428524337793435,0.28930251593928985,100.0,144,0.011872291564941406,0.18887940081808857,0.1701720139454149,19001,150.4821350053976,100.0
130,0.8116273880004883,171.18188589258193,9.174864419975448,184.99327046935025,162.86949539000426,100.0,0.14240505703904052,0.1,0.003597736358642578,0.05754971504211426,0.049356285,2.6922767,162.6293725075855,1.5861353745823523,0.282495122511113,100.0,152,0.017856359481811523,0.09623326586057303,0.10013356946289562,19153,158.34709954752842,100.0
131,0.8121509552001953,177.70286627342261,19.384611752724314,209.9210830824063,159.12230623703704,100.0,0.14128000896686585,0.1,0.0032296180725097656,0.055875539779663086,0.049663726,7.203038,164.13672188416922,1.6361222442801713,0.2885834933270677,100.0,146,0.013817071914672852,0.13973685864722737,0.13778883578107795,19299,152.790964015594,100.0
132,0.8121578693389893,153.12429446917625,29.28617561435826,193.09146614925052,111.80641645464742,100.0,0.14374487640256053,0.1,0.003008127212524414,0.05689597129821777,0.049775433,3.1913977,163.03547914266994,1.6025357025094924,0.2643824169718272,100.0,142,0.014793157577514648,0.24104041336355536,0.21043697748821333,19441,141.5431510170031,100.0
133,0.8220310211181641,162.57486537276355,24.67277461986094,200.60121261676443,131.59728669037727,100.0,0.14400477181921095,0.1,0.0030646324157714844,0.05671334266662598,0.049897287,2.1271007,162.9894177656793,1.5895667328674021,0.27284094906737055,100.0,143,0.015249490737915039,0.1368573371540676,0.11503385746350525,19584,140.00982840124135,100.0
134,0.8192486763000488,156.37459519761154,12.254953383645203,172.42759037274823,141.0220109966612,100.0,0.14645224896330555,0.1,0.0029723644256591797,0.05413103103637695,0.049836077,2.5441508,162.32793550887254,1.5967366771958342,0.26583062678419844,100.0,137,0.016656160354614258,0.11005876321827009,0.11670467833644098,19721,135.73596284367156,100.0
135,0.8397903442382812,166.20325099475303,11.52669568662881,179.0608230689102,152.67645180533196,100.0,0.14914480776949507,0.1,0.0028336048126220703,0.05528092384338379,0.04972313,2.8368013,162.71546705746061,1.6406103489036918,0.277570581680211,100.0,146,0.014793872833251953,0.11030361663007596,0.11846996779341074,19867,134.63223145443635,100.0
136,0.8582985401153564,174.3806591052908,16.871049592006536,191.68739443271937,147.16851385798086,100.0,0.1474520002123106,0.1,0.0032355785369873047,0.05843615531921387,0.049968917,2.155174,163.88198626224363,1.6343551846935072,0.2848831009123012,100.0,140,0.01433420181274414,0.13237645080935145,0.1297035226490644,20007,137.82027710560234,100.0
137,0.8701043128967285,171.0409641738618,25.997451685242517,189.38282720133253,126.60634364257977,100.0,0.15550993842806116,0.1,0.0029375553131103516,0.05510735511779785,0.050303668,1.4657829,164.59788405340547,1.649682534685936,0.2830994130226395,100.0,145,0.012738466262817383,0.19772927195483236,0.19137671725849273,20152,149.07476182756542,100.0
138,0.8739960193634033,174.1560438805468,13.715818234447989,190.7044841782302,153.00956916455527,100.0,0.1375772432673993,0.1,0.005160808563232422,0.053658485412597656,0.04991825,3.5449936,165.5537000361196,1.641041929829297,0.28540282657853866,100.0,143,0.013585805892944336,0.09292441608438445,0.08755293428562509,20295,144.72618634684514,100.0
139,0.8847110271453857,172.26233773113435,13.58481586533268,184.56641944387292,149.35041292904123,100.0,0.14983253729196458,0.1,0.003087282180786133,0.05680203437805176,0.05033546,1.8300203,166.22456380562107,1.6597926575001885,0.2820603323225874,100.0,140,0.01150822639465332,0.1455302592443474,0.11592910855459859,20435,138.17157981217295,100.0
140,0.8925063610076904,163.83235592698412,25.590586802564804,203.01851774710747,133.30919507271804,100.0,0.1398153921271012,0.1,0.0029327869415283203,0.05861639976501465,0.04958696,6.1726584,165.98534301775737,1.6367409651836822,0.2749622179131127,100.0,142,0.01280069351196289,0.15574520621754237,0.16714711011844546,20577,139.32416387060638,100.0
141,0.8541908264160156,184.11453914738297,14.743031929910398,209.44140002962882,174.0704280516982,100.0,0.14200002796189182,0.1,0.003219127655029297,0.05854368209838867,0.050019078,5.762667,167.79826263071993,1.6515637184165537,0.29539151968741967,100.0,150,0.011435508728027344,0.10773794540503752,0.10789091433364216,20727,135.71174238092433,100.0
142,0.8391633033752441,169.2288828699223,6.472869518471283,179.45272025544043,162.80305312071062,100.0,0.14369466749048304,0.1,0.002953052520751953,0.056397199630737305,0.049902283,7.681997,167.94132465464017,1.6275835525638955,0.28025639711061245,100.0,146,0.01308441162109375,0.08103648882378382,0.07823256933207391,20873,118.46151741694213,100.0
143,0.8459293842315674,159.88746827394073,12.058777054124239,178.88057168876645,147.69234622546762,100.0,0.13383884078698455,0.1,0.0030531883239746094,0.054852962493896484,0.050557967,9.787152,167.13593901657023,1.6251431027086707,0.2710869574236548,100.0,142,0.011687994003295898,0.15711778057630507,0.11955735983128384,21015,113.10442891641776,100.0
144,0.8577697277069092,184.33719556282597,15.75168134915576,200.32049736535762,158.4529803649384,100.0,0.13995180950421462,0.1,0.002979278564453125,0.060314178466796875,0.049603604,4.7677703,168.8560646711958,1.6692671670845431,0.29543514963341627,100.0,143,0.014532327651977539,0.11014884954353583,0.12017807294576822,21158,124.57062876088249,100.0
145,0.8410348892211914,160.3162794590045,16.546283874602157,181.55243814841432,136.64726023086627,100.0,0.13501610419796464,0.1,0.0030269622802734375,0.058135032653808594,0.049925763,4.9631166,168.0020861499767,1.6023387374159215,0.2688275942973215,100.0,128,0.015131950378417969,0.1259594462427992,0.12223921662605522,21286,120.8879952857094,100.0
146,0.8596916198730469,154.13789337681925,17.064646122646405,169.39459586944216,126.95316137679632,100.0,0.1286018026883082,0.1,0.0030701160430908203,0.05512070655822754,0.049397346,8.34828,166.61566687266094,1.5960194651945054,0.2641174482028684,100.0,138,0.012251853942871094,0.11135676459764995,0.11830569549398141,21424,116.03314777676202,100.0
147,0.8905909061431885,176.0811161624781,12.282541137268744,195.42358162113015,161.46564775695703,100.0,0.1543857386918557,0.1,0.002943754196166992,0.05547356605529785,0.050457206,1.7688546,167.56221180164266,1.6416492721719156,0.2858760334397195,100.0,141,0.012202024459838867,0.19826908582243616,0.1604733131812739,21565,114.45224484781403,100.0
148,0.8936123847961426,169.1525134371576,17.490505074936575,187.81849452777146,144.92337510106807,100.0,0.1535475897167968,0.1,0.003025531768798828,0.05428457260131836,0.050287426,1.6166203,167.72124196519417,1.6668412353434001,0.28007993170398787,100.0,142,0.012362241744995117,0.13761982662894087,0.12305529394618943,21707,113.83983475814621,100.0
149,0.896752119064331,166.5284781153043,8.798359450945455,178.13147617934032,153.86180405577323,100.0,0.1360678161731061,0.1,0.002920866012573242,0.06027483940124512,0.05001197,11.227901,167.6019655802052,1.6329894351982495,0.2787423421543476,100.0,149,0.01180577278137207,0.0709045570152146,0.08324396719514662,21856,113.33976606006108,100.0
150,0.8934171199798584,185.47954126992576,7.768895906791591,197.85059061624293,177.5650769217518,100.0,0.13529718081400433,0.1,0.003084897994995117,0.05682778358459473,0.049616784,6.0496545,169.38972314917726,1.6798896738682494,0.2954184263807233,100.0,136,0.014899253845214844,0.09356478489765749,0.09747906981045969,21992,107.37333294113826,100.0
151,0.8939878940582275,175.42686033174311,2.428717238686859,178.34738123926115,172.60057526730947,100.0,0.12346132272217736,0.1,0.003103017807006836,0.05845832824707031,0.050759565,17.06882,169.99343686743384,1.6281436108485543,0.284623086591543,100.0,134,0.012631893157958984,0.10755121777566197,0.10487932140513871,22126,106.57280812595376,100.0
152,0.9064390659332275,149.99077714271652,10.0999791443635,163.49624126085467,138.80008406954616,100.0,0.14097276445882392,0.1,0.003587484359741211,0.056322336196899414,0.050161764,7.658183,167.99317089496213,1.6085464720148037,0.2607448937383834,100.0,140,0.012385368347167969,0.14621535421133444,0.10202661418093541,22266,106.3005892059855,100.0
153,0.9271318912506104,175.743215440317,21.139747593721943,193.97618062835164,139.8566953073359,100.0,0.16751025519775328,0.1,0.005250453948974609,0.05598568916320801,0.05016926,2.017694,168.76817534949762,1.6640507516091219,0.2890032096094313,100.0,155,0.012058496475219727,0.11767571188126136,0.12584049633860625,22421,114.45364393473727,100.0
154,0.9555232524871826,165.87292181711075,17.807571484673446,188.19288657589237,139.1908289013606,100.0,0.15915300390390374,0.1,0.0029625892639160156,0.06001758575439453,0.049529005,2.906854,168.47864999625892,1.6512584549527172,0.2797549050094249,100.0,159,0.010986328125,0.0803330526029957,0.08766197427733984,22580,117.76084814953316,100.0
155,0.9334883689880371,170.71591768871684,14.275509492211265,190.81725693324898,150.93747131839984,100.0,0.148066992819968,0.1,0.0030913352966308594,0.05716061592102051,0.049879067,2.2587183,168.7023767655047,1.6166207485539237,0.28007476868788195,100.0,136,0.020789623260498047,0.1297323943544231,0.12410151959158693,22716,109.72810538692693,100.0
156,0.9784955978393555,166.33114258162794,13.353177502147235,188.5400309426937,153.23868202458723,100.0,0.14713160787348836,0.1,0.0027761459350585938,0.06080269813537598,0.050576154,4.0834885,168.46525334711706,1.6561601760608653,0.27800449549088324,100.0,138,0.015329122543334961,0.1451191097463185,0.14437081150074832,22854,106.71565602386322,100.0
157,0.8978619575500488,170.8513558876744,10.899547556002675,177.80602503627063,152.00886412634975,100.0,0.14746226650087496,0.1,0.003235340118408203,0.10238838195800781,0.050265823,3.3079028,168.70386360117277,1.6221372640158487,0.28170315022790127,100.0,146,0.015006303787231445,0.10070081382651612,0.09132057251116696,23000,110.2256037639877,100.0
158,0.9397234916687012,163.97370493560442,19.745973748884566,188.56814523140753,138.72650323356436,100.0,0.1546167035111282,0.1,0.003223896026611328,0.07198524475097656,0.050363306,3.2180092,168.23084773461593,1.6607980974759338,0.27663012091574357,100.0,151,0.02059650421142578,0.10863373873722718,0.09935075289198447,23151,109.87476208209135,100.0
159,0.9044404029846191,175.94790576671676,14.676480303836142,193.97810759705015,153.2164266972598,100.0,0.1557609384414495,0.1,0.0037627220153808594,0.0652761459350586,0.049083795,2.4241767,169.002553537826,1.6714126836913308,0.28593092135953274,100.0,138,0.013094902038574219,0.10088118003231981,0.10053625932001072,23289,115.43483888334573,100.0
160,0.9163987636566162,175.87961635211192,10.49211530782837,192.94936396820844,164.34493374391593,100.0,0.15987625698255875,0.1,0.009309053421020508,0.06876230239868164,0.04989099,1.8253698,169.6902598192546,1.6789957339947512,0.28591971740711797,100.0,140,0.01593923568725586,0.1214494845596448,0.12294388801278304,23429,112.8778843340851,100.0
161,0.9024322032928467,172.26007574384155,26.515655286420582,197.49213463439463,127.7205402511801,100.0,0.13667102129661368,0.1,0.003118753433227539,0.07460737228393555,0.0504547,4.7847204,169.94724141171332,1.6416071288802536,0.28187027952091687,100.0,134,0.016136884689331055,0.21873893578190742,0.20932475476217444,23563,113.35549036466769,100.0
162,0.9093050956726074,165.78287766323632,23.292469801337376,200.3034901310786,136.79674404333338,100.0,0.1460019121104692,0.1,0.0031855106353759766,0.07358169555664062,0.05005172,2.362504,169.53080503686562,1.633047393684182,0.27621485803047774,100.0,132,0.017785310745239258,0.24691561317130964,0.2194865444623024,23695,114.41496149310778,100.0
163,0.9326133728027344,171.05749095691485,15.426463138024314,192.9470316788353,150.6808534599621,100.0,0.15607502193108924,0.1,0.0030939579010009766,0.08744931221008301,0.04978314,2.6111777,169.68347362887056,1.6598675241051408,0.2826426221281125,100.0,143,0.01682281494140625,0.10043101226032283,0.0997619038331018,23838,121.12453802226129,100.0
164,0.9314873218536377,164.64260535775958,34.177001306114924,197.63903169321753,112.82372459931659,100.0,0.15501906175696756,0.1,0.005146026611328125,0.07242488861083984,0.049728453,1.4085767,169.17938680175948,1.649697560071231,0.2755273481857792,100.0,139,0.014049291610717773,0.17148624203379875,0.16447701442945253,23977,132.09484037428166,100.0
165,0.9597337245941162,171.2218360421902,9.846216835109049,183.49433166241525,158.35399975562592,100.0,0.14189681977944696,0.1,0.0032320022583007812,0.07219076156616211,0.049717057,2.7389994,169.38363172580256,1.6350668433342794,0.2822718641650122,100.0,144,0.022368907928466797,0.09661029641871069,0.10206244802115934,24121,118.39682075018078,100.0
166,0.9578943252563477,170.95969358223294,10.969148645615942,184.363976539009,154.16394912061895,100.0,0.15413760712042762,0.1,0.00853586196899414,0.06958985328674316,0.050050065,2.9002435,169.54123791144562,1.648685506938618,0.28154837422036516,100.0,142,0.014024972915649414,0.125877379525229,0.10418033496884802,24263,108.69179764975888,100.0
167,0.9760026931762695,170.97216544424919,20.776914644397255,192.3811384759312,137.94813116650647,100.0,0.14705813237275106,0.1,0.005262613296508789,0.07652091979980469,0.04975377,4.028334,169.684330664726,1.6516884121036226,0.2825803634534072,100.0,151,0.014943122863769531,0.08448067463175331,0.08137749229395731,24414,112.54740734339454,100.0
168,0.9862406253814697,171.4151083958741,13.862709829971076,190.21324367654165,157.28247697492088,100.0,0.13846246498909406,0.1,0.006174325942993164,0.06123042106628418,0.050261676,15.946334,169.85740843784083,1.6593078743268284,0.28311517026260646,100.0,148,0.014357566833496094,0.07190986505531696,0.07299668387039726,24562,111.8180874619682,100.0
169,0.9976487159729004,164.44589119369508,12.572897582274363,181.64821819650342,146.22561398745813,100.0,0.15695581593816502,0.1,0.003213167190551758,0.09886884689331055,0.04954705,3.4627898,169.31625671342627,1.6345288432081597,0.2763807504895528,100.0,150,0.018077850341796875,0.10833578740172167,0.10962168404923747,24712,110.63822914749419,100.0
170,0.9878897666931152,179.4193071505748,12.607293080196634,199.51350308078986,167.70467346795803,100.0,0.14074475873692763,0.1,0.003161907196044922,0.07358479499816895,0.05099338,6.6669707,170.32656175714112,1.6555370665538651,0.2903350719967735,100.0,143,0.014214277267456055,0.08143726612001013,0.08246634938385018,24855,114.72027063071762,100.0
171,0.9927597045898438,168.2651688744795,9.854466170059824,180.72141496969334,157.58435970274968,100.0,0.15011501025653368,0.1,0.003139495849609375,0.06938505172729492,0.050432973,2.693637,170.12042246887498,1.63957623928957,0.2794200527942015,100.0,144,0.02322983741760254,0.12865880868501836,0.12004858174752031,24999,119.8664244435635,100.0
172,0.946786642074585,171.62318224052945,25.019550518440546,212.9122251200062,145.63049440592812,100.0,0.12257077432539115,0.1,0.006877899169921875,0.08358621597290039,0.049807314,16.48547,170.27069844604043,1.658640929732372,0.2833547863148018,100.0,144,0.013152837753295898,0.12194198501842507,0.10756369626403434,25143,118.31822410951189,100.0
173,0.9123702049255371,176.26158547597095,16.34048266208502,192.8803020078127,150.92559763011383,100.0,0.1408261707397932,0.1,0.003232717514038086,0.0626211166381836,0.04962764,5.1115804,170.8697871490335,1.6429255788769277,0.28636507870574146,100.0,133,0.015064001083374023,0.10673096072093242,0.09508837060706375,25276,125.31730903216526,100.0
174,0.9443850517272949,161.5583351379076,24.17732433652946,188.17465506263198,122.20563035459617,100.0,0.1619801766270496,0.1,0.0033321380615234375,0.068084716796875,0.04963564,1.9377856,169.9386419479209,1.6462588453734306,0.27422151081498947,100.0,148,0.02219557762145996,0.11425232732790343,0.11127460062353245,25424,122.33422752130473,100.0
175,0.9322249889373779,173.94986753385888,11.403915696794147,192.64743044066628,162.6722566522903,100.0,0.1562626307020367,0.1,0.0031118392944335938,0.060743093490600586,0.049847886,2.4115167,170.3397645065147,1.6563644210481063,0.28656395709553345,100.0,149,0.01505422592163086,0.09175890972421173,0.10200529548279894,25573,113.57413304316331,100.0
176,0.9548079967498779,163.67970045947237,33.156279117840946,215.133334396321,127.6757109720817,100.0,0.1486708210175106,0.1,0.0030841827392578125,0.07300615310668945,0.050212927,9.151079,169.67375810181048,1.6712391689040487,0.27537948953004376,100.0,149,0.026041030883789062,0.11089154883252471,0.09680448518209485,25722,124.065722700721,100.0
177,0.9540727138519287,187.4510403792735,17.290345387574256,214.98113621702473,168.40486038243773,100.0,0.14988001245239302,0.1,0.0029675960540771484,0.06392145156860352,0.049453862,9.574174,171.4514863295568,1.6645114095646765,0.2975010129237615,100.0,145,0.01696467399597168,0.15507074909564458,0.1057360647377631,25867,127.84566458654054,100.0
178,0.9674336910247803,165.15511313605384,18.889228273953258,188.07219366684467,144.16519870681688,100.0,0.15480137805072464,0.1,0.0031282901763916016,0.06262707710266113,0.04985446,2.8292933,170.82184901020648,1.6439924778964599,0.2777924480037405,100.0,149,0.016335010528564453,0.08690020425058517,0.10214047711750408,26016,131.19498321734247,100.0
179,0.9427170753479004,174.8941368232856,16.14093404752424,197.0323124093602,151.81861131297094,100.0,0.1463481719890292,0.1,0.0029959678649902344,0.058297157287597656,0.050106853,6.3633733,171.22907779151438,1.6524961858359881,0.2856599211560664,100.0,146,0.012840509414672852,0.0894743588821564,0.08920492908524288,26162,134.13447538810985,100.0
180,0.9262180328369141,166.58663634252162,3.4334585398642985,171.80761704469768,162.73995001155413,100.0,0.14698665207205394,0.1,0.003020763397216797,0.05472373962402344,0.05040262,3.977687,170.7648336466151,1.6553733444358123,0.27723458202363715,100.0,145,0.012688875198364258,0.060215775000217076,0.06546499097966187,26307,140.99974220669455,100.0
181,0.9352626800537109,183.67188622698893,16.169208917934593,201.36635352266924,157.67707154868765,100.0,0.1318360261332502,0.1,0.0032515525817871094,0.05537104606628418,0.049665403,13.546137,172.0555389046525,1.6565827910782165,0.29438111685838936,100.0,141,0.014984607696533203,0.06637186876144835,0.07193644503233312,26448,132.71318845582172,100.0
182,0.9537711143493652,173.42631652444555,23.958575728158767,208.2519686706903,148.2213864866306,100.0,0.13067700352270484,0.1,0.0035250186920166016,0.05715227127075195,0.049576446,35.107937,172.19261666663184,1.6425629700900775,0.2841150220920238,100.0,140,0.013744831085205078,0.21888201006718305,0.17680447783318795,26588,142.763063370433,100.0
183,0.9712197780609131,176.58554090268913,7.869097424632237,185.61517612725032,166.25239173873214,100.0,0.1405161491024441,0.1,0.0029680728912353516,0.0561065673828125,0.050822373,30.577911,172.63190909023757,1.6567214120332083,0.2896669015613935,100.0,155,0.012088298797607422,0.13149406996681734,0.1047431195697663,26743,136.54143374033814,100.0
184,0.9689767360687256,189.34278559772264,11.346208832626496,201.18729847768884,170.60974674295272,100.0,0.14451536186036018,0.1,0.0031287670135498047,0.05804443359375,0.049942672,3.7636175,174.30299674098606,1.6937235278021012,0.301774637935439,100.0,148,0.013193845748901367,0.09338159199468994,0.10892986917675601,26891,131.95770616986775,100.0
185,0.9566214084625244,189.36750915955332,20.15612256709317,216.62095821284564,167.01400992595808,100.0,0.15104248679813448,0.1,0.002978801727294922,0.055130720138549805,0.049695414,2.7845714,175.8094479828428,1.6774696633018347,0.2997665927116265,100.0,141,0.012911796569824219,0.1144972203197542,0.11505900611723285,27032,129.6832506563635,100.0
186,0.9800677299499512,184.1691337394049,30.554234567780497,216.4583799936097,134.50695674721396,100.0,0.16033281288765375,0.1,0.003007173538208008,0.05596184730529785,0.05018751,1.7045487,176.64541655849905,1.6692509831907316,0.29620890914633413,100.0,147,0.012588739395141602,0.16139544901125547,0.15416753475656014,27179,130.76605286390222,100.0
187,0.990349531173706,188.67485128756778,17.481630341868648,204.22530114096813,159.03241456804147,100.0,0.14523342749695559,0.1,0.0028769969940185547,0.05640697479248047,0.050190162,5.8244863,177.84836003140595,1.6771742518340347,0.3003370913970685,100.0,149,0.01805853843688965,0.10677786162233263,0.08985308020269171,27328,129.85518334163157,100.0
188,0.9468469619750977,193.29720219066826,17.350781828673743,219.08222851593825,176.47843484316041,100.0,0.1496597792831614,0.1,0.0031905174255371094,0.0649266242980957,0.049819697,3.0520759,179.39324424733218,1.6678722206625736,0.30569212517234595,100.0,156,0.011886835098266602,0.07913341186409195,0.07690565285845712,27484,136.44564153199735,100.0
189,0.928600549697876,152.4140212315911,23.088046041296494,180.12674812699612,118.51767690424411,100.0,0.12823752954306405,0.1,0.0032129287719726562,0.05810070037841797,0.049496252,20.203682,176.69532194575808,1.6578285547655638,0.2639330474699033,100.0,144,0.015836715698242188,0.19113376387484368,0.18822361059262321,27628,135.36744547149488,100.0
190,0.9513146877288818,177.01274715610063,23.2326087979388,212.90605131151742,154.6232594935889,100.0,0.11098662737882707,0.1,0.003133535385131836,0.05774879455566406,0.049615823,321.4358,176.72706446679234,1.6792682704240387,0.28815669615190187,100.0,145,0.013496875762939453,0.05268597757130857,0.05128226953368562,27773,129.53168382777986,100.0
191,0.963984489440918,175.60244535845956,19.990724686901093,197.6215045575755,143.21207172804324,100.0,0.14063504930917967,0.1,0.003038167953491211,0.057407379150390625,0.04956202,5.896807,176.61460255595907,1.6665847021403386,0.2864376615135509,100.0,140,0.012813806533813477,0.10594046282116987,0.09797743794214053,27913,119.18086579208627,100.0
192,0.9474446773529053,180.7103137699252,30.629879329833685,208.9718430466711,130.4831665175932,100.0,0.1440045439846034,0.1,0.0031914710998535156,0.05479621887207031,0.05017755,8.516764,177.0241736773557,1.6877756416788743,0.2910721580484466,100.0,142,0.012920618057250977,0.07698511747053886,0.08183966316199877,28055,116.13623954147529,100.0
193,0.9511539936065674,178.5945472946716,19.44289378811522,198.07849674838585,153.20458375331037,100.0,0.15334681776731537,0.1,0.004664182662963867,0.05606198310852051,0.05030815,2.9817924,177.1812110390873,1.6729850545241094,0.2892149731034485,100.0,143,0.012158632278442383,0.07681859962799832,0.07553515604141627,28198,120.11217847977646,100.0
194,0.9634039402008057,173.68479708704297,18.454763605102734,200.51391324169776,148.62127510265924,100.0,0.14959491845220224,0.1,0.0030891895294189453,0.06011319160461426,0.050285637,2.092374,176.83156964388286,1.6693198412336734,0.28441190953637024,100.0,142,0.012013435363769531,0.08690843826446358,0.08630413623920415,28340,116.57585849136426,100.0
195,0.9672598838806152,197.9027042136089,10.08571630728667,213.2123877831106,185.26181171546872,100.0,0.12824446356184524,0.1,0.002922534942626953,0.0551910400390625,0.050200578,15.898103,178.93868310085549,1.6742854947491657,0.30797667975563664,100.0,143,0.013267755508422852,0.08020289108019536,0.06778677109858713,28483,118.07427278224709,100.0
196,0.977963924407959,173.19274203423674,17.56990698894962,186.62757724418458,143.5055697670565,100.0,0.13556211479246963,0.1,0.002991199493408203,0.055151939392089844,0.05003765,6.858817,178.36408899419362,1.6660569441681155,0.28562246299865146,100.0,149,0.011311531066894531,0.10757113324387899,0.11439802503869259,28632,112.5336212313071,100.0
197,1.0093872547149658,184.28841362465556,19.76877801269482,207.7748544747763,157.19683273718766,100.0,0.1512359565444366,0.1,0.003257274627685547,0.05794119834899902,0.049700294,3.1382027,178.95652145723983,1.6636176618322533,0.29681545803744214,100.0,156,0.020871400833129883,0.09977545468236351,0.09909212102666888,28788,110.2272603016729,100.0
198,0.971494197845459,181.94708432054557,11.116911676890055,197.2430524901745,167.59790324668313,100.0,0.13452504338851698,0.1,0.0028734207153320312,0.05581545829772949,0.05009763,14.905649,179.25557774357043,1.6973839350316566,0.293262888481343,100.0,139,0.012703180313110352,0.07544479979813072,0.07079372908692415,28927,121.56531417415971,100.0
199,0.9849941730499268,180.01453637707914,10.45905035225123,193.8518126175324,169.06368209423232,100.0,0.14114415926447993,0.1,0.0031592845916748047,0.05721592903137207,0.049879,6.9734426,179.33147360692132,1.688060250673836,0.29148392315970634,100.0,144,0.0161740779876709,0.059475482633424906,0.056038215272355404,29071,125.16820128216072,100.0
200,1.0038089752197266,169.1985293470558,29.178017019272747,206.54933884097807,125.014090803918,100.0,0.13017542301433216,0.1,0.0032012462615966797,0.05761981010437012,0.04938333,20.019318,178.31817918093478,1.69868041027882,0.28060294084780163,100.0,144,0.012304067611694336,0.0979760436231736,0.08672027878849708,29215,128.9283462756388,100.0
201,1.0097320079803467,188.5660310344807,8.244466364566568,199.8090822818785,180.2230666503829,100.0,0.14411474268264876,0.1,0.0029823780059814453,0.05674552917480469,0.04997371,5.7799993,179.34296436628938,1.6751946033268943,0.3004836985266822,100.0,149,0.012024641036987305,0.0803272203008871,0.08742178364730491,29364,129.01665927376985,100.0
202,1.0088000297546387,180.10298038410158,17.352935984901254,206.87530969433664,158.45129283537437,100.0,0.1218263019218206,0.1,0.003019571304321289,0.05762672424316406,0.04951477,58.033062,179.4189659680706,1.6512301490117614,0.290339510403806,100.0,140,0.01605820655822754,0.05612047399466908,0.0562411862553284,29504,129.10645617397333,100.0
203,1.0296480655670166,180.37215118888048,13.098288459147936,194.72746237029634,164.85475631991653,100.0,0.15266398781829765,0.1,0.0027663707733154297,0.05464792251586914,0.049957693,3.3112879,179.5142844901516,1.683776171961403,0.29314511578660585,100.0,151,0.013934850692749023,0.09629811439785524,0.08666927696761245,29655,136.67084277789118,100.0
204,1.003000259399414,185.06962332073954,8.474459325713902,197.79453875184822,176.2285524487515,100.0,0.1420696013030772,0.1,0.0029871463775634766,0.055852651596069336,0.04995177,6.3473024,180.06981837321038,1.6750383201817063,0.2967490605377931,100.0,145,0.01338648796081543,0.07063147700743243,0.07084481820906183,29800,135.35537888836254,100.0
205,1.025294303894043,189.15043838697716,8.426420134776977,195.70913549165402,174.7154518868316,100.0,0.133958102756124,0.1,0.002904176712036133,0.05556082725524902,0.049450275,12.232497,180.97788037458707,1.6668663987437309,0.30074488264103927,100.0,145,0.014863014221191406,0.06219384979618768,0.05783590047432412,29945,134.14029331068807,100.0
206,1.0301868915557861,175.17337165598423,18.090072946248547,197.99655362043296,156.63937755896518,100.0,0.14167433457404893,0.1,0.0029413700103759766,0.055913448333740234,0.049853884,2.9941447,180.3974295027268,1.6521356353045926,0.2855721323664191,100.0,139,0.01180124282836914,0.11543329941590891,0.11597324920252804,30084,136.61856068230438,100.0
207,1.0626258850097656,188.24866708002335,11.726477552531543,204.22081763074732,173.48443788430058,100.0,0.14010755404384198,0.1,0.00318145751953125,0.059799909591674805,0.050064225,5.1625175,181.18255326045644,1.6707211362350756,0.3008288772640281,100.0,151,0.012293577194213867,0.05542336467696628,0.055225623748001655,30235,133.38264465741705,100.0
208,1.0621538162231445,179.24008905070002,16.396375932905798,195.65564856916527,153.58519268580446,100.0,0.1404431386115873,0.1,0.003017902374267578,0.059197187423706055,0.049555555,4.181136,180.9883068394808,1.6600651031434468,0.29128990792238596,100.0,152,0.011623859405517578,0.06627743487971718,0.06599887106043044,30387,129.74859579465945,100.0
209,1.0463390350341797,192.37067346893116,8.04435835575545,202.56623204355967,182.4725015622824,100.0,0.14093325830740933,0.1,0.0028972625732421875,0.05693650245666504,0.050334148,12.434689,182.12654350242585,1.6889575526578842,0.3034191472717081,100.0,145,0.02098560333251953,0.07001584192699722,0.06969660397763333,30532,125.31633231493966,100.0
210,1.0352747440338135,190.45973598713948,19.816275662132025,217.67786564412026,168.5507634236451,100.0,0.14703771719600012,0.1,0.0029430389404296875,0.05778026580810547,0.050168972,2.3691201,182.9598627508972,1.669973110131227,0.2998668338754199,100.0,137,0.0171964168548584,0.10016485324329465,0.09918156749085508,30669,121.26395563647357,100.0
211,1.055671215057373,179.10216016828178,6.442851631893088,185.4520388800721,168.5352852101317,100.0,0.13527225757107725,0.1,0.003356456756591797,0.0634012222290039,0.049718387,6.8299627,182.57409249263566,1.6650966176742454,0.2916690093675463,100.0,151,0.01254725456237793,0.06330327103344767,0.05774488379742195,30820,128.37116894004785,100.0
212,1.0676829814910889,180.5421054207779,19.601368856598793,211.49228483658243,157.0706214232435,100.0,0.1418582197798926,0.1,0.0028438568115234375,0.056951284408569336,0.04976913,10.714399,182.37089378544988,1.6889420927005567,0.29434365855425676,100.0,160,0.015126705169677734,0.0755756303806023,0.06857872456836332,30980,119.95966067931975,100.0
213,1.0444035530090332,159.02999753702622,27.45505413440921,190.60082526880282,126.8742843684735,100.0,0.13866562968755816,0.1,0.002932310104370117,0.05523371696472168,0.049729433,4.263415,180.03680416060752,1.6300374712053842,0.27079261713448827,100.0,141,0.017335176467895508,0.1793223565746253,0.15187526131821316,31121,122.31418792470578,100.0
214,1.070681095123291,177.0522859562525,20.484503990041066,197.64675584010814,151.44043575600426,100.0,0.14718010293996292,0.1,0.003657102584838867,0.0572052001953125,0.04968873,8.439375,179.738352340172,1.679981639474852,0.2900412050213762,100.0,150,0.013825654983520508,0.10138146442774562,0.10513335701642382,31271,115.49539981756057,100.0
215,1.0579001903533936,179.34155859460805,18.97917099633203,208.17410744099402,156.9850383565602,100.0,0.14335607080730212,0.1,0.0031003952026367188,0.059247732162475586,0.050038673,13.478341,179.69867296561563,1.6762595861047531,0.290219375391741,100.0,140,0.012422323226928711,0.09224187286188522,0.09934081348003854,31411,122.05300179947126,100.0
216,1.0718882083892822,180.3358994480369,22.987169145439537,198.9213668707632,141.67770367720294,100.0,0.15288508480365368,0.1,0.002807140350341797,0.05759167671203613,0.049390446,3.6134517,179.76239561385776,1.675347809766612,0.293380118336996,100.0,149,0.012671709060668945,0.07696722783677867,0.07761987135765361,31560,126.4299928070277,100.0
217,1.0700089931488037,189.78585232131866,18.273648071277186,216.11413072493016,165.42761887327885,100.0,0.15144447976610345,0.1,0.0029420852661132812,0.058526039123535156,0.049986344,1.3291819,180.76474128460387,1.6872100665376442,0.300577544740341,100.0,142,0.018001556396484375,0.1588526893241336,0.13062839694198444,31702,131.0223150788693,100.0
218,1.0830202102661133,197.59378453718602,16.14285186948926,221.45421449537105,178.03619847147547,100.0,0.16589707263475129,0.1,0.0030324459075927734,0.05616927146911621,0.04997365,1.2933849,182.4476456098621,1.7161733257098635,0.3100002452797758,100.0,150,0.012448787689208984,0.14317492980121313,0.10678024241486161,31852,130.3802411394946,100.0
219,1.076702356338501,177.8986274472096,16.164285349421796,195.1563016828337,152.77508889991822,100.0,0.1421095715688577,0.1,0.0035753250122070312,0.07099723815917969,0.050065406,10.959039,181.99274379359684,1.6749729527006165,0.28929416768926397,100.0,141,0.013328075408935547,0.07775017024129173,0.09451076655608362,31993,125.80406270207182,100.0
220,0.9994871616363525,169.95993683055048,22.92739547206891,200.88365787915166,136.34286188924636,100.0,0.14217404369654513,0.1,0.013067483901977539,0.08803582191467285,0.049806315,6.8707633,180.7894630972922,1.6409652052545638,0.2810339512453841,100.0,140,0.01366567611694336,0.17274842716540684,0.1822608527982761,32133,129.83633882472222,100.0
221,1.0079081058502197,176.80044546479996,29.900458521992064,215.48457604847727,138.01513986968212,100.0,0.13426793235151918,0.1,0.0052111148834228516,0.0726768970489502,0.050183363,12.10318,180.39056133404299,1.6521654234702123,0.2867435320338295,100.0,132,0.01941823959350586,0.2111752754631774,0.1882036754538115,32265,128.91293338764152,100.0
222,1.020554780960083,168.2751357453684,19.168381562417274,189.82486506800382,137.76345650526747,100.0,0.1459273072602937,0.1,0.009012460708618164,0.06524038314819336,0.050262887,8.650557,179.17901877517554,1.6507877380817542,0.28074538103687263,100.0,146,0.0491487979888916,0.12640855912915314,0.10621259693514912,32411,132.83792242777284,100.0
223,1.0369949340820312,182.93822858444486,9.393108513441883,195.91461850729263,171.18489266041317,100.0,0.14449905882202288,0.1,0.003088235855102539,0.0796360969543457,0.049798638,4.9141984,179.55493975610247,1.697649265909673,0.29444025881471436,100.0,142,0.023989439010620117,0.06923214355764971,0.07276145664860086,32553,122.64664172245152,100.0
224,1.0311107635498047,156.09595269923844,9.066516574193205,170.59251706083126,147.79577852708414,100.0,0.14440267006968333,0.1,0.0030465126037597656,0.08606767654418945,0.049496643,2.6523519,177.2090410504161,1.6430662009640504,0.26756424704382953,100.0,140,0.0150146484375,0.0735528673034912,0.07394686130410404,32693,128.17416763383608,100.0
225,1.0356113910675049,180.03082888906016,17.32520040146285,196.96645148682643,151.04962075222065,100.0,0.14671806171540355,0.1,0.003202199935913086,0.07060718536376953,0.05043002,4.631831,177.4912198342805,1.6734214737486155,0.290603259952417,100.0,136,0.03026604652404785,0.07712211275800628,0.08404172910634852,32829,129.7415011069018,100.0
226,1.0563528537750244,189.07651418222878,23.46135678088584,218.7812301094991,159.774458737872,100.0,0.13939170972891501,0.1,0.008123397827148438,0.0688776969909668,0.049963884,8.319104,178.64974926907536,1.664405865953234,0.30025870379426894,100.0,144,0.01415562629699707,0.1062281509241237,0.08953306588140936,32973,138.40182124277206,100.0
227,1.0394785404205322,172.42809493020115,24.175147020577707,207.4321423254757,143.77175063329588,100.0,0.16310788204145799,0.1,0.002977132797241211,0.06001639366149902,0.05028594,2.438486,178.02758383518793,1.664583508658123,0.28548388382032786,100.0,147,0.012384414672851562,0.11756425340155277,0.111562266914003,33120,137.40003240381836,100.0
228,1.0680429935455322,189.9360639648552,13.037983322326388,199.97250256460677,167.70802574064936,100.0,0.14352211971246284,0.1,0.0030090808868408203,0.0602116584777832,0.049500957,6.9155784,179.21843184815467,1.6760351883407947,0.30159731150307356,100.0,146,0.013772010803222656,0.06284519581279646,0.05000111966238523,33266,138.86370520992315,100.0
229,1.0640039443969727,162.25106601772194,21.662114800424,193.39065692988976,141.67537360376224,100.0,0.14683438670414142,0.1,0.0030901432037353516,0.0582880973815918,0.050077982,2.5369396,177.5216952651114,1.6952521174785755,0.2748912434010822,100.0,144,0.015485286712646484,0.10823957141697946,0.11719793615564675,33410,140.85620025757837,100.0
230,1.0501220226287842,173.89867483471642,18.172273928816907,203.43361391688921,155.5522545180571,100.0,0.14297011056551057,0.1,0.0032911300659179688,0.06085562705993652,0.049739487,4.889561,177.1593932220719,1.6852097856196087,0.28593725312767837,100.0,137,0.013997793197631836,0.16678841396275973,0.14269264691951064,33547,144.2485099342825,100.0
231,1.0446979999542236,182.17298151325633,21.57096976789246,203.37199892424167,149.5056419335254,100.0,0.14750359795733392,0.1,0.003309965133666992,0.0599672794342041,0.050473068,2.1656096,177.66075205119034,1.6925488691393902,0.29314103369654715,100.0,134,0.013219118118286133,0.13013553961188487,0.1056233958078572,33681,147.8313024006604,100.0
232,1.0699536800384521,185.22401333486397,14.524529306899927,207.97812349667123,168.80957013989646,100.0,0.1491775096506107,0.1,0.0033736228942871094,0.060550689697265625,0.050147768,2.802249,178.4170781795577,1.6849545458913904,0.2976210658858535,100.0,145,0.019542932510375977,0.10007212449340774,0.107040658540552,33826,147.31455798870573,100.0
233,1.0446243286132812,183.7664278924487,25.241101358390058,209.2775343126288,148.84507034531438,100.0,0.15553192852378678,0.1,0.0030236244201660156,0.05694770812988281,0.050145224,1.5629147,178.9520131508468,1.6800243865857334,0.2955545080510746,100.0,142,0.012700796127319336,0.13737754583890494,0.1421395268561044,33968,148.43270769037443,100.0
234,1.0631299018859863,201.61323405865033,17.5927245134949,227.3560336621518,179.93161198406858,100.0,0.14367513322170433,0.1,0.0031671524047851562,0.05833148956298828,0.050143722,9.041349,181.21813524162715,1.6919355328554735,0.3127114381295598,100.0,139,0.014186620712280273,0.10172295408800111,0.09832570630299381,34107,155.82407572801068,100.0
235,1.0644950866699219,196.6060208063734,14.121588496610276,219.26758085359023,181.11226747876054,100.0,0.15104136949358576,0.1,0.0034570693969726562,0.058115482330322266,0.050078202,7.114294,182.75692379810178,1.692860556990344,0.308815421817559,100.0,145,0.014970779418945312,0.12627408786251684,0.11766144049292275,34252,154.12366730347193,100.0
236,1.0562124252319336,205.35989606200124,9.812391676714224,219.72104688363817,192.30728030519043,100.0,0.14914309137644083,0.1,0.005451679229736328,0.06252765655517578,0.050183274,2.2586432,185.01722102449173,1.711928930937675,0.3152105833674843,100.0,139,0.0242156982421875,0.14986087793031833,0.10441064208460353,34391,156.90682087321701,100.0
237,1.067410945892334,204.01985063347317,21.589656578973095,230.1750687897712,173.00031401496608,100.0,0.14238594758105363,0.1,0.0030562877655029297,0.05780911445617676,0.0499156,10.477118,186.91748398538988,1.7034359690696812,0.3151957942287842,100.0,141,0.013561248779296875,0.11857617926520142,0.12457563441070935,34532,163.55765523304902,100.0
238,1.0620715618133545,188.32094358998592,26.44986003284142,222.2222278052697,154.67298855214955,100.0,0.1362809506038893,0.1,0.0030846595764160156,0.05900287628173828,0.05015052,11.015029,187.0578299458495,1.707429846110357,0.30039086233356166,100.0,141,0.013720035552978516,0.12331847248100139,0.13597178835844306,34673,179.43302810319372,100.0
239,1.0527212619781494,210.1266112251688,11.314288697583937,225.83788726971142,197.5958542413784,100.0,0.14238106131086792,0.1,0.0047588348388671875,0.058733463287353516,0.050087906,3.7467206,189.36470807378143,1.7251336252417668,0.32071075523322634,100.0,138,0.014953136444091797,0.10918317827392345,0.10699871144535536,34811,190.43559225575072,100.0
240,1.0524933338165283,194.55795966682103,6.161140831883475,203.80305762071248,188.4210201989879,100.0,0.13652864896405045,0.1,0.0030553340911865234,0.05782032012939453,0.049974762,5.3954268,189.8840332330854,1.7004343713062486,0.30511741994458863,100.0,137,0.01367330551147461,0.0806466147458694,0.07740899959041855,34948,181.8469342758839,100.0
241,1.0294923782348633,181.7428837119416,23.019057296747796,215.52241848207856,154.8143340669352,100.0,0.14195989765955272,0.1,0.003191232681274414,0.05634760856628418,0.050019786,4.17218,189.06991828097102,1.6806260577634433,0.2927741381093259,100.0,133,0.013911724090576172,0.18866313341644828,0.15092388807883492,35081,190.90358188365266,100.0
242,1.0436019897460938,180.64208369075288,13.914039202053404,200.10933050215732,162.00443069147673,100.0,0.14071807793792393,0.1,0.004663944244384766,0.056780338287353516,0.050106656,9.228421,188.22713482194922,1.707639765091977,0.2939445071731185,100.0,143,0.01426243782043457,0.08235867636379972,0.06157166533428104,35224,182.53332597263037,100.0
243,1.0531320571899414,197.2986220607255,17.390619987132062,213.45315413322075,169.40034376250557,100.0,0.1467095159935239,0.1,0.003381967544555664,0.059108734130859375,0.04958324,6.2766614,189.13428354582686,1.6880332807982636,0.30843489517762945,100.0,137,0.011159181594848633,0.12663270100096044,0.12294230722183523,35361,184.1602513230021,100.0
244,1.0547301769256592,166.35240178201659,21.284408437609915,202.0896498903231,149.3237490085124,100.0,0.15519537936506836,0.1,0.0029447078704833984,0.05706954002380371,0.049690247,2.6557252,186.85609536944582,1.6739369226286032,0.2794213036442301,100.0,141,0.012965202331542969,0.09775796115591641,0.09590828536020513,35502,182.3503831515104,100.0
245,1.0539765357971191,211.9874491356556,16.548432610133652,227.32143408178575,184.40766120651801,100.0,0.16560288726132466,0.1,0.002999544143676758,0.055684804916381836,0.049495675,1.254866,189.36923074606682,1.7193248486752915,0.3228089234104786,100.0,141,0.014523029327392578,0.18499488197632766,0.17614637997056756,35643,182.8295794439583,100.0
246,1.0444023609161377,191.91031836212852,32.07643767754394,246.4322198044305,165.49364090511,100.0,0.15720733534207973,0.1,0.0033762454986572266,0.05753183364868164,0.050070122,1.2699872,189.623339507673,1.6743601575097657,0.30266389124478643,100.0,134,0.012821197509765625,0.13300914104570913,0.11784552471031798,35777,190.9338004843994,100.0
247,1.0636131763458252,193.3761574625731,14.041003237303316,213.79274798439718,176.45330201097966,100.0,0.15246729981231816,0.1,0.004632472991943359,0.05541038513183594,0.049848817,1.6252148,189.99862130316302,1.6950830330585214,0.3050529399941311,100.0,142,0.01544046401977539,0.06219772580057835,0.05624250176785583,35919,190.19506490006822,100.0
248,1.0636110305786133,196.0659577361647,17.246573584538467,220.13447748271352,173.41795907826918,100.0,0.15170754950761398,0.1,0.0030345916748046875,0.056961774826049805,0.050052065,2.2436926,190.6053549464632,1.7010655135964479,0.3080517603911456,100.0,142,0.012064695358276367,0.0957090935055354,0.09193466469921598,36061,187.5184112968811,100.0
249,1.0512099266052246,188.34730436346885,24.427170472900077,222.39895703143895,154.7954809435332,100.0,0.14121738278988982,0.1,0.004889011383056641,0.057532310485839844,0.049771078,5.9772444,190.37954988816378,1.6997833275957068,0.30082774493565384,100.0,141,0.013057470321655273,0.12476735261184661,0.1318155748851484,36202,186.52175939041345,100.0
250,1.0620417594909668,198.31767803671883,7.1930132597525525,205.8063912668914,189.778147299073,100.0,0.153640605856236,0.1,0.0029380321502685547,0.06016278266906738,0.049540427,2.6660316,191.17336270301928,1.708317798392046,0.3097313593105613,100.0,141,0.013961315155029297,0.06644363116177243,0.06704570315158505,36343,179.38897532129656,100.0
251,1.0820720195770264,178.35698312579683,17.461787826664207,202.93101449533725,155.34311362463112,100.0,0.14745161803894594,0.1,0.002938508987426758,0.056387901306152344,0.05029856,2.6580334,189.89172474529704,1.675886828334718,0.29131838273226424,100.0,146,0.01416015625,0.10033977052289707,0.09302590114175538,36489,179.2975125697616,100.0
252,1.0850162506103516,189.0549210301076,22.264721560788487,216.94107683932577,161.85895527184027,100.0,0.14880802234737645,0.1,0.0035028457641601562,0.061075448989868164,0.05020766,5.3864803,189.8080443737781,1.6904251595735669,0.30188283205055866,100.0,144,0.01198887825012207,0.09284755884196566,0.08750169359572518,36633,201.96859916021978,100.0
253,1.073328971862793,170.45841140981304,16.052796917691513,187.2931008791224,145.69232079242545,100.0,0.1442212609903173,0.1,0.003129243850708008,0.05805611610412598,0.050260782,3.454472,187.8730810773816,1.6763839423127411,0.28310099859948124,100.0,135,0.01280522346496582,0.20161515415253595,0.16407106625353127,36768,212.42629577412936,100.0
254,1.0867023468017578,197.25623954424628,22.74668996253289,216.36573023290708,159.0782462703445,100.0,0.15604131318991268,0.1,0.005235910415649414,0.06513643264770508,0.049502574,1.1579227,188.81139692406808,1.6968915607603126,0.30979063168179266,100.0,148,0.013702392578125,0.13448732684141515,0.15003880197928415,36916,224.77604169393808,100.0
255,1.0911083221435547,198.90607511341688,21.602882292520054,219.02232795637335,163.18640631796816,100.0,0.1514837900086526,0.1,0.004399538040161133,0.05785560607910156,0.049528148,1.1908365,189.82086474300297,1.7139719444440755,0.3104798637183689,100.0,139,0.015435218811035156,0.11498143495492949,0.11578148674445002,37055,219.35464866863356,100.0
256,1.0980381965637207,183.26467222772038,25.809074410814883,220.2822483519085,149.83962321666934,100.0,0.16285287746354785,0.1,0.0032262802124023438,0.06460976600646973,0.04998423,1.6124698,189.1652454914747,1.6871003395692687,0.29586813087392694,100.0,142,0.014110326766967773,0.15648897150922383,0.15066239162410333,37197,221.75022552383498,100.0
257,1.1162545680999756,188.57130304626918,15.205843226176315,204.01405452202948,165.79885460588656,100.0,0.14363378533869237,0.1,0.0030040740966796875,0.05774521827697754,0.04989464,5.112212,189.10585124695416,1.6949844340626061,0.30162934881442477,100.0,145,0.013695716857910156,0.06594725434341805,0.06513739530030743,37342,210.21119581060478,100.0
258,1.128373384475708,200.8650391490924,24.42644037553422,230.895979274951,162.81467338344356,100.0,0.15230634936388637,0.1,0.0031180381774902344,0.05770301818847656,0.049713273,2.658393,190.28177003716797,1.7011726279882315,0.31340643761544373,100.0,147,0.01421356201171875,0.08969450589780463,0.0783961822204215,37489,216.24087167298293,100.0
259,1.0888497829437256,177.38013308517907,34.68080146937004,223.36294999997864,134.18475938066553,100.0,0.14250098893796445,0.1,0.003082752227783203,0.058460235595703125,0.050428126,3.4134753,188.9916063419691,1.6866105903386222,0.2906970552327028,100.0,139,0.011922836303710938,0.20027725859477577,0.19990474856113052,37628,228.612834378107,100.0
260,1.1005208492279053,189.74852695579983,6.265771576490299,200.22842377316022,183.82956108574865,100.0,0.15250000439941902,0.1,0.003246307373046875,0.059960126876831055,0.049770147,1.9138854,189.06729840335217,1.7160777030499492,0.3021603955967184,100.0,139,0.012479066848754883,0.07677607386905455,0.06886071694561809,37767,217.19497774900904,100.0
261,1.1035728454589844,183.3276424186831,18.412147111835615,201.80981745131712,157.90500824621793,100.0,0.14671078834559959,0.1,0.0030002593994140625,0.06064605712890625,0.049734216,3.9515443,188.49333280488528,1.702116958292755,0.29607128490067935,100.0,140,0.012597084045410156,0.11109494371085672,0.10087206624598112,37907,214.68945225479732,100.0
262,1.132878303527832,219.27891558648813,14.793067478547298,244.07105373121897,206.8906561163853,100.0,0.16823243026128012,0.1,0.0031740665435791016,0.058537960052490234,0.050077166,1.0016962,191.57189108304556,1.6907347364974068,0.33118959187284663,100.0,151,0.011295080184936523,0.1631356443485359,0.16156276556381918,38058,220.99453829272525,100.0
263,1.104170322418213,177.40954013371004,33.21697902023453,215.3031308582976,129.0377166783387,100.0,0.15751471495604483,0.1,0.003057241439819336,0.05697989463806152,0.0499597,1.1633817,190.15565598811202,1.692355307969342,0.2886064800167663,100.0,138,0.01342153549194336,0.13381470127825554,0.13146072396317457,38196,208.60220114595822,100.0
264,1.1378519535064697,177.82274545469284,24.614105359086793,207.4181233564134,140.08341839285254,100.0,0.15133898649077437,0.1,0.003203868865966797,0.05951690673828125,0.05001033,3.9217048,188.9223649347701,1.7095345399639439,0.2914375427191412,100.0,141,0.014498233795166016,0.11889033849774157,0.11644336325899354,38337,232.11924621532955,100.0
265,1.1244721412658691,207.98424059184686,21.63767455180991,241.8236132786921,182.1137602093615,100.0,0.15345145990846662,0.1,0.002977132797241211,0.05601692199707031,0.04956425,2.4824042,190.82855250047777,1.7195634983323198,0.31848445062625763,100.0,138,0.01510310173034668,0.09931654656265308,0.09735569354955832,38475,229.61442514310008,100.0
266,1.1330220699310303,182.37893555014682,21.4424270365744,207.10034743262253,148.51574449313594,100.0,0.14552811121751258,0.1,0.0030655860900878906,0.058544158935546875,0.04986529,2.3210266,189.9835908054447,1.697101236159993,0.29437555687448624,100.0,139,0.01290130615234375,0.10091783612953598,0.09771380002585882,38614,221.50815211666077,100.0
267,1.1318163871765137,206.7017133706009,34.642186181397896,250.2656663888723,161.23430714480799,100.0,0.14509726012257732,0.1,0.0038776397705078125,0.06236696243286133,0.05000838,2.7692423,191.6554030619603,1.7157282387306563,0.3182673452853549,100.0,135,0.013889312744140625,0.10726405197590431,0.10524828262401896,38749,235.14758472576236,100.0
268,1.1415205001831055,192.60546878186122,17.487027618597192,222.87486979105938,181.75757277894868,100.0,0.135300983675557,0.1,0.0030875205993652344,0.05842924118041992,0.05062015,6.3961606,191.7504096339504,1.7202665837840811,0.3046719617948599,100.0,134,0.014193534851074219,0.13135259760366114,0.11565058975285764,38883,232.3540999658229,100.0
269,1.1543529033660889,207.9099978135661,30.246710166595264,239.4395651293023,167.6584334769321,100.0,0.16064221517870605,0.1,0.0076100826263427734,0.05762290954589844,0.049602307,1.8023272,193.36636845191197,1.6984156436022457,0.31989802544709545,100.0,143,0.013372421264648438,0.15294463902362124,0.1578326823891753,39026,225.36126750019108,100.0
270,1.158020257949829,221.0522046141113,20.97797964541257,251.87423436613068,195.145879904386,100.0,0.16147319536433402,0.1,0.0029027462005615234,0.05798625946044922,0.04940771,2.8106847,196.13495206813192,1.7097454831264391,0.3317832787632194,100.0,137,0.01212620735168457,0.13381332550914046,0.12820526040909272,39163,222.50852148609235,100.0
271,1.1373817920684814,223.15605106774672,18.574078771377025,239.4108064338149,193.17277725685406,100.0,0.15593640326631727,0.1,0.003079652786254883,0.058307647705078125,0.04982439,1.2020366,198.83706196809342,1.7298726794879695,0.3343847349926116,100.0,141,0.014206409454345703,0.17082293890641798,0.14639661648161068,39304,231.98582547754077,100.0
272,1.1240837574005127,183.02646324682536,23.408927928572396,208.40442879759195,146.54275011602525,100.0,0.16171562269314163,0.1,0.002963542938232422,0.0564424991607666,0.049752653,1.0269134,197.25600209596664,1.7112212273376868,0.2943437181291718,100.0,133,0.014293193817138672,0.09769311880737096,0.10468591375434823,39437,217.66201841387064,100.0
273,1.1317241191864014,198.56401108375965,38.81985005779838,247.37137033026227,140.70665052054045,100.0,0.13637616702277364,0.1,0.0030007362365722656,0.054782867431640625,0.05008441,2.9979036,197.38680299474595,1.674856451766043,0.3097069139853014,100.0,135,0.013718843460083008,0.13824445237044317,0.13979417062681446,39572,235.81711655934203,100.0
274,1.1388540267944336,208.85365083421854,19.077177088180974,235.25310981929488,181.34899258685175,100.0,0.15212476008276662,0.1,0.002916574478149414,0.057569265365600586,0.049866818,2.5165436,198.5334877786932,1.7065326622008046,0.32055463360137376,100.0,143,0.013782262802124023,0.11965830692525285,0.11822620984354829,39715,235.01099624719836,100.0
275,1.135899543762207,204.2637865323514,11.569860318256143,217.4037112159446,190.50398383679985,100.0,0.14842947724873423,0.1,0.0031082630157470703,0.05664563179016113,0.050277904,2.22886,199.10651765405902,1.7306198404643398,0.3157515148292023,100.0,140,0.013251066207885742,0.07309161386567924,0.07231538717457801,39855,241.5410756662018,100.0
276,1.1313214302062988,190.0444384412497,15.620390050158887,213.51174335843763,170.42127408657723,100.0,0.1480692141164733,0.1,0.002903461456298828,0.054972171783447266,0.04969499,5.423394,198.2003097327781,1.6956561346115593,0.30308333136632,100.0,142,0.011934518814086914,0.10961313326647561,0.10218497893230759,39997,246.0110209179837,100.0
277,1.141122817993164,200.33986253798173,35.83302205955214,254.19631384305103,154.1568155192768,100.0,0.14967506232509908,0.1,0.003022909164428711,0.057041168212890625,0.049799677,2.235714,198.41426501329846,1.6961948427190472,0.3128288419525548,100.0,141,0.017473459243774414,0.10329452521604335,0.10209895372363777,40138,247.85019086906695,100.0
278,1.1626818180084229,201.28757562725315,13.77211003017882,222.67881152339947,184.31201128278917,100.0,0.15184210347351662,0.1,0.0030052661895751953,0.05869650840759277,0.050185345,1.4366349,198.70159607469395,1.7064164851599566,0.3126705059815424,100.0,143,0.013908147811889648,0.07872466359615579,0.07996517103894313,40281,235.50183879604006,100.0
279,1.1638109683990479,193.653689607089,42.53046471213307,259.40480127553775,152.47252850942084,100.0,0.16820636096605965,0.1,0.002890348434448242,0.055666446685791016,0.04989307,1.4390793,198.19680542793347,1.682325729604309,0.3053254074698387,100.0,139,0.013061761856079102,0.12486047162072629,0.12535240592018174,40420,237.20256720439696,100.0
280,1.1777606010437012,205.4392264970682,22.965939029114516,235.7238168618714,172.68914508012932,100.0,0.1542722325613204,0.1,0.0030508041381835938,0.05718588829040527,0.049832948,1.4826847,198.92104753484693,1.72245308178976,0.3178770025058902,100.0,137,0.012151241302490234,0.14351510321216857,0.13798864087031995,40557,247.95104731916538,100.0
281,1.170466423034668,218.33106493769958,34.58394174294591,261.8820755407293,169.63141962086206,100.0,0.1571406831024738,0.1,0.0031015872955322266,0.057654380798339844,0.050192688,1.8440686,200.86204927513222,1.6944190409304096,0.3296287219130669,100.0,141,0.015957355499267578,0.1424095880048584,0.1423430700473539,40698,268.38797777336293,100.0
282,1.1845521926879883,220.58406912062986,23.222753821751514,242.70457118742985,182.18612674765768,100.0,0.16339374190066683,0.1,0.0029594898223876953,0.057207345962524414,0.050145917,1.3283719,202.834251259682,1.67599620008111,0.3316053751297703,100.0,148,0.01916027069091797,0.1496137396820783,0.12668723212087213,40846,271.50053904999726,100.0
283,1.1975822448730469,208.00281720733926,27.7986419042041,239.22680571695602,163.42204356889204,100.0,0.15831201004353773,0.1,0.0030274391174316406,0.05593991279602051,0.04973365,1.1533115,203.35110785444772,1.7272543921188812,0.32053185836287623,100.0,139,0.011602401733398438,0.1438172052231317,0.14864312811705996,40985,285.63696059799855,100.0
284,1.2390997409820557,209.42595832382028,23.93256646317112,240.27045931881116,173.27960701979606,100.0,0.15252726443418796,0.1,0.003058910369873047,0.05765056610107422,0.05017714,7.1099286,203.958592901385,1.7022029615826617,0.3205309970330011,100.0,138,0.02090907096862793,0.07584112950660772,0.07266520197497305,41123,269.9189054537315,100.0
285,1.2390573024749756,218.07219892179512,21.479344897388934,244.63592310322576,195.2052583240686,100.0,0.16506793996644814,0.1,0.002997159957885742,0.05719494819641113,0.049664456,1.3557532,205.36995350342602,1.6978476278099928,0.330352492157221,100.0,148,0.02272820472717285,0.12469898113237511,0.11880055710639816,41271,265.52151911248706,100.0
286,1.1530816555023193,219.15928171891133,13.444212531158795,236.30044915340068,202.6642957963363,100.0,0.13768549645030173,0.1,0.0033006668090820312,0.0654904842376709,0.049340356,9.029989,206.74888632497454,1.7016223334511436,0.3316156464011724,100.0,148,0.013676166534423828,0.0771080369798957,0.08071324661336524,41419,277.2258198086109,100.0
287,1.1128482818603516,207.35860057806036,11.099285065896126,219.0400356979103,193.87894373574375,100.0,0.13794230493235846,0.1,0.003137826919555664,0.058320045471191406,0.050604034,5.337984,206.80985775028313,1.6977507760824238,0.31904547587660814,100.0,137,0.014074325561523438,0.10480666260904645,0.0933564328053061,41556,286.3642410998496,100.0
288,1.1425516605377197,213.20314833776627,56.762630861057204,260.53941348898934,120.86093318496626,100.0,0.15124326407206087,0.1,0.003294229507446289,0.06046557426452637,0.049657844,2.0425496,207.44918680903143,1.6883836248076731,0.3247602028274443,100.0,147,0.012445449829101562,0.13451473443434522,0.13086086629896665,41703,280.02412399882286,100.0
289,1.1284754276275635,245.15834731744218,11.102007650422898,260.5809295574515,229.32551844401627,100.0,0.14780374741735686,0.1,0.00319671630859375,0.05746316909790039,0.050262377,5.8570385,211.2201028598725,1.7372835286406483,0.3558246445201174,100.0,137,0.016004562377929688,0.12139536835724515,0.1216627572511107,41840,270.21909706305865,100.0
290,1.1479017734527588,224.65222313692294,6.984096212588276,234.53870124954648,214.7919878208495,100.0,0.1569478884083971,0.1,0.003241300582885742,0.0603938102722168,0.049900454,1.7852113,212.56331488757755,1.7175270096105448,0.3364663020237601,100.0,140,0.01293492317199707,0.11397130389771223,0.11157013784630788,41980,266.8593447356938,100.0
291,1.155691385269165,213.73847409182792,13.577039004700952,227.5238030936051,191.85320605595146,100.0,0.16608589124565581,0.1,0.003212451934814453,0.06008100509643555,0.050008018,1.9816909,212.68083080800258,1.6887954405969166,0.3257315869558315,100.0,146,0.011538505554199219,0.07989967292946741,0.08091104921031038,42126,296.678315549842,100.0
292,1.1832702159881592,229.29419294894024,19.41297457900806,248.50338448039537,196.8884012769928,100.0,0.16087225212619818,0.1,0.0032129287719726562,0.06308984756469727,0.04921701,1.1283919,214.34216702209633,1.7042791605316288,0.34156546751560984,100.0,144,0.012498617172241211,0.13731220495726063,0.13392693476628587,42270,290.90539310454045,100.0
293,1.155238389968872,226.84119023157777,15.382878632937746,252.18375362784073,211.90704335317199,100.0,0.16167482156726523,0.1,0.003164529800415039,0.05813145637512207,0.049763065,1.1764594,215.5920693430445,1.7174508983222876,0.3370054071400619,100.0,140,0.01437997817993164,0.10687769406653214,0.08285724016738372,42410,291.37490945790233,100.0
294,1.1671090126037598,226.2384838341922,12.143374081081122,240.6477753108884,211.2854494090206,100.0,0.14973290368437386,0.1,0.0032241344451904297,0.05776548385620117,0.049702015,2.5424986,216.65671079215926,1.7217639581107425,0.3368719164250506,100.0,141,0.013161182403564453,0.04993096979460191,0.04316321723770926,42551,284.37780468995567,100.0
295,1.1706771850585938,205.08220679699528,37.54586867001012,268.89750341292995,172.11036733982849,100.0,0.14181157960197635,0.1,0.0029904842376708984,0.06528449058532715,0.04931103,2.5957,215.49926039264287,1.7119731044644124,0.3161589647189406,100.0,133,0.01634812355041504,0.2077983595347489,0.20869289912049874,42684,283.563372500792,100.0
296,1.177725076675415,223.9505893712533,19.051650969377945,252.04656195173783,202.4821621298019,100.0,0.15362212221830646,0.1,0.009205818176269531,0.07706284523010254,0.049527865,3.1387277,216.34439329050392,1.705898688327168,0.3354307209118209,100.0,142,0.01231241226196289,0.096644699901572,0.0892178486992932,42826,282.10845517770764,100.0
297,1.2206361293792725,217.89255865590846,42.615969311223914,275.7960356670741,167.6215787040059,100.0,0.15091292989669441,0.1,0.0033779144287109375,0.07852458953857422,0.05055098,29.925074,216.49920982704435,1.6974901809152012,0.3305964030766245,100.0,149,0.015004158020019531,0.15742565822860327,0.1478678314053623,42975,277.09171820538677,100.0
298,1.2008049488067627,202.74794302005336,32.54170307770026,239.80781399402778,154.3554232837455,100.0,0.16267606134368545,0.1,0.002876758575439453,0.05725383758544922,0.04988403,3.1054268,215.12408314634527,1.6893017695947843,0.31437490818589975,100.0,147,0.013000011444091797,0.11308839885779123,0.11386548291420746,43122,253.90198721964057,100.0
299,1.2089323997497559,250.6719202459654,23.355233806629258,280.06885122704233,215.5245989387556,100.0,0.1544472936752416,0.1,0.004625082015991211,0.05745124816894531,0.050172504,1.5204514,218.6788668563073,1.71116831959672,0.36190083409674595,100.0,144,0.013141870498657227,0.1316696518151267,0.12833696423953528,43266,266.2427359405255,100.0
300,1.1914949417114258,225.7162819131609,35.09545479517841,260.84547383205063,167.25451781619674,100.0,0.16035462768125408,0.1,0.0030260086059570312,0.057198286056518555,0.050229833,2.1899145,219.38260836199265,1.732843745269358,0.33779738968375445,100.0,142,0.020004987716674805,0.11689914364261728,0.11566524676661336,43408,260.0417902850421,100.0
301,1.2096900939941406,215.97975307322542,13.028430106861963,228.53490324194803,194.11726971508517,100.0,0.16467556260267324,0.1,0.0030493736267089844,0.05765414237976074,0.050279558,1.6067892,219.04232283311595,1.7158599149163944,0.3273247135615969,100.0,142,0.014010429382324219,0.09293231325746425,0.08773325418495036,43550,256.93641938496796,100.0
302,1.2364425659179688,231.65894996714172,17.904929788998192,252.42285063063827,206.6354681400574,100.0,0.1489210069227958,0.1,0.0030274391174316406,0.056954383850097656,0.04998217,3.029825,220.30398554651853,1.726678777551658,0.34160767870533404,100.0,138,0.012889862060546875,0.07889619861031616,0.07275524643964673,43688,258.2860535647459,100.0
303,1.2175700664520264,232.432522957867,6.826247373633264,237.8623072080017,220.85722470420052,100.0,0.1537022171441546,0.1,0.003256082534790039,0.060288429260253906,0.049469415,3.1918128,221.5168392876534,1.7141405020220752,0.34321325066976155,100.0,142,0.012047052383422852,0.08117355537875494,0.07989797743331167,43830,260.41946359214415,100.0
304,1.2287349700927734,229.91027495323368,17.39590808436731,250.14660143114003,210.09484599239693,100.0,0.14160005308296078,0.1,0.0030319690704345703,0.05809783935546875,0.049943242,3.1403427,222.35618285421145,1.7172864685047904,0.3413885583006663,100.0,142,0.012006044387817383,0.09420615920928924,0.0953885833409791,43972,255.5272902907642,100.0
305,1.2605342864990234,223.56111276753194,26.73282328269071,244.10000911081318,177.70223135511503,100.0,0.15157326958659811,0.1,0.0029211044311523438,0.05841422080993652,0.0502197,4.5110655,222.47667584554353,1.6973586370412124,0.3359134908511018,100.0,147,0.012265682220458984,0.09480950400491259,0.0887976867221643,44119,249.7112951424832,100.0
306,1.1497182846069336,243.33107350446045,34.69987836606861,282.1336922408845,197.06864781993232,100.0,0.15068140534594693,0.1,0.003124713897705078,0.06124162673950195,0.04940998,3.1290572,224.56211561143525,1.7091102241597298,0.3521297282866823,100.0,134,0.019722461700439453,0.09872876950611154,0.0970029317556716,44253,246.76638566800588,100.0
307,1.176199197769165,226.60785874713392,45.53125756608536,269.3175420293954,153.355358031464,100.0,0.14916099381789227,0.1,0.003247499465942383,0.05934858322143555,0.05004757,3.4421973,224.7666899250051,1.7074014811689544,0.337244016448176,100.0,143,0.015723466873168945,0.08971222838547056,0.08602526540100618,44396,232.62887183313612,100.0
308,1.1818513870239258,265.06079337892686,16.65732552708637,280.3761626283781,237.78264767002625,100.0,0.15413078863135474,0.1,0.0031714439392089844,0.05802416801452637,0.050003223,2.260126,228.7961002703973,1.7245809414671607,0.37459819479385764,100.0,139,0.013538360595703125,0.10071696019682363,0.09661948160100851,44535,212.44885052276493,100.0
309,1.173454761505127,233.72996749313614,33.801930689939574,268.85678388526946,187.4005446669055,100.0,0.16441502178139544,0.1,0.003081083297729492,0.06049346923828125,0.049937814,1.3130597,229.2894869926712,1.7192504317087527,0.34435797425856196,100.0,136,0.014097929000854492,0.142722928829132,0.13829699293621925,44671,224.32203326197586,100.0
310,1.2316956520080566,222.2475527527762,21.907086786114803,247.9488071903117,191.65461946958192,100.0,0.15784419080193848,0.1,0.003397226333618164,0.06294393539428711,0.04973219,3.7473316,228.5852935686817,1.7224205099798278,0.3345521088292383,100.0,143,0.01605963706970215,0.07148009450628202,0.06706377578709102,44814,224.8472674586737,100.0
311,1.1810588836669922,229.6282163887665,10.632531753906202,245.27448096588859,215.44858758809443,100.0,0.16708372869757052,0.1,0.003075838088989258,0.05732250213623047,0.049970992,1.0187697,228.68958585069018,1.718146149069476,0.34063447280258874,100.0,141,0.016785383224487305,0.054820021892397965,0.055044669111299384,44955,243.69284177811082,100.0
312,1.172187328338623,237.41651084408068,19.218017409003064,261.3191588563395,212.87870632241606,100.0,0.15153461971519624,0.1,0.0030078887939453125,0.05821943283081055,0.049915485,1.6730046,229.56227835002923,1.7115655926806563,0.3472438077379629,100.0,135,0.013361692428588867,0.10297133675498286,0.10303428502196091,45090,262.20334926330685,100.0
313,1.1890854835510254,237.25917738389282,15.109919671677588,259.43784643733807,220.11508426060288,100.0,0.15506459156583663,0.1,0.0031554698944091797,0.06032586097717285,0.04999587,1.257201,230.3319682534156,1.702619659150721,0.34699557188572727,100.0,138,0.014162778854370117,0.07418012568044167,0.07089062246725737,45228,254.38763674266548,100.0
314,1.1740527153015137,231.50527839600622,15.127464013321926,246.4278358045753,208.4469984529157,100.0,0.16677215878935867,0.1,0.0030243396759033203,0.05787968635559082,0.049936313,1.0615532,230.44929926767466,1.7104743538068892,0.3416577996746497,100.0,140,0.01270294189453125,0.11502942043853143,0.11256820091271472,45368,247.68249804029423,100.0
315,1.168670892715454,227.83988714158545,24.41554131308915,251.3306284453589,187.9494264731518,100.0,0.14519105567202778,0.1,0.0031991004943847656,0.0595700740814209,0.04938044,6.818795,230.18835805506575,1.721811534854631,0.33802765122349654,100.0,140,0.012603044509887695,0.058005291985936056,0.057834318165125666,45508,248.09155795847838,100.0
316,1.1676602363586426,237.75419896900084,29.718259799628377,267.6564794459449,195.34163873268483,100.0,0.15016935854316785,0.1,0.0029904842376708984,0.05776095390319824,0.050224468,2.330617,230.94494214645925,1.7213426091254378,0.3473536778393306,100.0,135,0.013474225997924805,0.12751428377840818,0.12709080275082946,45643,224.83947556969565,100.0
317,1.1410090923309326,225.31721623726435,23.81004379289492,261.29533800474,196.06937991832024,100.0,0.13522764620420577,0.1,0.0029692649841308594,0.055171966552734375,0.050263375,5.736959,230.38216955553978,1.7284567507966293,0.333934326199515,100.0,127,0.008239269256591797,0.08415254497878952,0.08415254497878952,45770,226.06719135073715,100.0
318,1.1867177486419678,251.66526776141137,11.79577678001326,268.10732992230936,239.9183773096146,100.0,0.1621950012900311,0.1,0.002931833267211914,0.05634164810180664,0.050307825,1.4325006,232.51047937612697,1.7174783857617266,0.35969678550193274,100.0,134,0.012975931167602539,0.0770271243705012,0.07356176002702935,45904,213.31624794773643,100.0
319,1.1657662391662598,219.93165114598287,23.499255619544726,247.95393563111656,190.76074065608847,100.0,0.14501660127792013,0.1,0.0030145645141601562,0.05677342414855957,0.05000152,4.488215,231.25259655311257,1.695145639699627,0.32886788672433825,100.0,135,0.012404680252075195,0.07083337413211532,0.07012661996273083,46039,196.79775047316477,100.0
320,1.1630282402038574,240.3112727619114,14.420953598079244,254.9803890656665,216.51228700465214,100.0,0.149452474790149,0.1,0.0030994415283203125,0.05479264259338379,0.050221898,4.186224,232.15846417399246,1.7338032886473984,0.3493357958026756,100.0,134,0.015866518020629883,0.05923848892528344,0.05869753604886684,46173,186.42604358045176,100.0
321,1.1612541675567627,245.32914150604597,24.231323516487194,278.92596512315134,212.4350628951613,100.0,0.16308678066311755,0.1,0.0031919479370117188,0.05763125419616699,0.049628574,1.6939294,233.47553190719782,1.7248791390961793,0.3546576830680953,100.0,135,0.014748573303222656,0.09980702126126,0.09883283961147936,46308,187.44491425857277,100.0
322,1.159618854522705,247.21527549527053,14.248003642338405,264.2017334059175,231.87258088572943,100.0,0.15288832247560563,0.1,0.0031151771545410156,0.057915449142456055,0.049411498,3.225704,234.8495062660051,1.730234376725859,0.3547136151189437,100.0,128,0.012818098068237305,0.06840375117191132,0.06741377827467904,46436,171.0162094021783,100.0
323,1.1569666862487793,257.7222666452687,19.022021632486872,288.09286982392473,237.3593146518873,100.0,0.14556402779866165,0.1,0.0029969215393066406,0.06407284736633301,0.049544584,2.5678482,237.13678230393148,1.7326775053728913,0.3667888986218879,100.0,134,0.013578176498413086,0.0803105589377639,0.08012382575463259,46570,167.9261897487286,100.0
324,1.196228265762329,242.52783958550089,21.783641503251395,271.2219141488819,213.37632268969628,100.0,0.1522904313881912,0.1,0.0029473304748535156,0.05567812919616699,0.049619712,3.9527917,237.6758880320884,1.698553091400455,0.35134204622373294,100.0,137,0.013141870498657227,0.07158233204919552,0.06895793838083059,46707,161.59196791346747,100.0
325,1.1792163848876953,223.05371640866724,17.811561571995725,249.68394071091274,199.6947509583773,100.0,0.14812004487269198,0.1,0.003072500228881836,0.05815887451171875,0.04996754,1.1917437,236.2136708697463,1.7235101049880197,0.3313850057251718,100.0,130,0.01355600357055664,0.15458000819243628,0.13854003644652804,46837,170.17277477486067,100.0
326,1.1840426921844482,210.6348696328665,33.32028449339753,251.8418167135115,159.02762134081888,100.0,0.15803566267403843,0.1,0.004211902618408203,0.05645036697387695,0.050092757,2.5376334,233.6557907460583,1.6975446265151488,0.32114453092770406,100.0,141,0.01551055908203125,0.10699461744689244,0.09858833281896288,46978,184.98329483376122,100.0
327,1.209324598312378,229.2318543895711,18.54993741522534,247.54289659535635,198.85440394165664,100.0,0.15717666478003006,0.1,0.002910137176513672,0.056714773178100586,0.050209846,1.2341462,233.2133971104096,1.7086078477677749,0.33722511290329105,100.0,135,0.012170791625976562,0.10113596646608271,0.11075835696512339,47113,187.08404537683148,100.0
328,1.1984977722167969,253.30576832119655,17.148857240900302,281.6211589432936,237.1846633352083,100.0,0.15253982943888528,0.1,0.0031044483184814453,0.06680917739868164,0.049699754,1.6019932,235.22263423148829,1.7351655512338033,0.36315398374236435,100.0,137,0.014363765716552734,0.07236810779726584,0.07147909347189697,47250,181.69568404334078,100.0
329,1.2115843296051025,255.9987118868279,10.235279764044758,269.94776161521236,244.5225237844947,100.0,0.1498298908587963,0.1,0.0030417442321777344,0.059352874755859375,0.049749672,1.6464018,237.30024199702225,1.7366155946241217,0.3647138977864347,100.0,135,0.013936758041381836,0.0884319781314457,0.06556160363932538,47385,178.86547164298062,100.0
330,1.1934373378753662,232.4280884531326,20.25086989793824,254.21885497506526,211.19030814673636,100.0,0.15382839609352816,0.1,0.003170490264892578,0.05775952339172363,0.050152496,2.0729764,236.8130266426333,1.7385480350773952,0.3413786782379166,100.0,134,0.014296531677246094,0.0673002826829679,0.05452718706215071,47519,175.16883316333542,100.0
331,1.190814733505249,253.31371982025223,17.587426754390066,273.9912080264087,228.2952564277484,100.0,0.14984306827730523,0.1,0.0050585269927978516,0.055298566818237305,0.050004706,1.6585711,238.4630959603952,1.7386749513247373,0.3625957030228594,100.0,135,0.014068126678466797,0.10422509610495555,0.11465773117369667,47654,171.809595345321,100.0
332,1.2316412925720215,224.84203472880853,26.310867603903432,266.6323401800415,200.88109395216085,100.0,0.151351714722287,0.1,0.003094911575317383,0.05726265907287598,0.0499748,2.116189,237.10098983723657,1.728030225868741,0.3337335184610589,100.0,129,0.0158994197845459,0.11987613329984884,0.12402918797146342,47783,183.35270089319184,100.0
333,1.2347373962402344,263.1056985232865,5.724134527889696,270.5835177898844,254.49160408545043,100.0,0.1363992188091992,0.1,0.002895355224609375,0.05819225311279297,0.049797118,9.2020445,239.70146070584158,1.7316787884205302,0.37173455369876857,100.0,134,0.01317453384399414,0.048589054501221335,0.04797063419976434,47917,192.00684571927567,100.0
334,1.2263174057006836,227.53171598802774,29.09957836326234,274.6992751372792,195.4313721928868,100.0,0.14685549505110634,0.1,0.003112316131591797,0.059171438217163086,0.049587518,2.924962,238.4844862340602,1.7041615112598243,0.3371266075647012,100.0,135,0.012924671173095703,0.1540495872928218,0.12164460809986759,48052,211.2298025751336,100.0
335,1.2370021343231201,239.67150148410394,33.76798890147186,269.4829661238275,182.5228391199603,100.0,0.13961073342950048,0.1,0.0029942989349365234,0.05713081359863281,0.050240234,8.042758,238.60318775906455,1.7475364897785908,0.34930586881549386,100.0,131,0.013569831848144531,0.1312284746420626,0.09642746317575633,48183,210.16014100115035,100.0
336,1.2576344013214111,246.12088660281267,11.021439604243783,261.53772597187947,230.47365623277582,100.0,0.15481295656758667,0.1,0.004910469055175781,0.06391024589538574,0.04979612,1.2945435,239.35495764343938,1.7463830970853897,0.35606904322214095,100.0,134,0.014299154281616211,0.12634506228835146,0.1276044559236615,48317,215.51103091609343,100.0
337,1.2779366970062256,245.50140755319984,6.926806961653839,254.2923469465063,236.566952622637,100.0,0.14583799434335906,0.1,0.0032596588134765625,0.0644073486328125,0.050072197,1.958749,239.96960263441542,1.7450506404558077,0.35321328060892454,100.0,130,0.013107061386108398,0.06728936280556794,0.08334804875951732,48447,186.8267489433496,100.0
338,1.282778263092041,260.905548334571,16.54190370848431,280.68524933170147,238.55597069865166,100.0,0.1592992979630967,0.1,0.0030863285064697266,0.06914782524108887,0.04982636,1.0971217,242.063197204431,1.6911732832741377,0.3707777287938888,100.0,144,0.01601862907409668,0.13813292420222034,0.12005676824515027,48591,180.87218288080115,100.0
339,1.288743019104004,228.31439489042126,19.573219030802235,255.91375265830345,202.50904124898955,100.0,0.17019133835953207,0.1,0.00431060791015625,0.0574643611907959,0.050007094,0.64865345,240.68831697303,1.7157749986476014,0.3368941249188025,100.0,134,0.014447450637817383,0.09520741392163976,0.07560475729081771,48725,181.43905318222514,100.0
340,1.2841217517852783,253.37279922774923,9.998620105380697,266.27661644132115,241.23498734887227,100.0,0.15590908163477157,0.1,0.0030570030212402344,0.08749008178710938,0.050178804,1.4359503,241.95676519850196,1.7474029629409276,0.3633128181000833,100.0,135,0.016579389572143555,0.07210225012540067,0.06852923806095375,48860,166.65812824141003,100.0
341,1.2951061725616455,249.8539831306919,23.865909852573722,273.545133093449,210.07985800450646,100.0,0.1529878618890802,0.1,0.0030040740966796875,0.06713652610778809,0.049609847,1.4984233,242.74648699172096,1.734513729146882,0.3569664053476575,100.0,129,0.020451068878173828,0.09301782681875172,0.09513187772479713,48989,172.1239800445468,100.0
342,1.2154524326324463,250.01838704215072,31.502735236218946,288.02945008796536,201.27994023162177,100.0,0.13840637336784117,0.1,0.0033864974975585938,0.06176352500915527,0.049714748,4.913697,243.4736769967639,1.7288715573463567,0.3593733384518435,100.0,135,0.014162540435791016,0.07529823498667794,0.07994562442061577,49124,177.25917555889643,100.0
343,1.2101397514343262,237.19179367275927,25.638727466730526,277.05008960551686,207.4998378247088,100.0,0.15227414800072195,0.1,0.003323078155517578,0.07155871391296387,0.05024544,6.1337013,242.84548866436344,1.7369187278052303,0.34676207920846114,100.0,133,0.01573657989501953,0.09690616910316767,0.09228774615163986,49257,175.2355712219535,100.0
