Iter | Sampling Pol | Evaluation Pol | Best (Sampled) 
   0 -11.94 -17.32 -100000000.00 
   1 -13.34 -15.47 -11.94 
   2 -12.20 -18.20 -11.94 
   3 -13.11 -14.66 -11.94 
   4 -13.18 -15.21 -11.94 
   5 -12.75 -15.59 -11.94 
   6 -11.82 -15.10 -11.94 
   7 -15.12 -15.22 -11.82 
   8 -13.59 -14.45 -11.82 
   9 -12.30 -12.70 -11.82 
  10 -13.26 -12.75 -11.82 
  11 -12.46 -12.95 -11.82 
  12 -13.44 -13.74 -11.82 
  13 -15.11 -10.38 -11.82 
  14 -13.67 -13.43 -11.82 
  15 -10.58 -11.74 -11.82 
  16 -14.65 -9.87 -10.58 
  17 -12.88 -9.35 -10.58 
  18 -14.92 -12.38 -10.58 
  19 -11.60 -12.10 -10.58 
  20 -12.58 -12.80 -10.58 
  21 -13.45 -10.88 -10.58 
  22 -14.05 -13.76 -10.58 
  23 -12.16 -12.62 -10.58 
  24 -14.26 -12.94 -10.58 
  25 -11.48 -9.90 -10.58 
  26 -14.42 -9.91 -10.58 
  27 -13.42 -9.04 -10.58 
  28 -10.14 -8.33 -10.58 
  29 -12.48 -9.23 -10.14 
  30 -12.74 -9.26 -10.14 
  31 -13.08 -8.60 -10.14 
  32 -12.03 -8.75 -10.14 
  33 -11.85 -11.76 -10.14 
  34 -10.90 -9.61 -10.14 
  35 -13.57 -12.88 -10.14 
  36 -13.65 -11.14 -10.14 
  37 -12.48 -9.03 -10.14 
  38 -11.56 -9.97 -10.14 
  39 -13.43 -11.14 -10.14 
  40 -10.86 -8.47 -10.14 
  41 -12.03 -12.25 -10.14 
  42 -10.65 -14.10 -10.14 
  43 -12.22 -12.89 -10.14 
  44 -12.21 -11.76 -10.14 
  45 -13.45 -10.36 -10.14 
  46 -12.09 -11.34 -10.14 
  47 -12.19 -13.41 -10.14 
  48 -11.08 -10.70 -10.14 
  49 -12.22 -11.78 -10.14 
  50 -10.41 -9.23 -10.14 
  51 -10.95 -9.35 -10.14 
  52 -12.48 -10.05 -10.14 
  53 -11.56 -8.75 -10.14 
  54 -13.14 -8.93 -10.14 
  55 -11.02 -9.49 -10.14 
  56 -12.25 -9.25 -10.14 
  57 -10.72 -10.20 -10.14 
  58 -9.90 -9.49 -10.14 
  59 -11.62 -9.93 -9.90 
  60 -10.80 -10.82 -9.90 
  61 -10.89 -11.94 -9.90 
  62 -12.50 -13.15 -9.90 
  63 -11.02 -14.48 -9.90 
  64 -10.61 -12.74 -9.90 
  65 -10.67 -15.23 -9.90 
  66 -11.62 -12.31 -9.90 
  67 -9.94 -12.88 -9.90 
  68 -9.84 -11.78 -9.90 
  69 -10.20 -10.42 -9.84 
  70 -12.14 -10.46 -9.84 
  71 -12.20 -10.49 -9.84 
  72 -10.88 -9.78 -9.84 
  73 -10.55 -10.76 -9.84 
  74 -10.28 -10.98 -9.84 
  75 -10.79 -11.99 -9.84 
  76 -11.34 -15.45 -9.84 
  77 -9.56 -13.66 -9.84 
  78 -8.38 -13.02 -9.56 
  79 -14.63 -14.29 -8.38 
  80 -10.79 -16.02 -8.38 
  81 -10.68 -16.58 -8.38 
  82 -8.95 -12.58 -8.38 
  83 -9.65 -14.92 -8.38 
  84 -8.96 -11.66 -8.38 
  85 -10.12 -11.23 -8.38 
  86 -11.39 -10.96 -8.38 
  87 -9.20 -10.69 -8.38 
  88 -11.40 -10.76 -8.38 
  89 -9.68 -10.05 -8.38 
  90 -10.55 -11.90 -8.38 
  91 -10.08 -13.13 -8.38 
  92 -9.29 -12.74 -8.38 
  93 -10.03 -12.99 -8.38 
  94 -9.56 -14.53 -8.38 
  95 -10.66 -13.82 -8.38 
  96 -8.85 -12.53 -8.38 
  97 -11.87 -10.49 -8.38 
  98 -9.42 -10.51 -8.38 
  99 -9.90 -10.51 -8.38 
 100 -9.65 -10.33 -8.38 
 101 -9.91 -12.73 -8.38 
 102 -9.04 -10.70 -8.38 
 103 -10.05 -13.41 -8.38 
 104 -11.02 -11.98 -8.38 
 105 -9.87 -12.14 -8.38 
 106 -13.53 -10.69 -8.38 
 107 -9.83 -13.87 -8.38 
 108 -11.13 -12.79 -8.38 
 109 -9.96 -13.69 -8.38 
 110 -10.18 -13.88 -8.38 
 111 -9.79 -12.13 -8.38 
 112 -7.95 -10.20 -8.38 
 113 -10.71 -11.38 -7.95 
 114 -11.29 -10.77 -7.95 
 115 -12.23 -11.87 -7.95 
 116 -8.82 -14.39 -7.95 
 117 -9.74 -12.45 -7.95 
 118 -9.87 -11.63 -7.95 
 119 -10.03 -11.52 -7.95 
 120 -9.34 -12.00 -7.95 
 121 -8.59 -12.88 -7.95 
 122 -10.26 -12.08 -7.95 
 123 -9.31 -11.55 -7.95 
 124 -12.21 -11.87 -7.95 
 125 -10.34 -10.33 -7.95 
 126 -9.71 -11.44 -7.95 
 127 -8.79 -10.86 -7.95 
 128 -9.27 -10.70 -7.95 
 129 -12.35 -10.09 -7.95 
 130 -10.18 -9.86 -7.95 
 131 -8.98 -10.18 -7.95 
 132 -9.31 -9.95 -7.95 
 133 -8.96 -10.09 -7.95 
 134 -9.35 -10.12 -7.95 
 135 -8.84 -10.79 -7.95 
 136 -7.81 -8.82 -7.95 
 137 -8.80 -9.01 -7.81 
 138 -9.58 -8.82 -7.81 
 139 -7.98 -10.37 -7.81 
 140 -10.04 -9.17 -7.81 
 141 -9.25 -8.89 -7.81 
 142 -9.18 -9.53 -7.81 
 143 -8.81 -9.76 -7.81 
 144 -8.53 -8.95 -7.81 
 145 -9.16 -8.79 -7.81 
 146 -8.26 -8.69 -7.81 
 147 -7.84 -9.78 -7.81 
 148 -8.13 -8.61 -7.81 
 149 -9.88 -9.38 -7.81 
 150 -8.96 -10.56 -7.81 
 151 -8.98 -10.02 -7.81 
 152 -8.12 -9.22 -7.81 
 153 -8.76 -10.21 -7.81 
 154 -7.95 -11.47 -7.81 
 155 -8.79 -12.22 -7.81 
 156 -7.98 -10.22 -7.81 
 157 -9.55 -11.25 -7.81 
 158 -8.95 -11.16 -7.81 
 159 -9.82 -11.90 -7.81 
 160 -9.04 -10.72 -7.81 
 161 -7.99 -14.23 -7.81 
 162 -9.05 -10.58 -7.81 
 163 -8.38 -11.67 -7.81 
 164 -8.27 -11.19 -7.81 
 165 -9.41 -10.13 -7.81 
 166 -9.01 -10.22 -7.81 
 167 -8.84 -10.21 -7.81 
 168 -9.37 -11.45 -7.81 
 169 -9.92 -12.44 -7.81 
 170 -8.56 -11.37 -7.81 
 171 -8.87 -11.48 -7.81 
 172 -9.46 -10.52 -7.81 
 173 -8.37 -11.86 -7.81 
 174 -8.25 -13.23 -7.81 
 175 -10.77 -11.43 -7.81 
 176 -10.02 -13.49 -7.81 
 177 -8.00 -12.95 -7.81 
 178 -9.63 -13.74 -7.81 
 179 -8.82 -12.59 -7.81 
 180 -11.09 -13.78 -7.81 
 181 -10.29 -12.37 -7.81 
 182 -9.99 -11.98 -7.81 
 183 -8.65 -11.87 -7.81 
 184 -8.40 -11.87 -7.81 
 185 -8.49 -10.81 -7.81 
 186 -8.10 -13.55 -7.81 
 187 -9.61 -11.77 -7.81 
 188 -10.63 -11.94 -7.81 
 189 -7.57 -11.52 -7.81 
 190 -7.61 -11.30 -7.57 
 191 -8.75 -12.39 -7.57 
 192 -8.14 -12.62 -7.57 
 193 -8.42 -13.16 -7.57 
 194 -9.03 -11.05 -7.57 
 195 -8.26 -10.17 -7.57 
 196 -8.98 -11.35 -7.57 
 197 -8.12 -10.96 -7.57 
 198 -11.12 -11.31 -7.57 
 199 -8.45 -10.16 -7.57 
 200 -9.57 -10.73 -7.57 
 201 -9.51 -11.11 -7.57 
 202 -8.96 -10.79 -7.57 
 203 -8.85 -10.96 -7.57 
 204 -9.57 -10.59 -7.57 
 205 -7.87 -9.79 -7.57 
 206 -8.35 -10.48 -7.57 
 207 -9.24 -9.56 -7.57 
 208 -9.82 -10.18 -7.57 
 209 -8.26 -10.20 -7.57 
 210 -8.23 -9.52 -7.57 
 211 -8.53 -9.32 -7.57 
 212 -9.89 -10.22 -7.57 
 213 -8.18 -9.54 -7.57 
 214 -7.95 -9.40 -7.57 
 215 -8.26 -9.77 -7.57 
 216 -8.36 -9.58 -7.57 
 217 -10.85 -10.53 -7.57 
 218 -10.24 -10.03 -7.57 
 219 -8.37 -10.17 -7.57 
 220 -9.77 -9.89 -7.57 
 221 -7.59 -10.17 -7.57 
 222 -8.53 -10.33 -7.57 
 223 -9.35 -10.30 -7.57 
 224 -9.08 -9.92 -7.57 
 225 -9.65 -9.69 -7.57 
 226 -8.61 -11.26 -7.57 
 227 -8.57 -10.93 -7.57 
 228 -8.29 -10.72 -7.57 
 229 -8.43 -10.74 -7.57 
 230 -10.03 -10.24 -7.57 
 231 -7.63 -10.50 -7.57 
 232 -8.84 -10.37 -7.57 
 233 -8.05 -10.86 -7.57 
 234 -8.33 -9.84 -7.57 
 235 -8.99 -10.00 -7.57 
 236 -8.53 -10.11 -7.57 
 237 -8.81 -9.84 -7.57 
 238 -10.62 -10.50 -7.57 
 239 -7.88 -10.32 -7.57 
 240 -9.88 -9.58 -7.57 
 241 -8.75 -10.25 -7.57 
 242 -9.73 -9.44 -7.57 
 243 -9.46 -10.43 -7.57 
 244 -8.85 -10.35 -7.57 
 245 -7.72 -9.32 -7.57 
 246 -8.59 -9.32 -7.57 
 247 -9.33 -10.20 -7.57 
 248 -9.93 -10.15 -7.57 
 249 -9.10 -9.89 -7.57 
 250 -10.12 -9.78 -7.57 
 251 -8.38 -9.59 -7.57 
 252 -8.75 -9.66 -7.57 
 253 -11.15 -9.83 -7.57 
 254 -7.79 -9.62 -7.57 
 255 -8.03 -9.97 -7.57 
 256 -9.57 -9.47 -7.57 
 257 -7.83 -9.58 -7.57 
 258 -8.01 -9.29 -7.57 
 259 -10.49 -9.69 -7.57 
 260 -7.49 -10.31 -7.57 
 261 -9.48 -8.98 -7.49 
 262 -8.74 -9.83 -7.49 
 263 -8.00 -10.38 -7.49 
 264 -8.46 -9.89 -7.49 
 265 -8.85 -9.39 -7.49 
 266 -9.69 -9.51 -7.49 
 267 -8.42 -9.65 -7.49 
 268 -8.86 -10.15 -7.49 
 269 -8.52 -10.05 -7.49 
 270 -7.51 -9.67 -7.49 
 271 -8.29 -10.12 -7.49 
 272 -8.87 -9.91 -7.49 
 273 -10.11 -9.78 -7.49 
 274 -8.87 -10.40 -7.49 
 275 -7.91 -9.73 -7.49 
 276 -8.16 -9.67 -7.49 
 277 -7.71 -10.40 -7.49 
 278 -8.93 -9.35 -7.49 
 279 -8.71 -10.60 -7.49 
 280 -7.81 -10.59 -7.49 
 281 -8.15 -9.25 -7.49 
 282 -8.11 -9.42 -7.49 
 283 -10.10 -9.12 -7.49 
 284 -7.94 -9.11 -7.49 
 285 -7.56 -8.90 -7.49 
 286 -8.95 -9.24 -7.49 
 287 -8.34 -9.43 -7.49 
 288 -8.53 -8.67 -7.49 
 289 -7.69 -9.33 -7.49 
 290 -7.21 -9.43 -7.49 
 291 -7.96 -9.34 -7.21 
 292 -8.60 -9.18 -7.21 
 293 -7.44 -8.75 -7.21 
 294 -7.56 -9.05 -7.21 
 295 -9.12 -9.94 -7.21 
 296 -9.22 -8.75 -7.21 
 297 -7.73 -9.07 -7.21 
 298 -8.87 -9.89 -7.21 
 299 -9.59 -10.13 -7.21 
 300 -9.19 -9.96 -7.21 
 301 -8.31 -9.13 -7.21 
 302 -7.71 -8.78 -7.21 
 303 -8.99 -8.60 -7.21 
 304 -8.26 -9.61 -7.21 
 305 -7.78 -8.68 -7.21 
 306 -8.46 -9.29 -7.21 
 307 -8.59 -8.55 -7.21 
 308 -7.97 -8.63 -7.21 
 309 -9.18 -8.56 -7.21 
 310 -8.45 -9.86 -7.21 
 311 -7.66 -9.51 -7.21 
 312 -8.03 -10.26 -7.21 
 313 -7.98 -10.30 -7.21 
 314 -8.39 -10.20 -7.21 
 315 -7.18 -10.33 -7.21 
 316 -8.33 -9.78 -7.18 
 317 -8.71 -10.02 -7.18 
 318 -8.15 -9.28 -7.18 
 319 -8.15 -9.07 -7.18 
 320 -8.70 -8.82 -7.18 
 321 -8.53 -9.60 -7.18 
 322 -9.00 -9.30 -7.18 
 323 -7.89 -10.16 -7.18 
 324 -7.01 -10.26 -7.18 
 325 -9.99 -9.16 -7.01 
 326 -8.05 -9.06 -7.01 
 327 -9.44 -9.89 -7.01 
 328 -8.41 -9.74 -7.01 
 329 -10.29 -9.56 -7.01 
 330 -9.52 -10.78 -7.01 
 331 -8.41 -10.63 -7.01 
 332 -8.59 -9.26 -7.01 
 333 -8.49 -9.07 -7.01 
 334 -7.71 -9.33 -7.01 
 335 -7.93 -10.35 -7.01 
 336 -9.17 -9.49 -7.01 
 337 -8.89 -11.14 -7.01 
 338 -9.96 -9.86 -7.01 
 339 -8.24 -9.97 -7.01 
 340 -8.57 -11.91 -7.01 
 341 -8.19 -11.95 -7.01 
 342 -8.79 -9.92 -7.01 
 343 -7.85 -10.13 -7.01 
 344 -9.13 -9.73 -7.01 
 345 -9.84 -11.03 -7.01 
 346 -8.21 -10.57 -7.01 
 347 -8.10 -9.61 -7.01 
 348 -8.73 -10.95 -7.01 
 349 -10.12 -11.00 -7.01 
 350 -8.76 -12.36 -7.01 
 351 -9.84 -12.07 -7.01 
 352 -9.00 -11.88 -7.01 
 353 -8.18 -11.86 -7.01 
 354 -8.20 -11.11 -7.01 
 355 -8.30 -11.43 -7.01 
 356 -9.40 -10.70 -7.01 
 357 -8.88 -10.86 -7.01 
 358 -8.66 -11.04 -7.01 
 359 -9.18 -11.56 -7.01 
 360 -8.53 -11.19 -7.01 
 361 -8.22 -9.46 -7.01 
 362 -9.26 -11.15 -7.01 
 363 -8.04 -11.16 -7.01 
 364 -7.96 -11.26 -7.01 
 365 -8.48 -13.96 -7.01 
 366 -8.33 -13.05 -7.01 
 367 -8.81 -16.27 -7.01 
 368 -7.86 -14.80 -7.01 
 369 -8.52 -13.82 -7.01 
 370 -7.57 -13.22 -7.01 
 371 -8.95 -13.59 -7.01 
 372 -8.13 -15.09 -7.01 
 373 -8.45 -12.76 -7.01 
 374 -8.50 -12.98 -7.01 
 375 -8.30 -11.76 -7.01 
 376 -9.65 -15.19 -7.01 
 377 -8.23 -12.58 -7.01 
 378 -9.26 -13.05 -7.01 
 379 -8.38 -13.43 -7.01 
 380 -11.20 -12.31 -7.01 
 381 -8.22 -13.75 -7.01 
 382 -8.38 -16.82 -7.01 
 383 -8.14 -17.38 -7.01 
 384 -8.27 -12.91 -7.01 
 385 -8.52 -14.54 -7.01 
 386 -10.65 -13.27 -7.01 
 387 -8.61 -12.86 -7.01 
 388 -9.32 -12.79 -7.01 
 389 -8.11 -12.74 -7.01 
 390 -8.09 -15.34 -7.01 
 391 -9.33 -14.15 -7.01 
 392 -9.07 -13.26 -7.01 
 393 -7.73 -12.50 -7.01 
 394 -7.84 -13.14 -7.01 
 395 -8.31 -14.14 -7.01 
 396 -8.64 -12.11 -7.01 
 397 -8.55 -12.77 -7.01 
 398 -8.38 -11.92 -7.01 
 399 -9.62 -13.63 -7.01 
 400 -9.99 -10.36 -7.01 
 401 -8.82 -11.70 -7.01 
 402 -9.07 -11.42 -7.01 
 403 -9.23 -12.92 -7.01 
 404 -8.33 -11.76 -7.01 
 405 -8.87 -11.00 -7.01 
 406 -8.64 -11.46 -7.01 
 407 -9.59 -12.81 -7.01 
 408 -9.48 -13.13 -7.01 
 409 -8.45 -12.46 -7.01 
 410 -11.05 -12.59 -7.01 
 411 -7.56 -9.97 -7.01 
 412 -8.68 -11.61 -7.01 
 413 -8.30 -11.51 -7.01 
 414 -10.15 -13.39 -7.01 
 415 -8.46 -14.91 -7.01 
 416 -8.72 -13.43 -7.01 
 417 -9.51 -13.02 -7.01 
 418 -8.16 -12.69 -7.01 
 419 -9.55 -11.47 -7.01 
 420 -9.18 -11.94 -7.01 
 421 -8.64 -10.70 -7.01 
 422 -8.29 -11.15 -7.01 
 423 -9.36 -11.08 -7.01 
 424 -9.72 -9.92 -7.01 
 425 -8.11 -11.48 -7.01 
 426 -8.86 -9.68 -7.01 
 427 -8.26 -9.53 -7.01 
 428 -7.80 -9.98 -7.01 
 429 -9.63 -10.38 -7.01 
 430 -9.76 -10.10 -7.01 
 431 -9.10 -9.94 -7.01 
 432 -9.43 -9.11 -7.01 
 433 -10.49 -9.08 -7.01 
 434 -8.34 -8.89 -7.01 
 435 -8.84 -9.07 -7.01 
 436 -10.28 -8.80 -7.01 
 437 -8.31 -9.54 -7.01 
 438 -7.46 -10.42 -7.01 
 439 -8.47 -8.69 -7.01 
 440 -8.04 -9.22 -7.01 
 441 -8.74 -9.57 -7.01 
 442 -10.47 -8.67 -7.01 
 443 -7.98 -8.67 -7.01 
 444 -9.69 -9.30 -7.01 
 445 -7.96 -9.48 -7.01 
 446 -8.92 -9.02 -7.01 
 447 -9.87 -10.05 -7.01 
 448 -7.91 -9.93 -7.01 
 449 -8.61 -9.67 -7.01 
 450 -8.10 -9.73 -7.01 
 451 -8.63 -9.25 -7.01 
 452 -8.89 -9.87 -7.01 
 453 -9.38 -9.31 -7.01 
 454 -9.24 -8.84 -7.01 
 455 -8.87 -9.10 -7.01 
 456 -8.95 -10.50 -7.01 
 457 -8.26 -10.89 -7.01 
 458 -8.31 -9.88 -7.01 
 459 -7.77 -10.81 -7.01 
 460 -8.11 -9.75 -7.01 
 461 -8.35 -10.19 -7.01 
 462 -8.24 -10.17 -7.01 
 463 -9.82 -9.22 -7.01 
 464 -7.19 -9.32 -7.01 
 465 -8.82 -9.39 -7.01 
 466 -9.44 -10.35 -7.01 
 467 -8.10 -9.22 -7.01 
 468 -7.62 -8.92 -7.01 
 469 -8.54 -9.68 -7.01 
 470 -8.49 -9.82 -7.01 
 471 -8.65 -9.18 -7.01 
 472 -7.96 -9.47 -7.01 
 473 -9.32 -9.00 -7.01 
 474 -7.08 -8.51 -7.01 
 475 -7.37 -8.89 -7.01 
 476 -8.63 -8.83 -7.01 
 477 -10.49 -9.67 -7.01 
 478 -8.28 -9.10 -7.01 
 479 -7.91 -9.11 -7.01 
 480 -8.23 -9.76 -7.01 
 481 -9.02 -9.64 -7.01 
 482 -8.55 -9.89 -7.01 
 483 -8.80 -8.97 -7.01 
 484 -7.82 -10.52 -7.01 
 485 -9.31 -10.91 -7.01 
 486 -7.39 -10.30 -7.01 
 487 -9.22 -8.81 -7.01 
 488 -8.11 -8.82 -7.01 
 489 -8.34 -9.53 -7.01 
 490 -10.33 -9.68 -7.01 
 491 -7.75 -10.29 -7.01 
 492 -9.48 -8.92 -7.01 
 493 -8.25 -9.07 -7.01 
 494 -11.35 -11.97 -7.01 
 495 -9.39 -12.05 -7.01 
 496 -8.40 -11.23 -7.01 
 497 -7.81 -11.56 -7.01 
 498 -8.09 -11.56 -7.01 
 499 -8.45 -10.34 -7.01 
