Iter | Sampling Pol | Evaluation Pol | Best (Sampled) 
   0  3.45  1.94 -100000000.00 
   1  6.21  1.94  3.45 
   2  2.44  1.95  6.21 
   3 10.98  1.94  6.21 
   4  6.02  1.96 10.98 
   5 15.24  1.96 10.98 
   6 13.47  1.96 15.24 
   7  6.95  1.95 15.24 
   8  6.02  1.97 15.24 
   9  7.74  1.97 15.24 
  10 17.25 14.01 15.24 
  11 11.54 18.02 17.25 
  12  8.50 17.03 17.25 
  13  7.00 17.06 17.25 
  14 11.10 15.08 17.25 
  15  8.72 12.07 17.25 
  16 19.12 13.14 17.25 
  17 16.04 14.12 19.12 
  18 16.50 15.12 19.12 
  19 22.85 16.17 19.12 
  20 18.06 16.18 22.85 
  21 15.32 16.30 22.85 
  22 19.20 18.22 22.85 
  23 12.36 21.09 22.85 
  24 14.85 18.09 22.85 
  25 10.50 18.08 22.85 
  26 11.24 15.16 22.85 
  27  7.02 13.13 22.85 
  28  4.23 25.03 22.85 
  29  6.98 13.00 22.85 
  30 21.62 17.05 22.85 
  31 14.64 13.01 22.85 
  32 22.29 11.03 22.85 
  33 25.32 16.03 22.85 
  34 20.76 17.00 25.32 
  35 18.10 18.01 25.32 
  36 10.07 13.98 25.32 
  37  9.33 12.97 25.32 
  38 10.08 15.00 25.32 
  39 13.90  1.95 25.32 
  40 21.37  8.98 25.32 
  41 14.18 14.99 25.32 
  42 17.63 13.97 25.32 
  43 22.16 11.98 25.32 
  44 29.18 17.01 25.32 
  45  4.47 22.01 29.18 
  46 13.69 39.04 29.18 
  47 19.28 33.06 29.18 
  48 14.54 41.19 29.18 
  49 17.56 43.30 29.18 
  50 16.49 42.34 29.18 
  51  8.13 39.36 29.18 
  52 10.39 20.05 29.18 
  53 18.64 24.41 29.18 
  54 19.23 30.36 29.18 
  55 19.34 26.50 29.18 
  56 14.34 13.23 29.18 
  57 10.39 42.32 29.18 
  58 11.44 30.06 29.18 
  59 13.27 37.39 29.18 
  60  6.04 47.05 29.18 
  61 18.92 15.17 29.18 
  62  3.57 24.15 29.18 
  63 13.90 16.16 29.18 
  64 13.26 41.48 29.18 
  65 18.10 29.47 29.18 
  66 12.14 35.40 29.18 
  67 13.33 21.22 29.18 
  68 23.71 14.17 29.18 
  69  5.87 47.22 29.18 
  70 34.11 23.20 29.18 
  71 13.98 19.20 34.11 
  72 22.09 34.08 34.11 
  73 24.40 31.15 34.11 
  74 15.75  2.04 34.11 
  75 23.57  2.08 34.11 
  76 13.14 19.12 34.11 
  77 13.23 34.13 34.11 
  78 26.56 46.10 34.11 
  79 16.34 41.21 34.11 
  80 21.15 39.12 34.11 
  81 18.71 19.08 34.11 
  82 15.25 36.05 34.11 
  83 11.11 31.27 34.11 
  84 24.77 21.27 34.11 
  85 22.98 29.29 34.11 
  86 17.57 20.34 34.11 
  87 12.08  9.36 34.11 
  88  9.77 27.35 34.11 
  89 12.92 36.65 34.11 
  90 18.90 33.18 34.11 
  91 11.93 27.17 34.11 
  92 12.58 45.17 34.11 
  93 10.56 45.09 34.11 
  94 20.38 45.14 34.11 
  95 21.42 26.16 34.11 
  96 18.76 36.20 34.11 
  97 29.74 19.25 34.11 
  98 18.47 22.23 34.11 
  99 17.53 31.22 34.11 
 100 21.79 44.14 34.11 
 101 15.06 49.13 34.11 
 102 16.50 34.19 34.11 
 103 23.64 23.18 34.11 
 104  9.98 10.33 34.11 
 105 28.02  2.18 34.11 
 106 40.46  8.34 34.11 
 107 14.90 10.29 40.46 
 108 26.46  9.29 40.46 
 109 15.59 32.21 40.46 
 110 36.89  2.03 40.46 
 111 14.00  1.97 40.46 
 112  9.49  1.94 40.46 
 113 18.70  1.95 40.46 
 114 10.57  2.00 40.46 
 115 25.08  1.98 40.46 
 116 13.03  2.00 40.46 
 117 11.62  1.99 40.46 
 118 28.17  2.00 40.46 
 119 29.22  1.97 40.46 
 120 18.58  2.13 40.46 
 121 14.89  2.18 40.46 
 122 17.81  2.15 40.46 
 123 19.22  2.14 40.46 
 124 14.90  9.23 40.46 
 125 17.62  2.20 40.46 
 126 15.84  2.24 40.46 
 127 17.77  2.05 40.46 
 128 18.85  2.08 40.46 
 129 28.56  2.09 40.46 
 130 16.17 30.47 40.46 
 131 11.73 14.15 40.46 
 132 10.62 11.49 40.46 
 133 20.77 14.23 40.46 
 134 12.32 12.17 40.46 
 135 15.30 12.21 40.46 
 136 22.19 16.36 40.46 
 137 23.74  8.59 40.46 
 138 15.40 19.46 40.46 
 139 17.97 14.36 40.46 
 140 24.03  8.55 40.46 
 141 24.13 16.36 40.46 
 142 12.40 20.50 40.46 
 143 17.19 15.50 40.46 
 144 17.91 15.42 40.46 
 145 15.72 17.26 40.46 
 146 12.54 13.19 40.46 
 147 11.21 16.18 40.46 
 148 16.15 18.33 40.46 
 149 18.00 14.23 40.46 
 150 13.11 15.24 40.46 
 151 21.08 22.21 40.46 
 152 28.19 17.26 40.46 
 153 17.63 51.16 40.46 
 154  9.86 12.54 40.46 
 155 24.52 37.64 40.46 
 156 28.73 54.89 40.46 
 157 19.46 24.27 40.46 
 158 14.94 42.63 40.46 
 159 12.58 45.30 40.46 
 160 22.46 21.59 40.46 
 161 21.64 34.55 40.46 
 162 20.93 25.60 40.46 
 163 23.13 36.39 40.46 
 164 23.74 20.61 40.46 
 165 32.21 22.36 40.46 
 166 26.27 22.47 40.46 
 167 28.90 16.31 40.46 
 168 11.62 47.67 40.46 
 169 11.28 17.51 40.46 
 170 24.65 33.60 40.46 
 171 14.23 14.36 40.46 
 172 11.05 19.21 40.46 
 173  6.20 24.06 40.46 
 174 12.78 23.19 40.46 
 175 20.34 13.44 40.46 
 176 26.97 28.59 40.46 
 177 20.37 17.32 40.46 
 178 26.54 49.31 40.46 
 179 16.01 21.10 40.46 
 180 22.47 49.02 40.46 
 181 20.60 31.06 40.46 
 182 22.22 16.24 40.46 
 183 13.77 27.41 40.46 
 184 19.67 22.30 40.46 
 185  7.76 28.64 40.46 
 186 25.71 37.32 40.46 
 187 25.88 26.38 40.46 
 188 26.17 14.97 40.46 
 189 25.53 43.04 40.46 
 190 22.64 29.05 40.46 
 191  9.71 16.02 40.46 
 192 14.94 20.50 40.46 
 193 18.94 25.08 40.46 
 194 33.43 44.36 40.46 
 195 15.12 17.00 40.46 
 196 19.12 19.95 40.46 
 197 20.77 43.99 40.46 
 198 23.01 15.97 40.46 
 199  7.40 45.03 40.46 
 200 21.92 40.09 40.46 
 201 32.30 20.98 40.46 
 202 23.51 24.01 40.46 
 203 16.63 14.98 40.46 
 204 14.04 17.98 40.46 
 205 21.47 18.96 40.46 
 206 14.72 46.00 40.46 
 207 27.68 49.00 40.46 
 208 24.97 28.08 40.46 
 209 20.97 18.40 40.46 
 210 16.30 18.11 40.46 
 211 28.48 23.10 40.46 
 212 15.21 10.21 40.46 
 213 32.86 12.24 40.46 
 214 21.64 11.35 40.46 
 215 41.05 11.09 40.46 
 216 16.31 27.15 41.05 
 217 29.19 26.08 41.05 
 218 19.42 48.56 41.05 
 219 23.21 37.01 41.05 
 220 26.72 48.00 41.05 
 221 13.76 50.32 41.05 
 222 17.75 27.19 41.05 
 223 30.69 41.24 41.05 
 224 14.14 27.05 41.05 
 225 31.17 27.00 41.05 
 226 17.89 32.04 41.05 
 227 12.72  8.97 41.05 
 228  7.57 47.04 41.05 
 229 32.25 46.04 41.05 
 230 21.32 19.99 41.05 
 231 19.98 23.00 41.05 
 232 30.14 14.97 41.05 
 233 30.61 30.95 41.05 
 234 25.77 20.97 41.05 
 235 20.57 12.95 41.05 
 236 18.06  8.93 41.05 
 237 23.62 11.93 41.05 
 238 15.92 13.94 41.05 
 239 31.78 15.93 41.05 
 240 12.52  1.93 41.05 
 241 22.71  1.92 41.05 
 242 21.70  1.92 41.05 
 243 25.33  1.92 41.05 
 244 23.45  1.91 41.05 
 245 23.70 19.93 41.05 
 246 25.42  1.91 41.05 
 247 29.30  1.92 41.05 
 248 30.87  1.91 41.05 
 249 27.31  1.91 41.05 
 250 25.27  1.91 41.05 
 251 25.46  1.92 41.05 
 252 23.37  1.92 41.05 
 253 16.74  9.94 41.05 
 254 33.17  1.92 41.05 
 255  9.82 11.93 41.05 
 256 27.78 16.97 41.05 
 257 28.45 15.98 41.05 
 258 28.04  1.92 41.05 
 259 23.00  1.92 41.05 
 260 24.76  1.92 41.05 
 261 15.24  1.92 41.05 
 262 29.86 23.92 41.05 
 263 19.90  9.92 41.05 
 264 21.96 20.92 41.05 
 265 23.92  5.92 41.05 
 266 20.64 36.92 41.05 
 267 18.36 14.95 41.05 
 268 21.01 15.94 41.05 
 269 19.15 11.92 41.05 
 270 21.47  1.91 41.05 
 271 20.51 40.93 41.05 
 272 19.93  1.92 41.05 
 273 29.22 38.94 41.05 
 274 15.98 11.95 41.05 
 275 24.47  7.92 41.05 
 276 18.77  7.92 41.05 
 277 21.90 12.92 41.05 
 278 17.83  7.92 41.05 
 279 18.08 42.93 41.05 
 280 23.94 39.94 41.05 
 281 18.39 17.96 41.05 
 282 33.61 10.95 41.05 
 283 20.48 36.91 41.05 
 284 26.71  8.91 41.05 
 285 11.88  1.91 41.05 
 286 16.49 12.91 41.05 
 287 33.94  1.91 41.05 
 288 13.65  1.91 41.05 
 289 15.77  1.91 41.05 
 290 20.26  1.91 41.05 
 291 26.71  1.91 41.05 
 292 21.63  5.91 41.05 
 293 23.16 17.92 41.05 
 294 15.35 15.91 41.05 
 295 22.47 18.92 41.05 
 296 22.82  2.91 41.05 
 297 16.09  1.91 41.05 
 298 11.81  9.92 41.05 
 299 13.35  1.91 41.05 
 300 16.47  5.92 41.05 
 301 19.83 19.92 41.05 
 302 15.82 16.92 41.05 
 303 22.12 12.93 41.05 
 304 27.77 10.92 41.05 
 305 24.31 11.93 41.05 
 306 22.43  7.94 41.05 
 307 18.09  9.94 41.05 
 308 23.35 13.93 41.05 
 309 20.49 10.96 41.05 
 310 23.36 11.97 41.05 
 311 22.94  8.96 41.05 
 312 29.47 18.92 41.05 
 313 19.12 12.93 41.05 
 314 29.61  7.95 41.05 
 315 16.41  8.95 41.05 
 316 22.03 28.96 41.05 
 317 20.80  1.92 41.05 
 318 15.51  7.92 41.05 
 319 22.48 11.92 41.05 
 320 18.22  9.95 41.05 
 321 35.54  8.92 41.05 
 322 28.07 11.92 41.05 
 323 31.16 11.92 41.05 
 324 29.97 10.94 41.05 
 325 30.30 11.95 41.05 
 326 16.94  8.92 41.05 
 327 27.47 13.95 41.05 
 328 19.10 23.92 41.05 
 329 16.95 12.92 41.05 
 330 17.29 24.91 41.05 
 331 21.37  8.93 41.05 
 332 19.90  1.92 41.05 
 333 19.30 15.93 41.05 
 334 36.08  8.96 41.05 
 335 21.36  1.92 41.05 
 336 27.49 18.93 41.05 
 337 23.21 34.92 41.05 
 338 22.16  1.92 41.05 
 339 28.10  1.92 41.05 
 340 19.15  1.93 41.05 
 341 24.96  1.93 41.05 
 342 28.86  1.92 41.05 
 343 23.67  1.92 41.05 
 344 29.76  1.92 41.05 
 345 33.16  1.92 41.05 
 346 22.45  1.92 41.05 
 347 25.64  1.92 41.05 
 348 25.50 15.96 41.05 
 349 21.31 14.98 41.05 
 350 34.02  8.94 41.05 
 351 23.60 13.96 41.05 
 352 28.34 10.92 41.05 
 353 20.63  8.93 41.05 
 354 32.74  7.94 41.05 
 355 30.63 33.92 41.05 
 356 19.94  1.92 41.05 
 357  8.60  9.94 41.05 
 358 29.72 36.93 41.05 
 359 27.50 21.92 41.05 
 360 23.69  5.92 41.05 
 361 21.77  1.92 41.05 
 362 15.45  1.92 41.05 
 363 26.42  1.92 41.05 
 364 25.51  1.92 41.05 
 365 20.98  1.93 41.05 
 366 32.87  1.93 41.05 
 367 26.85  3.93 41.05 
 368 23.45  1.94 41.05 
 369 37.02  7.93 41.05 
 370 33.57 36.92 41.05 
 371 31.00 15.92 41.05 
 372 23.80 19.93 41.05 
 373 13.76 25.92 41.05 
 374 19.62 17.92 41.05 
 375 11.93 36.92 41.05 
 376 21.99  1.92 41.05 
 377 34.40  8.93 41.05 
 378 18.90  1.94 41.05 
 379 22.98 25.98 41.05 
 380 18.47  1.96 41.05 
 381 32.07  1.96 41.05 
 382 14.93  9.92 41.05 
 383 26.13 29.92 41.05 
 384 40.62  8.92 41.05 
 385 31.79 35.92 41.05 
 386 32.99 38.93 41.05 
 387 29.69 27.93 41.05 
 388 19.82 16.93 41.05 
 389 13.32 20.93 41.05 
 390 23.50 39.92 41.05 
 391 25.63 38.92 41.05 
 392 33.00 20.91 41.05 
 393 28.91 19.92 41.05 
 394 19.42  1.91 41.05 
 395 16.42 11.92 41.05 
 396 35.47 37.92 41.05 
 397 35.10 15.92 41.05 
 398 31.04 38.91 41.05 
 399 28.82  8.92 41.05 
 400 21.82 19.92 41.05 
 401 30.57 15.92 41.05 
 402 20.42 13.92 41.05 
 403 16.45 20.92 41.05 
 404 26.44 10.92 41.05 
 405 31.64 16.92 41.05 
 406 29.81 20.93 41.05 
 407 22.42 21.93 41.05 
 408 30.93 22.92 41.05 
 409 30.10 23.92 41.05 
 410 20.80 39.92 41.05 
 411 32.02 17.92 41.05 
 412 14.33 14.92 41.05 
 413 14.57 17.93 41.05 
 414 23.87 19.92 41.05 
 415 24.98 18.92 41.05 
 416 31.61 14.92 41.05 
 417 24.70 21.92 41.05 
 418 26.51 28.92 41.05 
 419 20.79 11.92 41.05 
 420 24.22 18.92 41.05 
 421 23.64 25.91 41.05 
 422 18.22 11.92 41.05 
 423 23.36 34.91 41.05 
 424 29.65 30.91 41.05 
 425 32.82 18.92 41.05 
 426 20.41 21.92 41.05 
 427 19.57 19.92 41.05 
 428 18.82  7.92 41.05 
 429 34.07  8.92 41.05 
 430 25.58 14.91 41.05 
 431 22.54 12.92 41.05 
 432 40.08 12.92 41.05 
 433 20.01 40.91 41.05 
 434 22.14 24.92 41.05 
 435 23.68 41.91 41.05 
 436 27.15 28.91 41.05 
 437 21.31 35.91 41.05 
 438 39.42 16.91 41.05 
 439 36.98 29.92 41.05 
 440 26.05 40.91 41.05 
 441 22.00 19.91 41.05 
 442 20.85 11.92 41.05 
 443 14.66 21.92 41.05 
 444 34.36  8.92 41.05 
 445 36.93 32.92 41.05 
 446 33.18 12.92 41.05 
 447 22.09 37.92 41.05 
 448 28.49 31.92 41.05 
 449 21.47 32.92 41.05 
 450 23.51 21.92 41.05 
 451 33.25 26.93 41.05 
 452 33.65 12.95 41.05 
 453 23.69 17.17 41.05 
 454 22.56 11.94 41.05 
 455 42.99 45.97 41.05 
 456 12.40 11.95 42.99 
 457 25.75 17.96 42.99 
 458 29.65 21.95 42.99 
 459 30.34 22.96 42.99 
 460 38.97 17.96 42.99 
 461 18.44 18.95 42.99 
 462 27.49 42.96 42.99 
 463 23.23 12.08 42.99 
 464 32.28 26.02 42.99 
 465 28.80 19.13 42.99 
 466 37.03 13.97 42.99 
 467 23.69 16.98 42.99 
 468 22.61 30.97 42.99 
 469 14.24 42.94 42.99 
 470 37.79 10.93 42.99 
 471 28.02 23.94 42.99 
 472 16.54 34.93 42.99 
 473 34.76 23.93 42.99 
 474 19.95  8.93 42.99 
 475 23.96 12.93 42.99 
 476 34.34 15.94 42.99 
 477 22.00 24.93 42.99 
 478 41.92 25.94 42.99 
 479 33.03 43.93 42.99 
 480 23.10 14.94 42.99 
 481 27.14 43.93 42.99 
 482 24.36 22.92 42.99 
 483 34.73 38.92 42.99 
 484 18.16 27.93 42.99 
 485 32.82 22.94 42.99 
 486 22.31 16.93 42.99 
 487 19.57  8.94 42.99 
 488 36.91 30.92 42.99 
 489 30.49 18.92 42.99 
 490 22.08  8.95 42.99 
 491 23.17 14.95 42.99 
 492 31.54 12.95 42.99 
 493 11.84 17.93 42.99 
 494 20.62 39.95 42.99 
 495 24.40 33.06 42.99 
 496 29.05 16.93 42.99 
 497 33.62 17.92 42.99 
 498 33.18  8.93 42.99 
 499 27.46 29.99 42.99 
 500 41.51 13.93 42.99 
 501 17.71 24.94 42.99 
 502 24.43 13.93 42.99 
 503 38.08  8.94 42.99 
 504 20.42 32.98 42.99 
 505 32.77 18.98 42.99 
 506 26.07 33.01 42.99 
 507 21.30 25.00 42.99 
 508 30.64 18.65 42.99 
 509 31.27 20.94 42.99 
 510 23.95 29.39 42.99 
 511 19.10 35.38 42.99 
 512 23.73 17.61 42.99 
 513 27.43 15.34 42.99 
 514 14.94 17.95 42.99 
 515 26.56 51.95 42.99 
 516 19.68 25.96 42.99 
 517 37.08 16.96 42.99 
 518 26.49 38.03 42.99 
 519 22.17  8.95 42.99 
 520 33.10 20.02 42.99 
 521 18.58 27.39 42.99 
 522 11.11 13.97 42.99 
 523 27.09 11.96 42.99 
 524 28.19 35.13 42.99 
 525 26.92 44.91 42.99 
 526 25.33 30.85 42.99 
 527 18.58 18.30 42.99 
 528 18.59 25.80 42.99 
 529 35.44 22.67 42.99 
 530 28.21 33.61 42.99 
 531 30.62 20.58 42.99 
 532 31.50 15.47 42.99 
 533 17.77 16.60 42.99 
 534 24.77 17.42 42.99 
 535 30.17 14.43 42.99 
 536 27.81 14.40 42.99 
 537 26.64 16.19 42.99 
 538 31.81 15.48 42.99 
 539 29.57 17.52 42.99 
 540 22.88 54.38 42.99 
 541 18.15 14.62 42.99 
 542 15.37 47.38 42.99 
 543 13.19 23.91 42.99 
 544 18.90 13.27 42.99 
 545 24.59 35.54 42.99 
 546 28.01 22.30 42.99 
 547 28.18  9.14 42.99 
 548 36.40 12.90 42.99 
 549 31.25  7.18 42.99 
 550 14.62 31.43 42.99 
 551 29.25 52.46 42.99 
 552 25.21 35.53 42.99 
 553 27.48 50.81 42.99 
 554 29.72 34.58 42.99 
 555 32.63 17.53 42.99 
 556 28.39 26.81 42.99 
 557 22.18 18.62 42.99 
 558 25.88 54.58 42.99 
 559 21.84 18.75 42.99 
 560 20.71 17.79 42.99 
 561 25.06 19.71 42.99 
 562 26.44 20.84 42.99 
 563 33.68 13.68 42.99 
 564 22.54 23.43 42.99 
 565 17.20 20.18 42.99 
 566 18.37 14.62 42.99 
 567 26.38 16.62 42.99 
 568 24.93 19.83 42.99 
 569 25.04 19.56 42.99 
 570 30.29 27.32 42.99 
 571 17.84 15.68 42.99 
 572 28.31 21.67 42.99 
 573 27.39 21.46 42.99 
 574 27.73 15.75 42.99 
 575 35.93 18.45 42.99 
 576 27.13 19.68 42.99 
 577 27.73 20.74 42.99 
 578 31.32 19.63 42.99 
 579 27.21 18.84 42.99 
 580 23.70 48.80 42.99 
 581 18.16 44.77 42.99 
 582 29.49 23.75 42.99 
 583 22.90 27.48 42.99 
 584 22.78 16.68 42.99 
 585 23.03 30.63 42.99 
 586 30.98 30.34 42.99 
 587 34.21 30.76 42.99 
 588 26.03 32.36 42.99 
 589 32.09 47.53 42.99 
 590 28.03 53.43 42.99 
 591 29.28 43.57 42.99 
 592 25.01 44.46 42.99 
 593 25.08 43.37 42.99 
 594 26.00 24.23 42.99 
 595 23.55 28.21 42.99 
 596 23.20 41.50 42.99 
 597 21.25 18.19 42.99 
 598 25.40 24.08 42.99 
 599 30.80 37.06 42.99 
 600 16.15 47.38 42.99 
 601 36.39 51.04 42.99 
 602 37.40 49.07 42.99 
 603 21.76 50.22 42.99 
 604 26.23 28.13 42.99 
 605 31.19 10.07 42.99 
 606 24.90 42.18 42.99 
 607 27.70 46.55 42.99 
 608 33.60 38.42 42.99 
 609 28.27 38.30 42.99 
 610 22.27 13.10 42.99 
 611 33.07 37.21 42.99 
 612 21.91 23.14 42.99 
 613 24.09 21.18 42.99 
 614 23.12 30.19 42.99 
 615 26.54 29.23 42.99 
 616 25.43 41.31 42.99 
 617 29.43 18.18 42.99 
 618 21.36 35.33 42.99 
 619 22.90 46.45 42.99 
 620 23.08 35.06 42.99 
 621 27.30 26.09 42.99 
 622 26.92 36.34 42.99 
 623 29.51 39.57 42.99 
 624 30.08  7.23 42.99 
 625  8.97 27.38 42.99 
 626 20.14 44.49 42.99 
 627 22.41 22.23 42.99 
 628 32.44 45.53 42.99 
 629 21.36 14.11 42.99 
 630 35.36 37.44 42.99 
 631 29.08 21.95 42.99 
 632 33.32 29.40 42.99 
 633 24.19 24.31 42.99 
 634 33.25 13.26 42.99 
 635 21.86 18.42 42.99 
 636 14.92 12.11 42.99 
 637 23.15 23.09 42.99 
 638 23.39 35.14 42.99 
 639 31.14 44.20 42.99 
 640 24.96  4.33 42.99 
 641 40.16 35.43 42.99 
 642 29.44  7.24 42.99 
 643 33.09 46.10 42.99 
 644 30.47 26.38 42.99 
 645 24.69 21.61 42.99 
 646 28.56 28.31 42.99 
 647 29.99 18.33 42.99 
 648 35.93 32.28 42.99 
 649 21.16 19.29 42.99 
 650 32.20 11.29 42.99 
 651 39.02 15.33 42.99 
 652 39.65 16.30 42.99 
 653 18.32  6.66 42.99 
 654 43.53 13.40 42.99 
 655 23.89 10.24 43.53 
 656 23.55 19.24 43.53 
 657 28.38 18.35 43.53 
 658 29.50 21.25 43.53 
 659 27.02 16.24 43.53 
 660 26.76 35.34 43.53 
 661 21.08 19.19 43.53 
 662 21.35 18.28 43.53 
 663 30.52 10.27 43.53 
 664 31.75 29.22 43.53 
 665 20.73 14.27 43.53 
 666 26.36 25.24 43.53 
 667 28.70 16.57 43.53 
 668 36.89 11.27 43.53 
 669 33.21 16.36 43.53 
 670 32.09 22.35 43.53 
 671 20.42 22.37 43.53 
 672 27.58 29.24 43.53 
 673 25.93 18.25 43.53 
 674 29.63 25.23 43.53 
 675 27.20 18.20 43.53 
 676 36.04 13.08 43.53 
 677 19.03 19.22 43.53 
 678 18.59 19.27 43.53 
 679 26.15 20.21 43.53 
 680 33.43 12.32 43.53 
 681 37.42 12.40 43.53 
 682 28.82 13.32 43.53 
 683 24.62 19.69 43.53 
 684 29.03  9.57 43.53 
 685 22.24 21.37 43.53 
 686 14.48 16.44 43.53 
 687 18.28 10.29 43.53 
 688 21.62 23.32 43.53 
 689 26.17 34.54 43.53 
 690 35.64 27.35 43.53 
 691 15.58 14.26 43.53 
 692 23.05 13.37 43.53 
 693 33.39 11.45 43.53 
 694 27.62 38.31 43.53 
 695 31.84 11.38 43.53 
 696 39.59 31.83 43.53 
 697 30.72 34.37 43.53 
 698 35.50 17.41 43.53 
 699 39.95 43.29 43.53 
 700 24.31 19.22 43.53 
 701 24.91 16.28 43.53 
 702 19.94 24.42 43.53 
 703 31.59 47.57 43.53 
 704 33.41 23.27 43.53 
 705 17.94 33.28 43.53 
 706 29.85 22.70 43.53 
 707 23.91 22.12 43.53 
 708 20.35 21.25 43.53 
 709 32.60 20.36 43.53 
 710 27.83 53.58 43.53 
 711 24.31  5.99 43.53 
 712 31.41 22.31 43.53 
 713 30.67 21.17 43.53 
 714 23.92 18.24 43.53 
 715 34.09 21.42 43.53 
 716 23.89  6.42 43.53 
 717 39.96 19.08 43.53 
 718 22.73 20.63 43.53 
 719 17.55  5.03 43.53 
 720 17.98 26.27 43.53 
 721 30.29 18.52 43.53 
 722 31.14 19.17 43.53 
 723 21.50 22.59 43.53 
 724 26.90 20.29 43.53 
 725 31.14 26.35 43.53 
 726 18.12 26.22 43.53 
 727 18.87 21.29 43.53 
 728 36.38 23.35 43.53 
 729 42.18 25.22 43.53 
 730 37.14 24.71 43.53 
 731 28.93 22.50 43.53 
 732 20.54 35.66 43.53 
 733 35.26 55.99 43.53 
 734 26.27 47.71 43.53 
 735 32.69 31.73 43.53 
 736 20.52 40.53 43.53 
 737 27.44 20.43 43.53 
 738 32.73 23.48 43.53 
 739 20.35 45.63 43.53 
 740 29.77 19.18 43.53 
 741 24.67 43.18 43.53 
 742 26.75 21.25 43.53 
 743 35.04 26.20 43.53 
 744 37.76 18.17 43.53 
 745 20.37 45.26 43.53 
 746 19.65 20.23 43.53 
 747 31.55 51.21 43.53 
 748 32.51 44.29 43.53 
 749 26.96 47.96 43.53 
 750 21.63 29.47 43.53 
 751 25.99 35.95 43.53 
 752 34.04 31.54 43.53 
 753 20.62 43.28 43.53 
 754 34.43 29.32 43.53 
 755 31.47 20.31 43.53 
 756 24.28 18.17 43.53 
 757 23.26 55.82 43.53 
 758 35.31 20.20 43.53 
 759 32.21 13.20 43.53 
 760 30.95 10.16 43.53 
 761 29.27 18.21 43.53 
 762 25.00 25.26 43.53 
 763 38.87 53.91 43.53 
 764 30.39 44.79 43.53 
 765 26.18 17.44 43.53 
 766 39.44 18.53 43.53 
 767 35.99 12.52 43.53 
 768 38.93 15.40 43.53 
 769 19.60 15.09 43.53 
 770 17.28 18.45 43.53 
 771 25.98 14.36 43.53 
 772 17.71 20.94 43.53 
 773 34.18 28.05 43.53 
 774 21.54 15.97 43.53 
 775 31.61 11.95 43.53 
 776 34.30 13.96 43.53 
 777 34.05 13.96 43.53 
 778 40.03 21.07 43.53 
 779 16.91  1.95 43.53 
 780 26.41 35.98 43.53 
 781 20.15 12.10 43.53 
 782 26.30  9.28 43.53 
 783 19.72 23.62 43.53 
 784 13.77 13.32 43.53 
 785 34.66 10.30 43.53 
 786 21.45 13.29 43.53 
 787 34.54 14.25 43.53 
 788 23.45 14.17 43.53 
 789 15.80 16.15 43.53 
 790 30.54 14.18 43.53 
 791 27.20 13.22 43.53 
 792 24.72 14.11 43.53 
 793 30.83 14.13 43.53 
 794 23.90  9.18 43.53 
 795 35.50 28.24 43.53 
 796 24.75 13.13 43.53 
 797 22.14 18.18 43.53 
 798 33.59 16.09 43.53 
 799 29.67  7.10 43.53 
 800 32.19 36.47 43.53 
 801 23.18 37.30 43.53 
 802 30.37 11.24 43.53 
 803 39.05 13.24 43.53 
 804 28.26 19.37 43.53 
 805 27.74 19.22 43.53 
 806 32.87 12.30 43.53 
 807 24.28 14.29 43.53 
 808 27.80 11.26 43.53 
 809 27.47  7.42 43.53 
 810 28.14 14.38 43.53 
 811 31.30 11.25 43.53 
 812 22.68 17.26 43.53 
 813 39.51 15.33 43.53 
 814 22.95 19.42 43.53 
 815 26.79 24.55 43.53 
 816 21.92 13.41 43.53 
 817 15.90 12.34 43.53 
 818 33.80 15.43 43.53 
 819 22.84 12.25 43.53 
 820 39.60  7.20 43.53 
 821 38.91 25.62 43.53 
 822 25.95  9.44 43.53 
 823 24.94 27.35 43.53 
 824 44.78  9.36 43.53 
 825 29.17 51.39 44.78 
 826 34.32 17.32 44.78 
 827 23.97 16.30 44.78 
 828 37.96 20.29 44.78 
 829 28.67 17.33 44.78 
 830 20.83 38.43 44.78 
 831 24.00 23.23 44.78 
 832 12.63 13.19 44.78 
 833 34.10 15.34 44.78 
 834 29.63  7.17 44.78 
 835 28.51 15.31 44.78 
 836 42.17 10.24 44.78 
 837 22.71 28.07 44.78 
 838 32.03 24.30 44.78 
 839 27.71 35.42 44.78 
 840 37.31 29.81 44.78 
 841 42.42  9.26 44.78 
 842 27.30 39.69 44.78 
 843 28.16 26.61 44.78 
 844 33.94 10.23 44.78 
 845 24.62 30.24 44.78 
 846 38.84 40.35 44.78 
 847 28.92  9.26 44.78 
 848 24.28 28.15 44.78 
 849 14.78 44.30 44.78 
 850 28.74 34.23 44.78 
 851 26.55  9.18 44.78 
 852 25.72 36.57 44.78 
 853 28.81 37.21 44.78 
 854 36.34  6.13 44.78 
 855 24.14 31.25 44.78 
 856 37.54 50.21 44.78 
 857 23.33 10.17 44.78 
 858 25.16 21.28 44.78 
 859 31.49 32.88 44.78 
 860 26.78 36.30 44.78 
 861 24.65 43.18 44.78 
 862 30.27 29.14 44.78 
 863 33.03 16.34 44.78 
 864 23.00 38.24 44.78 
 865 24.44 15.20 44.78 
 866 23.37 50.24 44.78 
 867 24.47 34.27 44.78 
 868 19.27 13.17 44.78 
 869 25.53  9.15 44.78 
 870 36.03 24.24 44.78 
 871 29.11 13.14 44.78 
 872 25.43 17.20 44.78 
 873 19.02 22.51 44.78 
 874 39.72 20.31 44.78 
 875 24.79 28.36 44.78 
 876 40.13 20.23 44.78 
 877 14.20 11.25 44.78 
 878 23.73 20.19 44.78 
 879 29.43 18.10 44.78 
 880 29.16 14.27 44.78 
 881 25.17 15.28 44.78 
 882 12.45 18.43 44.78 
 883 26.63 16.15 44.78 
 884 15.41 17.24 44.78 
 885 22.45 14.17 44.78 
 886 28.03 37.08 44.78 
 887 26.96 19.10 44.78 
 888 30.09 18.11 44.78 
 889 26.18 22.28 44.78 
 890 41.31 20.66 44.78 
 891 34.15 21.32 44.78 
 892 29.76 24.42 44.78 
 893 37.67 22.50 44.78 
 894 26.13 13.17 44.78 
 895 30.34 51.49 44.78 
 896 34.36 35.27 44.78 
 897 33.16 16.22 44.78 
 898 25.73 40.25 44.78 
 899 32.99 45.33 44.78 
 900 23.17 20.12 44.78 
 901 36.90 41.28 44.78 
 902 28.75 32.15 44.78 
 903 15.12 41.21 44.78 
 904 27.04 22.09 44.78 
 905 41.47 12.10 44.78 
 906 29.94 22.10 44.78 
 907 22.89 49.09 44.78 
 908 39.13 17.08 44.78 
 909 40.90 16.12 44.78 
 910 37.82 26.18 44.78 
 911 21.67 25.18 44.78 
 912 33.77 35.30 44.78 
 913 31.37 51.20 44.78 
 914 29.25 29.16 44.78 
 915 21.16 36.22 44.78 
 916 24.86 39.15 44.78 
 917 33.63 40.24 44.78 
 918 39.44 14.12 44.78 
 919 26.99 34.15 44.78 
 920 18.06 27.21 44.78 
 921 20.89 27.19 44.78 
 922 30.68 24.19 44.78 
 923 33.14 46.20 44.78 
 924 26.96 13.23 44.78 
 925 24.72 29.22 44.78 
 926 17.75 29.23 44.78 
 927 26.67 25.65 44.78 
 928 29.49  7.22 44.78 
 929 21.73 19.20 44.78 
 930 31.59  7.20 44.78 
 931 35.76 15.18 44.78 
 932 32.34 29.31 44.78 
 933 28.70 27.13 44.78 
 934 23.39 33.14 44.78 
 935 24.95 40.15 44.78 
 936 23.99 40.12 44.78 
 937 13.42 52.13 44.78 
 938 40.95 43.12 44.78 
 939 18.66 42.16 44.78 
 940 37.43 41.20 44.78 
 941 31.71 50.15 44.78 
 942 19.65 44.24 44.78 
 943 34.00 34.16 44.78 
 944 21.90 31.29 44.78 
 945 29.44 33.19 44.78 
 946 27.61 31.14 44.78 
 947 41.96 17.15 44.78 
 948 33.05 20.14 44.78 
 949 23.43 21.11 44.78 
 950 36.61  7.22 44.78 
 951 33.59 18.39 44.78 
