Iter | Sampling Pol | Evaluation Pol | Best (Sampled) 
   0 -233.42 -304.95 -100000000.00 
   1 -251.31 -315.99 -233.42 
   2 -239.84 -320.59 -233.42 
   3 -262.91 -318.25 -233.42 
   4 -232.31 -315.50 -233.42 
   5 -272.89 -325.66 -232.31 
   6 -213.86 -371.75 -232.31 
   7 -259.47 -374.17 -213.86 
   8 -256.71 -374.09 -213.86 
   9 -273.46 -371.90 -213.86 
  10 -235.32 -348.81 -213.86 
  11 -236.61 -333.38 -213.86 
  12 -247.32 -314.70 -213.86 
  13 -256.03 -342.99 -213.86 
  14 -244.34 -372.85 -213.86 
  15 -240.53 -407.67 -213.86 
  16 -246.94 -400.87 -213.86 
  17 -256.30 -409.37 -213.86 
  18 -286.53 -419.40 -213.86 
  19 -266.43 -413.00 -213.86 
  20 -246.00 -395.47 -213.86 
  21 -265.00 -360.98 -213.86 
  22 -266.87 -430.39 -213.86 
  23 -254.10 -422.80 -213.86 
  24 -249.33 -331.16 -213.86 
  25 -204.13 -344.11 -213.86 
  26 -248.68 -364.16 -204.13 
  27 -406.76 -342.93 -204.13 
  28 -242.92 -392.42 -204.13 
  29 -268.70 -355.11 -204.13 
  30 -229.12 -420.92 -204.13 
  31 -261.72 -389.13 -204.13 
  32 -247.33 -387.66 -204.13 
  33 -258.42 -396.36 -204.13 
  34 -269.66 -392.86 -204.13 
  35 -242.00 -384.47 -204.13 
  36 -206.06 -361.96 -204.13 
  37 -235.34 -314.01 -204.13 
  38 -236.10 -305.18 -204.13 
  39 -235.57 -306.33 -204.13 
  40 -231.42 -386.57 -204.13 
  41 -237.39 -362.90 -204.13 
  42 -289.81 -370.11 -204.13 
  43 -257.79 -336.35 -204.13 
  44 -247.21 -332.55 -204.13 
  45 -248.30 -345.63 -204.13 
  46 -261.44 -333.89 -204.13 
  47 -226.08 -358.69 -204.13 
  48 -237.76 -369.08 -204.13 
  49 -225.54 -412.46 -204.13 
  50 -223.81 -413.19 -204.13 
  51 -250.93 -382.96 -204.13 
  52 -237.39 -347.00 -204.13 
  53 -265.79 -354.77 -204.13 
  54 -224.31 -361.41 -204.13 
  55 -236.72 -309.90 -204.13 
  56 -226.47 -313.24 -204.13 
  57 -269.60 -323.20 -204.13 
  58 -248.67 -336.04 -204.13 
  59 -282.04 -327.95 -204.13 
  60 -231.63 -319.60 -204.13 
  61 -305.70 -324.23 -204.13 
  62 -216.89 -330.77 -204.13 
  63 -392.98 -328.07 -204.13 
  64 -271.44 -306.08 -204.13 
  65 -275.01 -309.89 -204.13 
  66 -266.45 -309.37 -204.13 
  67 -243.33 -328.25 -204.13 
  68 -274.47 -319.88 -204.13 
  69 -251.26 -315.41 -204.13 
  70 -222.88 -329.54 -204.13 
  71 -238.17 -334.08 -204.13 
  72 -400.86 -296.64 -204.13 
  73 -230.00 -304.91 -204.13 
  74 -376.68 -309.70 -204.13 
  75 -255.66 -319.36 -204.13 
  76 -252.24 -287.32 -204.13 
  77 -252.01 -286.17 -204.13 
  78 -210.88 -277.33 -204.13 
  79 -248.30 -273.66 -204.13 
  80 -236.43 -275.31 -204.13 
  81 -214.53 -331.17 -204.13 
  82 -210.76 -376.26 -204.13 
  83 -305.18 -316.54 -204.13 
  84 -229.48 -315.84 -204.13 
  85 -260.76 -343.47 -204.13 
  86 -281.70 -330.08 -204.13 
  87 -231.44 -349.02 -204.13 
  88 -230.80 -372.39 -204.13 
  89 -265.09 -341.07 -204.13 
  90 -232.80 -349.85 -204.13 
  91 -247.51 -357.66 -204.13 
  92 -246.25 -368.27 -204.13 
  93 -320.36 -364.06 -204.13 
  94 -249.77 -353.31 -204.13 
  95 -231.53 -369.98 -204.13 
  96 -220.92 -391.49 -204.13 
  97 -264.84 -377.42 -204.13 
  98 -508.46 -362.67 -204.13 
  99 -259.08 -319.30 -204.13 
 100 -252.48 -329.63 -204.13 
 101 -357.50 -454.42 -204.13 
 102 -267.25 -475.65 -204.13 
 103 -236.23 -354.17 -204.13 
 104 -368.32 -356.85 -204.13 
 105 -238.46 -314.32 -204.13 
 106 -403.22 -329.03 -204.13 
 107 -228.33 -444.78 -204.13 
 108 -300.25 -328.04 -204.13 
 109 -284.98 -305.40 -204.13 
 110 -359.84 -306.77 -204.13 
 111 -270.34 -315.30 -204.13 
 112 -237.17 -347.55 -204.13 
 113 -229.82 -318.86 -204.13 
 114 -245.41 -312.58 -204.13 
 115 -224.43 -325.29 -204.13 
 116 -244.85 -353.72 -204.13 
 117 -297.81 -361.57 -204.13 
 118 -327.90 -320.15 -204.13 
 119 -253.40 -312.02 -204.13 
 120 -193.94 -307.99 -204.13 
 121 -271.09 -341.50 -193.94 
 122 -247.78 -384.26 -193.94 
 123 -261.67 -394.17 -193.94 
 124 -245.91 -415.34 -193.94 
 125 -247.97 -444.34 -193.94 
 126 -239.34 -462.77 -193.94 
 127 -285.94 -473.86 -193.94 
 128 -238.47 -455.09 -193.94 
 129 -316.52 -454.23 -193.94 
 130 -427.60 -443.53 -193.94 
 131 -212.80 -390.95 -193.94 
 132 -245.99 -387.54 -193.94 
 133 -284.05 -298.21 -193.94 
 134 -321.13 -282.45 -193.94 
 135 -299.71 -323.17 -193.94 
 136 -261.07 -365.86 -193.94 
 137 -248.26 -326.74 -193.94 
 138 -331.04 -348.31 -193.94 
 139 -223.48 -308.59 -193.94 
 140 -378.31 -349.79 -193.94 
 141 -267.81 -310.59 -193.94 
 142 -262.14 -325.44 -193.94 
 143 -228.16 -350.70 -193.94 
 144 -338.10 -403.65 -193.94 
 145 -324.34 -292.74 -193.94 
 146 -238.83 -339.79 -193.94 
 147 -265.59 -376.44 -193.94 
 148 -351.48 -339.15 -193.94 
 149 -261.34 -354.79 -193.94 
 150 -219.76 -343.40 -193.94 
 151 -267.27 -358.79 -193.94 
 152 -259.59 -336.35 -193.94 
 153 -358.87 -346.61 -193.94 
 154 -248.32 -348.11 -193.94 
 155 -515.39 -326.46 -193.94 
 156 -240.63 -285.08 -193.94 
 157 -351.43 -239.03 -193.94 
 158 -270.32 -269.68 -193.94 
 159 -258.78 -343.39 -193.94 
 160 -274.30 -350.04 -193.94 
 161 -225.24 -366.28 -193.94 
 162 -281.83 -367.15 -193.94 
 163 -417.96 -376.10 -193.94 
 164 -266.18 -400.22 -193.94 
 165 -295.14 -410.44 -193.94 
 166 -245.61 -400.35 -193.94 
 167 -343.08 -345.01 -193.94 
 168 -268.06 -301.15 -193.94 
 169 -227.27 -363.00 -193.94 
 170 -204.10 -369.71 -193.94 
 171 -432.26 -248.72 -193.94 
 172 -241.51 -237.10 -193.94 
 173 -226.57 -245.87 -193.94 
 174 -311.46 -244.41 -193.94 
 175 -241.36 -344.48 -193.94 
 176 -361.19 -243.13 -193.94 
 177 -243.70 -275.24 -193.94 
 178 -230.26 -244.56 -193.94 
 179 -259.62 -228.20 -193.94 
 180 -246.81 -311.89 -193.94 
 181 -291.48 -293.87 -193.94 
 182 -256.91 -239.50 -193.94 
 183 -325.54 -225.80 -193.94 
 184 -240.84 -232.78 -193.94 
 185 -316.31 -234.12 -193.94 
 186 -210.55 -228.74 -193.94 
 187 -242.02 -228.84 -193.94 
 188 -240.93 -235.13 -193.94 
 189 -249.54 -235.77 -193.94 
 190 -260.62 -239.85 -193.94 
 191 -231.00 -230.08 -193.94 
 192 -262.45 -228.59 -193.94 
 193 -468.33 -240.98 -193.94 
 194 -226.74 -227.23 -193.94 
 195 -261.19 -232.87 -193.94 
 196 -268.66 -239.78 -193.94 
 197 -275.89 -232.15 -193.94 
 198 -251.45 -238.86 -193.94 
 199 -310.06 -231.44 -193.94 
 200 -257.78 -232.18 -193.94 
 201 -221.95 -238.04 -193.94 
 202 -228.80 -231.04 -193.94 
 203 -258.51 -232.03 -193.94 
 204 -233.20 -237.58 -193.94 
 205 -243.53 -243.25 -193.94 
 206 -308.66 -240.29 -193.94 
 207 -230.12 -240.48 -193.94 
 208 -249.82 -224.76 -193.94 
 209 -279.69 -228.90 -193.94 
 210 -208.34 -217.59 -193.94 
 211 -265.22 -225.33 -193.94 
 212 -247.52 -219.50 -193.94 
 213 -246.57 -225.69 -193.94 
 214 -276.01 -222.67 -193.94 
 215 -265.08 -225.89 -193.94 
 216 -269.87 -219.61 -193.94 
 217 -260.45 -222.88 -193.94 
 218 -249.80 -227.78 -193.94 
 219 -227.44 -232.07 -193.94 
 220 -235.22 -267.44 -193.94 
 221 -232.48 -270.12 -193.94 
 222 -218.42 -256.72 -193.94 
 223 -242.42 -258.10 -193.94 
 224 -247.52 -251.06 -193.94 
 225 -266.60 -265.29 -193.94 
 226 -245.59 -238.31 -193.94 
 227 -227.48 -243.09 -193.94 
 228 -244.04 -248.50 -193.94 
 229 -218.92 -248.42 -193.94 
 230 -244.83 -244.10 -193.94 
 231 -245.19 -261.69 -193.94 
 232 -299.00 -259.84 -193.94 
 233 -263.88 -270.86 -193.94 
 234 -288.58 -257.24 -193.94 
 235 -317.03 -251.09 -193.94 
 236 -247.69 -261.70 -193.94 
 237 -253.05 -255.15 -193.94 
 238 -209.38 -230.98 -193.94 
 239 -250.95 -243.40 -193.94 
 240 -345.83 -247.00 -193.94 
 241 -256.72 -258.84 -193.94 
 242 -223.93 -254.46 -193.94 
 243 -257.62 -282.73 -193.94 
 244 -269.73 -282.95 -193.94 
 245 -262.93 -254.67 -193.94 
 246 -261.33 -290.30 -193.94 
 247 -251.23 -308.53 -193.94 
 248 -252.50 -291.57 -193.94 
 249 -226.23 -271.61 -193.94 
 250 -250.48 -303.68 -193.94 
 251 -247.24 -291.32 -193.94 
 252 -235.41 -313.03 -193.94 
 253 -288.42 -283.65 -193.94 
 254 -264.33 -322.86 -193.94 
 255 -255.61 -335.90 -193.94 
 256 -305.46 -320.80 -193.94 
 257 -269.65 -316.98 -193.94 
 258 -292.36 -329.63 -193.94 
 259 -250.51 -301.84 -193.94 
 260 -276.64 -273.62 -193.94 
 261 -292.07 -284.95 -193.94 
 262 -250.71 -333.06 -193.94 
 263 -236.90 -323.70 -193.94 
 264 -349.10 -319.79 -193.94 
 265 -221.43 -318.05 -193.94 
 266 -252.93 -316.18 -193.94 
 267 -243.53 -317.40 -193.94 
 268 -350.50 -322.76 -193.94 
 269 -234.64 -273.63 -193.94 
 270 -305.67 -240.83 -193.94 
 271 -262.40 -237.41 -193.94 
 272 -313.29 -228.58 -193.94 
 273 -247.07 -226.22 -193.94 
 274 -233.25 -221.87 -193.94 
 275 -277.14 -218.09 -193.94 
 276 -255.04 -215.78 -193.94 
 277 -435.84 -213.45 -193.94 
 278 -231.58 -209.29 -193.94 
 279 -217.32 -206.78 -193.94 
 280 -230.11 -208.58 -193.94 
 281 -250.38 -207.77 -193.94 
 282 -229.18 -211.07 -193.94 
 283 -364.32 -214.56 -193.94 
 284 -212.16 -216.36 -193.94 
 285 -247.94 -216.00 -193.94 
 286 -251.42 -211.53 -193.94 
 287 -266.08 -224.80 -193.94 
 288 -218.35 -222.42 -193.94 
 289 -226.21 -211.27 -193.94 
 290 -258.82 -225.26 -193.94 
 291 -244.83 -217.33 -193.94 
 292 -269.94 -211.78 -193.94 
 293 -242.05 -216.68 -193.94 
 294 -196.76 -213.54 -193.94 
 295 -252.48 -224.90 -193.94 
 296 -219.98 -223.45 -193.94 
 297 -261.98 -218.16 -193.94 
 298 -228.91 -220.72 -193.94 
 299 -230.60 -218.59 -193.94 
 300 -265.50 -222.65 -193.94 
 301 -256.11 -218.42 -193.94 
 302 -254.87 -220.53 -193.94 
 303 -245.99 -221.71 -193.94 
 304 -208.54 -213.99 -193.94 
 305 -364.54 -226.24 -193.94 
 306 -270.02 -217.79 -193.94 
 307 -257.44 -217.63 -193.94 
 308 -214.09 -219.03 -193.94 
 309 -206.81 -219.09 -193.94 
 310 -243.49 -220.65 -193.94 
 311 -210.70 -231.27 -193.94 
 312 -258.73 -227.14 -193.94 
 313 -211.59 -225.72 -193.94 
 314 -252.74 -234.12 -193.94 
 315 -256.09 -229.10 -193.94 
 316 -218.28 -220.53 -193.94 
 317 -228.47 -224.74 -193.94 
 318 -250.72 -224.26 -193.94 
 319 -225.00 -223.77 -193.94 
 320 -246.75 -223.43 -193.94 
 321 -210.66 -229.74 -193.94 
 322 -264.47 -226.77 -193.94 
 323 -250.40 -220.62 -193.94 
 324 -241.48 -223.76 -193.94 
 325 -254.70 -223.95 -193.94 
 326 -240.09 -227.53 -193.94 
 327 -255.79 -222.39 -193.94 
 328 -260.31 -226.38 -193.94 
 329 -256.07 -220.35 -193.94 
 330 -240.43 -225.33 -193.94 
 331 -237.19 -234.27 -193.94 
 332 -276.03 -226.70 -193.94 
 333 -287.36 -223.91 -193.94 
 334 -246.92 -226.09 -193.94 
 335 -245.70 -221.86 -193.94 
 336 -229.80 -220.85 -193.94 
 337 -255.48 -227.93 -193.94 
 338 -316.59 -231.14 -193.94 
 339 -298.89 -231.36 -193.94 
 340 -239.18 -231.11 -193.94 
 341 -255.92 -223.04 -193.94 
 342 -252.31 -227.34 -193.94 
 343 -244.40 -231.04 -193.94 
 344 -242.38 -232.40 -193.94 
 345 -298.63 -231.56 -193.94 
 346 -246.84 -222.80 -193.94 
 347 -258.59 -225.73 -193.94 
 348 -236.65 -231.52 -193.94 
 349 -246.09 -229.90 -193.94 
 350 -245.06 -237.37 -193.94 
 351 -273.97 -237.16 -193.94 
 352 -216.97 -234.68 -193.94 
 353 -370.62 -242.11 -193.94 
 354 -228.40 -244.25 -193.94 
 355 -226.07 -239.87 -193.94 
 356 -252.30 -242.85 -193.94 
 357 -237.99 -245.31 -193.94 
 358 -238.05 -246.88 -193.94 
 359 -233.38 -252.17 -193.94 
 360 -244.48 -252.93 -193.94 
 361 -238.14 -253.75 -193.94 
 362 -255.17 -245.66 -193.94 
 363 -246.58 -261.06 -193.94 
 364 -301.81 -247.93 -193.94 
 365 -256.49 -244.50 -193.94 
 366 -326.93 -247.65 -193.94 
 367 -299.48 -252.75 -193.94 
 368 -231.57 -240.72 -193.94 
 369 -230.26 -244.33 -193.94 
 370 -240.71 -236.76 -193.94 
 371 -253.88 -225.85 -193.94 
 372 -222.56 -232.05 -193.94 
 373 -236.29 -248.99 -193.94 
 374 -204.50 -244.92 -193.94 
 375 -322.11 -252.70 -193.94 
 376 -228.28 -254.90 -193.94 
 377 -189.76 -250.79 -193.94 
 378 -244.71 -252.43 -189.76 
 379 -197.91 -245.41 -189.76 
 380 -290.98 -229.32 -189.76 
 381 -302.30 -230.41 -189.76 
 382 -258.12 -229.74 -189.76 
 383 -264.04 -230.76 -189.76 
 384 -248.31 -223.20 -189.76 
 385 -227.87 -230.45 -189.76 
 386 -250.14 -223.12 -189.76 
 387 -273.88 -229.60 -189.76 
 388 -182.32 -230.18 -189.76 
 389 -241.06 -228.87 -182.32 
 390 -326.22 -232.97 -182.32 
 391 -252.61 -235.14 -182.32 
 392 -224.55 -231.73 -182.32 
 393 -246.39 -232.74 -182.32 
 394 -238.46 -235.87 -182.32 
 395 -281.23 -237.73 -182.32 
 396 -216.11 -232.89 -182.32 
 397 -230.18 -228.09 -182.32 
 398 -287.12 -235.30 -182.32 
 399 -234.35 -233.76 -182.32 
 400 -200.05 -238.00 -182.32 
 401 -225.32 -236.21 -182.32 
 402 -220.62 -230.86 -182.32 
 403 -220.18 -228.42 -182.32 
 404 -266.41 -244.55 -182.32 
 405 -273.84 -244.45 -182.32 
 406 -242.86 -247.67 -182.32 
 407 -218.70 -241.97 -182.32 
 408 -212.57 -245.22 -182.32 
 409 -224.71 -260.63 -182.32 
 410 -241.24 -255.28 -182.32 
 411 -226.38 -251.60 -182.32 
 412 -259.79 -253.97 -182.32 
 413 -246.27 -259.53 -182.32 
 414 -257.30 -252.39 -182.32 
 415 -260.13 -276.77 -182.32 
 416 -222.95 -260.00 -182.32 
 417 -284.83 -249.26 -182.32 
 418 -189.57 -233.62 -182.32 
 419 -281.72 -256.25 -182.32 
 420 -238.28 -246.30 -182.32 
 421 -253.12 -249.69 -182.32 
 422 -222.03 -255.38 -182.32 
 423 -247.68 -256.74 -182.32 
 424 -269.03 -250.26 -182.32 
 425 -234.27 -248.97 -182.32 
 426 -195.98 -249.78 -182.32 
 427 -253.79 -246.32 -182.32 
 428 -331.01 -252.38 -182.32 
 429 -268.12 -294.11 -182.32 
 430 -291.77 -286.27 -182.32 
 431 -248.61 -295.19 -182.32 
 432 -285.51 -272.41 -182.32 
 433 -250.25 -266.76 -182.32 
 434 -228.78 -259.50 -182.32 
 435 -288.17 -273.37 -182.32 
 436 -234.29 -255.71 -182.32 
 437 -243.43 -258.40 -182.32 
 438 -250.35 -271.73 -182.32 
 439 -254.08 -264.50 -182.32 
 440 -235.50 -274.45 -182.32 
 441 -245.72 -282.52 -182.32 
 442 -229.95 -267.16 -182.32 
 443 -269.05 -261.80 -182.32 
 444 -223.53 -240.34 -182.32 
 445 -225.45 -275.13 -182.32 
 446 -238.23 -266.55 -182.32 
 447 -242.92 -269.15 -182.32 
 448 -326.73 -264.43 -182.32 
 449 -245.45 -281.87 -182.32 
 450 -249.79 -267.04 -182.32 
 451 -225.67 -273.17 -182.32 
 452 -228.81 -276.91 -182.32 
 453 -242.11 -272.33 -182.32 
 454 -300.47 -272.49 -182.32 
 455 -234.75 -273.09 -182.32 
 456 -244.81 -269.47 -182.32 
 457 -230.28 -245.98 -182.32 
 458 -262.51 -249.73 -182.32 
 459 -324.77 -240.78 -182.32 
 460 -252.00 -243.78 -182.32 
 461 -264.44 -243.44 -182.32 
 462 -258.13 -236.22 -182.32 
 463 -252.48 -244.28 -182.32 
 464 -252.07 -235.47 -182.32 
 465 -218.53 -236.62 -182.32 
 466 -263.99 -238.60 -182.32 
 467 -234.51 -233.39 -182.32 
 468 -241.42 -244.46 -182.32 
 469 -233.79 -247.15 -182.32 
 470 -250.19 -242.68 -182.32 
 471 -201.50 -236.47 -182.32 
 472 -271.13 -239.55 -182.32 
 473 -295.20 -243.68 -182.32 
 474 -239.27 -235.09 -182.32 
 475 -269.19 -239.10 -182.32 
 476 -264.83 -231.61 -182.32 
 477 -241.24 -242.90 -182.32 
 478 -211.77 -242.52 -182.32 
 479 -255.01 -259.86 -182.32 
 480 -226.19 -269.52 -182.32 
 481 -231.60 -248.95 -182.32 
 482 -255.07 -302.62 -182.32 
 483 -251.95 -340.54 -182.32 
 484 -207.87 -339.76 -182.32 
 485 -252.00 -303.35 -182.32 
 486 -257.80 -327.59 -182.32 
 487 -249.48 -326.67 -182.32 
 488 -281.58 -335.94 -182.32 
 489 -323.70 -309.29 -182.32 
 490 -278.74 -310.85 -182.32 
 491 -248.34 -323.55 -182.32 
 492 -267.88 -325.71 -182.32 
 493 -259.63 -327.66 -182.32 
 494 -243.46 -300.30 -182.32 
 495 -251.21 -343.40 -182.32 
 496 -245.82 -300.86 -182.32 
 497 -254.91 -251.77 -182.32 
 498 -231.37 -286.38 -182.32 
 499 -254.46 -288.32 -182.32 
