Iter | Sampling Pol | Evaluation Pol | Best (Sampled) 
   0 63.77 74.56 -100000000.00 
   1 68.52 74.56 63.77 
   2 64.51 74.56 68.52 
   3 60.29 74.55 68.52 
   4 45.51 74.56 68.52 
   5 46.27 74.55 68.52 
   6 64.79 74.56 68.52 
   7 60.49 74.56 68.52 
   8 68.62 74.56 68.52 
   9 73.56 74.55 68.62 
  10 65.27 74.54 73.56 
  11 68.33 74.54 73.56 
  12 70.04 74.54 73.56 
  13 64.02 74.55 73.56 
  14 64.37 74.56 73.56 
  15 70.53 74.56 73.56 
  16 48.52 74.56 73.56 
  17 65.78 74.56 73.56 
  18 57.53 74.55 73.56 
  19 69.58 74.56 73.56 
  20 62.27 74.55 73.56 
  21 59.99 74.55 73.56 
  22 55.81 74.54 73.56 
  23 72.78 74.54 73.56 
  24 61.33 74.53 73.56 
  25 68.76 74.54 73.56 
  26 71.27 74.54 73.56 
  27 73.03 74.54 73.56 
  28 66.28 74.54 73.56 
  29 68.28 74.54 73.56 
  30 65.05 74.54 73.56 
  31 64.55 74.54 73.56 
  32 71.78 74.54 73.56 
  33 69.53 74.53 73.56 
  34 63.25 74.54 73.56 
  35 71.50 74.54 73.56 
  36 74.60 74.54 73.56 
  37 73.29 74.54 74.60 
  38 71.01 74.54 74.60 
  39 72.52 74.53 74.60 
  40 73.54 74.53 74.60 
  41 58.51 74.54 74.60 
  42 74.55 74.55 74.60 
  43 64.14 74.54 74.60 
  44 57.02 74.54 74.60 
  45 65.26 74.54 74.60 
  46 62.55 74.54 74.60 
  47 52.99 74.54 74.60 
  48 74.55 74.54 74.60 
  49 74.54 74.54 74.60 
  50 72.52 74.54 74.60 
  51 74.55 74.54 74.60 
  52 74.58 74.54 74.60 
  53 62.02 74.54 74.60 
  54 74.54 74.55 74.60 
  55 72.77 74.55 74.60 
  56 67.31 74.55 74.60 
  57 65.74 74.55 74.60 
  58 74.56 74.54 74.60 
  59 74.53 74.55 74.60 
  60 62.51 74.55 74.60 
  61 69.27 74.55 74.60 
  62 61.78 74.55 74.60 
  63 66.36 74.55 74.60 
  64 57.50 74.55 74.60 
  65 71.52 74.55 74.60 
  66 65.56 74.55 74.60 
  67 74.55 37.46 74.60 
  68 62.75 74.54 74.60 
  69 74.54 74.54 74.60 
  70 74.53 74.54 74.60 
  71 74.54 74.54 74.60 
  72 64.82 74.54 74.60 
  73 72.76 74.54 74.60 
  74 67.79 74.54 74.60 
  75 74.56 74.54 74.60 
  76 63.51 74.54 74.60 
  77 74.52 74.53 74.60 
  78 67.81 74.54 74.60 
  79 74.55 74.53 74.60 
  80 74.57 74.53 74.60 
  81 63.05 74.53 74.60 
  82 73.52 74.53 74.60 
  83 74.54 74.53 74.60 
  84 74.53 74.53 74.60 
  85 74.55 74.53 74.60 
  86 74.53 74.53 74.60 
  87 74.54 74.53 74.60 
  88 63.77 74.53 74.60 
  89 74.56 74.53 74.60 
  90 74.53 74.53 74.60 
  91 74.53 74.54 74.60 
  92 74.54 74.54 74.60 
  93 74.55 74.54 74.60 
  94 73.29 74.54 74.60 
  95 66.05 74.54 74.60 
  96 74.54 74.54 74.60 
  97 64.03 74.54 74.60 
  98 74.54 74.54 74.60 
  99 74.53 74.53 74.60 
 100 74.53 74.53 74.60 
 101 74.53 74.53 74.60 
 102 74.53 74.54 74.60 
 103 74.54 74.54 74.60 
 104 74.52 74.54 74.60 
 105 74.53 74.54 74.60 
 106 74.54 74.54 74.60 
 107 74.53 74.54 74.60 
 108 74.54 74.54 74.60 
 109 66.27 74.54 74.60 
 110 66.55 74.54 74.60 
 111 65.79 74.54 74.60 
 112 74.53 74.54 74.60 
 113 74.53 74.53 74.60 
 114 74.53 74.53 74.60 
 115 74.52 74.53 74.60 
 116 74.52 74.53 74.60 
 117 74.54 74.53 74.60 
 118 66.26 74.53 74.60 
 119 74.54 74.53 74.60 
 120 74.52 74.53 74.60 
 121 74.53 74.53 74.60 
 122 74.53 74.53 74.60 
 123 65.51 74.53 74.60 
 124 74.52 74.53 74.60 
 125 74.53 74.53 74.60 
 126 74.52 74.53 74.60 
 127 74.53 74.53 74.60 
 128 74.53 74.53 74.60 
 129 74.52 74.53 74.60 
 130 74.53 74.53 74.60 
 131 74.53 74.53 74.60 
 132 74.52 74.53 74.60 
 133 65.25 74.53 74.60 
 134 74.53 74.53 74.60 
 135 74.53 74.53 74.60 
 136 74.53 74.53 74.60 
 137 74.52 74.53 74.60 
 138 74.53 74.53 74.60 
 139 74.53 74.53 74.60 
 140 74.53 74.53 74.60 
 141 74.52 74.53 74.60 
 142 74.52 74.52 74.60 
 143 66.75 74.53 74.60 
 144 74.52 74.53 74.60 
 145 74.53 74.53 74.60 
 146 74.52 74.53 74.60 
 147 74.53 74.53 74.60 
 148 65.80 74.53 74.60 
 149 74.53 74.53 74.60 
 150 74.53 74.53 74.60 
 151 74.53 74.53 74.60 
 152 74.53 74.53 74.60 
 153 74.53 74.53 74.60 
 154 74.53 74.53 74.60 
 155 74.52 74.53 74.60 
 156 74.52 74.53 74.60 
 157 74.52 74.53 74.60 
 158 74.53 74.53 74.60 
 159 74.53 74.53 74.60 
 160 74.53 74.53 74.60 
 161 74.52 74.52 74.60 
 162 74.53 74.53 74.60 
 163 74.53 74.53 74.60 
 164 74.53 74.52 74.60 
 165 74.53 74.52 74.60 
 166 74.53 74.52 74.60 
 167 74.52 74.52 74.60 
 168 74.52 74.53 74.60 
 169 74.53 74.52 74.60 
 170 74.53 74.52 74.60 
 171 74.53 74.52 74.60 
 172 74.53 74.52 74.60 
 173 74.53 74.52 74.60 
 174 74.53 74.52 74.60 
 175 74.53 74.52 74.60 
 176 74.53 74.52 74.60 
 177 74.52 74.52 74.60 
 178 74.53 74.52 74.60 
 179 74.53 74.52 74.60 
 180 74.53 74.52 74.60 
 181 65.00 74.52 74.60 
 182 74.53 74.52 74.60 
 183 74.53 74.52 74.60 
 184 74.53 74.52 74.60 
 185 74.52 74.52 74.60 
 186 74.53 74.52 74.60 
 187 66.76 74.52 74.60 
 188 74.53 74.52 74.60 
 189 74.53 74.52 74.60 
 190 74.54 45.41 74.60 
 191 74.53 74.53 74.60 
 192 64.76 74.53 74.60 
 193 74.53 74.53 74.60 
 194 74.53 74.52 74.60 
 195 74.53 45.41 74.60 
 196 74.52 74.52 74.60 
 197 74.53 74.52 74.60 
 198 74.53 74.52 74.60 
 199 74.53 74.52 74.60 
 200 74.53 74.53 74.60 
 201 65.01 74.52 74.60 
 202 74.53 74.52 74.60 
 203 74.52 74.52 74.60 
 204 74.52 74.53 74.60 
 205 74.53 74.53 74.60 
 206 74.54 74.52 74.60 
 207 74.52 74.52 74.60 
 208 74.52 74.52 74.60 
 209 74.53 74.52 74.60 
 210 74.52 74.52 74.60 
 211 74.53 74.52 74.60 
 212 65.51 74.52 74.60 
 213 74.53 74.52 74.60 
 214 74.53 74.52 74.60 
 215 74.53 74.53 74.60 
 216 74.53 74.53 74.60 
 217 74.53 74.53 74.60 
 218 74.53 74.53 74.60 
 219 74.53 74.53 74.60 
 220 74.53 74.53 74.60 
 221 65.50 74.53 74.60 
 222 74.53 74.53 74.60 
 223 74.53 74.53 74.60 
 224 74.52 74.53 74.60 
 225 74.53 74.53 74.60 
 226 74.53 74.53 74.60 
 227 74.53 74.53 74.60 
 228 74.53 74.53 74.60 
 229 74.53 74.53 74.60 
 230 74.52 74.53 74.60 
 231 74.53 74.53 74.60 
 232 74.53 74.52 74.60 
 233 74.53 74.52 74.60 
 234 74.53 74.52 74.60 
 235 74.52 35.41 74.60 
 236 65.00 74.52 74.60 
 237 74.53 74.52 74.60 
 238 67.00 74.52 74.60 
 239 74.53 74.52 74.60 
 240 74.52 74.52 74.60 
 241 74.53 74.52 74.60 
 242 74.53 74.52 74.60 
 243 74.53 74.52 74.60 
 244 74.52 74.52 74.60 
 245 74.52 74.52 74.60 
 246 74.53 74.52 74.60 
 247 74.53 74.52 74.60 
 248 74.53 74.52 74.60 
 249 74.53 74.52 74.60 
 250 74.53 74.52 74.60 
 251 74.52 74.52 74.60 
 252 74.53 74.52 74.60 
 253 74.53 38.41 74.60 
 254 61.24 74.52 74.60 
 255 74.52 38.42 74.60 
 256 74.53 74.52 74.60 
 257 74.53 33.41 74.60 
 258 74.52 30.41 74.60 
 259 64.99 35.41 74.60 
 260 74.53 37.41 74.60 
 261 74.52 39.41 74.60 
 262 74.53 34.41 74.60 
 263 74.52 74.52 74.60 
 264 74.53 74.53 74.60 
 265 74.52 30.41 74.60 
 266 74.53 30.41 74.60 
 267 65.75 31.41 74.60 
 268 69.50 33.41 74.60 
 269 74.53 74.52 74.60 
 270 63.00 74.52 74.60 
 271 74.53 74.53 74.60 
 272 74.53 74.53 74.60 
 273 74.53 74.53 74.60 
 274 74.53 74.53 74.60 
 275 74.52 74.52 74.60 
 276 74.53 74.52 74.60 
 277 63.99 74.52 74.60 
 278 74.53 74.52 74.60 
 279 74.52 74.52 74.60 
 280 74.52 74.52 74.60 
 281 74.53 74.52 74.60 
 282 74.53 74.52 74.60 
 283 74.54 74.52 74.60 
 284 74.53 74.53 74.60 
 285 74.53 74.53 74.60 
 286 74.53 74.52 74.60 
 287 74.53 74.52 74.60 
 288 74.53 74.52 74.60 
 289 74.53 74.52 74.60 
 290 74.53 74.52 74.60 
 291 74.53 74.52 74.60 
 292 74.52 74.52 74.60 
 293 74.53 74.52 74.60 
 294 74.53 74.52 74.60 
 295 74.53 74.52 74.60 
 296 74.52 31.41 74.60 
 297 74.52 31.41 74.60 
 298 74.52 30.41 74.60 
 299 65.76 31.41 74.60 
 300 74.53 37.41 74.60 
 301 74.53 74.52 74.60 
 302 74.53 74.52 74.60 
 303 74.53 74.52 74.60 
 304 62.50 74.52 74.60 
 305 74.52 74.52 74.60 
 306 74.53 74.52 74.60 
 307 74.53 74.52 74.60 
 308 74.53 74.52 74.60 
 309 74.53 74.52 74.60 
 310 62.75 74.52 74.60 
 311 74.53 74.52 74.60 
 312 74.53 74.52 74.60 
 313 74.52 74.52 74.60 
 314 74.53 74.52 74.60 
 315 74.52 74.52 74.60 
 316 74.53 74.52 74.60 
 317 74.53 74.52 74.60 
 318 74.53 74.52 74.60 
 319 74.53 74.52 74.60 
 320 65.50 74.52 74.60 
 321 74.53 74.52 74.60 
 322 74.53 74.52 74.60 
 323 74.53 74.52 74.60 
 324 74.52 74.52 74.60 
 325 74.52 74.52 74.60 
 326 74.53 74.52 74.60 
 327 74.52 74.52 74.60 
 328 74.53 74.52 74.60 
 329 74.53 74.52 74.60 
 330 74.52 74.52 74.60 
 331 74.53 74.52 74.60 
 332 74.52 74.52 74.60 
 333 74.52 74.52 74.60 
 334 74.53 74.52 74.60 
 335 74.52 74.52 74.60 
 336 74.53 74.52 74.60 
 337 74.53 74.52 74.60 
 338 74.52 74.52 74.60 
 339 74.53 74.52 74.60 
 340 74.52 74.52 74.60 
 341 74.53 74.52 74.60 
 342 64.00 74.52 74.60 
 343 74.53 74.52 74.60 
 344 74.52 74.52 74.60 
 345 74.52 74.52 74.60 
 346 74.53 74.52 74.60 
 347 74.52 74.52 74.60 
 348 74.53 74.52 74.60 
 349 74.53 74.52 74.60 
 350 74.52 74.52 74.60 
 351 74.52 74.52 74.60 
 352 74.52 74.52 74.60 
 353 74.52 74.52 74.60 
 354 74.52 74.52 74.60 
 355 74.53 74.52 74.60 
 356 74.52 74.52 74.60 
 357 74.53 74.52 74.60 
 358 62.50 74.52 74.60 
 359 74.52 74.52 74.60 
 360 74.53 74.52 74.60 
 361 74.53 74.52 74.60 
 362 74.52 74.52 74.60 
 363 74.52 74.52 74.60 
 364 74.53 74.52 74.60 
 365 74.52 74.52 74.60 
 366 64.75 74.52 74.60 
 367 74.52 74.52 74.60 
 368 64.25 74.52 74.60 
 369 74.53 74.52 74.60 
 370 74.52 74.52 74.60 
 371 74.53 74.52 74.60 
 372 74.52 74.52 74.60 
 373 74.53 74.52 74.60 
 374 74.53 74.52 74.60 
 375 74.52 74.52 74.60 
 376 74.52 74.52 74.60 
 377 74.53 74.52 74.60 
 378 74.53 74.52 74.60 
 379 74.53 74.52 74.60 
 380 74.52 74.52 74.60 
 381 74.52 74.52 74.60 
 382 74.52 74.52 74.60 
 383 74.52 74.52 74.60 
 384 74.52 74.52 74.60 
 385 74.52 74.52 74.60 
 386 74.52 74.52 74.60 
 387 74.52 74.52 74.60 
 388 74.52 74.52 74.60 
 389 74.52 74.52 74.60 
 390 74.52 74.52 74.60 
 391 63.00 74.52 74.60 
 392 74.52 74.52 74.60 
 393 74.52 74.52 74.60 
 394 63.99 74.52 74.60 
 395 74.52 74.52 74.60 
 396 74.52 74.52 74.60 
 397 74.52 74.52 74.60 
 398 74.52 74.52 74.60 
 399 74.52 74.52 74.60 
 400 74.52 74.52 74.60 
 401 74.52 74.52 74.60 
 402 74.53 74.52 74.60 
 403 74.53 74.52 74.60 
 404 74.52 74.52 74.60 
 405 62.24 74.52 74.60 
 406 74.52 74.52 74.60 
 407 74.52 74.52 74.60 
 408 74.53 74.52 74.60 
 409 74.52 74.52 74.60 
 410 74.52 74.52 74.60 
 411 74.52 74.52 74.60 
 412 74.52 74.52 74.60 
 413 74.53 74.52 74.60 
 414 74.52 74.52 74.60 
 415 74.52 74.52 74.60 
 416 74.52 74.52 74.60 
 417 74.52 74.52 74.60 
 418 74.52 74.52 74.60 
 419 74.52 74.52 74.60 
 420 74.52 74.52 74.60 
 421 74.52 74.52 74.60 
 422 74.52 74.52 74.60 
 423 74.52 74.52 74.60 
 424 74.52 74.52 74.60 
 425 74.52 74.52 74.60 
 426 74.52 74.52 74.60 
 427 74.52 74.52 74.60 
 428 74.52 74.52 74.60 
 429 74.52 74.52 74.60 
 430 74.52 74.52 74.60 
 431 74.52 74.52 74.60 
 432 74.52 74.52 74.60 
 433 74.52 74.52 74.60 
 434 74.52 74.52 74.60 
 435 74.52 74.52 74.60 
 436 74.52 74.52 74.60 
 437 74.52 74.52 74.60 
 438 74.52 74.52 74.60 
 439 74.52 74.52 74.60 
 440 74.52 74.52 74.60 
 441 74.52 74.52 74.60 
 442 74.52 74.52 74.60 
 443 74.52 74.52 74.60 
 444 74.52 74.52 74.60 
 445 74.52 74.52 74.60 
 446 74.52 74.52 74.60 
 447 74.52 74.52 74.60 
 448 74.52 74.52 74.60 
 449 74.52 74.52 74.60 
 450 74.52 74.52 74.60 
 451 74.52 74.52 74.60 
 452 74.52 74.52 74.60 
 453 74.52 74.52 74.60 
 454 74.52 74.52 74.60 
 455 74.52 74.52 74.60 
 456 74.52 74.52 74.60 
 457 74.52 74.52 74.60 
 458 74.52 74.52 74.60 
 459 74.52 74.52 74.60 
 460 74.52 74.52 74.60 
 461 74.52 74.52 74.60 
 462 74.52 74.52 74.60 
 463 74.52 74.52 74.60 
 464 74.52 74.52 74.60 
 465 74.52 74.52 74.60 
 466 74.52 74.52 74.60 
 467 74.52 74.52 74.60 
 468 74.52 74.52 74.60 
 469 74.52 74.52 74.60 
 470 74.52 74.52 74.60 
 471 74.52 74.52 74.60 
 472 74.52 74.52 74.60 
 473 74.52 74.52 74.60 
 474 74.52 74.52 74.60 
 475 74.52 74.52 74.60 
 476 74.52 74.52 74.60 
 477 74.52 74.52 74.60 
 478 74.52 74.52 74.60 
 479 74.52 74.52 74.60 
 480 74.52 74.52 74.60 
 481 74.52 74.52 74.60 
 482 74.52 74.52 74.60 
 483 74.52 74.52 74.60 
 484 74.52 74.52 74.60 
 485 74.52 74.52 74.60 
 486 74.52 74.52 74.60 
 487 74.52 74.52 74.60 
 488 74.52 74.52 74.60 
 489 74.52 74.52 74.60 
 490 74.52 74.52 74.60 
 491 74.52 74.52 74.60 
 492 74.52 74.52 74.60 
 493 74.52 74.52 74.60 
 494 74.52 74.52 74.60 
 495 74.52 74.52 74.60 
 496 74.52 74.52 74.60 
 497 74.52 74.52 74.60 
 498 74.52 74.52 74.60 
 499 74.52 74.52 74.60 
 500 74.52 74.52 74.60 
 501 74.52 74.52 74.60 
 502 74.52 74.52 74.60 
 503 74.52 74.52 74.60 
 504 74.52 74.52 74.60 
 505 74.52 74.52 74.60 
 506 74.52 74.52 74.60 
 507 74.52 74.52 74.60 
 508 74.52 74.52 74.60 
 509 74.52 74.52 74.60 
 510 74.52 74.52 74.60 
 511 74.52 74.52 74.60 
 512 74.52 74.52 74.60 
 513 74.52 74.52 74.60 
 514 74.52 74.52 74.60 
 515 74.52 74.52 74.60 
 516 74.52 74.52 74.60 
 517 74.52 74.52 74.60 
 518 74.52 74.52 74.60 
 519 74.52 74.52 74.60 
 520 74.52 74.52 74.60 
 521 74.52 74.52 74.60 
 522 74.52 74.52 74.60 
 523 74.52 74.52 74.60 
 524 74.52 74.52 74.60 
 525 74.52 74.52 74.60 
 526 74.52 74.52 74.60 
 527 74.52 74.52 74.60 
 528 74.52 74.52 74.60 
 529 74.52 74.52 74.60 
 530 74.52 74.52 74.60 
 531 74.52 74.52 74.60 
 532 74.52 74.52 74.60 
 533 74.52 74.52 74.60 
 534 74.52 74.52 74.60 
 535 74.52 74.52 74.60 
 536 74.52 74.52 74.60 
 537 74.52 74.52 74.60 
 538 74.52 74.52 74.60 
 539 74.52 74.52 74.60 
 540 74.52 74.52 74.60 
 541 74.52 74.52 74.60 
 542 74.52 74.52 74.60 
 543 74.52 74.52 74.60 
 544 74.52 74.52 74.60 
 545 74.52 74.52 74.60 
 546 74.52 74.52 74.60 
 547 74.52 74.52 74.60 
 548 74.52 74.52 74.60 
 549 74.52 74.52 74.60 
 550 74.52 74.52 74.60 
 551 74.52 74.52 74.60 
 552 74.52 74.52 74.60 
 553 74.52 74.52 74.60 
 554 74.52 74.52 74.60 
 555 74.52 74.52 74.60 
 556 74.52 74.52 74.60 
 557 74.52 74.52 74.60 
 558 74.52 74.52 74.60 
 559 74.52 74.52 74.60 
 560 74.52 74.52 74.60 
 561 74.52 74.52 74.60 
 562 74.52 74.52 74.60 
 563 74.52 74.52 74.60 
 564 74.52 74.52 74.60 
 565 74.52 74.52 74.60 
 566 74.52 74.52 74.60 
 567 74.52 74.52 74.60 
 568 74.52 74.52 74.60 
 569 74.52 74.52 74.60 
 570 74.52 74.52 74.60 
 571 74.52 74.52 74.60 
 572 74.52 74.52 74.60 
 573 74.52 74.52 74.60 
 574 74.52 74.52 74.60 
 575 74.52 74.52 74.60 
 576 74.52 74.52 74.60 
 577 74.52 74.52 74.60 
 578 74.52 74.52 74.60 
 579 74.52 74.52 74.60 
 580 74.52 74.52 74.60 
 581 74.52 74.52 74.60 
 582 74.52 74.52 74.60 
 583 74.52 74.52 74.60 
 584 74.52 74.52 74.60 
 585 74.52 74.52 74.60 
 586 74.52 74.52 74.60 
 587 74.52 74.52 74.60 
 588 74.52 74.52 74.60 
 589 74.52 74.52 74.60 
 590 74.52 74.52 74.60 
 591 74.52 74.52 74.60 
 592 74.52 74.52 74.60 
 593 74.52 74.52 74.60 
 594 74.52 74.52 74.60 
 595 74.52 74.52 74.60 
 596 74.52 74.52 74.60 
 597 74.52 74.52 74.60 
 598 74.52 74.52 74.60 
 599 74.52 74.52 74.60 
 600 74.52 74.52 74.60 
 601 74.52 74.52 74.60 
 602 74.52 74.52 74.60 
 603 74.52 74.52 74.60 
 604 74.52 74.52 74.60 
 605 74.52 74.52 74.60 
 606 74.52 74.52 74.60 
 607 74.52 74.52 74.60 
 608 74.52 74.52 74.60 
 609 74.52 74.52 74.60 
 610 74.52 74.52 74.60 
 611 74.52 74.52 74.60 
 612 74.52 74.52 74.60 
 613 74.52 74.52 74.60 
 614 74.52 74.52 74.60 
 615 74.52 74.52 74.60 
 616 74.52 74.52 74.60 
 617 74.52 74.52 74.60 
 618 74.52 74.52 74.60 
 619 74.52 74.52 74.60 
 620 74.52 74.52 74.60 
 621 74.52 74.52 74.60 
 622 74.52 74.52 74.60 
 623 74.52 74.52 74.60 
 624 74.52 74.52 74.60 
 625 74.52 74.52 74.60 
 626 74.52 74.52 74.60 
 627 74.52 74.52 74.60 
 628 74.52 74.52 74.60 
 629 74.52 74.52 74.60 
 630 74.52 74.52 74.60 
 631 74.52 74.52 74.60 
 632 74.52 74.52 74.60 
 633 74.52 74.52 74.60 
 634 74.52 74.52 74.60 
 635 74.52 74.52 74.60 
 636 74.52 74.52 74.60 
 637 74.52 74.52 74.60 
 638 74.52 74.52 74.60 
 639 74.52 74.52 74.60 
 640 74.52 74.52 74.60 
 641 74.52 74.52 74.60 
 642 74.52 74.52 74.60 
 643 74.52 74.52 74.60 
 644 74.52 74.52 74.60 
 645 74.52 74.52 74.60 
 646 74.52 74.52 74.60 
 647 74.52 74.52 74.60 
 648 74.52 74.52 74.60 
 649 74.52 74.52 74.60 
 650 74.52 74.52 74.60 
 651 74.52 74.52 74.60 
 652 74.52 74.52 74.60 
 653 74.52 74.52 74.60 
 654 74.52 74.52 74.60 
 655 74.52 74.52 74.60 
 656 74.52 74.52 74.60 
 657 74.52 74.52 74.60 
 658 74.52 74.52 74.60 
 659 74.52 74.52 74.60 
 660 74.52 74.52 74.60 
 661 74.52 74.52 74.60 
 662 74.52 74.52 74.60 
 663 74.52 74.52 74.60 
 664 74.52 74.52 74.60 
 665 74.52 74.52 74.60 
 666 74.52 74.52 74.60 
 667 74.52 74.52 74.60 
 668 74.52 74.52 74.60 
 669 74.52 74.52 74.60 
 670 74.52 74.52 74.60 
 671 74.52 74.52 74.60 
 672 74.52 74.52 74.60 
 673 74.52 74.52 74.60 
 674 74.52 74.52 74.60 
 675 74.52 74.52 74.60 
 676 74.52 74.52 74.60 
 677 74.52 74.52 74.60 
 678 74.52 74.52 74.60 
 679 74.52 74.52 74.60 
 680 74.52 74.52 74.60 
 681 74.52 74.52 74.60 
 682 74.52 74.52 74.60 
 683 74.52 74.52 74.60 
 684 74.52 74.52 74.60 
 685 74.52 74.52 74.60 
 686 74.52 74.52 74.60 
 687 74.52 74.52 74.60 
 688 74.52 74.52 74.60 
 689 74.52 74.52 74.60 
 690 74.52 74.52 74.60 
 691 74.52 74.52 74.60 
 692 74.52 74.52 74.60 
 693 74.52 74.52 74.60 
 694 74.52 74.52 74.60 
 695 74.52 74.52 74.60 
 696 74.52 74.52 74.60 
 697 74.52 74.52 74.60 
 698 74.52 74.52 74.60 
 699 74.52 74.52 74.60 
 700 74.52 74.52 74.60 
 701 74.52 74.52 74.60 
 702 74.52 74.52 74.60 
 703 74.52 74.52 74.60 
 704 74.52 74.52 74.60 
 705 74.52 74.52 74.60 
 706 74.52 74.52 74.60 
 707 74.52 74.52 74.60 
 708 74.52 74.52 74.60 
 709 74.52 74.52 74.60 
 710 74.52 74.52 74.60 
 711 74.52 74.52 74.60 
 712 74.52 74.52 74.60 
 713 74.52 74.52 74.60 
 714 74.52 74.52 74.60 
 715 74.52 74.52 74.60 
 716 74.52 74.52 74.60 
 717 74.52 74.52 74.60 
 718 74.52 74.52 74.60 
 719 74.52 74.52 74.60 
 720 74.52 74.52 74.60 
 721 74.52 74.52 74.60 
 722 74.52 74.52 74.60 
 723 74.52 74.52 74.60 
 724 74.52 74.52 74.60 
 725 74.52 74.52 74.60 
 726 74.52 74.52 74.60 
 727 74.52 74.52 74.60 
 728 74.52 74.52 74.60 
 729 74.52 74.52 74.60 
 730 74.52 74.52 74.60 
 731 74.52 74.52 74.60 
 732 74.52 74.52 74.60 
 733 74.52 74.52 74.60 
 734 74.52 74.52 74.60 
 735 74.52 74.52 74.60 
 736 74.52 74.52 74.60 
 737 74.52 74.52 74.60 
 738 74.52 74.52 74.60 
 739 74.52 74.52 74.60 
 740 74.52 74.52 74.60 
 741 74.52 74.52 74.60 
 742 74.52 74.52 74.60 
 743 74.52 74.52 74.60 
 744 74.52 74.52 74.60 
 745 74.52 74.52 74.60 
 746 74.52 74.52 74.60 
 747 74.52 74.52 74.60 
 748 74.52 74.52 74.60 
 749 74.52 74.52 74.60 
 750 74.52 74.52 74.60 
 751 74.52 74.52 74.60 
 752 74.52 74.52 74.60 
 753 74.52 74.52 74.60 
 754 74.52 74.52 74.60 
 755 74.52 74.52 74.60 
 756 74.52 74.52 74.60 
 757 74.52 74.52 74.60 
 758 74.52 74.52 74.60 
 759 74.52 74.52 74.60 
 760 74.52 74.52 74.60 
 761 74.52 74.52 74.60 
 762 74.52 74.52 74.60 
 763 74.52 74.52 74.60 
 764 74.52 74.52 74.60 
 765 74.52 74.52 74.60 
 766 74.52 74.52 74.60 
 767 74.52 74.52 74.60 
 768 74.52 74.52 74.60 
 769 74.52 74.52 74.60 
 770 74.52 74.52 74.60 
 771 74.52 74.52 74.60 
 772 74.52 74.52 74.60 
 773 74.52 74.52 74.60 
 774 74.52 74.52 74.60 
 775 74.52 74.52 74.60 
 776 74.52 74.52 74.60 
 777 74.52 74.52 74.60 
 778 74.52 74.52 74.60 
 779 74.52 74.52 74.60 
 780 74.52 74.52 74.60 
 781 74.52 74.52 74.60 
 782 74.52 74.52 74.60 
 783 74.52 74.52 74.60 
 784 74.52 74.52 74.60 
 785 74.52 74.52 74.60 
 786 74.52 74.52 74.60 
 787 74.52 74.52 74.60 
 788 74.52 74.52 74.60 
 789 74.52 74.52 74.60 
 790 74.52 74.52 74.60 
 791 74.52 74.52 74.60 
 792 74.52 74.52 74.60 
 793 74.52 74.52 74.60 
 794 74.52 74.52 74.60 
 795 74.52 74.52 74.60 
 796 74.52 74.52 74.60 
 797 74.52 74.52 74.60 
 798 74.52 74.52 74.60 
 799 74.52 74.52 74.60 
 800 74.52 74.52 74.60 
 801 74.52 74.52 74.60 
 802 74.52 74.52 74.60 
 803 74.52 74.52 74.60 
 804 74.52 74.52 74.60 
 805 74.52 74.52 74.60 
 806 74.52 74.52 74.60 
 807 74.52 74.52 74.60 
 808 74.52 74.52 74.60 
 809 74.52 74.52 74.60 
 810 74.52 74.52 74.60 
 811 74.52 74.52 74.60 
 812 74.52 74.52 74.60 
 813 74.52 74.52 74.60 
 814 74.52 74.52 74.60 
 815 74.52 74.52 74.60 
 816 74.52 74.52 74.60 
 817 74.52 74.52 74.60 
 818 74.52 74.52 74.60 
 819 74.52 74.52 74.60 
 820 74.52 74.52 74.60 
 821 74.52 74.52 74.60 
 822 74.52 74.52 74.60 
 823 74.52 74.52 74.60 
 824 74.52 74.52 74.60 
 825 74.52 74.52 74.60 
 826 74.52 74.52 74.60 
 827 74.52 74.52 74.60 
 828 74.52 74.52 74.60 
 829 74.52 74.52 74.60 
 830 74.52 74.52 74.60 
 831 74.52 74.52 74.60 
 832 74.52 74.52 74.60 
 833 74.52 74.52 74.60 
 834 74.52 74.52 74.60 
 835 74.52 74.52 74.60 
 836 74.52 74.52 74.60 
 837 74.52 74.52 74.60 
 838 74.52 74.52 74.60 
 839 74.52 74.52 74.60 
 840 74.52 74.52 74.60 
 841 74.52 74.52 74.60 
 842 74.52 74.52 74.60 
 843 74.52 74.52 74.60 
 844 74.52 74.52 74.60 
 845 74.52 74.52 74.60 
 846 74.52 74.52 74.60 
 847 74.52 74.52 74.60 
 848 74.52 74.52 74.60 
 849 74.52 74.52 74.60 
 850 74.52 74.52 74.60 
 851 74.52 74.52 74.60 
 852 74.52 74.52 74.60 
 853 74.52 74.52 74.60 
 854 74.52 74.52 74.60 
 855 74.52 74.52 74.60 
 856 74.52 74.52 74.60 
 857 74.52 74.52 74.60 
 858 74.52 74.52 74.60 
 859 74.52 74.52 74.60 
 860 74.52 74.52 74.60 
 861 74.52 74.52 74.60 
 862 74.52 74.52 74.60 
 863 74.52 74.52 74.60 
 864 74.52 74.52 74.60 
 865 74.52 74.52 74.60 
 866 74.52 74.52 74.60 
 867 74.52 74.52 74.60 
 868 74.52 74.52 74.60 
 869 74.52 74.52 74.60 
 870 74.52 74.52 74.60 
 871 74.52 74.52 74.60 
 872 74.52 74.52 74.60 
 873 74.52 74.52 74.60 
 874 74.52 74.52 74.60 
 875 74.52 74.52 74.60 
 876 74.52 74.52 74.60 
 877 74.52 74.52 74.60 
 878 74.52 74.52 74.60 
 879 74.52 74.52 74.60 
 880 74.52 74.52 74.60 
 881 74.52 74.52 74.60 
 882 74.52 74.52 74.60 
 883 74.52 74.52 74.60 
 884 74.52 74.52 74.60 
 885 74.52 74.52 74.60 
 886 74.52 74.52 74.60 
 887 74.52 74.52 74.60 
 888 74.52 74.52 74.60 
 889 74.52 74.52 74.60 
 890 74.52 74.52 74.60 
 891 74.52 74.52 74.60 
 892 74.52 74.52 74.60 
 893 74.52 74.52 74.60 
 894 74.52 74.52 74.60 
 895 74.52 74.52 74.60 
 896 74.52 74.52 74.60 
 897 74.52 74.52 74.60 
 898 74.52 74.52 74.60 
 899 74.52 74.52 74.60 
 900 74.52 74.52 74.60 
 901 74.52 74.52 74.60 
 902 74.52 74.52 74.60 
 903 74.52 74.52 74.60 
 904 74.52 74.52 74.60 
 905 74.52 74.52 74.60 
 906 74.52 74.52 74.60 
 907 74.52 74.52 74.60 
 908 74.52 74.52 74.60 
 909 74.52 74.52 74.60 
 910 74.52 74.52 74.60 
 911 74.52 74.52 74.60 
 912 74.52 74.52 74.60 
 913 74.52 74.52 74.60 
 914 74.52 74.52 74.60 
 915 74.52 74.52 74.60 
 916 74.52 74.52 74.60 
 917 74.52 74.52 74.60 
 918 74.52 74.52 74.60 
 919 74.52 74.52 74.60 
 920 74.52 74.52 74.60 
 921 74.52 74.52 74.60 
 922 74.52 74.52 74.60 
 923 74.52 74.52 74.60 
 924 74.52 74.52 74.60 
 925 74.52 74.52 74.60 
 926 74.52 74.52 74.60 
 927 74.52 74.52 74.60 
 928 74.52 74.52 74.60 
 929 74.52 74.52 74.60 
 930 74.52 74.52 74.60 
 931 74.52 74.52 74.60 
 932 74.52 74.52 74.60 
 933 74.52 74.52 74.60 
 934 74.52 74.52 74.60 
 935 74.52 74.52 74.60 
 936 74.52 74.52 74.60 
 937 74.52 74.52 74.60 
 938 74.52 74.52 74.60 
 939 74.52 74.52 74.60 
 940 74.52 74.52 74.60 
 941 74.52 74.52 74.60 
 942 74.52 74.52 74.60 
 943 74.52 74.52 74.60 
 944 74.52 74.52 74.60 
 945 74.52 74.52 74.60 
 946 74.52 74.52 74.60 
 947 74.52 74.52 74.60 
 948 74.52 74.52 74.60 
 949 74.52 74.52 74.60 
 950 74.52 74.52 74.60 
 951 74.52 74.52 74.60 
 952 74.52 74.52 74.60 
 953 74.52 74.52 74.60 
 954 74.52 74.52 74.60 
 955 74.52 74.52 74.60 
 956 74.52 74.52 74.60 
 957 74.52 74.52 74.60 
 958 74.52 74.52 74.60 
 959 74.52 74.52 74.60 
 960 74.52 74.52 74.60 
 961 74.52 74.52 74.60 
 962 74.52 74.52 74.60 
 963 74.52 74.52 74.60 
 964 74.52 74.52 74.60 
 965 74.52 74.52 74.60 
 966 74.52 74.52 74.60 
 967 74.52 74.52 74.60 
 968 74.52 74.52 74.60 
 969 74.52 74.52 74.60 
 970 74.52 74.52 74.60 
 971 74.52 74.52 74.60 
 972 74.52 74.52 74.60 
 973 74.52 74.52 74.60 
 974 74.52 74.52 74.60 
 975 74.52 74.52 74.60 
 976 74.52 74.52 74.60 
 977 74.52 74.52 74.60 
 978 74.52 74.52 74.60 
 979 74.52 74.52 74.60 
 980 74.52 74.52 74.60 
 981 74.52 74.52 74.60 
 982 74.52 74.52 74.60 
 983 74.52 74.52 74.60 
 984 74.52 74.52 74.60 
 985 74.52 74.52 74.60 
 986 74.52 74.52 74.60 
 987 74.52 74.52 74.60 
 988 74.52 74.52 74.60 
 989 74.52 74.52 74.60 
 990 74.52 74.52 74.60 
 991 74.52 74.52 74.60 
 992 74.52 74.52 74.60 
 993 74.52 74.52 74.60 
 994 74.52 74.52 74.60 
 995 74.52 74.52 74.60 
 996 74.52 74.52 74.60 
 997 74.52 74.52 74.60 
 998 74.52 74.52 74.60 
 999 74.52 74.52 74.60 
1000 74.52 74.52 74.60 
1001 74.52 74.52 74.60 
1002 74.52 74.52 74.60 
1003 74.52 74.52 74.60 
1004 74.52 74.52 74.60 
1005 74.52 74.52 74.60 
1006 74.52 74.52 74.60 
1007 74.52 74.52 74.60 
1008 74.52 74.52 74.60 
1009 74.52 74.52 74.60 
1010 74.52 74.52 74.60 
1011 74.52 74.52 74.60 
1012 74.52 74.52 74.60 
1013 74.52 74.52 74.60 
1014 74.52 74.52 74.60 
1015 74.52 74.52 74.60 
1016 74.52 74.52 74.60 
1017 74.52 74.52 74.60 
1018 74.52 74.52 74.60 
1019 74.52 74.52 74.60 
1020 74.52 74.52 74.60 
1021 74.52 74.52 74.60 
1022 74.52 74.52 74.60 
1023 74.52 74.52 74.60 
1024 74.52 74.52 74.60 
1025 74.52 74.52 74.60 
1026 74.52 74.52 74.60 
1027 74.52 74.52 74.60 
1028 74.52 74.52 74.60 
1029 74.52 74.52 74.60 
1030 74.52 74.52 74.60 
1031 74.52 74.52 74.60 
1032 74.52 74.52 74.60 
1033 74.52 74.52 74.60 
1034 74.52 74.52 74.60 
1035 74.52 74.52 74.60 
1036 74.52 74.52 74.60 
1037 74.52 74.52 74.60 
1038 74.52 74.52 74.60 
1039 74.52 74.52 74.60 
1040 74.52 74.52 74.60 
1041 74.52 74.52 74.60 
1042 74.52 74.52 74.60 
1043 74.52 74.52 74.60 
1044 74.52 74.52 74.60 
1045 74.52 74.52 74.60 
1046 74.52 74.52 74.60 
1047 74.52 74.52 74.60 
1048 74.52 74.52 74.60 
1049 74.52 74.52 74.60 
1050 74.52 74.52 74.60 
1051 74.52 74.52 74.60 
1052 74.52 74.52 74.60 
1053 74.52 74.52 74.60 
1054 74.52 74.52 74.60 
1055 74.52 74.52 74.60 
1056 74.52 74.52 74.60 
1057 74.52 74.52 74.60 
1058 74.52 74.52 74.60 
1059 74.52 74.52 74.60 
1060 74.52 74.52 74.60 
1061 74.52 74.52 74.60 
1062 74.52 74.52 74.60 
1063 74.52 74.52 74.60 
1064 74.52 74.52 74.60 
1065 74.52 74.52 74.60 
1066 74.52 74.52 74.60 
1067 74.52 74.52 74.60 
1068 74.52 74.52 74.60 
1069 74.52 74.52 74.60 
1070 74.52 74.52 74.60 
1071 74.52 74.52 74.60 
1072 74.52 74.52 74.60 
1073 74.52 74.52 74.60 
1074 74.52 74.52 74.60 
1075 74.52 74.52 74.60 
1076 74.52 74.52 74.60 
1077 74.52 74.52 74.60 
1078 74.52 74.52 74.60 
1079 74.52 74.52 74.60 
1080 74.52 74.52 74.60 
1081 74.52 74.52 74.60 
1082 74.52 74.52 74.60 
1083 74.52 74.52 74.60 
1084 74.52 74.52 74.60 
1085 74.52 74.52 74.60 
1086 74.52 74.52 74.60 
1087 74.52 74.52 74.60 
1088 74.52 74.52 74.60 
1089 74.52 74.52 74.60 
1090 74.52 74.52 74.60 
1091 74.52 74.52 74.60 
1092 74.52 74.52 74.60 
1093 74.52 74.52 74.60 
1094 74.52 74.52 74.60 
1095 74.52 74.52 74.60 
1096 74.52 74.52 74.60 
1097 74.52 74.52 74.60 
1098 74.52 74.52 74.60 
1099 74.52 74.52 74.60 
1100 74.52 74.52 74.60 
1101 74.52 74.52 74.60 
1102 74.52 74.52 74.60 
1103 74.52 74.52 74.60 
1104 74.52 74.52 74.60 
1105 74.52 74.52 74.60 
1106 74.52 74.52 74.60 
1107 74.52 74.52 74.60 
1108 74.52 74.52 74.60 
1109 74.52 74.52 74.60 
1110 74.52 74.52 74.60 
1111 74.52 74.52 74.60 
1112 74.52 74.52 74.60 
1113 74.52 74.52 74.60 
1114 74.52 74.52 74.60 
1115 74.52 74.52 74.60 
1116 74.52 74.52 74.60 
1117 74.52 74.52 74.60 
1118 74.52 74.52 74.60 
1119 74.52 74.52 74.60 
1120 74.52 74.52 74.60 
1121 74.52 74.52 74.60 
1122 74.52 74.52 74.60 
1123 74.52 74.52 74.60 
1124 74.52 74.52 74.60 
1125 74.52 74.52 74.60 
1126 74.52 74.52 74.60 
1127 74.52 74.52 74.60 
1128 74.52 74.52 74.60 
1129 74.52 74.52 74.60 
1130 74.52 74.52 74.60 
1131 74.52 74.52 74.60 
1132 74.52 74.52 74.60 
1133 74.52 74.52 74.60 
1134 74.52 74.52 74.60 
1135 74.52 74.52 74.60 
1136 74.52 74.52 74.60 
1137 74.52 74.52 74.60 
1138 74.52 74.52 74.60 
1139 74.52 74.52 74.60 
1140 74.52 74.52 74.60 
1141 74.52 74.52 74.60 
1142 74.52 74.52 74.60 
1143 74.52 74.52 74.60 
1144 74.52 74.52 74.60 
1145 74.52 74.52 74.60 
1146 74.52 74.52 74.60 
1147 74.52 74.52 74.60 
1148 74.52 74.52 74.60 
1149 74.52 74.52 74.60 
1150 74.52 74.52 74.60 
1151 74.52 74.52 74.60 
1152 74.52 74.52 74.60 
1153 74.52 74.52 74.60 
1154 74.52 74.52 74.60 
1155 74.52 74.52 74.60 
1156 74.52 74.52 74.60 
1157 74.52 74.52 74.60 
1158 74.52 74.52 74.60 
1159 74.52 74.52 74.60 
1160 74.52 74.52 74.60 
1161 74.52 74.52 74.60 
1162 74.52 74.52 74.60 
1163 74.52 74.52 74.60 
1164 74.52 74.52 74.60 
1165 74.52 74.52 74.60 
1166 74.52 74.52 74.60 
1167 74.52 74.52 74.60 
1168 74.52 74.52 74.60 
1169 74.52 74.52 74.60 
1170 74.52 74.52 74.60 
1171 74.52 74.52 74.60 
1172 74.52 74.52 74.60 
1173 74.52 74.52 74.60 
1174 74.52 74.52 74.60 
1175 74.52 74.52 74.60 
1176 74.52 74.52 74.60 
1177 74.52 74.52 74.60 
1178 74.52 74.52 74.60 
1179 74.52 74.52 74.60 
1180 74.52 74.52 74.60 
1181 74.52 74.52 74.60 
1182 74.52 74.52 74.60 
1183 74.52 74.52 74.60 
1184 74.52 74.52 74.60 
1185 74.52 74.52 74.60 
1186 74.52 74.52 74.60 
1187 74.52 74.52 74.60 
1188 74.52 74.52 74.60 
1189 74.52 74.52 74.60 
1190 74.52 74.52 74.60 
1191 74.52 74.52 74.60 
1192 74.52 74.52 74.60 
1193 74.52 74.52 74.60 
1194 74.52 74.52 74.60 
1195 74.52 74.52 74.60 
1196 74.52 74.52 74.60 
1197 74.52 74.52 74.60 
1198 74.52 74.52 74.60 
1199 74.52 74.52 74.60 
1200 74.52 74.52 74.60 
1201 74.52 74.52 74.60 
1202 74.52 74.52 74.60 
1203 74.52 74.52 74.60 
1204 74.52 74.52 74.60 
1205 74.52 74.52 74.60 
1206 74.52 74.52 74.60 
1207 74.52 74.52 74.60 
1208 74.52 74.52 74.60 
1209 74.52 74.52 74.60 
1210 74.52 74.52 74.60 
1211 74.52 74.52 74.60 
1212 74.52 74.52 74.60 
1213 74.52 74.52 74.60 
1214 74.52 74.52 74.60 
1215 74.52 74.52 74.60 
1216 74.52 74.52 74.60 
1217 74.52 74.52 74.60 
1218 74.52 74.52 74.60 
1219 74.52 74.52 74.60 
1220 74.52 74.52 74.60 
1221 74.52 74.52 74.60 
1222 74.52 74.52 74.60 
1223 74.52 74.52 74.60 
1224 74.52 74.52 74.60 
1225 74.52 74.52 74.60 
1226 74.52 74.52 74.60 
1227 74.52 74.52 74.60 
1228 74.52 74.52 74.60 
1229 74.52 74.52 74.60 
1230 74.52 74.52 74.60 
1231 74.52 74.52 74.60 
1232 74.52 74.52 74.60 
1233 74.52 74.52 74.60 
1234 74.52 74.52 74.60 
1235 74.52 74.52 74.60 
1236 74.52 74.52 74.60 
1237 74.52 74.52 74.60 
1238 74.52 74.52 74.60 
1239 74.52 74.52 74.60 
1240 74.52 74.52 74.60 
1241 74.52 74.52 74.60 
1242 74.52 74.52 74.60 
1243 74.52 74.52 74.60 
1244 74.52 74.52 74.60 
1245 74.52 74.52 74.60 
1246 74.52 74.52 74.60 
1247 74.52 74.52 74.60 
1248 74.52 74.52 74.60 
1249 74.52 74.52 74.60 
1250 74.52 74.52 74.60 
1251 74.52 74.52 74.60 
1252 74.52 74.52 74.60 
1253 74.52 74.52 74.60 
1254 74.52 74.52 74.60 
1255 74.52 74.52 74.60 
1256 74.52 74.52 74.60 
1257 74.52 74.52 74.60 
1258 74.52 74.52 74.60 
1259 74.52 74.52 74.60 
1260 74.52 74.52 74.60 
1261 74.52 74.52 74.60 
1262 74.52 74.52 74.60 
1263 74.52 74.52 74.60 
1264 74.52 74.52 74.60 
1265 74.52 74.52 74.60 
1266 74.52 74.52 74.60 
1267 74.52 74.52 74.60 
1268 74.52 74.52 74.60 
1269 74.52 74.52 74.60 
1270 74.52 74.52 74.60 
1271 74.52 74.52 74.60 
1272 74.52 74.52 74.60 
1273 74.52 74.52 74.60 
1274 74.52 74.52 74.60 
1275 74.52 74.52 74.60 
1276 74.52 74.52 74.60 
1277 74.52 74.52 74.60 
1278 74.52 74.52 74.60 
1279 74.52 74.52 74.60 
1280 74.52 74.52 74.60 
1281 74.52 74.52 74.60 
1282 74.52 74.52 74.60 
1283 74.52 74.52 74.60 
1284 74.52 74.52 74.60 
1285 74.52 74.52 74.60 
1286 74.52 74.52 74.60 
1287 74.52 74.52 74.60 
1288 74.52 74.52 74.60 
1289 74.52 74.52 74.60 
1290 74.52 74.52 74.60 
1291 74.52 74.52 74.60 
1292 74.52 74.52 74.60 
1293 74.52 74.52 74.60 
1294 74.52 74.52 74.60 
1295 74.52 74.52 74.60 
1296 74.52 74.52 74.60 
1297 74.52 74.52 74.60 
1298 74.52 74.52 74.60 
1299 74.52 74.52 74.60 
1300 74.52 74.52 74.60 
1301 74.52 74.52 74.60 
1302 74.52 74.52 74.60 
1303 74.52 74.52 74.60 
1304 74.52 74.52 74.60 
1305 74.52 74.52 74.60 
1306 74.52 74.52 74.60 
1307 74.52 74.52 74.60 
1308 74.52 74.52 74.60 
1309 74.52 74.52 74.60 
1310 74.52 74.52 74.60 
1311 74.52 74.52 74.60 
1312 74.52 74.52 74.60 
1313 74.52 74.52 74.60 
1314 74.52 74.52 74.60 
1315 74.52 74.52 74.60 
1316 74.52 74.52 74.60 
1317 74.52 74.52 74.60 
1318 74.52 74.52 74.60 
1319 74.52 74.52 74.60 
1320 74.52 74.52 74.60 
1321 74.52 74.52 74.60 
1322 74.52 74.52 74.60 
1323 74.52 74.52 74.60 
1324 74.52 74.52 74.60 
1325 74.52 74.52 74.60 
1326 74.52 74.52 74.60 
1327 74.52 74.52 74.60 
1328 74.52 74.52 74.60 
1329 74.52 74.52 74.60 
1330 74.52 74.52 74.60 
1331 74.52 74.52 74.60 
1332 74.52 74.52 74.60 
1333 74.52 74.52 74.60 
1334 74.52 74.52 74.60 
1335 74.52 74.52 74.60 
1336 74.52 74.52 74.60 
1337 74.52 74.52 74.60 
1338 74.52 74.52 74.60 
1339 74.52 74.52 74.60 
1340 74.52 74.52 74.60 
1341 74.52 74.52 74.60 
1342 74.52 74.52 74.60 
1343 74.52 74.52 74.60 
1344 74.52 74.52 74.60 
1345 74.52 74.52 74.60 
1346 74.52 74.52 74.60 
1347 74.52 74.52 74.60 
1348 74.52 74.52 74.60 
1349 74.52 74.52 74.60 
1350 74.52 74.52 74.60 
1351 74.52 74.52 74.60 
1352 74.52 74.52 74.60 
1353 74.52 74.52 74.60 
1354 74.52 74.52 74.60 
1355 74.52 74.52 74.60 
1356 74.52 74.52 74.60 
1357 74.52 74.52 74.60 
1358 74.52 74.52 74.60 
1359 74.52 74.52 74.60 
1360 74.52 74.52 74.60 
1361 74.52 74.52 74.60 
1362 74.52 74.52 74.60 
1363 74.52 74.52 74.60 
1364 74.52 74.52 74.60 
1365 74.52 74.52 74.60 
1366 74.52 74.52 74.60 
1367 74.52 74.52 74.60 
1368 74.52 74.52 74.60 
1369 74.52 74.52 74.60 
1370 74.52 74.52 74.60 
