iteration,time_sampling,stoc_pol_mean,stoc_pol_std,stoc_pol_max,stoc_pol_min,rollout_success,alpha,delta,time_vpg,time_npg,kl_dist,surr_improvement,running_score,rwd_sparse,rwd_dense,success_percentage,num_samples,time_VF,VF_error_before,VF_error_after,env_samples,eval_score,eval_success
0,1.327446699142456,-430.6540224892874,13.501180511494821,-416.924983939476,-450.3034236360885,0.0,0.22460215588013585,0.1,0.03371596336364746,0.062009572982788086,0.05723302,0.62735486,-430.6540224892874,-4.23719649366482,-4.299782533704505,0.0,400,0.026987791061401367,1.0001867954268877,0.9977945204263096,400,-393.50056958930327,0.0
1,1.2145824432373047,-427.08751314167307,4.179801926386451,-422.6533182416143,-432.75512594693794,0.0,0.38461948836725696,0.1,0.003064393997192383,0.0631253719329834,0.049566496,0.2903888,-430.297371554526,-4.200449615328476,-4.263508522118549,0.0,400,0.02547907829284668,0.9977811763623325,0.9937943003926227,800,-390.7526979986454,0.0
2,1.707439661026001,-429.4506869028381,5.828231110904689,-420.6532706823535,-436.7375086077017,0.0,0.3672506478262344,0.1,0.0032465457916259766,0.059519290924072266,0.05051391,0.33713973,-430.2127030893572,-4.225037899706878,-4.287996330225285,0.0,400,0.03019547462463379,0.9937885618268573,0.9852471474030084,1200,-390.2974718768647,0.0
3,1.505819320678711,-426.6735082559145,9.61667252252839,-413.27924592608093,-439.4503262658831,0.0,0.37337613334455516,0.1,0.0040569305419921875,0.059325456619262695,0.048696302,0.30795258,-429.85878360601293,-4.195937403841728,-4.259075776830205,0.0,400,0.04432988166809082,0.9853120402915886,0.9688776480219251,1600,-392.82082344444825,0.0
4,1.574700117111206,-425.21893948427066,6.412045094635029,-414.2778844368927,-430.6049227691361,0.0,0.3544558634772084,0.1,0.006963253021240234,0.06257152557373047,0.050873403,0.34783605,-429.3947991938387,-4.181512127162399,-4.245029384152966,0.0,400,0.0375218391418457,0.9684734451161028,0.9392013859721856,2000,-392.85224037062926,0.0
5,1.3922123908996582,-428.915859677652,12.58034571146491,-412.66099876537027,-445.67164832162973,0.0,0.36739703900557047,0.1,0.0030508041381835938,0.058051109313964844,0.05159971,0.31514305,-429.34690524222003,-4.219397040905942,-4.281727549543909,0.0,400,0.03260326385498047,0.940360190773048,0.8942454570154402,2400,-391.1415821382528,0.0
6,1.424788475036621,-424.0484244359953,10.707134274746851,-412.18991654973905,-439.1879529191341,0.0,0.36351031777603754,0.1,0.07832837104797363,0.1196432113647461,0.05248753,0.34051567,-428.8170571615976,-4.170591124895064,-4.233362630763841,0.0,400,0.04705929756164551,0.8923024930688063,0.8229364310893773,2800,-392.98906989081166,0.0
7,1.4362194538116455,-428.0623132742219,15.525575191323773,-406.4957370626399,-445.0562915766195,0.0,0.34429048167577336,0.1,0.0029549598693847656,0.05870842933654785,0.046994537,0.34659457,-428.74158277286006,-4.209367562451858,-4.2739473152183605,0.0,400,0.05508780479431152,0.8225584672290389,0.7285443403241536,3200,-401.74153195320605,0.0
8,1.4103548526763916,-433.4823955281705,5.040201445709147,-427.28039165802807,-438.9038289995628,0.0,0.37236703692111256,0.1,0.0030176639556884766,0.06064867973327637,0.050123397,0.29700404,-429.21566404839115,-4.262383007804992,-4.326575249562094,0.0,400,0.025649070739746094,0.7328744588337116,0.6197307014507681,3600,-398.19306336044315,0.0
9,1.4184131622314453,-433.3587540946352,9.39797084944598,-417.09175863427936,-439.3035682076844,0.0,0.3663873931183026,0.1,0.0030095577239990234,0.06215500831604004,0.05123292,0.30037558,-429.6299730530156,-4.262499955258456,-4.326485774134782,0.0,400,0.028168201446533203,0.6214313204142754,0.5004483363971447,4000,-392.9472578637678,0.0
10,1.389559268951416,-433.8202242558183,7.3424334343712285,-421.8021054410527,-441.3271352618992,0.0,0.3633952631271518,0.1,0.0031337738037109375,0.05749201774597168,0.049770765,0.31578475,-430.0489981732959,-4.265910733170788,-4.329800939483652,0.0,400,0.3029942512512207,0.49561401211785905,0.3873959481515768,4400,-393.90525662866304,0.0
11,1.4716477394104004,-431.5508392934312,3.1542619172677133,-427.15804660424124,-435.4272074058499,0.0,0.3651202986525814,0.1,0.0029747486114501953,0.05897116661071777,0.049790334,0.29760656,-430.1991822853094,-4.24388992271391,-4.3070179855584065,0.0,400,0.025798320770263672,0.38990776220949214,0.3150964255302677,4800,-396.7704527598066,0.0
12,1.4167249202728271,-433.6054907242575,3.3507430783685885,-428.3392025098661,-437.4826817546463,0.0,0.3302057858496585,0.1,0.0027990341186523438,0.06362080574035645,0.050262127,0.37526482,-430.5398131292043,-4.265181937101794,-4.328098806222004,0.0,400,0.03711271286010742,0.3181986048442089,0.2839191994155144,5200,-395.482564702869,0.0
13,1.4201345443725586,-440.95065924155506,4.485289323376358,-435.19412444636436,-446.4684556519191,0.0,0.3408925766636446,0.1,0.0029206275939941406,0.057349443435668945,0.051346887,0.33862677,-431.58089774043935,-4.337741435793171,-4.400911988045591,0.0,400,0.03432059288024902,0.28837928037863164,0.27914184618310184,5600,-391.7844020333043,0.0
14,1.4446887969970703,-428.2572619065582,8.187949683614553,-418.14280091553456,-439.9459112987922,0.0,0.38090950672672486,0.1,0.003014087677001953,0.06124114990234375,0.052149154,0.28914225,-431.24853415705127,-4.2111927745432585,-4.2747644601638015,0.0,400,0.2034316062927246,0.2826869105880455,0.2753954555725264,6000,-393.617229534489,0.0
15,1.4747653007507324,-427.8433562667354,5.726707060654837,-418.68999257779996,-434.15698269199225,0.0,0.34613541653413155,0.1,0.0030679702758789062,0.06116962432861328,0.04991759,0.31533122,-430.90801636801973,-4.20664465926815,-4.270379777404796,0.0,400,0.05162835121154785,0.2611799265375536,0.2525301676997185,6400,-398.59379879179073,0.0
16,1.4415545463562012,-423.4650421018927,8.618742819535168,-415.3260698059935,-437.56327056362284,0.0,0.3491204169640706,0.1,0.07853841781616211,0.059972286224365234,0.051719815,0.3258281,-430.163718941407,-4.163613841507427,-4.2269842304489655,0.0,400,0.07120656967163086,0.2575130622032283,0.24952486319732622,6800,-405.2444290226501,0.0
17,1.352393388748169,-428.44977068107187,6.906482000753519,-419.98756867615646,-438.06517355074664,0.0,0.37327072208919443,0.1,0.0031194686889648438,0.05808305740356445,0.049677588,0.25280184,-429.9923241153735,-4.213809434244689,-4.27734202065145,0.0,400,0.15832948684692383,0.25623764643494173,0.24939549705705744,7200,-409.8205070756628,0.0
18,1.393186092376709,-432.7408010668262,5.676110503428244,-429.19845358190673,-442.565782145939,0.0,0.3526168525324719,0.1,0.002870798110961914,0.05957221984863281,0.049129687,0.32258645,-430.2671718105188,-4.25584506981107,-4.319182703694046,0.0,400,0.04789257049560547,0.23809665736181637,0.22914402378767695,7600,-407.9507017188762,0.0
19,1.4439988136291504,-436.3715560747346,7.079431667753552,-426.2059724138269,-445.81025618182576,0.0,0.3361687171565782,0.1,0.002900362014770508,0.06475377082824707,0.048728913,0.36417565,-430.87761023694037,-4.291415376710962,-4.355125112058401,0.0,400,0.03400254249572754,0.2352138945705891,0.22727754077271323,8000,-406.7091770270877,0.0
20,1.4337067604064941,-429.4719692887945,5.11344467210238,-422.47738268708355,-436.8351011035617,0.0,0.33677885083333453,0.1,0.0031425952911376953,0.05851912498474121,0.050188493,0.30778435,-430.7370461421258,-4.22366355926496,-4.287322917676669,0.0,400,0.02499675750732422,0.22812398674365725,0.2204981266501602,8400,-399.53847384362626,0.0
21,1.396735429763794,-432.09352769331326,4.009535572971801,-428.1824300791722,-438.66389292066015,0.0,0.3309296085062318,0.1,0.0031118392944335938,0.05618166923522949,0.049207047,0.32391602,-430.8726942972446,-4.249801159621685,-4.313230542396423,0.0,400,0.032663583755493164,0.22117245779676245,0.2127601745154342,8800,-395.78045995735255,0.0
22,1.400017499923706,-439.1345416041911,3.2838546067240864,-435.64882605081664,-444.5278775649832,0.0,0.3306874176863303,0.1,0.07681488990783691,0.14386296272277832,0.050542995,0.36567485,-431.69887902793926,-4.320366482761889,-4.3835783157214445,0.0,400,0.025749683380126953,0.2179259159242991,0.20918477713356962,9200,-385.97645832449444,0.0
23,1.436781883239746,-422.4407626199991,17.15839793541081,-404.10839095757785,-445.47951461453613,0.0,0.3473161545998881,0.1,0.0028929710388183594,0.056769371032714844,0.048494644,0.33079478,-430.77306738714526,-4.155801394300653,-4.218616817551935,0.0,400,0.03602790832519531,0.2104958663836568,0.2020905804001795,9600,-389.4221581348623,0.0
24,1.4321343898773193,-434.0286425306946,6.595457928136163,-427.81121476963136,-444.6975505931581,0.0,0.3841981945862467,0.1,0.002919435501098633,0.060991525650024414,0.051832713,0.29861823,-431.0986249015002,-4.268062745631149,-4.332020426327531,0.0,400,0.10405230522155762,0.19437899389651356,0.18341650798168624,10000,-404.99391028722306,0.0
25,1.455786943435669,-417.31376663890137,9.774389990300305,-401.5271554181746,-428.1092173533805,0.0,0.35632086339590696,0.1,0.0030434131622314453,0.05876493453979492,0.04929258,0.28667718,-429.72013907524035,-4.1025840255872295,-4.166975547364084,0.0,400,0.028439760208129883,0.17686253964281784,0.16734197221140681,10400,-400.8907087317538,0.0
26,1.4275717735290527,-427.58204735908924,9.192887722704516,-412.1322149279826,-436.3107634969572,0.0,0.3714475209484353,0.1,0.0031120777130126953,0.059981584548950195,0.051281728,0.30714077,-429.50632990362527,-4.205679706865805,-4.268771657589198,0.0,400,0.04984736442565918,0.16310806866765878,0.15261169007662892,10800,-399.28890022986803,0.0
27,1.454557180404663,-424.9825272971143,12.947273657887415,-405.3684765970653,-441.709664895598,0.0,0.37725965506555176,0.1,0.009495258331298828,0.060274600982666016,0.050569486,0.29880214,-429.0539496429742,-4.179658587489324,-4.242869389463262,0.0,400,0.03023219108581543,0.16830052606022888,0.15843571375206517,11200,-399.754151156387,0.0
28,1.468709945678711,-420.68674826385944,11.989384877530663,-402.97370666427486,-432.72828382737686,0.0,0.3608616592611804,0.1,0.002920866012573242,0.05981254577636719,0.049480677,0.3105102,-428.21722950506273,-4.137031610289071,-4.200333665243045,0.0,400,0.03132486343383789,0.15586938696188044,0.146038106976382,11600,-400.64355939592065,0.0
29,1.4538097381591797,-421.9660522372366,11.92238111220611,-412.6791049942997,-442.01249376295294,0.0,0.35298703369213935,0.1,0.0028977394104003906,0.059789180755615234,0.049767658,0.3129456,-427.5921117782801,-4.149319740891,-4.212842053568729,0.0,400,0.04199552536010742,0.1437935311300528,0.13461001585928156,12000,-402.73999360873955,0.0
30,1.4330394268035889,-425.49447839608484,10.136314988996933,-408.86316735974395,-436.3374248774396,0.0,0.35681006069675286,0.1,0.09340071678161621,0.1620163917541504,0.051448554,0.31977773,-427.38234844006064,-4.18545987524329,-4.2479994977914295,0.0,400,0.05210518836975098,0.13966617118240734,0.1294541800709152,12400,-403.68072279046936,0.0
31,1.4324040412902832,-417.81395395435595,11.182104395629937,-401.8521242922552,-431.7888756777745,0.0,0.35833702108410165,0.1,0.0032782554626464844,0.061632394790649414,0.051677573,0.3339959,-426.4255089914902,-4.108648580237278,-4.172086557997512,0.0,400,0.03323817253112793,0.12291583037458956,0.11292773455974117,12800,-406.73272528351254,0.0
32,1.3842358589172363,-416.05082230349234,13.909323342088447,-398.2974602299001,-436.47253586669683,0.0,0.36678963697572575,0.1,0.0034759044647216797,0.06436872482299805,0.05067715,0.33055785,-425.3880403226904,-4.093836948136424,-4.156062495792213,0.0,400,0.03614163398742676,0.1308347784839479,0.12264436291459768,13200,-389.3515118998818,0.0
33,1.4594190120697021,-418.6668989847621,10.299830996534014,-404.00843175215897,-433.13593232935,0.0,0.38667819453680363,0.1,0.0030205249786376953,0.06011390686035156,0.049025673,0.28125405,-424.7159261888976,-4.1179908982809375,-4.180262425839219,0.0,400,0.03429460525512695,0.12321456923266896,0.11661842447981967,13600,-388.673204423362,0.0
34,1.4911797046661377,-411.89782210653163,8.298930211791081,-400.0627704331144,-423.3053988863321,0.0,0.371014477533341,0.1,0.0033159255981445312,0.059813737869262695,0.049440164,0.32539132,-423.434115780661,-4.050666857334021,-4.113550999602399,0.0,400,0.03473639488220215,0.10354222272786018,0.09612086449807511,14000,-393.33024491512197,0.0
35,1.3754971027374268,-425.963273528842,10.697733325641261,-415.4678332604254,-440.4763875221663,0.0,0.38816800200353985,0.1,0.002952098846435547,0.05919957160949707,0.050726734,0.26111633,-423.6870315554791,-4.188949339769122,-4.251988783537692,0.0,400,0.024576663970947266,0.10544102241398638,0.09914108586865156,14400,-402.98500066762364,0.0
36,1.4446196556091309,-426.898495991531,2.3922477041228594,-423.0447067772459,-429.06411457193053,0.0,0.3644943240662337,0.1,0.003179311752319336,0.06238102912902832,0.04945961,0.30122617,-424.0081779990843,-4.197177549951386,-4.260430934463077,0.0,400,0.02386784553527832,0.10263969971470681,0.09571089883338957,14800,-406.074391061323,0.0
37,1.4752042293548584,-430.647280523866,2.4783329474794513,-427.5140445710433,-434.0633111982818,0.0,0.36245643137807193,0.1,0.0031585693359375,0.05993342399597168,0.05033467,0.32392132,-424.6720882515625,-4.236328387251808,-4.299753911772965,0.0,400,0.026194334030151367,0.10031469100255391,0.09422231440361345,15200,-409.63909663957634,0.0
38,1.4367384910583496,-431.10571281753363,8.005403954494321,-419.27127065262226,-440.6202471576056,0.0,0.37575337776510365,0.1,0.0036804676055908203,0.06379318237304688,0.051513772,0.32913902,-425.31545070815963,-4.239196029080643,-4.30282347989257,0.0,400,0.037987709045410156,0.08290797389586745,0.06689120077503363,15600,-406.1345414126568,0.0
39,1.5042717456817627,-436.3170097765917,11.074889774347536,-417.3064944001415,-444.1887407013736,0.0,0.3638811926671912,0.1,0.0032188892364501953,0.06894731521606445,0.049170695,0.30123007,-426.41560661500284,-4.292923900392731,-4.3556174923789115,0.0,400,0.02718186378479004,0.1217615844467404,0.0897909863080039,16000,-418.1573289505862,0.0
40,1.4969370365142822,-419.3369198889768,4.35727284028708,-413.6586610345561,-424.9447100545398,0.0,0.37538112457859507,0.1,0.0031049251556396484,0.058472633361816406,0.05072406,0.32770196,-425.7077379424003,-4.122201107944025,-4.1856949706350415,0.0,400,0.0384523868560791,0.0691820705177841,0.07247298419567277,16400,-413.51000811900525,0.0
41,1.4499785900115967,-424.33120741022543,8.51493355953421,-410.5347243967014,-431.5865343584392,0.0,0.3607751696228347,0.1,0.002855062484741211,0.05919027328491211,0.049965244,0.33308476,-425.5700848891828,-4.173174514425711,-4.236147248824334,0.0,400,0.04703640937805176,0.09174539216883816,0.0863491593316824,16800,-410.5331616455226,0.0
42,1.3479323387145996,-417.61373493129986,22.087152992931287,-383.8292471314528,-441.4524418679631,0.0,0.36048909706146326,0.1,0.003344297409057617,0.060333967208862305,0.04996903,0.3583973,-424.77444989339455,-4.106798298317241,-4.170080856822016,0.0,400,0.0293424129486084,0.07719909536228048,0.0747987011480828,17200,-410.66758100608104,0.0
43,1.509504795074463,-419.0263850461475,11.779232982092864,-402.58651064704407,-431.42514322915986,0.0,0.371961551140792,0.1,0.0033464431762695312,0.058588504791259766,0.048649516,0.3296112,-424.19964340866983,-4.120295107065914,-4.183458581290371,0.0,400,0.038140296936035156,0.0950054063666061,0.08517359169169078,17600,-408.1233105331674,0.0
44,1.397648572921753,-419.083819073147,8.000049037125743,-405.6256081997628,-426.4773207335034,0.0,0.3878021312815633,0.1,0.002956390380859375,0.06219935417175293,0.049735613,0.28576338,-423.6880609751176,-4.121870978271762,-4.184525033072767,0.0,400,0.12282061576843262,0.0832667370403332,0.07841122436906843,18000,-408.7672870941081,0.0
45,1.4402101039886475,-423.7303295171815,8.098197556978132,-413.3965830545859,-432.87315173225574,0.0,0.3708631283954692,0.1,0.0030388832092285156,0.06521463394165039,0.05018076,0.29874155,-423.69228782932396,-4.165742504442588,-4.229263563166803,0.0,400,0.027335166931152344,0.07871548958254138,0.07709581736352976,18400,-413.32257789996476,0.0
46,1.3829710483551025,-425.1983778437481,3.5076738139045918,-421.5671878233482,-429.0101076167073,0.0,0.3625344085120014,0.1,0.0031981468200683594,0.05761432647705078,0.05041132,0.33493918,-423.8428968307664,-4.180940763752995,-4.244365314879922,0.0,400,0.05149483680725098,0.08040879095986346,0.07622554782612337,18800,-416.19159308360736,0.0
47,1.511831283569336,-412.5725448596146,13.278263863081088,-396.22569774423823,-428.0517339533963,0.0,0.36784509700831974,0.1,0.003526449203491211,0.060291290283203125,0.049408227,0.30660355,-422.71586163365123,-4.058914159130695,-4.12059970382997,0.0,400,0.059630632400512695,0.07969705561538619,0.07495097466458084,19200,-424.40033124160055,0.0
48,1.5334925651550293,-416.02480391324184,6.914059594916931,-406.4617007039795,-423.25021917395094,0.0,0.40180455026820106,0.1,0.0029723644256591797,0.05765056610107422,0.048799854,0.30892226,-422.04675586161034,-4.090972887471681,-4.153669315209813,0.0,400,0.03609299659729004,0.07688432199949896,0.06982147297189778,19600,-421.02284822556265,0.0
49,1.4277088642120361,-422.96662768453234,3.508182607384444,-418.799255606862,-428.22534492576324,0.0,0.38216341917318225,0.1,0.003240346908569336,0.0593266487121582,0.05044007,0.29855028,-422.13874304390254,-4.159514567932063,-4.22240665226732,0.0,400,0.02377605438232422,0.08165040277705052,0.07772361896656016,20000,-415.17986829414826,0.0
50,1.4324796199798584,-418.6270709883039,13.031638768152293,-400.365249633512,-436.9087976708572,0.0,0.37922369244981075,0.1,0.002767324447631836,0.057785987854003906,0.050129615,0.29853526,-421.7875758383427,-4.116928309154066,-4.179615884258003,0.0,400,0.03470587730407715,0.0645766015472331,0.058618148234360956,20400,-408.12547555529426,0.0
51,1.4765708446502686,-419.57711800086156,11.03261783879018,-403.8736235633804,-435.04232660022933,0.0,0.38940028864474296,0.1,0.00304412841796875,0.057947397232055664,0.051067818,0.2850992,-421.5665300545946,-4.1255858522539,-4.188851435312457,0.0,400,0.16900229454040527,0.0530185473398226,0.05227632268427015,20800,-410.26540951022906,0.0
52,1.5739529132843018,-419.82634465237,9.476370001273557,-405.1585181095127,-430.04659694094346,0.0,0.3714669658167286,0.1,0.08143758773803711,0.09232211112976074,0.05075034,0.29932976,-421.39251151437213,-4.12852383973673,-4.192448289866472,0.0,400,0.03969573974609375,0.07248122199494586,0.0708850485688471,21200,-410.6502700355065,0.0
53,1.496196985244751,-417.7392320656829,5.809196331698626,-408.4077179782548,-424.23207556336126,0.0,0.35553056140630795,0.1,0.0827016830444336,0.8761820793151855,0.050102778,0.33133614,-421.0271835695032,-4.107528001031604,-4.169973652538893,0.0,400,0.025222063064575195,0.06557533049131384,0.05490569159307453,21600,-412.4456158849061,0.0
54,1.507758378982544,-418.4602480207117,7.8862585029293495,-405.5533464151796,-426.0851405601446,0.0,0.3814250343396395,0.1,0.08025741577148438,0.1481924057006836,0.049804088,0.32801503,-420.77049001462404,-4.114507123141008,-4.178011369958366,0.0,400,0.08571147918701172,0.07265115633156748,0.07302077711942491,22000,-408.6895621338338,0.0
55,1.6000611782073975,-423.6780239875121,5.9695909742600985,-414.29211546989563,-430.84562618104235,0.0,0.42016564064459605,0.1,0.0029594898223876953,0.06090879440307617,0.048994113,0.25327706,-421.06124341191287,-4.168469730743304,-4.230428302413572,0.0,400,0.03783059120178223,0.11008787084621612,0.08798101722863981,22400,-408.8009704421733,0.0
56,1.457446575164795,-418.89431092319614,6.6366997010854085,-409.2047203604551,-427.6198492578015,0.0,0.36178078309433426,0.1,0.0029833316802978516,0.05841970443725586,0.0499254,0.32574126,-420.8445501630412,-4.118213046021401,-4.181313271241243,0.0,400,0.02384781837463379,0.0725496431451594,0.06439095177596511,22800,-404.97848782800344,0.0
57,1.4023699760437012,-413.27257748621423,6.566909681075565,-402.93739913425935,-421.14863671655445,0.0,0.39243756109448064,0.1,0.0028302669525146484,0.06275010108947754,0.050802555,0.3131576,-420.08735289535855,-4.064601747190727,-4.126777587412664,0.0,400,0.041115760803222656,0.07316085702162373,0.0727820978217546,23200,-405.64739564005055,0.0
58,1.5208802223205566,-410.87076250050325,15.891517075614471,-389.61828339552983,-434.15228407613034,0.0,0.37181195099733894,0.1,0.002921581268310547,0.06171393394470215,0.049157046,0.30869895,-419.1656938558731,-4.03971301448377,-4.102597696922018,0.0,400,0.0442202091217041,0.07067498186601004,0.06921585007377867,23600,-409.57826670578385,0.0
59,1.38327956199646,-417.96040141334254,8.204965875074853,-405.00474533798086,-425.1901403506785,0.0,0.3773608757192957,0.1,0.0035729408264160156,0.05825448036193848,0.049851798,0.31614843,-419.04516461162007,-4.109203639990069,-4.172272879306405,0.0,400,0.04420757293701172,0.0743418885507232,0.07288399211627529,24000,-404.6987556694126,0.0
60,1.4371864795684814,-409.7132406725526,3.840519682300085,-406.7586817603137,-416.2001569277459,0.0,0.39020879564528327,0.1,0.0033349990844726562,0.05817246437072754,0.049846463,0.30169573,-418.1119722177133,-4.0285114707108765,-4.090849116374435,0.0,400,0.025564908981323242,0.06659654928097461,0.0655865608850998,24400,-406.5002754413353,0.0
61,1.3990082740783691,-424.4620653742752,10.795753119883093,-406.6657041211428,-433.74268677961396,0.0,0.3919209901596176,0.1,0.003025054931640625,0.05849957466125488,0.049904022,0.30134737,-418.74698153336954,-4.174863786863713,-4.237724799373368,0.0,400,0.1432197093963623,0.08120578012061289,0.07559997456902708,24800,-411.8578943068413,0.0
62,1.4077999591827393,-420.28043427684884,8.58828302797389,-406.2164443840187,-428.4917479493791,0.0,0.3861979963224602,0.1,0.0030188560485839844,0.05887174606323242,0.049458794,0.29261744,-418.9003268077175,-4.133585504136319,-4.1968161848909675,0.0,400,0.03115105628967285,0.1028397350665766,0.08423421406077695,25200,-414.2839782986862,0.0
63,1.4846160411834717,-424.9750033517272,5.171109190588531,-420.8638532724004,-433.84756347253295,0.0,0.3626330414970114,0.1,0.003003358840942383,0.06237673759460449,0.049930725,0.32695258,-419.50779446211845,-4.179124788474754,-4.242040224304611,0.0,400,0.025065898895263672,0.07168953332232406,0.0622445445654623,25600,-412.5693986351928,0.0
64,1.4697904586791992,-419.4195929147892,8.472321700003592,-408.3538992060429,-432.1644202528634,0.0,0.37572801952048135,0.1,0.002800464630126953,0.05715608596801758,0.04981801,0.3042143,-419.49897430738554,-4.123454402066407,-4.186872745510854,0.0,400,0.03602719306945801,0.07159659672867533,0.06244111346666699,26000,-411.16129193979185,0.0
65,1.4654464721679688,-425.6225112093977,6.50604534526869,-417.56048205791734,-433.2491508989492,0.0,0.39511027503831125,0.1,0.003131866455078125,0.060214996337890625,0.050065517,0.2957623,-420.1113279975868,-4.185275987017189,-4.248611717546282,0.0,400,0.025191545486450195,0.09738448630708466,0.09230507677826841,26400,-412.9642400038044,0.0
66,1.428924560546875,-426.1269823333644,6.268684295634171,-418.3621970938582,-432.84188383607676,0.0,0.3760315485176276,0.1,0.0032761096954345703,0.06133151054382324,0.04924367,0.3056401,-420.71289343116456,-4.191069565313536,-4.254000692676909,0.0,400,0.03027820587158203,0.07506767749447252,0.061364420388008885,26800,-410.82856875510873,0.0
67,1.492497205734253,-416.6670196125966,5.6047991285845535,-411.92043007649966,-425.8357528047121,0.0,0.39743897662447986,0.1,0.0029556751251220703,0.0619502067565918,0.04982357,0.28677493,-420.30830604930776,-4.097354321523891,-4.160845023630294,0.0,400,0.04231691360473633,0.06989762417429467,0.06999749248033381,27200,-409.441906954313,0.0
68,1.4734036922454834,-424.4384661055616,7.973917797564813,-411.197340393337,-432.51467349962786,0.0,0.36473206163740335,0.1,0.003322601318359375,0.062399864196777344,0.050014466,0.3221594,-420.7213220549331,-4.174514517970229,-4.2374887687623275,0.0,400,0.05907011032104492,0.0866382786348518,0.07794451144839451,27600,-406.97961788717413,0.0
69,2.2257885932922363,-428.9272711389475,10.089038174974268,-415.3857611938442,-439.60468324891434,0.0,0.3639383699439931,0.1,0.09555649757385254,0.11751365661621094,0.049271546,0.33625054,-421.5419169633346,-4.218503924852728,-4.28172776064421,0.0,400,0.039649248123168945,0.06552542636632419,0.06531305539554397,28000,-405.12448460250965,0.0
70,1.4094610214233398,-423.2042405076576,6.572974860469065,-413.45538047987327,-431.2111544773921,0.0,0.4110119703082501,0.1,0.0028166770935058594,0.057567596435546875,0.05007252,0.26831502,-421.7081493177669,-4.160748659123337,-4.22461553675636,0.0,400,0.02509331703186035,0.0749278765858309,0.0725437470895147,28400,-404.52307182542523,0.0
71,1.4713749885559082,-422.6487750906585,3.0257613497940845,-419.34447384547605,-427.53060113495917,0.0,0.39571033961586916,0.1,0.0034987926483154297,0.05760812759399414,0.049191542,0.3226367,-421.8022118950561,-4.156239940754539,-4.219663401831355,0.0,400,0.05740833282470703,0.06932406202114444,0.062316571723830885,28800,-403.48699856060256,0.0
72,1.674149751663208,-421.22699354542715,7.92737619945846,-412.197262600942,-433.47013749325464,0.0,0.37431892935372374,0.1,0.0033135414123535156,0.057738542556762695,0.048948515,0.3117841,-421.7446900600932,-4.141498891190671,-4.205097737601122,0.0,400,0.026941537857055664,0.0660734406840385,0.06327308923935786,29200,-405.99375627658384,0.0
73,1.3865771293640137,-426.5667523197715,4.281463963857817,-421.71583773274705,-431.846082795778,0.0,0.4037232015634866,0.1,0.0030477046966552734,0.05709052085876465,0.05098145,0.2628753,-422.22689628606105,-4.195832080172853,-4.258316909868643,0.0,400,0.023550987243652344,0.05845757663320818,0.05137228276942932,29600,-410.65893375713625,0.0
74,1.541409969329834,-426.0832828694506,6.464732310362169,-419.9599733310218,-436.9454725399256,0.0,0.3850895774354022,0.1,0.0030400753021240234,0.05674028396606445,0.049405027,0.3020599,-422.61253494440007,-4.1905540448219165,-4.253162074422603,0.0,400,0.03804898262023926,0.05061402808298274,0.049428174146655644,30000,-412.19540408436205,0.0
75,1.4090025424957275,-423.5252080474803,7.008815532365363,-417.51679799997544,-435.47314868205643,0.0,0.40270392601633537,0.1,0.002841949462890625,0.05719304084777832,0.04946705,0.2791679,-422.70380225470814,-4.164643495483895,-4.227598757150821,0.0,400,0.03953242301940918,0.07128400045281565,0.06566860955499043,30400,-411.57041409510884,0.0
76,1.5043456554412842,-423.95413894242984,9.96130228243663,-412.3638037607534,-434.2577728822149,0.0,0.35830100307237583,0.1,0.00283050537109375,0.06069684028625488,0.05017546,0.32511136,-422.8288359234803,-4.168540219768209,-4.231914836409623,0.0,400,0.048084259033203125,0.06101829991946174,0.05342088087363788,30800,-407.0768638649782,0.0
77,1.5435750484466553,-430.4090323365009,3.7114040708509015,-424.6674165755506,-434.922660549315,0.0,0.3788895804862508,0.1,0.0030434131622314453,0.05795097351074219,0.048640683,0.2845126,-423.5868555647824,-4.233440401299116,-4.295663277473291,0.0,400,0.12111258506774902,0.06624194947940895,0.06629768716036022,31200,-410.337108175552,0.0
78,1.4296936988830566,-426.74119699598054,4.850711419173875,-421.67123871081907,-432.8991079707111,0.0,0.36581795951988977,0.1,0.0031588077545166016,0.06011652946472168,0.04843457,0.31772467,-423.90228970790224,-4.197666984938747,-4.259798337759197,0.0,400,0.025857210159301758,0.05581886623313146,0.0548288200499717,31600,-408.6395955070022,0.0
79,1.4191462993621826,-427.791140951786,6.419248447054976,-418.59687631920235,-435.2021186610036,0.0,0.4121774492850119,0.1,0.003229379653930664,0.05636334419250488,0.050562523,0.27835208,-424.29117483229066,-4.208359074883874,-4.270467522117327,0.0,400,0.025354385375976562,0.05586370884088282,0.054081642235469456,32000,-399.16500456592615,0.0
80,1.4081149101257324,-425.31536596208423,5.895236176150663,-419.0164999227728,-434.5716856774403,0.0,0.4036283762489611,0.1,0.002927064895629883,0.057457923889160156,0.049706567,0.27392074,-424.39359394527,-4.18178974420505,-4.245472192998006,0.0,400,0.16167306900024414,0.053273601987586676,0.04891717557008575,32400,-409.70563149091595,0.0
81,1.4580917358398438,-438.7050906114787,2.808066407567919,-434.79508670332655,-442.1182223739373,0.0,0.4232771873445863,0.1,0.0030393600463867188,0.0583338737487793,0.04969904,0.27307162,-425.8247436118909,-4.314160705639451,-4.378454625090379,0.0,400,0.028407812118530273,0.06141375573866594,0.05586404221629995,32800,-411.835203833856,0.0
82,1.5431604385375977,-425.0326319089403,5.606242731307628,-418.9004289344424,-433.8804534464253,0.0,0.3624226186037009,0.1,0.00295257568359375,0.05959272384643555,0.049012274,0.35737315,-425.7455324415958,-4.1802045621150805,-4.242841118394391,0.0,400,0.03665637969970703,0.05739425760652278,0.056358399606255605,33200,-414.2030528336675,0.0
83,1.3971023559570312,-427.76521018567234,11.183047617220378,-409.8889755757175,-438.5448671436657,0.0,0.3596158583821027,0.1,0.0032501220703125,0.05693936347961426,0.04922891,0.34533516,-425.94750021600345,-4.207090070611354,-4.270383254417286,0.0,400,0.02550339698791504,0.05836121950145118,0.051363916239163206,33600,-408.03162429780923,0.0
84,1.4848535060882568,-426.57579342941807,9.277378251742881,-416.2319674789789,-435.9537196736209,0.0,0.3979971123384107,0.1,0.0029375553131103516,0.05708050727844238,0.049093876,0.2908652,-426.0103295373449,-4.195629783946149,-4.258775976606285,0.0,400,0.025583267211914062,0.08331724759628605,0.08192060811926025,34000,-411.2275890445257,0.0
85,1.419825792312622,-428.9586559532794,6.055144721263998,-419.4715787553041,-434.9643090600471,0.0,0.3928113570446505,0.1,0.0032312870025634766,0.05996108055114746,0.04977333,0.29155716,-426.30516217893836,-4.218235886864171,-4.282041384616179,0.0,400,0.029787778854370117,0.059319234933667746,0.058059740497155295,34400,-400.98856703589564,0.0
86,1.4267103672027588,-409.5674957770216,13.792516578565019,-394.6847967654857,-425.13546207007477,0.0,0.36458445561152364,0.1,0.0029935836791992188,0.05912160873413086,0.05077086,0.32191804,-424.6313955387467,-4.02711299943481,-4.090158881614,0.0,400,0.0269930362701416,0.05051798498140526,0.04568932522061491,34800,-400.9140196822321,0.0
87,1.4147160053253174,-423.17891755526813,8.207142941149858,-413.25603906475123,-434.9418470864297,0.0,0.37069773859939464,0.1,0.0031807422637939453,0.060851335525512695,0.049544573,0.31480098,-424.48614774039885,-4.1618345131819465,-4.22461605127319,0.0,400,0.06982946395874023,0.05508472326906058,0.04757807343020496,35200,-414.4391230335941,0.0
88,1.5734272003173828,-428.07195954806247,5.682848398307057,-419.32758366637916,-434.6734782019427,0.0,0.40010091784789126,0.1,0.0029854774475097656,0.05814957618713379,0.04913192,0.28102782,-424.84472892116526,-4.209556928452876,-4.272109511557159,0.0,400,0.026863574981689453,0.052675850150218244,0.05275103767707383,35600,-398.8880578271241,0.0
89,1.3923866748809814,-427.03842166931645,9.876802966780552,-410.6671937397274,-436.41041973673936,0.0,0.3721127293803932,0.1,0.0029218196868896484,0.058127403259277344,0.049475342,0.35102165,-425.06409819598036,-4.199409945144664,-4.2625179771444826,0.0,400,0.053911685943603516,0.0540160987279818,0.04718288606804233,36000,-393.29707218791185,0.0
90,1.446387529373169,-425.7140396740797,9.76148123870352,-413.4370781364338,-438.4734418652496,0.0,0.4088776198335689,0.1,0.0029015541076660156,0.058129310607910156,0.04953797,0.24733235,-425.12909234379026,-4.185806772972475,-4.249226421815829,0.0,400,0.04056978225708008,0.052853513145093435,0.05142864946050972,36400,-384.5041808099652,0.0
91,1.4892256259918213,-419.10328640586863,7.504110023707963,-407.57321898862614,-426.0741309006317,0.0,0.41241274051377197,0.1,0.03463602066040039,0.05906796455383301,0.049356885,0.26982093,-424.5265117499981,-4.1209648637978535,-4.184292610815155,0.0,400,0.18206405639648438,0.047217358999760844,0.045530387786242126,36800,-391.04763231819015,0.0
92,1.587022066116333,-415.9845412309977,10.321969323183172,-404.15827712802576,-432.0224963975742,0.0,0.38362819008321336,0.1,0.0030193328857421875,0.06184792518615723,0.04988464,0.29535076,-423.6723146980981,-4.091104135530186,-4.153159608364886,0.0,400,0.026632070541381836,0.05444552763968843,0.05326371603567138,37200,-409.3814781479669,0.0
93,1.5059254169464111,-408.7949710302179,3.31418891421578,-404.0296584316559,-413.3987015580221,0.0,0.40709901604230375,0.1,0.002882719039916992,0.05735349655151367,0.050477754,0.28749713,-422.1845803313101,-4.019370386901308,-4.082737506971031,0.0,400,0.04183650016784668,0.06539870374026441,0.063139152052879,37600,-411.5670546592612,0.0
94,1.4556152820587158,-420.7913326072788,4.046973508376073,-415.72584086693604,-425.6344652140712,0.0,0.38964478283475146,0.1,0.0030014514923095703,0.05889487266540527,0.050066084,0.3330842,-422.04525555890694,-4.136934546108624,-4.2005683824596804,0.0,400,0.04258990287780762,0.04720926032524924,0.04253791900345165,38000,-395.7666568784873,0.0
95,1.5517375469207764,-427.2733417009272,8.052508572679038,-419.36496130850736,-440.19793530947027,0.0,0.374053881801239,0.1,0.2534925937652588,0.07419228553771973,0.05096056,0.2836687,-422.56806417310895,-4.202714364557973,-4.265490434190909,0.0,400,0.07362055778503418,0.052547844970246234,0.051422575716483364,38400,-393.94341631433866,0.0
96,1.5230560302734375,-417.06151121249195,2.7115374993628207,-414.58422598844413,-421.29304730502423,0.0,0.37726055117441476,0.1,0.0036325454711914062,0.06450772285461426,0.05030049,0.31494614,-422.0174088770473,-4.101580913249548,-4.163707904925929,0.0,400,0.8307948112487793,0.04607771773260425,0.03867460575107136,38800,-400.762283212745,0.0
97,1.5076103210449219,-412.24852677000075,6.930491255589305,-405.24440457980177,-421.9496845271078,0.0,0.3850077418821428,0.1,0.003201723098754883,0.06548142433166504,0.04971267,0.28638056,-421.0405206663426,-4.0532124751015415,-4.117444550384205,0.0,400,0.05168628692626953,0.04333542293190635,0.04173146378046917,39200,-383.2536846703926,0.0
98,1.5571715831756592,-410.9566637400846,8.853061057882606,-403.27670419072297,-425.94178533031067,0.0,0.3813164439333009,0.1,0.003177165985107422,0.062349557876586914,0.048320584,0.30862594,-420.0321349737168,-4.039786863432316,-4.103888266938923,0.0,400,0.1704256534576416,0.03939607986361844,0.03918792076451698,39600,-388.8046076608591,0.0
99,1.4423091411590576,-421.3889368822121,14.451272399266221,-407.8568837957385,-443.01977196460507,0.0,0.3927796052390963,0.1,0.09330320358276367,0.4369966983795166,0.050061,0.28973103,-420.1678151645663,-4.1445184309317185,-4.207468856712061,0.0,400,0.49055910110473633,0.04469530788024967,0.03806821219304202,40000,-388.70876079063555,0.0
100,1.4590129852294922,-421.007762839352,5.701563846159767,-412.18942079243726,-427.2733492311083,0.0,0.38312349828151065,0.1,0.1838672161102295,0.18395781517028809,0.048671268,0.28487813,-420.2518099320449,-4.139765985909625,-4.202718337790908,0.0,400,0.02891230583190918,0.048130343371877035,0.04755068997724842,40400,-392.95726682692685,0.0
101,1.4951462745666504,-415.8857579651917,7.8771118504657744,-406.6617124141245,-428.2964643641522,0.0,0.36641249001684206,0.1,0.0036253929138183594,0.06270861625671387,0.05057199,0.36406773,-419.81520473535966,-4.0893679779502445,-4.152987310591406,0.0,400,0.025929927825927734,0.055004824235655156,0.040069144052260766,40800,-392.2246652585665,0.0
102,1.5155980587005615,-424.36977070747093,10.843703915137803,-407.6741916021971,-437.92500748073303,0.0,0.38578823422296527,0.1,0.003088712692260742,0.05741548538208008,0.049879357,0.29647017,-420.2706613325708,-4.1737973614246275,-4.236848220382829,0.0,400,0.0355074405670166,0.06391609058721398,0.05887389598787429,41200,-391.6815006465838,0.0
103,1.4894495010375977,-420.47245502584525,8.064608998964433,-411.5654533158559,-432.5118798876071,0.0,0.3904151200095129,0.1,0.0031120777130126953,0.05953216552734375,0.049304914,0.30440053,-420.2908407018983,-4.133814219378543,-4.197842210409651,0.0,400,0.029062747955322266,0.03798026183564277,0.03360138325952365,41600,-403.82848828246216,0.0
104,1.4130489826202393,-412.6718993209469,14.93002109264673,-395.9818349689259,-434.246790270147,0.0,0.3775393427295591,0.1,0.0033376216888427734,0.06436586380004883,0.049052,0.29726848,-419.5289465638032,-4.0574488811008695,-4.120513048428681,0.0,400,0.03629636764526367,0.043120830104443834,0.036616789413597486,42000,-405.2343352105524,0.0
105,1.4633660316467285,-412.8786964931354,12.090294410649523,-397.3779357317308,-424.9737884027354,0.0,0.3590122629884811,0.1,0.0032715797424316406,0.06426811218261719,0.049310684,0.4142301,-418.86392155673644,-4.058149286772532,-4.122410515492165,0.0,400,0.04221010208129883,0.0411141525217422,0.0388381577085269,42400,-408.64560924573925,0.0
106,1.6154661178588867,-419.97762764475164,16.099781095401525,-394.0310338928465,-436.8984763176002,0.0,0.39256608575209967,0.1,0.003297567367553711,0.07097768783569336,0.04894902,0.2864994,-418.97529216553795,-4.128103245434774,-4.193137135517816,0.0,400,0.053793907165527344,0.04854388363175539,0.0459974821062697,42800,-411.6811605085181,0.0
107,1.4782288074493408,-431.0584029363837,10.64935379462159,-413.5884903142897,-441.8414283401266,0.0,0.38603146949153283,0.1,0.003299713134765625,0.06347274780273438,0.050040618,0.2789194,-420.18360324262255,-4.238235327265471,-4.303019055944753,0.0,400,0.04945063591003418,0.03980948537313367,0.037591701375660674,43200,-412.0763240962704,0.0
108,1.485438346862793,-423.71444633307453,1.5984356706123932,-422.43479277311354,-426.42175245155437,0.0,0.3667146582125279,0.1,0.003051280975341797,0.06483697891235352,0.050408248,0.28446883,-420.5366875516678,-4.1657188443124,-4.230159907681413,0.0,400,0.5669913291931152,0.039457309821326426,0.03821400262619615,43600,-409.09436441413726,0.0
109,1.5076756477355957,-423.5598852165889,9.381313399555275,-413.00904958109237,-436.3460729131679,0.0,0.38159881645333216,0.1,0.11356997489929199,0.07074499130249023,0.048987098,0.2871895,-420.83900731815993,-4.164432669715046,-4.228797785866388,0.0,400,0.09385514259338379,0.0368141603545176,0.0361029167159151,44000,-401.47169817151524,0.0
110,1.5684871673583984,-425.2415472962236,11.038749512312389,-407.0146634980818,-436.5146514256935,0.0,0.38182573074685017,0.1,0.0032629966735839844,0.06352758407592773,0.049399022,0.2957185,-421.2792613159663,-4.182319582194545,-4.245318101161645,0.0,400,0.028051137924194336,0.04426704559316355,0.041472279009445966,44400,-408.07714648875464,0.0
111,1.4512667655944824,-420.6714586672161,13.141319075479036,-404.87100538762434,-436.2715953137551,0.0,0.39914759182549453,0.1,0.003201723098754883,0.06446290016174316,0.049264785,0.28383327,-421.2184810510913,-4.135678614537596,-4.200518010463199,0.0,400,0.03485846519470215,0.051383665547933687,0.046349324749901666,44800,-407.3891883631025,0.0
112,1.6772382259368896,-420.82767098610793,21.959408962326158,-384.53559995262754,-442.2506040358752,0.0,0.36464281761469813,0.1,0.003331422805786133,0.06152486801147461,0.04951555,0.2965905,-421.179400044593,-4.139213333168076,-4.2027256141234925,0.0,400,0.742750883102417,0.05350055578815248,0.050194769119489085,45200,-401.07706236113313,0.0
113,1.555281400680542,-413.99967087453325,9.892403841824013,-400.74550253988275,-425.5571709265595,0.0,0.3752488869384437,0.1,0.1738908290863037,0.29681897163391113,0.050376758,0.28828448,-420.46142712758706,-4.0703728031598665,-4.13393220061351,0.0,400,0.07489776611328125,0.03029581578950135,0.02889733187932998,45600,-402.71564035511096,0.0
114,1.4964473247528076,-422.4005768103654,10.595363307044373,-412.4225758286886,-437.5934533161928,0.0,0.3806414635940885,0.1,0.003447294235229492,0.06200003623962402,0.05014026,0.2687028,-420.6553420958649,-4.152826898152734,-4.216736657984663,0.0,400,0.08577799797058105,0.03392465975276389,0.03251801380605872,46000,-403.84255978093125,0.0
115,1.568260669708252,-417.84213768804875,12.49207518004502,-397.79226433062126,-429.58854270146855,0.0,0.36843503415352463,0.1,0.16380000114440918,0.10500860214233398,0.05033801,0.33807075,-420.3740216550833,-4.107977528010666,-4.172154168507955,0.0,400,0.0729978084564209,0.03208585388512656,0.030772488380934125,46400,-406.6957716129812,0.0
116,1.5100090503692627,-420.06174840024124,11.407395069163563,-405.0994827410715,-433.420910745118,0.0,0.4038611380269789,0.1,0.0032148361206054688,0.062193870544433594,0.04960971,0.26986322,-420.34279432959914,-4.129692711532742,-4.1939331801139925,0.0,400,0.03449749946594238,0.030456743115360323,0.029109324786933805,46800,-403.74573961996435,0.0
117,1.48992919921875,-427.7113946856289,5.937618492073548,-420.33736781053875,-436.8180291982991,0.0,0.4118241943193675,0.1,0.003803730010986328,0.06232619285583496,0.049666837,0.2615117,-421.07965436520215,-4.205679367930873,-4.270091970974692,0.0,400,0.06703996658325195,0.03079477821396743,0.028704898230986,47200,-417.88317641701707,0.0
118,1.4882409572601318,-424.8866679764193,7.565719532202107,-412.22998392767187,-430.77917493827454,0.0,0.4093212856970647,0.1,0.0037012100219726562,0.06276798248291016,0.04947465,0.2844118,-421.4603557263239,-4.178235992578867,-4.241611629990798,0.0,400,0.032021522521972656,0.03463418895005766,0.03361555333328311,47600,-415.8783532479353,0.0
119,1.556217908859253,-426.5128445054361,6.223378600892908,-415.9141884063174,-431.4151403575155,0.0,0.40072276034744486,0.1,0.0031261444091796875,0.0642552375793457,0.049541607,0.287962,-421.96560460423507,-4.193903364346539,-4.257594678604342,0.0,400,0.02746295928955078,0.028473458765190567,0.02768006901570331,48000,-414.8386974947022,0.0
120,1.4856796264648438,-422.1861349619438,8.812641145178654,-411.43894286966133,-432.74455463411005,0.0,0.41223691809136154,0.1,0.0034766197204589844,0.06403779983520508,0.050012227,0.28048512,-421.987657640006,-4.151464659591104,-4.216249260645379,0.0,400,0.055040836334228516,0.021370139168773422,0.02013282684408292,48400,-408.47144441332074,0.0
121,1.5765492916107178,-413.9326878854047,10.764857855774878,-401.9411585371659,-431.31789404512153,0.0,0.4099319538244537,0.1,0.0033228397369384766,0.06680655479431152,0.049954776,0.30020183,-421.18216066454585,-4.069787917440095,-4.134527566396694,0.0,400,0.11376547813415527,0.03156360260991382,0.028934698373988238,48800,-396.7862765171774,0.0
122,1.4861621856689453,-416.8546439974501,13.289865529490402,-401.96999719010233,-431.5236094363229,0.0,0.4089269082107366,0.1,0.0034563541412353516,0.06183958053588867,0.04902903,0.29152703,-420.74940899783627,-4.09960212254295,-4.163383734792822,0.0,400,0.3794209957122803,0.04170867794933919,0.027818132283711702,49200,-393.61193743564604,0.0
123,1.47210693359375,-418.71359806257914,13.301770215925043,-402.1202360261227,-436.46041476496316,0.0,0.4075174262267188,0.1,0.09456491470336914,0.3752555847167969,0.05066279,0.29405046,-420.5458279043106,-4.116725089088426,-4.181167827693305,0.0,400,0.12572407722473145,0.049020223781756855,0.026252255806686487,49600,-396.27415554788786,0.0
124,1.466193437576294,-424.50709827663843,14.193992116657553,-401.9488684107673,-441.238900039463,0.0,0.41453005703409906,0.1,0.0031266212463378906,0.061789512634277344,0.050147776,0.25503418,-420.94195494154343,-4.175142463200704,-4.238522086467567,0.0,400,0.05497288703918457,0.03087933648724393,0.028990250385707923,50000,-379.9639760312532,0.0
125,1.522873878479004,-410.9981918807193,15.897905514662458,-386.22583709045705,-429.88701153772826,0.0,0.37288826784043794,0.1,0.003359556198120117,0.0635523796081543,0.050161954,0.29680339,-419.947578635461,-4.04152371985286,-4.105050293070495,0.0,400,0.032704830169677734,0.0233237993272043,0.022081936782970442,50400,-371.84890201946223,0.0
126,1.4985182285308838,-421.388758465758,7.07528348951218,-411.7644226820648,-429.1410471802536,0.0,0.4089278048985763,0.1,0.007865667343139648,0.06460165977478027,0.049879957,0.2760881,-420.0916966184907,-4.14398617738984,-4.20780951976345,0.0,400,0.41828203201293945,0.029899034454069922,0.024222414555122182,50800,-389.1202349294617,0.0
127,1.5298962593078613,-406.24635717921126,14.73807599611827,-386.598878206138,-426.549758537507,0.0,0.39863525129442984,0.1,0.2790853977203369,0.4260547161102295,0.051536303,0.28016156,-418.70716267456277,-3.9944178006669326,-4.058344647922237,0.0,400,0.043676137924194336,0.04032508811782,0.03781057672920272,51200,-381.36749362648925,0.0
128,1.4460854530334473,-413.39773046471674,17.388216656463733,-387.2868209194325,-432.2881577833402,0.0,0.391306596518507,0.1,0.0032091140747070312,0.06426048278808594,0.050213985,0.2742791,-418.1762194535782,-4.0656192009902865,-4.129565306768688,0.0,400,0.06872296333312988,0.031027845564822066,0.029554028355062247,51600,-380.7327619133151,0.0
129,1.4963581562042236,-400.41619320200346,19.7962357092933,-381.18585085784196,-432.4722328094325,0.0,0.38658661224571855,0.1,0.0955660343170166,0.10379290580749512,0.05103568,0.31456187,-416.40021682842075,-3.9374790504622688,-4.000819389679127,0.0,400,0.0743107795715332,0.0308216985822279,0.028345527560160462,52000,-381.50687568257337,0.0
130,1.5307691097259521,-418.28949366794063,7.230561515444693,-410.1617132982442,-429.98178710060097,0.0,0.3983754294942062,0.1,0.0031745433807373047,0.06248974800109863,0.05055221,0.27147928,-416.58914451237274,-4.1135669762061005,-4.176330976466046,0.0,400,0.03665947914123535,0.04344803013236772,0.038287808522115684,52400,-379.0247478703489,0.0
131,1.474581003189087,-405.2755747561258,7.076198087622173,-394.01646968224395,-412.85025676517523,0.0,0.39493133253348406,0.1,0.003585338592529297,0.06451582908630371,0.050029974,0.25736487,-415.45778753674807,-3.9850536531556164,-4.0482688061289105,0.0,400,0.06581926345825195,0.027538728127452276,0.016515693979836033,52800,-376.6284011205148,0.0
132,1.4523913860321045,-400.67286575563537,6.089034577812084,-391.5704342937233,-407.99780946100327,0.0,0.3547912180830767,0.1,0.10501480102539062,0.06290388107299805,0.04874092,0.34265465,-413.9792953586368,-3.9389027983833405,-4.0027694521079376,0.0,400,0.06051516532897949,0.03413111087601268,0.026508029116306137,53200,-380.6060479371685,0.0
133,1.4763662815093994,-404.60207074525505,10.975591282016463,-387.3601149797436,-417.00167214548674,0.0,0.3922482480093651,0.1,0.0030994415283203125,0.06276106834411621,0.049009982,0.2611458,-413.04157289729864,-3.9774641306159877,-4.041078850808465,0.0,400,0.09231424331665039,0.045880357457304774,0.03571326896713645,53600,-375.9803360704436,0.0
134,1.4868171215057373,-399.3445926020395,9.482900748849971,-389.33027933063545,-413.7492060368279,0.0,0.36932792096766387,0.1,0.0029680728912353516,0.06182551383972168,0.049772125,0.29328308,-411.6718748677727,-3.9255658785396075,-3.989290610917608,0.0,400,0.03539013862609863,0.06776856555495417,0.04470132704403469,54000,-375.0585390478161,0.0
135,1.5315117835998535,-410.80948755603583,8.440334788493669,-401.6670887269812,-422.83309942699987,0.0,0.38295070533002995,0.1,0.18375945091247559,0.48999953269958496,0.051395655,0.31408665,-411.585636136599,-4.038703428797087,-4.102344994934755,0.0,400,0.042738914489746094,0.02474003218378491,0.024626369582671774,54400,-372.3488073310538,0.0
136,1.56121826171875,-425.6366257273325,10.00338081919585,-410.4940279396649,-435.1894196131206,0.0,0.42698287431889664,0.1,0.17968463897705078,0.10207557678222656,0.050624028,0.24096328,-412.99073509567233,-4.185721427003186,-4.2499162472568655,0.0,400,0.049859046936035156,0.032267441347368996,0.03023113144375841,54800,-372.0713577901709,0.0
137,1.5596835613250732,-407.94988055861154,19.400628758861288,-377.9722748462982,-432.2558067178481,0.0,0.39186081210163926,0.1,0.0031671524047851562,0.062323570251464844,0.048731994,0.29057208,-412.48664964196627,-4.01119793257557,-4.075213173745814,0.0,400,0.05609250068664551,0.03103922551526408,0.028233538759960947,55200,-373.27682472773614,0.0
138,2.428553342819214,-412.71249233983576,13.38892744824078,-391.0364481251383,-426.16241332098537,0.0,0.4108838813935954,0.1,0.018403291702270508,0.06558060646057129,0.050341677,0.27709135,-412.5092339117532,-4.058315032517101,-4.121832348057286,0.0,400,0.031068801879882812,0.030213760926563006,0.025300725840221156,55600,-372.85337206969695,0.0
139,1.6577856540679932,-410.4280078538519,15.837833104037818,-386.4239818785695,-430.36223980670746,0.0,0.4037107687210372,0.1,0.17402935028076172,0.07480716705322266,0.049638595,0.280226,-412.3011113059631,-4.036918954624702,-4.100302673826845,0.0,400,0.0595393180847168,0.03677597686660465,0.0358631827911518,56000,-368.24430739082095,0.0
140,1.6963422298431396,-398.13875030607403,11.728465152279057,-377.9211686401867,-406.74058718569194,0.0,0.38202298897350156,0.1,0.14046096801757812,0.281602144241333,0.05030565,0.2694152,-410.8848752059742,-3.913904453369703,-3.9781039147628166,0.0,400,0.1041402816772461,0.03730175026504553,0.028775358140997145,56400,-366.37964115403344,0.0
141,1.6509060859680176,-415.7545398372986,11.098281225683824,-398.3841914179809,-426.59009555730137,0.0,0.4150111017473329,0.1,0.08706998825073242,1.1488852500915527,0.0511186,0.26859415,-411.37184166910663,-4.088581755868263,-4.151886309994898,0.0,400,0.07308197021484375,0.03411961857719592,0.029983072084610922,56800,-357.0316263161258,0.0
142,1.5026299953460693,-408.4886993812626,14.218424852547336,-394.6916745780729,-431.08733557098236,0.0,0.38022699887049205,0.1,0.003200054168701172,0.06272101402282715,0.04858336,0.3018078,-411.08352744032226,-4.017726888903439,-4.080334899044503,0.0,400,0.05388593673706055,0.023092328302092326,0.023537376746747073,57200,-367.39503435797207,0.0
143,1.4608287811279297,-416.8398982474056,9.365821835579883,-405.39821207453735,-427.8673547432843,0.0,0.4338258718072899,0.1,0.0037240982055664062,0.06401538848876953,0.049804028,0.24776144,-411.65916452103056,-4.098725208038244,-4.163041158041102,0.0,400,0.03920173645019531,0.03252106015373309,0.03207772113117904,57600,-358.5289726817541,0.0
144,1.5083999633789062,-413.0470751112479,4.7681178624878156,-406.93114886789266,-419.08376653250525,0.0,0.3700262148652855,0.1,0.0033910274505615234,0.06244063377380371,0.05028834,0.29563692,-411.7979555800523,-4.062977277082613,-4.126738764971943,0.0,400,0.0985257625579834,0.028832236406943833,0.02571417493906433,58000,-356.6907712778868,0.0
145,1.4627845287322998,-415.24308647441757,7.612518985503808,-407.30574584486106,-426.49709394729985,0.0,0.4016797186060321,0.1,0.003034830093383789,0.060400962829589844,0.049260177,0.26305678,-412.14246866948884,-4.084277430153348,-4.147033201688404,0.0,400,0.06027674674987793,0.029624045746735137,0.027378894754359694,58400,-357.1918061431124,0.0
146,1.4617948532104492,-410.29432854879235,15.109766981199666,-392.7354383546409,-429.9287702240838,0.0,0.3886807401271932,0.1,0.0035524368286132812,0.06303071975708008,0.04986669,0.28281394,-411.9576546574192,-4.034612682510057,-4.098326595906527,0.0,400,0.03484606742858887,0.03088095648548167,0.030393810098987825,58800,-359.54751761792585,0.0
147,1.5693457126617432,-408.3897603488528,9.493977560835168,-392.57879090273883,-416.75479876833157,0.0,0.3958375236227821,0.1,0.0031948089599609375,0.06287789344787598,0.050025135,0.2819525,-411.6008652265626,-4.016490358864569,-4.079465167518369,0.0,400,0.0634770393371582,0.025396825451313887,0.024251531292635062,59200,-360.27359626845276,0.0
148,1.5084364414215088,-402.3584660506965,5.512948005300155,-396.4932430065457,-410.88458400071806,0.0,0.3905019793079276,0.1,0.0034606456756591797,0.06174039840698242,0.04978822,0.27575344,-410.676625308976,-3.957513663484752,-4.020122335086995,0.0,400,0.26314473152160645,0.021083960344445242,0.02047720229865695,59600,-338.57370858723016,0.0
149,1.5097236633300781,-408.2153270289077,9.594752611874844,-393.44026393599853,-419.1170077238179,0.0,0.3982026662965921,0.1,0.004331111907958984,0.06868648529052734,0.050156657,0.26745015,-410.43049548096917,-4.015513882136378,-4.077897386321303,0.0,400,0.07548928260803223,0.030873008346267113,0.024891817671104058,60000,-357.67980118340984,0.0
150,1.581193208694458,-402.5764881412587,9.57583420770821,-389.33555512379127,-412.6769350620255,0.0,0.38713206973986114,0.1,0.0029144287109375,0.060640573501586914,0.049205273,0.28074467,-409.6450947469981,-3.9605091730591253,-4.022564374791992,0.0,400,0.03174877166748047,0.03455133563043166,0.03221113286689173,60400,-356.96964876890615,0.0
151,1.5949811935424805,-398.60771931550454,4.90688483056362,-392.91823283730344,-406.26777532870557,0.0,0.3882456083300417,0.1,0.003320932388305664,0.0635218620300293,0.05080689,0.29048428,-408.54135720384875,-3.9199166905312697,-3.983828771949517,0.0,400,0.575756311416626,0.033705226636539624,0.03166396471985161,60800,-357.07242392378015,0.0
152,1.4990143775939941,-398.91963508935095,12.82404015505383,-377.87741736528915,-411.5149894596032,0.0,0.40238668610741646,0.1,0.10340666770935059,0.367856502532959,0.049234226,0.25095958,-407.57918499239895,-3.9234658611074407,-3.9864514947571354,0.0,400,0.03344011306762695,0.025163600688903966,0.022383488975771786,61200,-356.5331151981217,0.0
153,1.5272490978240967,-409.43292609777797,7.513496134578426,-398.35242731291004,-419.32051238339244,0.0,0.3981715833780851,0.1,0.09095025062561035,0.10486221313476562,0.050497476,0.27590957,-407.76455910293686,-4.027069315743244,-4.090277262531831,0.0,400,0.09554028511047363,0.026551854186036717,0.02053971265388516,61600,-359.89338412566417,0.0
154,1.6038601398468018,-401.20997399670034,5.0099827357701905,-395.38355198075874,-409.065324378991,0.0,0.4369674874517193,0.1,0.003037691116333008,0.05944633483886719,0.05021989,0.24275835,-407.1091005923132,-3.9442585823615883,-4.008391983189032,0.0,400,0.1343076229095459,0.022836699367601226,0.018702438055483033,62000,-362.0300944231617,0.0
155,2.222001314163208,-407.7836639213783,13.30469933422421,-388.1538961195565,-422.9337061244766,0.0,0.42151295990836163,0.1,0.09839820861816406,1.560063362121582,0.050175525,0.28106773,-407.17655692521976,-4.011156181775249,-4.074022496588038,0.0,400,0.5940651893615723,0.0314528861959055,0.030091248226998872,62400,-357.1484152095649,0.0
156,1.5153727531433105,-407.86143881135894,15.139948842093402,-384.61140390830815,-425.3511994381914,0.0,0.3867168139855373,0.1,0.003155946731567383,0.059586286544799805,0.050597414,0.32752115,-407.24504511383367,-4.012066808124923,-4.07413148147891,0.0,400,0.043843984603881836,0.019971079707188616,0.017729548975479636,62800,-360.5964617390395,0.0
157,1.5062191486358643,-412.6833407494963,12.343495905464792,-391.8280941206495,-423.3832769806311,0.0,0.41022467347686625,0.1,0.003234386444091797,0.06287050247192383,0.050010204,0.30320823,-407.7888746773999,-4.0600737457146066,-4.122501198971922,0.0,400,0.04015707969665527,0.03277383365460017,0.020633134359667737,63200,-347.6122975864318,0.0
158,2.02854323387146,-401.12999544241103,12.711053983162758,-386.26223595513267,-416.1560188064666,0.0,0.4296484455570395,0.1,0.003090381622314453,0.061484336853027344,0.04962787,0.27657926,-407.12298675390105,-3.946858402538777,-4.008700527989432,0.0,400,0.0525667667388916,0.04160103596971737,0.02948303297665917,63600,-342.75592424605566,0.0
159,1.4805071353912354,-414.12122253298844,9.202043543835524,-400.6632022272439,-426.3108966202721,0.0,0.4319825119372193,0.1,0.07727432250976562,0.06319499015808105,0.050706435,0.26235318,-407.82281033180976,-4.074519244771578,-4.1369364305137815,0.0,400,0.43227696418762207,0.021688168962155883,0.019162355590288983,64000,-328.00391302585376,0.0
160,1.7473654747009277,-420.10161224786884,4.3695594877561,-417.1294644726423,-427.65453793014615,0.0,0.40067582314044936,0.1,0.0035445690155029297,0.06388568878173828,0.04886572,0.27493653,-409.05069052341565,-4.133364453215283,-4.195627357145554,0.0,400,0.03543257713317871,0.017000222542552585,0.016105868489289923,64400,-353.570740489713,0.0
161,1.4897818565368652,-397.53561142686584,24.966801587001815,-359.44599850694635,-429.4140194435573,0.0,0.42031841060961966,0.1,0.0032303333282470703,0.06346535682678223,0.049647674,0.2429383,-407.8991826137607,-3.9098209850181043,-3.972450413429052,0.0,400,0.03816652297973633,0.035449019115705645,0.03175677969639472,64800,-351.5696831339401,0.0
162,1.485907793045044,-408.5768669243225,17.824558001093227,-391.9182255906525,-435.1974205734291,0.0,0.3875158667256674,0.1,0.0030815601348876953,0.06081414222717285,0.049507733,0.27439043,-407.9669510448169,-4.018790035578964,-4.081998239672788,0.0,400,0.03485512733459473,0.03112877017622347,0.029431419201712137,65200,-351.886287198794,0.0
163,1.4880914688110352,-394.4924364268903,16.237060424204493,-369.96424242967714,-414.99116801652855,0.0,0.4118366633366495,0.1,0.003194093704223633,0.06353020668029785,0.050857436,0.26024854,-406.61949958302426,-3.8803447481141027,-3.943516843917052,0.0,400,0.10161185264587402,0.024176614786377205,0.02033057605920882,65600,-349.43586636297204,0.0
164,1.5573208332061768,-392.12402965228796,18.01046991827631,-374.1674333578736,-416.7958435004574,0.0,0.41954075014789977,0.1,0.0029251575469970703,0.05893683433532715,0.050089713,0.25201768,-405.16995258995064,-3.8559674300476567,-3.9187088851496927,0.0,400,0.035022735595703125,0.029932455027229462,0.025867908083634192,66000,-350.3046927641369,0.0
165,1.4556763172149658,-405.09025065617953,10.232535811701476,-391.5806137289369,-420.39567943797834,0.0,0.4221267204108534,0.1,0.09327435493469238,0.06621694564819336,0.05034088,0.26549977,-405.16198239657353,-3.9856437955759176,-4.047961930771981,0.0,400,0.8967053890228271,0.01933162223325558,0.01906584537003126,66400,-358.980413704559,0.0
166,1.4795589447021484,-413.33126005721607,4.202619577096574,-408.51151184737915,-419.90833791969527,0.0,0.39732994529967114,0.1,0.2335069179534912,0.22920656204223633,0.049404405,0.28289184,-405.9789101626378,-4.065269667336504,-4.1284918605988885,0.0,400,0.1110684871673584,0.020003443581575103,0.019145823798865622,66800,-352.43085183254266,0.0
167,1.5563602447509766,-403.9132970061919,14.506368751905617,-388.57025343527874,-421.2968774316271,0.0,0.42127817736112316,0.1,0.0032334327697753906,0.0650942325592041,0.050534517,0.27092215,-405.7723488469933,-3.9725793577992876,-4.035669197234822,0.0,400,0.07380819320678711,0.0359316755942153,0.032713911382618255,67200,-353.3234054656143,0.0
168,1.533280849456787,-403.96830373200606,9.371270750549236,-391.06377241788437,-413.6514118186697,0.0,0.42198352588030136,0.1,0.09163594245910645,0.6086418628692627,0.050265953,0.28504708,-405.5919443354946,-3.9744866988540988,-4.036454070286736,0.0,400,0.06040525436401367,0.025225524299329418,0.02361463811956601,67600,-363.1952874832205,0.0
169,1.4466760158538818,-398.78216372062104,10.054482179617382,-390.5376378872165,-415.8855405172765,0.0,0.4201385412140286,0.1,0.2582106590270996,0.3007190227508545,0.050325323,0.26501426,-404.91096627400725,-3.9235274711618877,-3.985656323289359,0.0,400,0.07917904853820801,0.018878770705124774,0.01893456857187783,68000,-363.55690942751556,0.0
170,1.5455060005187988,-394.413254610681,16.713266128893643,-373.9012657081796,-411.7375242186703,0.0,0.38782250369662863,0.1,0.003509998321533203,0.06562089920043945,0.04897908,0.32075474,-403.86119510767463,-3.8795773072529878,-3.9419537800840754,0.0,400,0.04148364067077637,0.014460542004192932,0.013778670907934335,68400,-359.9622380799794,0.0
171,1.4647791385650635,-398.52077174251497,9.57172799930584,-386.873313970893,-409.18531242276146,0.0,0.37404104579006425,0.1,0.003263235092163086,0.06067347526550293,0.050499536,0.3154924,-403.3271527711587,-3.920527713488158,-3.983241208294408,0.0,400,0.04315590858459473,0.01723333012299464,0.014368151196895478,68800,-359.5144346626649,0.0
172,1.4901485443115234,-386.33301722102766,2.817126533661659,-381.53780198351757,-388.6920949068014,0.0,0.3980241891903426,0.1,0.0032672882080078125,0.06018805503845215,0.049160868,0.2736103,-401.6277392161456,-3.799917614435141,-3.862071443087734,0.0,400,0.6752269268035889,0.018223178240984916,0.017268412948053934,69200,-358.2541582389051,0.0
173,1.4828386306762695,-392.90401749098424,11.844684601293702,-376.08680412703706,-405.93754386274804,0.0,0.39923654343475423,0.1,0.09453749656677246,0.16800951957702637,0.050098825,0.262278,-400.75536704362946,-3.8636544047889947,-3.9271218408973265,0.0,400,0.06550097465515137,0.015177042211785778,0.014066036302621278,69600,-358.43124544367953,0.0
174,1.4844024181365967,-408.8890942222283,5.545369796611564,-401.27368377108405,-416.6455685176553,0.0,0.4539231209259784,0.1,0.10896158218383789,0.2062206268310547,0.050026428,0.2404002,-401.5687397614894,-4.022071203668594,-4.085408529552639,0.0,400,0.07209324836730957,0.02584146821081667,0.024418853606878402,70000,-356.84901504942906,0.0
175,1.4437243938446045,-407.10907832200945,7.0582383399565956,-396.6668239932937,-414.37678015287054,0.0,0.4389436215897937,0.1,0.003289937973022461,0.0656120777130127,0.04742301,0.23229407,-402.1227736175414,-4.003889823433246,-4.067893962951523,0.0,400,0.05470848083496094,0.026561639110343788,0.024941986539134747,70400,-356.7431802532806,0.0
176,1.493009090423584,-403.380710278645,14.729931772323106,-385.72388150535335,-419.8677109145606,0.0,0.38890424570059456,0.1,0.0307161808013916,0.06825804710388184,0.05042165,0.27269852,-402.24856728365177,-3.966956976035985,-4.030286409439793,0.0,400,0.09625792503356934,0.0207213533230709,0.01514185979531695,70800,-356.9006920656277,0.0
177,1.587620735168457,-396.520684822539,14.099513292419694,-375.9011473037946,-414.41010395121555,0.0,0.4008054966451059,0.1,0.003369569778442383,0.06247353553771973,0.048376914,0.27075914,-401.6757790375405,-3.90018575085334,-3.963394905279401,0.0,400,0.06532645225524902,0.021257971474114287,0.020138224049812962,71200,-356.0319507835261,0.0
178,1.5545399188995361,-389.81702453090105,8.999091922097517,-379.13311433415026,-402.2944544112395,0.0,0.40836393584882147,0.1,0.003269672393798828,0.06426620483398438,0.049863458,0.2742658,-400.4899035868766,-3.833727289060947,-3.896036061140369,0.0,400,0.07598567008972168,0.04177672792345453,0.031233972381563824,71600,-357.88504291459645,0.0
179,1.5793626308441162,-391.5263388161176,2.2378510404920857,-388.43588316364253,-394.0055373750563,0.0,0.43254968476267003,0.1,0.003429889678955078,0.06434774398803711,0.048955183,0.30365005,-399.59354710980074,-3.8482181056995977,-3.913373747402256,0.0,400,0.03992581367492676,0.015573891042558269,0.013103321330969907,72000,-356.4965700422258,0.0
180,1.5600297451019287,-400.29271754582396,12.072979965077726,-387.1330647689563,-413.6022206248071,0.0,0.38484725081247345,0.1,0.1188514232635498,0.8946058750152588,0.05071145,0.29450276,-399.6634641534031,-3.9355681844072046,-3.999976173150893,0.0,400,0.1607658863067627,0.0229085799016906,0.021950105374753198,72400,-356.9373923989367,0.0
181,1.5745344161987305,-406.6898381862466,9.07547630060548,-396.89737599996926,-418.0942804417432,0.0,0.4080449860290726,0.1,0.0035266876220703125,0.06761646270751953,0.05014008,0.30038992,-400.36610155668745,-3.998621593745996,-4.062850509496445,0.0,400,0.07033443450927734,0.02104179420508515,0.019600421557755387,72800,-356.5948826099262,0.0
182,1.4258215427398682,-406.5382794679822,8.47498200515517,-395.01483280139246,-418.91040445372477,0.0,0.3902488724168301,0.1,0.003244161605834961,0.06827712059020996,0.051902615,0.34404376,-400.983319347817,-3.997660791642995,-4.061301099696405,0.0,400,0.05531668663024902,0.02366804480439891,0.02231878988767732,73200,-357.99748115611675,0.0
183,1.4711358547210693,-402.2988009081437,12.770409395139055,-380.2475792355502,-411.21303284932867,0.0,0.398253163331376,0.1,0.0032787322998046875,0.05953097343444824,0.048801657,0.27728623,-401.11486750384967,-3.955380925397718,-4.0197865087689,0.0,400,0.044687747955322266,0.017535320712797203,0.015969180140335302,73600,-361.1493235552304,0.0
184,1.5596466064453125,-403.5863102701453,5.0313763718879585,-398.2985336970177,-411.5718037896266,0.0,0.41679071332598816,0.1,0.002982616424560547,0.06163740158081055,0.051185142,0.23528734,-401.36201178047924,-3.966702893079429,-4.032312951458316,0.0,400,0.05364656448364258,0.016860607527280524,0.016050980704637553,74000,-357.6029518112794,0.0
185,1.487222671508789,-406.2096557817358,5.083807757910484,-397.9320994741186,-411.37816575970345,0.0,0.42610387013014517,0.1,0.003535747528076172,0.06665158271789551,0.050857373,0.25365883,-401.8467761806049,-3.9930040047518425,-4.057719515908388,0.0,400,0.07106924057006836,0.02028777662405811,0.017202756234054026,74400,-355.6314562054424,0.0
186,1.6276257038116455,-409.7187663495968,4.175174745701869,-403.32503897623104,-413.49420212098096,0.0,0.4270113199350451,0.1,0.003448009490966797,0.06055259704589844,0.049719457,0.23393002,-402.63397519750407,-4.030464981416307,-4.094493186893379,0.0,400,0.04487109184265137,0.018619687252483082,0.01308755936559358,74800,-357.2573142301967,0.0
187,1.5510106086730957,-403.3067199453572,13.869411767002987,-387.0682097020279,-423.24655907491893,0.0,0.42535120130816434,0.1,0.003393411636352539,0.06387758255004883,0.050048534,0.262566,-402.70124967228935,-3.9636646817626175,-4.029214267311961,0.0,400,0.04845595359802246,0.013767612102896195,0.010951341725200348,75200,-355.4803821663327,0.0
188,1.4708309173583984,-405.40127975009034,13.379203171728099,-383.1887519126934,-418.9913377851591,0.0,0.3986278132070321,0.1,0.0031359195709228516,0.06428074836730957,0.049907107,0.2960475,-402.9712526800695,-3.9873856113367667,-4.050340574929052,0.0,400,0.07542657852172852,0.016108168615064488,0.015484608703530791,75600,-356.0011396353072,0.0
189,1.5697836875915527,-399.07125633317605,9.368146209646083,-386.1974202207764,-411.41108715694054,0.0,0.41221796209360356,0.1,0.0035028457641601562,0.06234931945800781,0.050627705,0.249053,-402.58125304538015,-3.9222478174678215,-3.987660740273504,0.0,400,0.07011032104492188,0.01928940468649116,0.01181654203678424,76000,-354.17979133986086,0.0
190,1.60770845413208,-397.62574223705406,9.469118351366715,-388.6890847513769,-412.6874717456516,0.0,0.39640175689797646,0.1,0.003173351287841797,0.059700965881347656,0.049789347,0.29749635,-402.0857019645476,-3.9076555900197927,-3.973184581637991,0.0,400,0.039572954177856445,0.016374697315627552,0.014712490651206106,76400,-356.1333429369579,0.0
191,1.5209288597106934,-400.974586456637,10.006161598849587,-384.4747218141522,-411.4630181404118,0.0,0.4039422981331557,0.1,0.003261566162109375,0.06229519844055176,0.0503788,0.30590877,-401.9745904137566,-3.9430583380830204,-4.006793902965152,0.0,400,0.08184075355529785,0.014831058359382702,0.013967773915399048,76800,-355.57691031963867,0.0
192,1.5702242851257324,-402.4767333226116,5.009807454450602,-397.6376476069823,-410.8552390629102,0.0,0.44042677213038034,0.1,0.003711700439453125,0.06278443336486816,0.050069243,0.2543155,-402.0248047046421,-3.956583274572174,-4.022111124246279,0.0,400,0.04735612869262695,0.013819130875934713,0.011540591549761236,77200,-355.1736662032178,0.0
193,1.5467617511749268,-399.7245981836797,19.417681497278526,-368.7997987442079,-421.7059503361876,0.0,0.3878427402290464,0.1,0.0034432411193847656,0.058860063552856445,0.049187247,0.29687923,-401.7947840525459,-3.930435709150631,-3.9946863986993946,0.0,400,0.05806231498718262,0.015114855541508349,0.011478804275500689,77600,-356.7646172027093,0.0
194,1.489112138748169,-404.6954673814991,12.97553750795583,-385.19291748081724,-418.62383730687213,0.0,0.41184461578890147,0.1,0.0028007030487060547,0.0598597526550293,0.049785685,0.26830247,-402.0848523854412,-3.9792656322375195,-4.043789816222638,0.0,400,0.036249637603759766,0.012328847568206392,0.009902555241224877,78000,-356.1183037688838,0.0
195,1.4831340312957764,-391.7947152031267,2.1928927520781283,-388.07697702081066,-393.73915070057626,0.0,0.4540452437357268,0.1,0.0032253265380859375,0.06386327743530273,0.0499655,0.23599637,-401.0558386672098,-3.848891538071199,-3.915853565330949,0.0,400,0.9368455410003662,0.018567782253032794,0.014247710043618078,78400,-355.83506485633376,0.0
196,1.4598336219787598,-396.1648966755055,4.989955919505938,-389.2996233285832,-402.09000070201546,0.0,0.38783641162591426,0.1,0.0035393238067626953,0.06706905364990234,0.049711294,0.2888631,-400.56674446803936,-3.8937879882114697,-3.9597938334754996,0.0,400,0.10825657844543457,0.014484468259510094,0.013237910191128622,78800,-355.4688269679148,0.0
197,2.3026013374328613,-395.31839702816245,10.28620750537256,-380.2215705476244,-405.1016513887658,0.0,0.4138150689943166,0.1,0.0032472610473632812,0.06035923957824707,0.05077879,0.29286063,-400.04190972405166,-3.883564946227417,-3.950618368349427,0.0,400,0.041138648986816406,0.020133871017382104,0.01846753017715663,79200,-354.848605543182,0.0
198,1.460949182510376,-396.4729165700662,6.791246732690124,-386.4771971022293,-403.45554172736297,0.0,0.451235911062453,0.1,0.0030541419982910156,0.06028389930725098,0.050193973,0.23908998,-399.6850104086531,-3.896863026225682,-3.9633502861043395,0.0,400,0.16176867485046387,0.010301096673680973,0.009933406562278818,79600,-354.0112412572433,0.0
199,1.546762228012085,-385.7849729122156,10.278831305122111,-374.12639647137087,-402.0280850390494,0.0,0.3556418432792723,0.1,0.0035119056701660156,0.06377649307250977,0.050042305,0.31358138,-398.29500665900935,-3.7910788254546874,-3.8563548902363616,0.0,400,0.07205796241760254,0.01432644615666744,0.013820132416840759,80000,-355.5397818543285,0.0
200,2.046006441116333,-390.28154872600174,3.079722668895886,-387.71171430946146,-395.2667278968773,0.0,0.43770762084552883,0.1,0.2552776336669922,1.4331378936767578,0.048654977,0.23457941,-397.4936608657086,-3.8363661253420283,-3.9016315852824492,0.0,400,0.08267331123352051,0.01602821735080013,0.014926653898104712,80400,-356.37888545096,0.0
201,1.5146360397338867,-385.03522090590263,6.473169129749359,-379.6491286401139,-396.0619260745291,0.0,0.40402897135155325,0.1,0.003194093704223633,0.05991339683532715,0.050970543,0.23880611,-396.247816869728,-3.785082939532778,-3.8502525619564887,0.0,400,0.15957164764404297,0.02289379344814287,0.018645344034532635,80800,-357.4719764244601,0.0
202,1.4547345638275146,-390.29903936498073,8.401479581823311,-381.32865729897486,-403.2208527752788,0.0,0.4022652880718638,0.1,0.003026247024536133,0.06036996841430664,0.050427098,0.24634743,-395.65293911925335,-3.836732450118772,-3.9023559341953464,0.0,400,0.051497697830200195,0.017620250606582594,0.011489559007146845,81200,-360.018274025445,0.0
203,1.568218469619751,-389.89185792187175,2.64710457395022,-385.6254914848572,-392.58009562919636,0.0,0.4384148577309798,0.1,0.0033457279205322266,0.05926179885864258,0.050454453,0.24000774,-395.0768309995152,-3.831010927001252,-3.8972726485264197,0.0,400,0.03853487968444824,0.011298888621295348,0.009335423682032214,81600,-360.91737888551853,0.0
204,1.471146821975708,-392.2475520051738,7.874952059215774,-385.8043726912931,-405.72540718917446,0.0,0.35938392614174725,0.1,0.0807642936706543,1.2902085781097412,0.049948234,0.3009116,-394.7939031000811,-3.8554192233849296,-3.9208909707266146,0.0,400,0.15037250518798828,0.014249024655847079,0.013402580865153108,82000,-356.21766820991087,0.0
205,1.4977822303771973,-380.4351141228389,6.149505996555457,-374.18511442780755,-390.53491066969474,0.0,0.3909342447019746,0.1,0.002949237823486328,0.07811450958251953,0.049151763,0.28057563,-393.3580242023569,-3.737460626896905,-3.804247808325479,0.0,400,0.09134054183959961,0.017970362712214003,0.01635214802478627,82400,-355.26404766932,0.0
206,1.6019809246063232,-377.2473954386627,17.213002482095582,-351.75144300107235,-400.3126817862825,0.0,0.4061496509900216,0.1,0.0031385421752929688,0.06096196174621582,0.04963314,0.24949634,-391.7469613259875,-3.7063977249500657,-3.7727189727153148,0.0,400,0.06730818748474121,0.02309124780489414,0.01930280678772969,82800,-355.7132829334785,0.0
207,1.559706449508667,-381.78802555089317,7.447560238682081,-373.3689266259148,-393.80861989111537,0.0,0.3966209863965529,0.1,0.3291206359863281,1.3843028545379639,0.05078557,0.26585895,-390.7510677484781,-3.751997936417873,-3.8178846549202414,0.0,400,0.11596536636352539,0.019531892850062092,0.014662355934995135,83200,-355.4386480306635,0.0
208,1.4941275119781494,-384.3142384695848,7.064668986196792,-377.03578298436764,-396.0106698116937,0.0,0.44720591876746757,0.1,0.003265857696533203,0.06313347816467285,0.04993103,0.24954496,-390.1073848205887,-3.777384844003079,-3.842535036279865,0.0,400,0.12681961059570312,0.019477927111740866,0.017878364598272294,83600,-356.4235102196721,0.0
209,1.5390887260437012,-382.30939897569993,12.309796427091525,-364.1739278617946,-398.8011057315731,0.0,0.4199674231550259,0.1,0.003233671188354492,0.06236720085144043,0.049517713,0.24504307,-389.3275862360999,-3.7564395304475102,-3.822110772588858,0.0,400,0.25608062744140625,0.017413231215786883,0.01631719999448939,84000,-357.062561937436,0.0
210,1.4636754989624023,-388.6047703650694,11.151947957737285,-381.54016288013503,-407.8952581408009,0.0,0.43642506326369784,0.1,0.049067020416259766,0.06201601028442383,0.049353868,0.23619466,-389.25530464899686,-3.8188806962198787,-3.885204538979309,0.0,400,0.24522089958190918,0.0148550093753509,0.014162494480511928,84400,-357.69722529712243,0.0
211,1.62306547164917,-389.9453628382983,5.757196883367676,-382.31187806253934,-395.98567663063915,0.0,0.3719392069476744,0.1,0.003216266632080078,0.059606075286865234,0.049768146,0.29506853,-389.32431046792703,-3.8333897940222297,-3.8981615795251945,0.0,400,0.039011478424072266,0.02402347008097374,0.019054508801434115,84800,-355.5319004691898,0.0
212,1.484710693359375,-377.07356530075083,3.4300516396339695,-371.50076542105427,-380.583476530908,0.0,0.4570287872431718,0.1,0.08826971054077148,0.21844482421875,0.04938826,0.2469061,-388.0992359512094,-3.7048287265798923,-3.770879753576296,0.0,400,0.5104920864105225,0.013904244081589546,0.01292291429276975,85200,-354.75427187001077,0.0
213,1.4841747283935547,-373.95241122081745,5.290457682727669,-367.1615861438282,-379.75378271606814,0.0,0.4025631662593728,0.1,0.09050726890563965,0.21667218208312988,0.049131203,0.25603217,-386.6845534781702,-3.674135796630543,-3.7401047807247285,0.0,400,0.0444645881652832,0.017812629924601784,0.013960790710525245,85600,-356.2051606370403,0.0
214,1.4787755012512207,-373.6878368949381,10.996576647775207,-355.02527910137235,-383.44320942560813,0.0,0.40686107586418746,0.1,0.06262469291687012,0.06400465965270996,0.04864478,0.26084924,-385.38488181984695,-3.670880469373259,-3.737300912294633,0.0,400,0.07300591468811035,0.0183460061498845,0.01482129386909109,86000,-357.0556082868042,0.0
215,1.529310941696167,-383.85582094504855,4.283714821443592,-378.8000542147405,-390.47349052897545,0.0,0.4353489031406896,0.1,0.0031592845916748047,0.06788873672485352,0.048935775,0.2341597,-385.2319757323671,-3.771632557758623,-3.8377426875066916,0.0,400,0.07886171340942383,0.011832401246754578,0.011393631865319548,86400,-357.64078405517034,0.0
216,1.628643274307251,-393.3570167510091,8.57207334658151,-383.14726639587644,-404.12514117756433,0.0,0.4365636600511054,0.1,0.0028307437896728516,0.05888628959655762,0.049605455,0.22679836,-386.0444798342313,-3.8663611357488863,-3.9321301397637956,0.0,400,0.05118203163146973,0.01914354354026488,0.015322108759936455,86800,-357.2453576471515,0.0
217,1.500359058380127,-377.5604874260701,14.817360738938026,-354.4444197142118,-395.75999617071756,0.0,0.43791763040134063,0.1,0.003560304641723633,0.06438231468200684,0.049422313,0.25184634,-385.19608059341516,-3.709420802734024,-3.775550283567457,0.0,400,0.06887531280517578,0.02059619649523558,0.017076240348159057,87200,-355.4730957588891,0.0
218,1.5735416412353516,-375.2214383131412,8.978350103987628,-359.70752625693785,-381.0630465836865,0.0,0.47211907016341115,0.1,0.09360551834106445,1.1721289157867432,0.04905059,0.25490683,-384.19861636538775,-3.685687173797611,-3.7520680226583107,0.0,400,0.10545969009399414,0.01844047015826188,0.015829960460890795,87600,-352.25343583918607,0.0
219,1.5235803127288818,-394.0866972347716,8.317762847716185,-384.4676166052863,-406.2243627526527,0.0,0.3862638807959536,0.1,0.14333748817443848,0.528325080871582,0.04897133,0.28411368,-385.1874244523261,-3.8724081527855168,-3.9392469690157377,0.0,400,0.11402511596679688,0.013195920841687908,0.011309870075781443,88000,-351.39941087814924,0.0
220,1.563307762145996,-387.5301637358504,7.7163238575681685,-379.4835902139151,-396.2864394434855,0.0,0.39512446710944166,0.1,0.007697582244873047,0.06482577323913574,0.050223485,0.267361,-385.42169838067855,-3.807776222135306,-3.8740153668697452,0.0,400,0.05938434600830078,0.01937738039045486,0.01664747726124566,88400,-356.6662904921338,0.0
221,1.6025605201721191,-393.39574054608966,8.946528795214778,-382.0150574224204,-404.83826945778867,0.0,0.4099523004041155,0.1,0.003002643585205078,0.0624547004699707,0.04978968,0.28738964,-386.2191025972197,-3.865985532636086,-3.9321112464680805,0.0,400,0.627709150314331,0.013561392094364537,0.012949754661912843,88800,-363.64382877697926,0.0
222,1.4286706447601318,-374.43264856295224,14.145007563362157,-350.34399587543595,-386.3426314204295,0.0,0.41859070603257004,0.1,0.16980886459350586,0.0623469352722168,0.049351417,0.2683397,-385.040457193793,-3.678497127450929,-3.7448509173956146,0.0,400,0.12010431289672852,0.018908244369992347,0.017811870336440546,89200,-363.60693532578716,0.0
223,1.437708854675293,-384.0712140064171,3.990098453653821,-379.9654830503169,-390.2663808886807,0.0,0.4100942974856571,0.1,0.003123044967651367,0.06135892868041992,0.050730802,0.24219225,-384.9435328750554,-3.7738243919189625,-3.8396751657049975,0.0,400,0.37912774085998535,0.0195491629564416,0.013406332557856086,89600,-373.41145329489103,0.0
224,1.4596474170684814,-375.6414742294549,6.994605764475587,-366.0869686487714,-383.99175206474655,0.0,0.4273154350671228,0.1,0.23227405548095703,0.07108783721923828,0.049393106,0.30137134,-384.01332701049535,-3.6900595223516075,-3.756305488980034,0.0,400,0.11313462257385254,0.015282124222912957,0.012842259426805794,90000,-370.19935134270673,0.0
225,1.6007649898529053,-384.1729017715702,11.988976484020762,-370.11578167567376,-403.2634759111298,0.0,0.4296992501860332,0.1,0.08761453628540039,1.4596655368804932,0.050950244,0.30527058,-384.0292844866029,-3.7754047903695125,-3.8410545746010234,0.0,400,0.3640623092651367,0.015040169100447332,0.014044805568688017,90400,-364.6463041611596,0.0
226,1.5748538970947266,-377.20179386204427,9.709583744386206,-361.4492072973686,-386.7829624060206,0.0,0.4259841872967687,0.1,0.002955913543701172,0.06380152702331543,0.05026955,0.26941806,-383.346535424147,-3.706298118602558,-3.772029765502087,0.0,400,0.06421685218811035,0.01757031001615791,0.011965927270332816,90800,-365.82754020858505,0.0
227,1.4893100261688232,-373.87841152414563,5.56280475603251,-365.6890040813074,-381.15986353066756,0.0,0.44881692570999154,0.1,0.0029604434967041016,0.05910825729370117,0.050250083,0.24860333,-382.3997230341469,-3.6724857834056914,-3.739266412312856,0.0,400,0.03839826583862305,0.0185257669496628,0.014592623848446522,91200,-364.9641995354961,0.0
228,1.6209628582000732,-381.9640062983036,10.545535294819045,-367.8903902055831,-392.57579073897216,0.0,0.4742890470888582,0.1,0.0031287670135498047,0.06511116027832031,0.048528574,0.22382663,-382.3561513605626,-3.7528485388557824,-3.818730805759177,0.0,400,0.05872750282287598,0.015157554561310039,0.014492527491269173,91600,-362.1072011575386,0.0
229,2.446153402328491,-385.28186937958355,6.9469182579481625,-374.1695180895537,-392.71544137411104,0.0,0.4359363949050092,0.1,0.003574848175048828,0.06977462768554688,0.049480475,0.24219222,-382.6487231624647,-3.7856377408751434,-3.85129254792157,0.0,400,0.11092376708984375,0.0207047518326704,0.019428080915162706,92000,-366.2230645447607,0.0
230,1.4959540367126465,-382.931660449328,13.826163653569642,-368.13625470775156,-397.5821654744122,0.0,0.4716479183392255,0.1,0.05676555633544922,0.07396411895751953,0.04950972,0.22691531,-382.677016891151,-3.762291620278388,-3.8283912019510464,0.0,400,0.0428776741027832,0.013948992910476108,0.013587220204574871,92400,-364.09143640732105,0.0
231,1.5115292072296143,-373.64890952382996,11.811265982150505,-354.70358608969184,-385.83209040334145,0.0,0.44096232133818836,0.1,0.0030965805053710938,0.07014918327331543,0.04963768,0.25504357,-381.77420615441895,-3.6707709868345972,-3.7363698022426983,0.0,400,0.0622258186340332,0.016946100989897548,0.01578285646970895,92800,-363.26023888543494,0.0
232,1.6414990425109863,-389.0396637275296,8.22678252302256,-378.80383720908105,-399.88979188059915,0.0,0.4523949123189827,0.1,0.0033147335052490234,0.06351304054260254,0.049846593,0.24629325,-382.50075191173005,-3.8218744848135815,-3.888341948657757,0.0,400,0.06375598907470703,0.016108563365861733,0.013725155674216508,93200,-363.01212020391796,0.0
233,1.509779691696167,-386.36095191090817,4.234018598663762,-379.7200554594478,-391.5011010174987,0.0,0.4670431827843972,0.1,0.0033240318298339844,0.06788802146911621,0.04989442,0.23922053,-382.8867719116479,-3.7967572543165544,-3.862431474683686,0.0,400,0.07978439331054688,0.017757307523028325,0.014118215284267347,93600,-362.208552832518,0.0
234,1.4767954349517822,-375.91844463934376,3.454417290451093,-372.9637367462503,-381.5579626723714,0.0,0.48359077278038887,0.1,0.30525898933410645,1.5879085063934326,0.050090484,0.23181337,-382.1899391844175,-3.692819718100375,-3.759449798449777,0.0,400,0.2635006904602051,0.01356878223585182,0.012999906285521922,94000,-362.461290590207,0.0
235,1.5645978450775146,-381.8894219255911,4.344512040711323,-374.99246891735106,-386.3447970348769,0.0,0.4588788916108286,0.1,0.002894163131713867,0.05841517448425293,0.049179316,0.22636245,-382.15988745853485,-3.751520267940193,-3.8179185268665856,0.0,400,0.0887444019317627,0.0166476344279765,0.016419200271366476,94400,-356.1235454189645,0.0
236,1.4872024059295654,-377.38236948188836,2.3851446160694407,-374.3092014010214,-380.9164600221669,0.0,0.44913567252743697,0.1,0.003252744674682617,0.061333417892456055,0.048644133,0.25444192,-381.68213566087024,-3.7074232339041906,-3.7739848356565253,0.0,400,0.45203447341918945,0.012163344946482538,0.011668806942584755,94800,-365.10322457459,0.0
237,1.4711768627166748,-384.1102524482098,6.8489271633206625,-379.79815639079624,-395.965860258841,0.0,0.44392129610910425,0.1,0.0038368701934814453,0.0662376880645752,0.0499437,0.2636841,-381.9249473396042,-3.774383873123295,-3.8407706203424117,0.0,400,0.04604482650756836,0.01067080088010123,0.010413274270867736,95200,-364.5761662262355,0.0
238,1.578709363937378,-382.2054074119249,18.25151344956453,-355.5011951237497,-399.39182097365364,0.0,0.4254274338115305,0.1,0.0032935142517089844,0.0635077953338623,0.049418114,0.2578447,-381.9529933468363,-3.7555006874998615,-3.8212940535173727,0.0,400,0.31431055068969727,0.015534829131868043,0.015179773288024709,95600,-366.22707641357357,0.0
239,1.4404382705688477,-383.0842687060399,6.325001201002,-377.08361299297485,-392.8918706453456,0.0,0.43721892061067624,0.1,0.25090932846069336,0.06570124626159668,0.04974766,0.24300545,-382.06612088275665,-3.7637701330477253,-3.830187428671735,0.0,400,0.04844164848327637,0.014839572699938415,0.014464074689860286,96000,-357.25280172410527,0.0
240,1.5618431568145752,-381.5726411521148,6.695956606501288,-374.34673860237064,-392.38458393821344,0.0,0.4858109147089042,0.1,0.003557920455932617,0.06776022911071777,0.049923144,0.21285236,-382.01677290969246,-3.748194959631245,-3.815134559313843,0.0,400,0.0649716854095459,0.011803920797088429,0.011471291236538648,96400,-354.4241177860401,0.0
241,1.5027718544006348,-380.23103993154797,9.819042779144487,-373.0731843311542,-396.95948682637044,0.0,0.4564877078826442,0.1,0.003343343734741211,0.07202482223510742,0.04986286,0.2363367,-381.838199611878,-3.7350261640395686,-3.8017589170002175,0.0,400,0.0592498779296875,0.01577840110625977,0.015487218013534894,96800,-356.71099034194435,0.0
242,1.5146009922027588,-375.1661721233717,1.6394259271004648,-372.6195669722304,-377.0085522760265,0.0,0.44661044622539975,0.1,0.0032646656036376953,0.06689167022705078,0.048976626,0.2506802,-381.17099686302737,-3.6849737818163133,-3.752191072899327,0.0,400,0.07977938652038574,0.012628993156627681,0.012131385460078373,97200,-355.6436773458335,0.0
243,1.4782934188842773,-381.320254280883,7.154412516575074,-375.5237768719991,-393.37165090788625,0.0,0.441685735386852,0.1,0.08711814880371094,0.3863565921783447,0.050263274,0.22617538,-381.18592260481296,-3.7469039361467895,-3.8125912821403127,0.0,400,0.059195518493652344,0.013406545757209747,0.011288351292365864,97600,-357.00331361224124,0.0
244,1.5208637714385986,-377.021793842268,3.03267210325166,-373.16131716913304,-381.6199225484862,0.0,0.4325565347026196,0.1,0.0031728744506835938,0.0679769515991211,0.04923259,0.24956402,-380.76950972855843,-3.704001321793197,-3.770402571183224,0.0,400,0.04085278511047363,0.013811087193275888,0.010329140046119742,98000,-356.6601964247844,0.0
245,1.4615378379821777,-376.5619914821919,5.472807539381987,-371.9572225116133,-385.60101654344027,0.0,0.43765404765950205,0.1,0.0032455921173095703,0.06177377700805664,0.049195595,0.23402385,-380.34875790392175,-3.6993786336582914,-3.7653828830220846,0.0,400,0.054140567779541016,0.01348511134035365,0.011927362042089247,98400,-358.8860202598741,0.0
246,1.4942395687103271,-379.26761823981684,9.908160170167035,-371.11565308460627,-396.2228057495567,0.0,0.48784046169713113,0.1,0.003293275833129883,0.06396007537841797,0.04994771,0.2191523,-380.24064393751127,-3.7260774234402754,-3.792179867658191,0.0,400,0.49059605598449707,0.013535522405554591,0.012541467443107709,98800,-357.54622969235703,0.0
247,1.5560603141784668,-379.41713982459663,10.420208800716223,-369.72724947606946,-396.6126297987892,0.0,0.4193971583283854,0.1,0.003517627716064453,0.06496572494506836,0.050485123,0.26245832,-380.1582935262198,-3.727327721361166,-3.7933744553842104,0.0,400,0.060028076171875,0.016056286379266378,0.015714974779892137,99200,-354.69472603187177,0.0
248,1.613952875137329,-378.6808510278745,9.252311620681802,-370.8853623501538,-394.08618045975066,0.0,0.4492290312099831,0.1,0.17398810386657715,1.242326021194458,0.04997377,0.25235656,-380.0105492763853,-3.7203476483767344,-3.7858650737372788,0.0,400,0.040276527404785156,0.01898259696711911,0.016798233391075796,99600,-355.80715136127054,0.0
249,1.6436796188354492,-378.24799727520076,3.9221579235187667,-373.6408940289944,-383.4614116930304,0.0,0.44438348462569494,0.1,0.0030727386474609375,0.06103372573852539,0.05032573,0.2417967,-379.8342940762669,-3.71609653093315,-3.7823924849000665,0.0,400,0.0786292552947998,0.019926571693862687,0.015812669652628206,100000,-357.04833727523163,0.0
250,1.6167128086090088,-381.9965883381317,7.799961392513442,-373.49782759287143,-394.56713766526866,0.0,0.4498261290575447,0.1,0.005781412124633789,0.0580751895904541,0.04982482,0.28078976,-380.05052350245336,-3.7510329645750415,-3.818413125691318,0.0,400,0.11539554595947266,0.01240818613790497,0.011065587722666933,100400,-355.4119331870138,0.0
251,1.556938886642456,-376.5242608975825,3.5916013076650835,-372.84362132545493,-382.36238024564557,0.0,0.4258725696546455,0.1,0.003318309783935547,0.06387758255004883,0.050637435,0.24715398,-379.6978972419663,-3.6983906283896415,-3.764754025933867,0.0,400,0.08251428604125977,0.010164324636989852,0.00980409325824335,100800,-354.19757411083197,0.0
252,1.438359022140503,-375.9194867982111,2.4672763031955074,-372.6117507327895,-379.10322619755965,0.0,0.41188367692786887,0.1,0.18326759338378906,0.3128964900970459,0.047224216,0.2666465,-379.32005619759076,-3.6922345983060416,-3.7588286313428414,0.0,400,0.07386279106140137,0.009914387161341163,0.009611749841484687,101200,-354.107089725531,0.0
253,1.8819522857666016,-385.30205857966934,9.304349936307743,-371.99491161725723,-397.13899102896227,0.0,0.44617706622358577,0.1,0.003307342529296875,0.06102275848388672,0.049729876,0.25235593,-379.91825643579864,-3.785076728653033,-3.8511455311283798,0.0,400,0.05466175079345703,0.018153550606646675,0.016105947396882734,101600,-353.7726660566482,0.0
254,1.498656988143921,-375.5048065528728,13.76533813720545,-358.299728932536,-396.7848869138354,0.0,0.41677207148435724,0.1,0.002896547317504883,0.05852103233337402,0.05057415,0.26381844,-379.4769114475061,-3.689012255351777,-3.754941230191333,0.0,400,0.03708648681640625,0.012992973794768761,0.011982556717709461,102000,-346.0973461497545,0.0
255,1.4010655879974365,-372.8921551038877,4.044598425107894,-366.59679441346896,-377.5333197942922,0.0,0.4207417361119765,0.1,0.09861588478088379,0.37352728843688965,0.049149483,0.27309796,-378.8184358131443,-3.662775379306356,-3.728815302990251,0.0,400,0.15138006210327148,0.019609125071861404,0.016815680561356395,102400,-348.79330746248115,0.0
256,1.6228816509246826,-382.7760166185689,6.3280417800152975,-377.645716201004,-393.4514796087361,0.0,0.43219903640365886,0.1,0.003185272216796875,0.06107020378112793,0.0510443,0.29272896,-379.2141938936868,-3.7604645526112814,-3.8266777624916446,0.0,400,0.054018259048461914,0.018400991018496318,0.013073849116910749,102800,-349.20240583626656,0.0
257,1.624049186706543,-378.66561485139715,2.7984994418178957,-375.38749937781654,-382.1533630914853,0.0,0.42725510396915667,0.1,0.0034825801849365234,0.06305384635925293,0.050163507,0.253532,-379.1593359894578,-3.7202267995620337,-3.7860003177322046,0.0,400,0.07824254035949707,0.012225862801350792,0.01115751727612993,103200,-348.946491424555,0.0
258,1.5173983573913574,-370.18669378050043,11.385598884862492,-351.91002577439826,-381.5241964869911,0.0,0.41527080898503105,0.1,0.0032570362091064453,0.06223297119140625,0.04762994,0.2469676,-378.26207176856207,-3.63605570554955,-3.701922817854963,0.0,400,0.04022383689880371,0.01783445400724442,0.01738255198047881,103600,-344.86993288812096,0.0
259,1.5075111389160156,-369.2169435928264,11.571699963647145,-349.19329528558995,-376.4885600826492,0.0,0.43882797911723365,0.1,0.0031538009643554688,0.059827566146850586,0.05096686,0.23066887,-377.3575589509885,-3.627141756365522,-3.692825431420884,0.0,400,0.040633201599121094,0.01943654883391758,0.017766179061837868,104000,-341.56692292343774,0.0
260,1.6119177341461182,-377.2251574038192,12.947429266396822,-362.28378080607973,-397.21515398315825,0.0,0.43051073083434993,0.1,0.0030319690704345703,0.06009650230407715,0.049872506,0.23363642,-377.3443187962716,-3.706789947454274,-3.772132856854668,0.0,400,0.05052328109741211,0.020752416905911345,0.019920228994708578,104400,-342.81811687380286,0.0
261,1.5548410415649414,-389.6470691229575,11.020567892640685,-377.65575405506837,-403.88968985084034,0.0,0.4401082729458489,0.1,0.003244161605834961,0.06372332572937012,0.04744256,0.23900181,-378.5745938289402,-3.8273810824994223,-3.8935481942159305,0.0,400,0.06150388717651367,0.02136268606302445,0.018538045791073564,104800,-343.78442512434873,0.0
262,1.492246150970459,-380.0121812632246,6.103511937325552,-372.34714766826636,-387.6516878606628,0.0,0.42072493388852455,0.1,0.003144979476928711,0.07687568664550781,0.04996487,0.2844135,-378.7183525723686,-3.7329302069560235,-3.798971825571367,0.0,400,0.04399919509887695,0.019793521542571454,0.016655009928082658,105200,-344.78236594928904,0.0
263,1.5493950843811035,-389.55603388686995,13.475905312746574,-373.1672058287503,-406.61091063962624,0.0,0.4234362965655802,0.1,0.0031638145446777344,0.06108593940734863,0.048843253,0.2670823,-379.80212070381873,-3.8280652752625492,-3.8936043871470742,0.0,400,0.04375600814819336,0.01574112131751253,0.014249533776047088,105600,-344.9856031106058,0.0
264,1.4986016750335693,-383.5247127224401,14.032495109178363,-368.0096155168509,-405.53680103393475,0.0,0.4289230514006941,0.1,0.0033195018768310547,0.062149763107299805,0.049332686,0.26444584,-380.1743799056809,-3.7673154504922817,-3.8333834255514936,0.0,400,0.05962872505187988,0.013244972697536366,0.01259434539841666,106000,-345.20426596709217,0.0
265,1.4901602268218994,-377.36412025872175,6.052501213222855,-369.12106773232864,-385.84254338371073,0.0,0.4308512759240723,0.1,0.0031485557556152344,0.06400227546691895,0.04962387,0.24451083,-379.89335394098504,-3.706596772861784,-3.773041193902687,0.0,400,0.042122602462768555,0.014151379891327968,0.013180393785076131,106400,-345.16026240981813,0.0
266,1.5291199684143066,-380.9583903121227,3.72915509723049,-375.53484198601467,-386.03382283638985,0.0,0.41339634958113697,0.1,0.0033464431762695312,0.06353425979614258,0.050890993,0.26970637,-379.99985757809884,-3.742892463479912,-3.8081656866135,0.0,400,0.07071924209594727,0.014802340643911453,0.012366352977812073,106800,-346.29810297348405,0.0
267,1.5123414993286133,-372.02434193371914,3.317341787818504,-367.8330341368845,-376.0812309140476,0.0,0.4517642784455486,0.1,0.0032198429107666016,0.06426715850830078,0.050901767,0.25000384,-379.20230601366086,-3.654881126026464,-3.7206554793438436,0.0,400,0.04307365417480469,0.014544857995139104,0.011368593496730849,107200,-346.6440163116892,0.0
268,1.531921625137329,-375.3805489632876,6.6211201017179695,-367.46258155053255,-385.6916467846239,0.0,0.42190024391681724,0.1,0.003106355667114258,0.06062150001525879,0.05010554,0.24871118,-378.82013030862356,-3.686729412802931,-3.753019551065282,0.0,400,0.4532625675201416,0.01634979498169469,0.015241329700465583,107600,-349.3710202301431,0.0
269,1.5035011768341064,-379.38408415008996,5.1138234909703515,-371.27261381420647,-385.04757327694347,0.0,0.4068405840000091,0.1,0.0036063194274902344,0.06454610824584961,0.04976834,0.2820892,-378.8765256927702,-3.7271343163124717,-3.7929997768754897,0.0,400,0.5581948757171631,0.01585824771756614,0.015009068938541464,108000,-345.3124875354512,0.0
270,1.4755454063415527,-377.3754050124194,3.886375568687298,-370.75588795024066,-380.2601292715458,0.0,0.3930992805532083,0.1,0.09366297721862793,0.34000611305236816,0.04983194,0.29424936,-378.72641362473513,-3.708250784807382,-3.773189802513361,0.0,400,0.12697458267211914,0.015193844363969958,0.014330660513527896,108400,-344.83975651348936,0.0
271,1.4684548377990723,-371.7541569647418,4.796770037811115,-364.3710899997741,-376.01313773329576,0.0,0.39366399536579244,0.1,0.0033180713653564453,0.06366825103759766,0.050500575,0.25600478,-378.0291879587358,-3.652618312578456,-3.7181833200382446,0.0,400,0.07681703567504883,0.018026855597273433,0.01569765386035028,108800,-345.61883823707353,0.0
272,1.5055341720581055,-376.0992544377647,5.651945595034886,-369.8591019598814,-382.18142435035173,0.0,0.3978615293809643,0.1,0.15091252326965332,0.2888050079345703,0.049747247,0.25353402,-377.83619460663874,-3.6950766295867856,-3.760755326239239,0.0,400,0.05385875701904297,0.01579313770045467,0.014280148829683764,109200,-356.79764307800923,0.0
273,1.4956855773925781,-373.5353309685916,5.568507995770281,-368.33328820428216,-382.76533216243286,0.0,0.4314325932172533,0.1,0.00315093994140625,0.06106877326965332,0.047030773,0.24390961,-377.406108242834,-3.6693981646863847,-3.735687667224145,0.0,400,0.051840782165527344,0.013810093184514061,0.013307905704889576,109600,-356.5250956687906,0.0
274,1.5037949085235596,-379.80026885294876,10.997853078745322,-367.56609526132644,-397.4090007563272,0.0,0.4185912524942488,0.1,0.0031769275665283203,0.0667414665222168,0.048189685,0.24674492,-377.6455243038455,-3.731470729702432,-3.7976623771908438,0.0,400,0.06324458122253418,0.013708681306473802,0.01291022723018294,110000,-355.5787441341345,0.0
275,1.513659954071045,-370.8912611151336,3.508150094184606,-366.8995699734304,-374.8760721341299,0.0,0.45608821469629945,0.1,0.10214924812316895,0.35062408447265625,0.048185404,0.2391996,-376.9700979849743,-3.6442107048015737,-3.7094634511806936,0.0,400,0.07094621658325195,0.011775289786231788,0.01107395478311611,110400,-356.7748816042977,0.0
276,1.5992348194122314,-369.77319271924415,10.511670342003995,-360.373541054097,-386.4136765293022,0.0,0.4262585954360662,0.1,0.09642863273620605,0.3394443988800049,0.049928166,0.24046253,-376.25040745840124,-3.6310764753831446,-3.6980491146859387,0.0,400,0.05815529823303223,0.01761472666958744,0.015160701324588868,110800,-355.74499195427506,0.0
277,1.471984624862671,-386.64851370584205,13.836124086754298,-372.09676974055463,-402.515693947965,0.0,0.4218884272466266,0.1,0.003039836883544922,0.06389188766479492,0.05017846,0.2420887,-377.2902180831453,-3.799114474539115,-3.8651225238362477,0.0,400,0.38942980766296387,0.019149757736695687,0.01757829532252099,111200,-356.16744976606765,0.0
278,1.5195918083190918,-385.69031149942646,9.33236348135135,-372.24807835692445,-396.2527435431363,0.0,0.432485880183792,0.1,0.040735721588134766,0.06454944610595703,0.050681096,0.2685482,-378.1302274247734,-3.7892859323183137,-3.8552233967611045,0.0,400,0.07022547721862793,0.017724831322570512,0.014376978799818673,111600,-356.13359228649483,0.0
279,1.523252248764038,-372.9718129596549,5.604958980392109,-366.62504785576124,-381.5314034257226,0.0,0.40071169563925807,0.1,0.0029473304748535156,0.05967211723327637,0.049911212,0.28077033,-377.61438597826157,-3.6632229177627043,-3.729781091766763,0.0,400,0.058121442794799805,0.01288190248896592,0.01152765448452789,112000,-354.24235632582713,0.0
280,1.6793358325958252,-373.1510606311578,5.478315057990178,-367.65366038795514,-379.37306213774605,0.0,0.4024201845213838,0.1,0.13285088539123535,0.06212329864501953,0.049076024,0.29732192,-377.1680534435512,-3.665762892427451,-3.7317115227577533,0.0,400,0.08261394500732422,0.011393044949498471,0.010880273563964968,112400,-353.5045309448815,0.0
281,1.5215404033660889,-376.1101111241979,10.685928558339208,-367.2079773445737,-393.94260162525677,0.0,0.3865975118972971,0.1,0.08666539192199707,0.07790207862854004,0.04947094,0.27438706,-377.0622592116158,-3.694030348765714,-3.760484623436036,0.0,400,0.08749985694885254,0.012851460214880213,0.012239830356793394,112800,-353.52569954060255,0.0
282,1.640509843826294,-376.66622645672726,1.7811873800850468,-374.1288666041536,-379.0743855959127,0.0,0.4388304724022887,0.1,0.18163537979125977,1.6936988830566406,0.049810812,0.23357219,-377.02265593612697,-3.6991765559445997,-3.7660316079421388,0.0,400,0.0535130500793457,0.010879066428052118,0.010566613925826876,113200,-354.11606851490495,0.0
283,1.4790928363800049,-375.839055750084,3.949334795226054,-370.27307401270997,-380.2963245767966,0.0,0.4056165706132537,0.1,0.0037660598754882812,0.060321807861328125,0.04967259,0.27273956,-376.90429591752263,-3.6920175890115314,-3.758255517266532,0.0,400,0.0648493766784668,0.010916734810056821,0.010170800350218579,113600,-354.8755420820994,0.0
284,1.571599006652832,-378.6943661268308,8.7747642858166,-372.4914169537596,-393.8025363797416,0.0,0.4226179947099655,0.1,0.10839343070983887,0.7713477611541748,0.050658494,0.25412592,-377.08330293845347,-3.71923781064491,-3.785995328014828,0.0,400,0.06609106063842773,0.013457236585091762,0.012301836369180193,114000,-355.01036380365207,0.0
285,1.5713555812835693,-373.57938013893244,7.604121122431027,-360.94256926687893,-381.04261004646395,0.0,0.41644994584550926,0.1,0.003467082977294922,0.06714653968811035,0.050474707,0.29251203,-376.7329106585014,-3.66881546570849,-3.735774512825369,0.0,400,0.07266402244567871,0.01401798223414447,0.012060379534654596,114400,-354.8723977042146,0.0
286,1.5224552154541016,-371.65808950837857,2.67817796215158,-367.5363962250185,-374.8671114503945,0.0,0.39526516528295147,0.1,0.003309011459350586,0.06360721588134766,0.05063409,0.30044067,-376.2254285434891,-3.6495441234474963,-3.716651488530894,0.0,400,0.042043209075927734,0.01203483347959259,0.010149723657715805,114800,-354.55633349731534,0.0
287,1.5329303741455078,-374.10382253298496,4.477404150052004,-369.8139716112432,-381.1204997088326,0.0,0.38462104840259265,0.1,0.0031642913818359375,0.059381723403930664,0.049797677,0.2844051,-376.0132679424387,-3.674906610500765,-3.741372340113238,0.0,400,0.0809180736541748,0.019808349326704656,0.018177962195941706,115200,-354.1777543733992,0.0
288,1.5655136108398438,-373.1021883254444,9.279112402295462,-359.03184949123226,-381.551352219009,0.0,0.4077091890615716,0.1,0.003445148468017578,0.06393623352050781,0.048673302,0.29801962,-375.72215998073926,-3.6654875428171967,-3.731620591470128,0.0,400,0.1189424991607666,0.020670558343223698,0.015412248077009739,115600,-353.7822149583939,0.0
289,1.5113551616668701,-379.57726321691945,10.331114967586037,-364.8585352134139,-393.48388084673076,0.0,0.4054805435864365,0.1,0.08844661712646484,0.8738069534301758,0.04915602,0.28172672,-376.10767030435727,-3.728691568331588,-3.7950946692925,0.0,400,0.07376575469970703,0.02206548729096035,0.015692074067120167,116000,-345.64835358497,0.0
290,1.5105195045471191,-376.6945592194625,10.097213749321211,-364.971475522821,-392.4470256814668,0.0,0.43358260014071803,0.1,0.0033278465270996094,0.07065534591674805,0.049037896,0.24686359,-376.1663591958678,-3.7002236720405803,-3.766120894277008,0.0,400,0.044017791748046875,0.017581511270607794,0.014256328933038956,116400,-347.8512437327052,0.0
291,1.5064756870269775,-371.5928546081884,19.469918903910305,-352.55072082121933,-404.17007306851247,0.0,0.3868159057063288,0.1,0.003067493438720703,0.06474113464355469,0.04966274,0.30368584,-375.7090087370999,-3.647729661279706,-3.7150215120299213,0.0,400,0.041820526123046875,0.01568277700849251,0.011399338466396371,116800,-353.6428978728905,0.0
292,1.4797406196594238,-376.93938188477176,8.956598087635946,-361.9363286424844,-385.5552923474082,0.0,0.41057071025494163,0.1,0.24052143096923828,0.40892720222473145,0.05014018,0.3033181,-375.8320460518671,-3.7000215109601227,-3.767567821435885,0.0,400,0.07968354225158691,0.01418729346150822,0.011366967616305944,117200,-353.9996806053111,0.0
293,1.5221693515777588,-379.8987023443207,9.443869812370654,-367.0137712461035,-391.10364829317683,0.0,0.40239917178461276,0.1,0.08678317070007324,0.13306260108947754,0.05020514,0.27328005,-376.2387116811125,-3.7313030910769296,-3.7982057059970447,0.0,400,0.05081033706665039,0.013042789740722016,0.011918663354425317,117600,-353.92995252394326,0.0
294,1.5250864028930664,-369.4414739829987,7.6739214435144945,-361.3133769564954,-380.22545577515376,0.0,0.4085762871559424,0.1,0.003191232681274414,0.07065892219543457,0.05064557,0.26055488,-375.55898791130113,-3.628982166273615,-3.6951587896408262,0.0,400,0.08240985870361328,0.009415462893755505,0.008809175381423737,118000,-355.0015496524342,0.0
295,1.699373722076416,-381.93410823257614,9.440453575188533,-370.405228400164,-394.7487355010126,0.0,0.36622012919858177,0.1,0.003200054168701172,0.06496739387512207,0.050101925,0.27404258,-376.19649994342865,-3.750947686283892,-3.818354809658393,0.0,400,0.17493557929992676,0.01187621759461751,0.011237340169332472,118400,-354.9153437275165,0.0
296,1.4744956493377686,-370.21312729165203,3.277848959559402,-366.90796224608295,-375.4470511333856,0.0,0.3742915944396006,0.1,0.10593485832214355,0.6681931018829346,0.050128974,0.3024476,-375.598162678251,-3.6347050039766016,-3.7019738688806156,0.0,400,0.042144775390625,0.007897311555621131,0.007611263100346146,118800,-350.1950224836985,0.0
297,1.4651343822479248,-373.206917487167,3.139886489087892,-368.3211128504083,-376.818998216702,0.0,0.41980811166861515,0.1,0.0038580894470214844,0.06386590003967285,0.049124252,0.25296974,-375.3590381591426,-3.664568496166933,-3.731663942417235,0.0,400,0.04610323905944824,0.009856865812127052,0.00963793435233558,119200,-349.1842501883113,0.0
298,1.6158497333526611,-375.562972744059,5.9272867076352425,-367.6351186456481,-381.49966999341103,0.0,0.42231357851264,0.1,0.0033121109008789062,0.06160473823547363,0.04938715,0.27933607,-375.3794316176342,-3.687014776597604,-3.7549169601572423,0.0,400,0.21798133850097656,0.009306676397308394,0.0079294056540923,119600,-349.64562902689704,0.0
299,1.5856001377105713,-375.968817008439,7.216922901469301,-369.4296815361756,-387.83003312762673,0.0,0.41087668731364285,0.1,0.09040141105651855,0.1148984432220459,0.049734905,0.26748332,-375.4383701567147,-3.6924447753309404,-3.7587980232275786,0.0,400,0.49037742614746094,0.009843139561759312,0.008218003434846678,120000,-349.50328989710465,0.0
300,1.5585589408874512,-373.21405313286334,7.312642667119812,-362.0144733156888,-382.4119730935242,0.0,0.4112212901608267,0.1,0.09171819686889648,0.7752141952514648,0.051144995,0.26876405,-375.2159384543296,-3.664860808973591,-3.731576245279406,0.0,400,0.07029962539672852,0.009334947548444468,0.008936604403614887,120400,-350.03183801410745,0.0
301,1.5554661750793457,-362.1141610268709,4.121996072527932,-354.9986718215259,-364.8616087019276,0.0,0.3792155499035559,0.1,0.003269672393798828,0.06042218208312988,0.04991598,0.312862,-373.90576071158375,-3.5551370221720386,-3.6219442845536927,0.0,400,0.05704927444458008,0.009610622794394225,0.009047728837231591,120800,-349.71020261118286,0.0
302,1.6386864185333252,-373.6494446509364,4.972562016111951,-368.124931300148,-380.7654057255034,0.0,0.4046597805255278,0.1,0.003378629684448242,0.05991363525390625,0.05083355,0.259029,-373.880129105519,-3.6680777864208367,-3.735549374901916,0.0,400,0.04756331443786621,0.010474245953315963,0.009867876881430695,121200,-350.45613101516346,0.0
303,1.7354731559753418,-373.0439883979714,9.061285014749082,-366.5637342799594,-388.60975741745204,0.0,0.3977000998767782,0.1,0.0033690929412841797,0.05881452560424805,0.050181847,0.25691056,-373.7965150347643,-3.6626227271680345,-3.730290605112304,0.0,400,0.03847908973693848,0.008506861212926745,0.007886381566346991,121600,-349.9734959666155,0.0
304,1.4801137447357178,-367.38151416401024,6.6081942450446745,-357.68033006161903,-376.33937932435913,0.0,0.4101942481467861,0.1,0.002986907958984375,0.05851435661315918,0.049069144,0.26998818,-373.1550149476889,-3.6070966627464207,-3.6739008664612,0.0,400,0.06510138511657715,0.009642090842570023,0.008196857719632675,122000,-348.9066885934745,0.0
305,1.4749343395233154,-368.0936379813837,2.668143992197246,-364.25875411522196,-370.866458978667,0.0,0.43983430141076885,0.1,0.0030629634857177734,0.06281113624572754,0.050060954,0.24287407,-372.64887725105837,-3.615005100812523,-3.6811994036300844,0.0,400,0.14116311073303223,0.007076075736100514,0.006041003951781157,122400,-347.99367416862157,0.0
306,1.596219539642334,-372.78229501631915,4.97258212074473,-366.38421768126,-379.7555387301384,0.0,0.4284702843741788,0.1,0.3542633056640625,0.24763703346252441,0.05038233,0.26566067,-372.66221902758446,-3.661033806647999,-3.7281824285597382,0.0,400,0.09495115280151367,0.009108447183407267,0.008714633036079842,122800,-348.4978961688317,0.0
307,1.5998213291168213,-373.82718038491527,8.551622312880141,-360.01213855352154,-382.38184555918394,0.0,0.39766409298858074,0.1,0.3422369956970215,1.4144954681396484,0.05044312,0.2495539,-372.77871516331754,-3.6703206646098514,-3.738204350228962,0.0,400,0.06725144386291504,0.009341969964351072,0.008114289195307644,123200,-347.9502146333523,0.0
308,1.5529141426086426,-378.35179314902615,2.5719911715960655,-375.8737139233901,-382.6445397379183,0.0,0.45590767545246547,0.1,0.08298778533935547,0.950526237487793,0.05022348,0.26798385,-373.33602296188843,-3.7135156150901714,-3.7827506842505407,0.0,400,0.07462549209594727,0.009718435113733208,0.0083585338296191,123600,-347.6116865462014,0.0
309,1.5617895126342773,-370.6917747782447,11.787186564091334,-352.7457560596721,-382.89441848267114,0.0,0.38528179829984155,0.1,0.003400564193725586,0.06383872032165527,0.048611328,0.29571313,-373.07159814352406,-3.6395907535497938,-3.706686863441369,0.0,400,0.04563140869140625,0.00966834445490506,0.009264862351425984,124000,-347.3124037382563,0.0
310,1.5012025833129883,-368.2355576727886,6.264834010428872,-357.539909804173,-373.5246086071028,0.0,0.3779161298207743,0.1,0.0029287338256835938,0.061199188232421875,0.05031474,0.31993774,-372.58799409645053,-3.6152774141366226,-3.6819591359352515,0.0,400,0.08927583694458008,0.005990448143808055,0.005582976678557949,124400,-347.395588162147,0.0
311,1.4792554378509521,-374.06174932524937,6.634763525330764,-366.7868110103228,-381.8288677686716,0.0,0.4028211828333703,0.1,0.003044605255126953,0.05936264991760254,0.050131064,0.27583438,-372.7353696193304,-3.6725718143305413,-3.740071893644565,0.0,400,0.04170036315917969,0.007778259210096369,0.007383936156162448,124800,-347.928824227519,0.0
312,1.5625505447387695,-375.19312547145705,6.569296721892876,-365.059574080345,-383.03805307061367,0.0,0.38967205958458906,0.1,0.0030088424682617188,0.05952024459838867,0.04958594,0.25514585,-372.9811452045431,-3.6836819325355763,-3.7515352842350285,0.0,400,0.0480954647064209,0.005340521858528431,0.00493988121714632,125200,-347.10307011684307,0.0
313,1.5232439041137695,-372.45234587077607,5.966536888811036,-366.70220668649733,-381.53441307532927,0.0,0.3802030172265339,0.1,0.09102702140808105,0.14565181732177734,0.049804207,0.2765374,-372.9282652711664,-3.6568454869292992,-3.723971052045298,0.0,400,0.8265984058380127,0.005494868608222263,0.005258593185621965,125600,-346.69151255398856,0.0
314,1.5821127891540527,-367.70200061604504,13.341601847581938,-345.44044587833025,-379.63273429034666,0.0,0.3841020969534917,0.1,0.0031282901763916016,0.06573271751403809,0.050084557,0.29440877,-372.4056388056543,-3.610554406704519,-3.67740821216487,0.0,400,0.07299065589904785,0.010404217841397525,0.008403130646660277,126000,-347.25507260395506,0.0
315,1.5321815013885498,-368.0129878723779,6.0833826047668,-363.06218266873435,-378.42883878657835,0.0,0.42321848256163763,0.1,0.003072023391723633,0.06365108489990234,0.04744599,0.24972434,-371.96637371232663,-3.612886674359422,-3.6798023367811803,0.0,400,0.05267453193664551,0.014550440612232143,0.01094980672773905,126400,-347.34203414532914,0.0
316,1.5532591342926025,-370.3514288905074,4.576498076023409,-365.4408943228291,-377.3506936349746,0.0,0.41058892418240506,0.1,0.04628705978393555,0.06736087799072266,0.04952541,0.2707035,-371.8048792301447,-3.6361582454297015,-3.7030694184669946,0.0,400,0.07781481742858887,0.01164790015087845,0.007927306071460862,126800,-346.27331724817606,0.0
317,1.5420334339141846,-366.3792439489702,2.9013120644801598,-363.5784219878765,-370.250899251282,0.0,0.4421103446958921,0.1,0.0035943984985351562,0.06393122673034668,0.049665365,0.25244597,-371.26231570202725,-3.598986014446062,-3.665072827196255,0.0,400,0.46311020851135254,0.007914143223877767,0.006840732052314874,127200,-345.7916328744287,0.0
318,1.5143516063690186,-370.135052501342,12.060158146772137,-356.0317717665285,-387.54628199715427,0.0,0.395480227517611,0.1,0.003145933151245117,0.06339740753173828,0.050136134,0.2605887,-371.1495893819587,-3.6356903332965236,-3.7013623668025164,0.0,400,0.03980731964111328,0.009282910273351491,0.008331965900817636,127600,-343.64455140015434,0.0
319,1.4706988334655762,-368.7650485313616,10.165617350473148,-353.69535299521374,-381.077704248389,0.0,0.4040564134485454,0.1,0.12178874015808105,0.9095063209533691,0.049676303,0.27897593,-370.91113529689903,-3.620900707790784,-3.687797595652675,0.0,400,0.04891085624694824,0.008247302132565934,0.0071506904873075115,128000,-344.0463664693105,0.0
320,1.5349702835083008,-371.09310705680787,7.141446077345644,-365.57630141112406,-383.3458761059885,0.0,0.4039691331627807,0.1,0.003307819366455078,0.06637072563171387,0.05000525,0.27608097,-370.92933247288994,-3.6462599956848574,-3.7116375480376846,0.0,400,0.06166195869445801,0.00727020903676386,0.006334046493838342,128400,-346.08982905607974,0.0
321,1.4747345447540283,-372.1300643630375,6.496773782299529,-366.875294184317,-383.2294928390336,0.0,0.38512394350406987,0.1,0.003522157669067383,0.06784391403198242,0.049928144,0.3393229,-371.0494056619047,-3.6542899556244386,-3.721619696607382,0.0,400,0.0727999210357666,0.00995511101715365,0.009135181106003643,128800,-345.97248527892447,0.0
322,1.5690829753875732,-364.4166741704922,4.318559133603246,-357.76944681324386,-368.9231918686264,0.0,0.3749143094029596,0.1,0.003609895706176758,0.06318879127502441,0.05007674,0.29021734,-370.3861325127634,-3.5790802987587917,-3.6446955420428058,0.0,400,0.046622276306152344,0.008607526506490862,0.008363477377735563,129200,-345.83997264243857,0.0
323,1.530470609664917,-380.7088371098634,15.287814896675997,-358.3751556652013,-401.1852125581141,0.0,0.3856639253826473,0.1,0.003104686737060547,0.06053471565246582,0.049664784,0.27264404,-371.4184029724734,-3.737285036849141,-3.8052688760336797,0.0,400,0.07130265235900879,0.011740991377004325,0.009604268169637916,129600,-345.88329590453236,0.0
324,1.5360870361328125,-365.93597088962343,4.080295329088905,-359.2294473764475,-369.6006624013124,0.0,0.419073869283875,0.1,0.003269195556640625,0.06253409385681152,0.04945666,0.26292798,-370.87015976418843,-3.594041559093836,-3.6602137083306525,0.0,400,0.0640861988067627,0.0074049754477621705,0.005812783256663118,130000,-345.81373350221656,0.0
325,1.5757732391357422,-381.9215497939311,10.74832757940681,-366.46432562302556,-392.102101782511,0.0,0.4311206838205352,0.1,0.003467559814453125,0.06292867660522461,0.049794268,0.27205196,-371.9752987671627,-3.752316347100823,-3.8177322080152023,0.0,400,0.058400869369506836,0.008610075756526659,0.007161395039803206,130400,-346.5946691157822,0.0
326,2.3466110229492188,-365.85027663940684,11.14602507762966,-348.2450037802347,-377.7180896060595,0.0,0.4120460371092805,0.1,0.08756852149963379,0.6029112339019775,0.050517574,0.2829006,-371.36279655438716,-3.5926427481428336,-3.658524821565809,0.0,400,0.1131281852722168,0.00743340147161417,0.005463428624887903,130800,-344.1953497231447,0.0
327,1.7145047187805176,-374.66786779790516,12.735647683077385,-361.9301447643683,-391.3647697183673,0.0,0.3884324308596186,0.1,0.0035309791564941406,0.0643002986907959,0.04975821,0.27132595,-371.69330367873897,-3.6792140739541623,-3.745852069134077,0.0,400,0.04036283493041992,0.010679800968460095,0.007443830816432196,131200,-345.2631687715736,0.0
328,1.6178596019744873,-371.34741076053916,12.35760217253207,-362.07518687397817,-392.6249796220929,0.0,0.4371760345459944,0.1,0.003383636474609375,0.06175541877746582,0.048978254,0.240125,-371.658714386919,-3.648547196182001,-3.713510259697432,0.0,400,0.6516616344451904,0.008743190727827048,0.0073634945350992565,131600,-344.2125467032763,0.0
329,1.457160234451294,-367.5130963873978,10.020639619195972,-352.6441545362478,-380.4615402214365,0.0,0.3984551929238021,0.1,0.0034563541412353516,0.06110119819641113,0.049022347,0.25965327,-371.24415258696683,-3.611082259952868,-3.676146605614865,0.0,400,0.05809211730957031,0.007673011902829471,0.007048621924001255,132000,-341.11842329363117,0.0
330,1.4823269844055176,-361.68170869957567,6.839540949845731,-349.8949483914325,-366.7110037736405,0.0,0.4127594236190248,0.1,0.0031714439392089844,0.06772994995117188,0.049722366,0.31484523,-370.28790819822774,-3.5522181674582924,-3.6183659547959524,0.0,400,0.06663084030151367,0.004929890020405749,0.004585477362065317,132400,-340.9232344980852,0.0
331,1.4265086650848389,-363.9613771958683,14.323252607481216,-350.53952515363443,-386.2240041990099,0.0,0.4128565962992345,0.1,0.17892122268676758,0.7065582275390625,0.05026392,0.29101902,-369.6552550979918,-3.57704007307641,-3.6411907534865904,0.0,400,0.07666420936584473,0.014500442113420874,0.012108324975661614,132800,-343.0338571870098,0.0
332,1.4775853157043457,-365.4389631021879,7.028983997071914,-358.0276001876895,-373.33757665907854,0.0,0.3931355101900082,0.1,0.0032203197479248047,0.06091666221618652,0.049100637,0.2824749,-369.2336258984114,-3.5880771945332697,-3.654546700905082,0.0,400,0.04975247383117676,0.00969637181317881,0.007344459917155428,133200,-341.788579898582,0.0
333,1.6560699939727783,-364.8484012450965,7.0012949172286625,-353.045159490603,-371.34779227208764,0.0,0.37578445019454365,0.1,0.0028951168060302734,0.05711483955383301,0.050641857,0.32041493,-368.79510343307993,-3.584399985341629,-3.6492395950529515,0.0,400,0.05354499816894531,0.005987297387558531,0.005410547315101154,133600,-341.3882975954944,0.0
334,1.4926354885101318,-358.51667143543693,7.344546193408711,-350.21647057266745,-370.2951058390556,0.0,0.36367961414052913,0.1,0.003005504608154297,0.06141042709350586,0.049567927,0.3516323,-367.76726023331565,-3.5219306869526594,-3.586961745629324,0.0,400,0.03994250297546387,0.007299678373363417,0.0060576828402557565,134000,-341.1932614911748,0.0
335,1.4792485237121582,-364.4593788666557,4.227083710262793,-357.341159171824,-368.4241033865725,0.0,0.41171017305664753,0.1,0.0031609535217285156,0.059131622314453125,0.04978559,0.26592255,-367.43647209664965,-3.580462998995368,-3.6455614413389146,0.0,400,0.06365299224853516,0.0068971957724629895,0.006503751026379752,134400,-342.355707259658,0.0
336,1.5698919296264648,-364.9660262186916,6.596068180773782,-354.43386028312045,-372.20688661127537,0.0,0.3996649569450097,0.1,0.003001689910888672,0.06144595146179199,0.0511863,0.26500237,-367.18942750885384,-3.5853861435820784,-3.650632528044402,0.0,400,0.05235910415649414,0.005658429078752484,0.00505959701981925,134800,-343.82136307263477,0.0
337,1.5336499214172363,-360.54313711072734,2.1234660797853575,-357.051976989922,-362.7882629391687,0.0,0.39336583231453576,0.1,0.0031456947326660156,0.061308860778808594,0.049527306,0.3111537,-366.5247984690412,-3.541497812285737,-3.6063283000093618,0.0,400,0.07406425476074219,0.007893405989609286,0.007234619551956297,135200,-343.8727337309303,0.0
338,1.4909827709197998,-366.9020673155658,4.16578672283215,-363.43001417538545,-373.8933737247834,0.0,0.42522216061644136,0.1,0.0031969547271728516,0.061962127685546875,0.04999743,0.22008473,-366.5625253536937,-3.6036904108085843,-3.669744231196055,0.0,400,0.07171344757080078,0.005780859722611643,0.005407216526242696,135600,-344.45290389922525,0.0
339,1.4606153964996338,-361.9349408531941,4.1445386319819875,-355.8412509293003,-366.0660946100371,0.0,0.38047469767666514,0.1,0.0031371116638183594,0.061003684997558594,0.050585613,0.32652798,-366.09976690364374,-3.5550668881179055,-3.620814920176843,0.0,400,0.1525719165802002,0.0055990082171122136,0.004959245593051256,136000,-341.68600233358757,0.0
340,1.5470027923583984,-361.5567281764164,4.347429872687644,-356.9406608412821,-368.61102893288205,0.0,0.4110999210755703,0.1,0.0031249523162841797,0.060981035232543945,0.049592063,0.24939623,-365.645463030921,-3.551555477814372,-3.6168858807348476,0.0,400,0.05349135398864746,0.006333730330130146,0.005356740252732119,136400,-342.36450121424224,0.0
341,1.5581660270690918,-362.00459306141664,5.340905100419953,-355.94548233835684,-368.0655719001029,0.0,0.38775216988161304,0.1,0.18100237846374512,0.9329953193664551,0.04915472,0.28686336,-365.2813760339706,-3.55464156043056,-3.6203651138378223,0.0,400,0.1290440559387207,0.005620449787448458,0.004828410684863847,136800,-342.5105543856865,0.0
342,1.5383212566375732,-354.8859351464323,8.156363397858687,-346.6995724378179,-367.93141883564516,0.0,0.39952036480095826,0.1,0.003137826919555664,0.06542515754699707,0.05006834,0.31370935,-364.2418319452168,-3.484842106884933,-3.550611618559774,0.0,400,0.05691957473754883,0.007012022820323894,0.006730842899030078,137200,-344.5772833103706,0.0
343,1.7263519763946533,-362.8606990048242,6.816345337726481,-354.1890860646351,-370.0246793148141,0.0,0.395868562268686,0.1,0.18172764778137207,0.14972376823425293,0.04897985,0.2626698,-364.10371865117753,-3.564619204184682,-3.6300829966602888,0.0,400,0.43251848220825195,0.010114056263324211,0.007767033668031911,137600,-344.5909302856041,0.0
344,1.5009806156158447,-360.0164778025013,9.001352397579387,-348.9309749584416,-373.85869507678586,0.0,0.38703290768495036,0.1,0.0034453868865966797,0.06417250633239746,0.050596796,0.2657521,-363.69499456630996,-3.5347686301840273,-3.6012809017369167,0.0,400,0.06335043907165527,0.007653875141505853,0.006267410620050346,138000,-344.6459713339472,0.0
