iteration,time_sampling,stoc_pol_mean,stoc_pol_std,stoc_pol_max,stoc_pol_min,rollout_success,alpha,delta,time_vpg,time_npg,kl_dist,surr_improvement,running_score,rwd_sparse,rwd_dense,success_percentage,num_samples,time_VF,VF_error_before,VF_error_after,env_samples,eval_score,eval_success
0,1.0672550201416016,0.0341397479375088,0.019514184314009208,0.05558704627221562,0.01030024339134267,0.0,0.1305137103278877,0.1,0.013593673706054688,0.052512168884277344,0.055251833,2.0826304,0.0341397479375088,0.0,0.0006812208747509701,0.0,200,0.014772891998291016,4.144457276890052,1.4002046214800745,200,0.004342861073638023,0.0
1,0.9905300140380859,0.051808630911383595,0.048284068181076244,0.12537486350803181,0.0019169222873697425,0.0,0.14199585025812994,0.1,0.0027589797973632812,0.052501678466796875,0.05757182,1.4928998,0.03590663623489628,0.0,0.0010327846867696103,0.0,200,0.014220237731933594,0.6985708089288093,0.5468306875032819,400,0.00368259126438106,0.0
2,0.9839684963226318,0.02084048607720084,0.008439904594452137,0.033819543698267174,0.010191438157710463,0.0,0.15609390655743502,0.1,0.002733945846557617,0.052368879318237305,0.048426446,0.63599104,0.034400021219126733,0.0,0.000416966392436035,0.0,200,0.013958215713500977,1.9808677180906908,0.8199501289850305,600,0.002820076127456682,0.0
3,1.0022177696228027,0.04091707579064123,0.04124428285508337,0.10372920066121871,5.599313873082047e-05,0.0,0.1311622888629182,0.1,0.0027365684509277344,0.05386090278625488,0.050220147,1.1608089,0.035051726676278185,0.0,0.0008035579502855008,0.0,200,0.013047218322753906,0.8831007813493589,0.6910505308093814,800,0.003914751504284219,0.0
4,1.1078321933746338,0.017962449415334363,0.018992865133791708,0.04878411393337618,0.0004319021490989915,0.0,0.1437865116896663,0.1,0.004950523376464844,0.05454611778259277,0.047687825,1.0781094,0.033342798950183807,0.0,0.0003558277491950653,0.0,200,0.014523506164550781,0.7099131688323836,1.0732201734852802,1000,0.007445123816115771,0.0
5,1.0461785793304443,0.0059659595298763544,0.003370710072504695,0.009677434756021536,0.0024492837277610563,0.0,0.13709006853203332,0.1,0.002688169479370117,0.05357670783996582,0.05202248,1.2336149,0.03060511500815306,0.0,0.00011817794566231864,0.0,200,0.014226913452148438,15.441850743699801,4.136312601627179,1200,0.012814891976567102,0.0
6,1.1201519966125488,0.22931700040883704,0.38858194341720037,0.9023477973264492,0.001734444975284453,0.0,0.12737371662620917,0.1,0.002669811248779297,0.053372859954833984,0.05303945,2.6491208,0.05047630354822146,0.0,0.00458649446877116,0.0,200,0.014026880264282227,0.9643168558522908,0.8822738379947311,1400,0.010011978962086294,0.0
7,1.136155366897583,0.001997514481445058,0.001086288180202964,0.0035287127926480746,0.0005401123127460875,0.0,0.14712662660647244,0.1,0.0026826858520507812,0.05334949493408203,0.049590074,0.9385697,0.04562842464154382,0.0,4.0104356839687235e-05,0.0,200,0.01667618751525879,970.5488930005861,1788.9376661765093,1600,0.016797008136921702,0.0
8,1.117642879486084,0.0102222584440874,0.008902008264835592,0.024827795237663784,0.0017364324439939178,0.0,0.14115824630926657,0.1,0.0027005672454833984,0.05209970474243164,0.049656916,0.9461859,0.04208780802179818,0.0,0.00020458048748281423,0.0,200,0.013459205627441406,43.9184378673768,16.2249822926469,1800,0.0044267670473485034,0.0
9,1.1300044059753418,0.007443363901175535,0.009018385425170935,0.022775409464320797,0.0007017824690025974,0.0,0.13530511167859538,0.1,0.002694368362426758,0.05258798599243164,0.0482556,1.1048706,0.038623363609735915,0.0,0.0001489599686760069,0.0,200,0.014046907424926758,25.929541806413432,2.444020781369206,2000,0.010947737908445129,0.0
10,1.127772331237793,0.09271842486717516,0.14229290184707052,0.33866902229874307,0.0017886995427588083,0.0,0.13353624014203516,0.1,0.0028700828552246094,0.054906368255615234,0.049026445,1.9433181,0.04403286973547984,0.0,0.0018545070092653403,0.0,200,0.013656377792358398,0.869112571088519,0.9151897157882176,2200,0.045896125679533585,0.0
11,1.1204559803009033,0.014786509105148418,0.010578820607799296,0.030137749069063233,0.00228617124580283,0.0,0.1273298006665374,0.1,0.0030083656311035156,0.054698944091796875,0.04889221,0.9309866,0.041108233672446697,0.0,0.0002957196011515057,0.0,200,0.015095949172973633,0.7338943562474842,0.5776494377986179,2400,0.006058393217218315,0.0
12,1.1107559204101562,0.08480985389224135,0.14363533354602023,0.3335843407605202,6.348121907304804e-05,0.0,0.12514681489653084,0.1,0.0028498172760009766,0.0534515380859375,0.05028656,3.7493114,0.04547839569442616,0.0,0.001694175802477065,0.0,200,0.01450490951538086,0.9402551778227348,0.8652010746628316,2600,0.007626266271952009,0.0
13,1.1536674499511719,0.20420652962235827,0.319916051517415,0.7578511214663014,0.008124031210526553,0.0,0.12438527142248884,0.1,0.0027768611907958984,0.05355381965637207,0.048498083,2.7434497,0.061351209087219374,0.0,0.004084267875074036,0.0,200,0.013707637786865234,0.9261719447126273,0.8538535145770852,2800,0.01833012296867068,0.0
14,1.1209545135498047,0.07049678932309461,0.07231364753008689,0.1804537982111188,0.002662044985501509,0.0,0.12665512156285744,0.1,0.002729177474975586,0.053627967834472656,0.050171837,1.2767657,0.0622657671108069,0.0,0.0013925126159508277,0.0,200,0.014354944229125977,0.5618343652180372,0.6689511593216242,3000,0.009588665286756655,0.0
15,1.1290743350982666,0.05591136898547113,0.04482853176007437,0.12442378157022453,0.006613080396833565,0.0,0.1414653510942405,0.1,0.002743959426879883,0.053211212158203125,0.05079681,1.0723538,0.06163032729827332,0.0,0.0011182772318613016,0.0,200,0.013565301895141602,1.3635011741681895,1.4738454092197255,3200,0.038592540170460814,0.0
16,1.0766348838806152,0.050344267539913036,0.04460665958238662,0.10791898903985761,2.749088767890036e-05,0.0,0.13141173424112293,0.1,0.0026979446411132812,0.05313730239868164,0.051258337,1.0790362,0.060501721322437294,0.0,0.000941801819102477,0.0,200,0.014358997344970703,1.365095756888277,0.8643402861552141,3400,0.0333676550277992,0.0
17,1.1616687774658203,0.3004672150370567,0.5146672720654368,1.1918917475645419,0.0004206283642944183,0.0,0.13250430958951848,0.1,0.02455735206604004,0.05354666709899902,0.050097667,4.590004,0.08449827069389923,0.0,0.006009349311937314,0.0,200,0.01445770263671875,0.8796176015544241,0.8604732539200022,3600,0.05612506265216858,0.0
18,1.2218832969665527,0.01156243765517415,0.0077916675099869515,0.02448467323040242,0.0038571452803275405,0.0,0.13683984512631758,0.1,0.0027854442596435547,0.05376601219177246,0.04932101,0.75524175,0.07720468739002673,0.0,0.00023140722802186676,0.0,200,0.020736217498779297,51.57513961460102,53.65772864029453,3800,0.05691496364518436,0.0
19,1.1951236724853516,0.1463906691633004,0.1221165495909106,0.3332445854416274,0.01373057197868325,0.0,0.1284481375058005,0.1,0.002780914306640625,0.05340218544006348,0.04897835,2.2498133,0.0841232855673541,0.0,0.0029230939533703535,0.0,200,0.013824701309204102,0.5197251149170908,0.5171774275936452,4000,0.041764492555662856,0.0
20,1.135195255279541,0.11921496578617621,0.10268680759628336,0.26627139046967846,0.010001322072299744,0.0,0.1317503166224823,0.1,0.0027990341186523438,0.05308961868286133,0.049786676,1.6411984,0.08763245358923633,0.0,0.0019111701421892326,0.0,200,0.01452779769897461,0.5285113410899078,0.5260515806705433,4200,0.036168804200257254,0.0
21,1.1732723712921143,0.25207731692990715,0.35458399205200475,0.8628722301015541,0.016944315176251067,0.0,0.1464105226937004,0.1,0.0026924610137939453,0.05317234992980957,0.05005213,1.39363,0.10407693992330341,0.0,0.005011692005483667,0.0,200,0.01407623291015625,0.7991431693434995,0.7484146813960629,4400,0.05775866186753298,0.0
22,1.2331066131591797,0.05194131827720826,0.08256056453119918,0.19487236109473902,0.0015319936149051296,0.0,0.1425061497604406,0.1,0.0026972293853759766,0.054456233978271484,0.049545888,0.87905365,0.0988633777586939,0.0,0.0010295680658087628,0.0,200,0.014767646789550781,1.5806127032156025,1.8474533828247344,4600,0.06520687910211805,0.0
23,1.2456767559051514,0.6746293266874751,0.6543160100836031,1.3639296828134808,0.020448989575063567,0.0,0.14061544365645456,0.1,0.0028333663940429688,0.05401754379272461,0.050751485,4.0437827,0.15643997265157203,0.0,0.01349224578949133,0.0,200,0.013994216918945312,0.7989150041604691,0.7186473873726764,4800,0.09638041944175287,0.0
24,1.2412481307983398,0.20342030742809356,0.2697939305314803,0.6585495191833727,6.827372449382027e-05,0.0,0.13060820233985307,0.1,0.0028700828552246094,0.05288863182067871,0.04852386,2.1319244,0.1611380061292242,0.0,0.004059449497062318,0.0,200,0.01849055290222168,0.6959744880513071,0.833539831836795,5000,0.10146675704722734,0.0
25,1.2304928302764893,0.7234457744541545,0.7057735631102466,1.4527479778180106,0.0019552939785315556,0.0,0.14269078971897406,0.1,0.0027015209197998047,0.0562748908996582,0.049849696,1.0121425,0.21736878296171722,0.0,0.014307825761260044,0.0,200,0.015671491622924805,0.6614969793358395,0.5656323848917814,5200,0.06096400119688385,0.0
26,1.224395990371704,0.03249402308728081,0.042706256243023995,0.10534471471798183,0.001175077512098037,0.0,0.13416082247065705,0.1,0.002745389938354492,0.05315208435058594,0.050025374,1.1775887,0.1988813069742736,0.0,0.0006496317912758717,0.0,200,0.01601266860961914,81.84002410412016,65.87484005816937,5400,0.08128493270306802,0.0
27,1.1508498191833496,0.1333207937420549,0.11129126882079399,0.2859342835103374,0.003178742905089275,0.0,0.13746515110626084,0.1,0.003602266311645508,0.0686788558959961,0.050803598,0.8489661,0.19232525565105174,0.0,0.0026661099679468592,0.0,200,0.016165494918823242,3.9759915816606433,1.077567165615919,5600,0.18061750904829008,0.0
28,1.1726510524749756,0.0336233166732494,0.046415927216436455,0.11394834600396576,0.00408106832749606,0.0,0.12545303326540075,0.1,0.002840757369995117,0.053723812103271484,0.049388066,1.0464891,0.17645506175327152,0.0,0.0006724421777496218,0.0,200,0.01484537124633789,17.3031941229054,4.268772939581043,5800,0.2252561172105865,0.0
29,1.1481175422668457,0.03464031099173813,0.041456287226046315,0.104794669704382,0.0013290409033598206,0.0,0.12747009882712973,0.1,0.002748250961303711,0.052788496017456055,0.04988767,1.0669714,0.1622735866771182,0.0,0.0006897325298544125,0.0,200,0.013734579086303711,4.864786907577372,5.665967075892494,6000,0.18100163240806413,0.0
30,1.1175775527954102,0.11387777457694516,0.18908020572117665,0.4413642124964347,0.0023913612157339197,0.0,0.13022314574213467,0.1,0.00283050537109375,0.05260944366455078,0.048749413,2.4539876,0.15743400546710087,0.0,0.0022772245164749305,0.0,200,0.014061212539672852,1.3750071399120989,1.0649454813063357,6200,0.17652922593197415,0.0
31,1.1294872760772705,0.8330752754691965,0.6774503949747294,1.5803128634238175,0.13055099198944575,0.0,0.13142565783477617,0.1,0.002790689468383789,0.05367016792297363,0.050121717,1.5640713,0.22499813246731043,0.0,0.016661654050511735,0.0,200,0.016597986221313477,0.9884467480638311,0.8493791350869665,6400,0.09045396926795891,0.0
32,1.149054765701294,0.5333612557982486,0.677743532341863,1.6966629926310486,0.0020462327311652115,0.0,0.13526907674622152,0.1,0.0034575462341308594,0.0712900161743164,0.0492815,1.5814662,0.25583444480040424,0.0,0.010667118940871221,0.0,200,0.015570402145385742,0.8595067275485119,0.7633135164565947,6600,0.07706185750371795,0.0
33,1.1582584381103516,0.6632438074959458,0.7644930408565819,1.8725149421747587,0.003377417648912719,0.0,0.12556496545191365,0.1,0.0033349990844726562,0.0679936408996582,0.05140724,2.304225,0.2965753810699584,0.0,0.013264839960572967,0.0,200,0.016414880752563477,0.7757343127248958,0.6904753238754722,6800,0.17458256018462356,0.0
34,1.1598711013793945,0.49848735456934,0.557245015673587,1.3994636844360084,0.02784394038857854,0.0,0.12834154215717086,0.1,0.0037109851837158203,0.06772351264953613,0.049727593,1.5251107,0.3167665784198966,0.0,0.009854474560031789,0.0,200,0.013706684112548828,0.6333050384927728,0.5866144620590905,7000,0.08428238306892834,0.0
35,1.1600871086120605,0.009405073848578334,0.008410072273319254,0.02298854754996749,0.0007146597198681695,0.0,0.12965867239370235,0.1,0.002939939498901367,0.052098751068115234,0.04984926,1.0549842,0.2860304279627648,0.0,0.00018809817194526918,0.0,200,0.014672279357910156,2007.4226344647418,1653.9640215273084,7200,0.04291543265741005,0.0
36,1.1832613945007324,0.014324593758709939,0.013978794615443218,0.03715360392479309,0.0014857284453051167,0.0,0.13544105643430593,0.1,0.0026988983154296875,0.05321550369262695,0.050588936,1.1129634,0.25885984454235933,0.0,0.0002852868380447788,0.0,200,0.013991594314575195,558.5775759979629,272.67809612377147,7400,0.06816281315849722,0.0
37,1.1952238082885742,0.06622253039706016,0.04823047936633167,0.13720097853042318,0.008814500514819013,0.0,0.1385532173043272,0.1,0.0027327537536621094,0.0521392822265625,0.049633916,1.410864,0.2395961131278294,0.0,0.0013246069902514144,0.0,200,0.01313924789428711,13.175987821970255,4.923933250834192,7600,0.09288516668262141,0.0
38,1.1941802501678467,0.26135049152696577,0.4277372772835417,1.0018442022731175,0.003424483240439353,0.0,0.13224302781846778,0.1,0.0027213096618652344,0.05235600471496582,0.048653502,5.689865,0.24177155096774305,0.0,0.005227164645027386,0.0,200,0.013962745666503906,0.7547853036964388,0.7804030769366197,7800,0.10547702586124635,0.0
39,1.1861083507537842,0.36980171345944707,0.41814038098294515,1.0827647162487004,0.020989950045335177,0.0,0.13262406843972668,0.1,0.0026924610137939453,0.05266904830932617,0.050427698,2.0205727,0.25457456721691346,0.0,0.007382221216215212,0.0,200,0.01302337646484375,0.7254968516580099,0.7380100284709039,8000,0.11199042931325469,0.0
40,1.1968145370483398,0.12622610114423882,0.13639373143569916,0.35804068303733794,0.006097670178064022,0.0,0.1410501570340111,0.1,0.0026862621307373047,0.05189013481140137,0.050424863,2.10131,0.24173972060964602,0.0,0.0025029861050628903,0.0,200,0.013683319091796875,0.6012359214243523,0.5877494024508731,8200,0.1870247413064053,0.0
41,1.9819536209106445,0.06072048414764359,0.06353576076859141,0.1511995525656049,0.00017292436457513354,0.0,0.12550792491784424,0.1,0.0027112960815429688,0.05351686477661133,0.050360627,1.9562485,0.22363779696344577,0.0,0.0011233526876617548,0.0,200,0.01361393928527832,1.2684718275685392,1.116840895951459,8400,0.28415751827787744,0.0
42,1.1036052703857422,0.10203552960447511,0.11370733396781585,0.2974766793669645,0.016655734979170205,0.0,0.12738847052525756,0.1,0.002777099609375,0.053246259689331055,0.04830822,2.9254012,0.2114775702275487,0.0,0.0020408184994139384,0.0,200,0.013596057891845703,0.7436541143711578,0.6790552213429917,8600,0.11498251570483213,0.0
43,1.1277828216552734,0.02137923258843066,0.016507342019788967,0.04633568241690725,0.0002649153462370308,0.0,0.12979640686548927,0.1,0.002758026123046875,0.05297398567199707,0.050020237,0.95903397,0.1924677364636369,0.0,0.00038105715610995913,0.0,200,0.014159917831420898,13.770150230094869,9.779790129184121,8800,0.27999032852276967,0.0
44,1.155233383178711,0.32917289214516865,0.4305504504450698,1.0687453101714162,0.013779168452930146,0.0,0.12820514713585454,0.1,0.002786397933959961,0.053626060485839844,0.049794033,3.986472,0.2061382520317901,0.0,0.006521961568623953,0.0,200,0.014147520065307617,0.7850684488431293,0.7820239260773684,9000,0.31459506190700653,0.0
45,1.1175873279571533,0.07224241741835932,0.07937786730244133,0.20915836915371044,0.014833957596392973,0.0,0.13523171443188237,0.1,0.0027399063110351562,0.05270838737487793,0.05003968,1.1087348,0.19274866857044703,0.0,0.001444301068065969,0.0,200,0.013937234878540039,0.6333248303562501,0.6553115141313998,9200,0.5970460836370552,0.0
46,1.1409976482391357,0.08248638904267795,0.12657486014791194,0.301695586454047,0.0064437332531103704,0.0,0.12781344364488406,0.1,0.006189107894897461,0.052826642990112305,0.050568745,2.318668,0.18172244061767015,0.0,0.0016496029707044658,0.0,200,0.013734817504882812,0.7308548248076671,0.7219861021377735,9400,0.574596978681212,0.0
47,1.138293743133545,0.09822270436153259,0.05935621355209966,0.1731379723420926,0.02128996247301489,0.0,0.12713449335517482,0.1,0.0027909278869628906,0.052906036376953125,0.049838338,0.9243203,0.17337246699205638,0.0,0.0019631140105387914,0.0,200,0.014017820358276367,0.44023639159592254,0.4193559751731474,9600,0.5178399589880442,0.0
48,1.1441009044647217,0.25887058424260995,0.4241493307694035,0.9930782654129594,0.0015499562301093768,0.0,0.13214322913616883,0.1,0.002879619598388672,0.05244731903076172,0.050504245,1.8158789,0.18192227871711175,0.0,0.005026508759077773,0.0,200,0.013757944107055664,0.8185673153773506,0.8051493873663184,9800,0.6327324465035103,0.0
49,1.1431770324707031,0.4466727032244918,0.5615618820191528,1.405486565532113,0.022043931909220646,0.0,0.1339407061624405,0.1,0.0028181076049804688,0.052617549896240234,0.048928097,2.0469937,0.20839732116784976,0.0,0.008828709053332044,0.0,200,0.013972759246826172,0.8121984845744591,0.7891593248927352,10000,0.4988102624342387,0.0
50,1.1613783836364746,0.5761794827434715,0.674783722359547,1.7368749614781402,0.0992900784833242,0.0,0.12557863219428322,0.1,0.0028107166290283203,0.05350136756896973,0.04902688,2.9135056,0.24517553732541195,0.0,0.011519427957577896,0.0,200,0.014577865600585938,0.8163710098219555,0.7869589633172991,10200,0.23373077687553775,0.0
51,1.1859474182128906,0.6898469324543816,0.42976866998667373,1.1685964268559668,0.09691406479394155,0.0,0.12529331921528492,0.1,0.0029850006103515625,0.0538783073425293,0.04985072,1.5833924,0.2896426768383089,0.0,0.01373625615556902,0.0,200,0.014040231704711914,0.6940879535863623,0.6226594084621008,10400,0.803033400636212,0.0
52,1.1979053020477295,0.17997390203014754,0.24227519660241106,0.5938526038266314,0.00721166710214744,0.0,0.11797503569688561,0.1,0.0027599334716796875,0.056951045989990234,0.048787232,4.4107347,0.2786757993574928,0.0,0.0035995114582356926,0.0,200,0.01619887351989746,0.6941058186757236,0.7767379003667658,10600,0.41888505341526683,0.0
53,1.223825454711914,0.14248522695374852,0.21234687137761776,0.5098071361425729,0.0035426463874689788,0.0,0.13033890518576036,0.1,0.0035271644592285156,0.06811738014221191,0.048800744,2.920652,0.2650567421171184,0.0,0.00284674584871087,0.0,200,0.013635873794555664,0.9586114851487753,1.0226043517037446,10800,0.7141038625771675,0.0
54,1.2286102771759033,0.34134674506443435,0.5746126239129093,1.3365472848548678,0.0009756228191570978,0.0,0.12677048010579015,0.1,0.0028162002563476562,0.052170515060424805,0.04914129,3.982244,0.27268574241185,0.0,0.006804787554205989,0.0,200,0.017270803451538086,0.738121365720729,0.733773711612808,11000,1.253553989282483,0.0
55,1.218214750289917,0.4592270922735414,0.46242910103317203,1.1227642266208908,0.013654365821609272,0.0,0.12777866044218314,0.1,0.003419637680053711,0.06831622123718262,0.049818028,1.5395492,0.29133987739801914,0.0,0.009167468404997983,0.0,200,0.01712322235107422,0.5943332121538876,0.5790249608076837,11200,0.22869516411201263,0.0
56,1.2471725940704346,0.24874831398842978,0.14712007910837105,0.39977223301435044,0.0944184223751645,0.0,0.12709874875345237,0.1,0.002865314483642578,0.05227303504943848,0.049796525,1.2516963,0.28708072105706023,0.0,0.0049740593434141524,0.0,200,0.014865636825561523,0.44081621778681185,0.4403081780072911,11400,0.9852522950651946,0.0
57,1.2423911094665527,0.6480362370217891,0.6287801866271716,1.4348449396105063,0.02836139964079976,0.0,0.13629917862936056,0.1,0.003005504608154297,0.05231666564941406,0.050163697,1.1593175,0.3231762726535331,0.0,0.012958513295724918,0.0,200,0.014209270477294922,0.6027811966665694,0.5719829112166852,11600,1.0444952803830865,0.0
58,1.2644481658935547,0.1293101125308854,0.12989627209043506,0.3478568372957994,0.013179204037669133,0.0,0.12864856626128615,0.1,0.0028028488159179688,0.05286264419555664,0.0501289,0.91834265,0.30378965664126834,0.0,0.0025857027979411915,0.0,200,0.016023874282836914,1.925372934813421,1.956310088026556,11800,0.9571930506371708,0.0
59,1.2571077346801758,0.218391612953875,0.21118002305103759,0.43081842957323874,0.00531660532568388,0.0,0.12904343662737774,0.1,0.0028374195098876953,0.05290484428405762,0.04995956,1.6108017,0.295249852272529,0.0,0.004351131226847592,0.0,200,0.014600992202758789,0.8370764962936883,0.6677627221297617,12000,0.9522329106810029,0.0
60,1.222496747970581,0.35374212272949285,0.34374784026032285,0.764756072343245,0.00724489386049036,0.0,0.12256087524579301,0.1,0.0027039051055908203,0.05214095115661621,0.049909778,1.9190478,0.3010990793182254,0.0,0.007074928788937038,0.0,200,0.013154029846191406,0.5112387406757178,0.5223197523248503,12200,0.615420000686868,0.0
61,1.254697322845459,0.6415938843243552,0.7704818232965464,1.9650965654854418,0.06899262061573307,0.0,0.13123057968882257,0.1,0.0026397705078125,0.05232405662536621,0.05018592,1.5183074,0.33514855981883834,0.0,0.012775227848648027,0.0,200,0.015401363372802734,0.7323044842614302,0.6948321201607337,12400,1.276892613555733,0.0
62,1.171851396560669,0.43336716880361664,0.433045924828959,0.9774229269749108,0.004414743767446257,0.0,0.12552918869648308,0.1,0.003036975860595703,0.05450272560119629,0.048542544,3.2680492,0.3449704207173162,0.0,0.008667213080794487,0.0,200,0.014367818832397461,0.562773835281564,0.5554442827517624,12600,1.1274804612625027,0.0
63,1.2044079303741455,0.3158465680175546,0.3552347314522678,0.8936342327529108,0.019520737469494537,0.0,0.12230526277323132,0.1,0.002763032913208008,0.05329418182373047,0.049655978,2.390149,0.3420580354473401,0.0,0.006317046327998037,0.0,200,0.01638054847717285,0.646323062579994,0.6586060747018021,12800,1.3910315472620098,0.0
64,1.1799325942993164,0.778523423015369,0.4696878762898762,1.3154060898336128,0.04068061340580265,0.0,0.13132111454709391,0.1,0.002784252166748047,0.05427050590515137,0.0498465,1.0243703,0.385704574204143,0.0,0.015558604419152942,0.0,200,0.01632547378540039,0.44964731747741593,0.3994659011592008,13000,1.2487389372306033,0.0
65,1.1554157733917236,1.0804159197692063,0.7864337091317618,2.025516711934354,0.02524629970756524,0.0,0.12253621918908743,0.1,0.002781391143798828,0.054033756256103516,0.049704626,1.3881618,0.45517570876064933,0.0,0.021608398300930316,0.0,200,0.01347804069519043,0.5540692749437547,0.4600855743754109,13200,0.8307223119523325,0.0
66,1.1811072826385498,1.100473024740167,0.46890265682199944,1.5584139007882574,0.4443942558313949,0.0,0.1247192506126066,0.1,0.0029783248901367188,0.05393695831298828,0.05006938,1.9666772,0.5197054403586011,0.0,0.022009459742724564,0.0,200,0.013653039932250977,0.34500715374021956,0.2493889820980299,13400,0.9084943683940093,0.0
67,1.1429615020751953,0.9080163582819949,0.6141506620522583,1.4774495608548588,0.01248136525932447,0.0,0.12806803921158777,0.1,0.002748250961303711,0.05268144607543945,0.049965557,1.1103768,0.5585365321509406,0.0,0.01802037311076303,0.0,200,0.014098644256591797,0.3334477902463553,0.374072638353119,13600,0.7054155703714092,0.0
68,1.2006027698516846,0.18075389660321523,0.14852542213974496,0.4259706875941047,0.042404368984833525,0.0,0.12509330554254444,0.1,0.00279998779296875,0.05381655693054199,0.048781987,1.4078467,0.520758268596168,0.0,0.003011938106922481,0.0,200,0.014974832534790039,15.184568279202908,7.1410951745460896,13800,0.3747055962360368,0.0
69,1.204467535018921,0.569817916215674,0.6824318120721199,1.738319210973667,0.01316632479576656,0.0,0.13560012026715523,0.1,0.002844095230102539,0.05626559257507324,0.049854502,1.5077562,0.5256642333581186,0.0,0.011336865764728685,0.0,200,0.013853311538696289,0.6840001895833538,0.5916862682576379,14000,0.8008180147646797,0.0
70,1.1961748600006104,0.33637554831417293,0.2526936783017371,0.5875706945787738,0.005865694822922008,0.0,0.12962530036231926,0.1,0.0028154850006103516,0.0528721809387207,0.050993368,1.2681619,0.5067353648537241,0.0,0.006726879553081951,0.0,200,0.017658233642578125,0.6097480076294903,0.36971692488892327,14200,1.408793860680474,0.0
71,1.1776008605957031,0.4723828721553705,0.5673732914931408,1.4270356771988388,0.008719048216334754,0.0,0.13094099213771432,0.1,0.003325223922729492,0.06831240653991699,0.049529802,2.1368442,0.5033001155838888,0.0,0.00944740311910684,0.0,200,0.01615309715270996,0.5938180213216937,0.6322492881344299,14400,1.0091011169816428,0.0
72,1.1889317035675049,0.3368323083625495,0.38156911504331836,0.9525157416191244,4.66854335033554e-05,0.0,0.12952834368607022,0.1,0.0034265518188476562,0.06843352317810059,0.050358485,2.8806512,0.4866533348617549,0.0,0.006664484585155454,0.0,200,0.013799905776977539,0.6314055974272641,0.6345708549072067,14600,0.48594364692264386,0.0
73,1.2151637077331543,0.6417899154400848,0.4614533261427824,1.1817956118237065,0.09048656873892287,0.0,0.13282098970394415,0.1,0.0027704238891601562,0.05223965644836426,0.049062334,1.2537239,0.5021669929195879,0.0,0.01283477242934689,0.0,200,0.013282060623168945,0.591222416447069,0.5742012089521937,14800,1.822638701088288,0.0
74,1.191577672958374,0.7436855928393247,0.7172871592440736,1.7997771848198905,0.01392270751596329,0.0,0.1255599200348877,0.1,0.002777576446533203,0.05213189125061035,0.050340086,2.4233823,0.5263188529115616,0.0,0.014873602246470809,0.0,200,0.01389312744140625,0.674686231828693,0.644028443212483,15000,0.8471304930198421,0.0
75,1.2155072689056396,0.7012909146155047,0.47868278625644606,1.3577286632402035,0.02042198350060344,0.0,0.1320281304319927,0.1,0.002793550491333008,0.05292987823486328,0.050391436,1.4607718,0.5438160590819558,0.0,0.014025911875554875,0.0,200,0.013389825820922852,0.5308193829013047,0.4818916482518206,15200,1.8584003576859727,0.0
76,1.1994667053222656,0.49831872187839704,0.4363721991590813,1.25207151525526,0.19659107610575965,0.0,0.12817167978116775,0.1,0.0026488304138183594,0.0523068904876709,0.049910735,2.4529667,0.5392663253616,0.0,0.009944028898754967,0.0,200,0.013545513153076172,0.5027725610922582,0.4813184041739291,15400,1.757231025687518,0.0
77,1.1981666088104248,0.47983534006839984,0.4101450629553944,0.9890041188519965,0.042477105689337845,0.0,0.12565464304158472,0.1,0.002725839614868164,0.05328035354614258,0.049946785,1.3416654,0.5333232268322801,0.0,0.009589205047298762,0.0,200,0.01392364501953125,0.4539002053717917,0.4483670309978938,15600,1.0697553471309924,0.0
78,1.1849863529205322,0.7335886934536916,0.5819897855211428,1.428871161042976,0.09758311255535825,0.0,0.1268232632794929,0.1,0.0030052661895751953,0.057486534118652344,0.04898989,1.2643273,0.5533497734944212,0.0,0.014664606947785043,0.0,200,0.014404058456420898,0.4845081929312359,0.4594879183142051,15800,1.079230903309851,0.0
79,1.175236463546753,0.7650723961854115,0.6588329865867399,1.5253048460680028,0.07477019493942932,0.0,0.12529343176273652,0.1,0.002777576446533203,0.0530393123626709,0.04995202,2.3389385,0.5745220357635202,0.0,0.015248013443119754,0.0,200,0.014497518539428711,0.5297855302769814,0.5079329786332089,16000,0.8240738900012942,0.0
80,1.1997172832489014,0.663308725083714,0.6879532982167543,1.7373558723264113,0.0006496081569986507,0.0,0.13072483815310104,0.1,0.0027697086334228516,0.05356121063232422,0.049944125,1.6998197,0.5834007046955396,0.0,0.013262791281483648,0.0,200,0.014235258102416992,0.5387877014511635,0.5258192345341356,16200,1.533636814104702,0.0
81,1.1858375072479248,0.3351122868452274,0.5580706208220719,1.30151139980928,0.0015038822862377373,0.0,0.13724445498796417,0.1,0.0027534961700439453,0.0534205436706543,0.049744643,1.3685045,0.5585718629105084,0.0,0.006694986269396396,0.0,200,0.017598628997802734,1.0506905125507349,0.9918927519915617,16400,0.617406023102828,0.0
82,1.1598381996154785,0.2356870479520024,0.22235104925549007,0.5405781111903906,0.013982399078542953,0.0,0.13090502125447706,0.1,0.00272369384765625,0.05514836311340332,0.049716562,0.778505,0.5262833814146578,0.0,0.0047115817081296064,0.0,200,0.014934539794921875,2.2613266235568936,1.4063249411077965,16600,0.3144331370642267,0.0
83,1.191455602645874,0.5101369979273875,0.6886909791354091,1.694446151382523,0.044955837376060064,0.0,0.13067414660558907,0.1,0.0028183460235595703,0.05305647850036621,0.05089431,2.2610974,0.5246687430659308,0.0,0.010202832980074345,0.0,200,0.013729095458984375,0.6259529187330422,0.6417987058977315,16800,0.9409640494970906,0.0
84,1.2079074382781982,0.14481427127696012,0.07928012428812797,0.2601995007225307,0.03914979856277916,0.0,0.12547022832340726,0.1,0.002779722213745117,0.0528416633605957,0.050060976,0.9732006,0.48668329588703374,0.0,0.00289638486227213,0.0,200,0.013907194137573242,3.10515051422512,1.6254602080495115,17000,0.9004858928686486,0.0
85,1.2581048011779785,0.3985354109536295,0.42748570581783074,1.0270443015838728,0.0036664915406269274,0.0,0.13395705968631566,0.1,0.002809286117553711,0.05369257926940918,0.05025383,1.5824062,0.4778685073936933,0.0,0.00796533898850652,0.0,200,0.014342546463012695,0.5794630981803925,0.5971773174414859,17200,0.5152932690823029,0.0
86,1.2420284748077393,0.8477651554085518,0.48881019420056215,1.2121816830727523,0.009595670412674227,0.0,0.12714108826917908,0.1,0.002866506576538086,0.05370521545410156,0.04990884,1.0326183,0.5148581721951792,0.0,0.016955348821518244,0.0,200,0.013683319091796875,0.5880280288993286,0.5442372871907931,17400,0.5874351338916949,0.0
87,1.254390001296997,0.07446221536182643,0.04383726860174645,0.14747673081828694,0.031121612336979614,0.0,0.12371608216198325,0.1,0.0027730464935302734,0.05266165733337402,0.050226666,1.0889,0.4708185765118439,0.0,0.0013973339194539372,0.0,200,0.015247344970703125,9.549114758315884,10.828727739591669,17600,0.33253390155682944,0.0
88,1.2222089767456055,0.25900696451821753,0.26609676328125015,0.7049848866636835,0.004853141066174699,0.0,0.12792197639805436,0.1,0.0027756690979003906,0.05285453796386719,0.04991136,1.02916,0.44963741531248125,0.0,0.00511413662873022,0.0,200,0.014253616333007812,0.6005475692914711,0.5887573083592489,17800,0.24219982584533514,0.0
89,1.270097255706787,0.26174627378152676,0.388583692910847,0.9329028128357015,0.0010132343545713283,0.0,0.12558407652990355,0.1,0.002756834030151367,0.056638240814208984,0.050448347,2.1270795,0.4308483011593858,0.0,0.005234810422704744,0.0,200,0.013991117477416992,0.7387732850485453,0.7260719060050717,18000,0.20048064314416733,0.0
90,1.290520429611206,0.7035828581883251,0.50668753995901,1.5590871872688465,0.24788593009817503,0.0,0.12653676353035315,0.1,0.0029053688049316406,0.05383110046386719,0.05074586,1.9357507,0.4581217568622798,0.0,0.014034020595527597,0.0,200,0.013457775115966797,0.5541520877105799,0.5382238631048049,18200,0.38760787904107435,0.0
91,1.2524244785308838,0.20059323431363,0.17104062776092063,0.4771453359022068,0.053210569109016226,0.0,0.12551706560392897,0.1,0.0028548240661621094,0.05453300476074219,0.04979185,0.94244736,0.43236890460741484,0.0,0.003995452263928007,0.0,200,0.019080162048339844,0.7654096539812535,0.8250006334675527,18400,0.19037741230006536,0.0
92,1.2715916633605957,0.14835050698402796,0.1556121072889856,0.41158723551066057,0.031902399859539736,0.0,0.11971871307663598,0.1,0.0027697086334228516,0.05205130577087402,0.048922606,0.87736326,0.40396706484507616,0.0,0.0029669493963384065,0.0,200,0.014700174331665039,1.2622386628579947,1.1790866918412852,18600,0.39653941209556615,0.0
93,1.2809793949127197,0.14214108637269024,0.16090826940805433,0.41791814242245456,0.018731584262489855,0.0,0.12617622720072524,0.1,0.002686023712158203,0.05294680595397949,0.049731836,0.9194243,0.3777844669978376,0.0,0.002824181351108566,0.0,200,0.013956069946289062,1.517559684056341,1.2708438221078358,18800,0.2360263135740497,0.0
94,1.1193974018096924,0.261261652719295,0.20764304879148066,0.5785140045416878,0.03589403037760224,0.0,0.1252213275914433,0.1,0.0030755996704101562,0.055876970291137695,0.049871497,1.5882821,0.36613218556998334,0.0,0.005156948208229461,0.0,200,0.014562368392944336,0.4097234461819391,0.3999962402390003,19000,0.1976467993924977,0.0
95,1.2062058448791504,0.29745274895395035,0.4596338535320554,1.093410835575379,0.017890993163456693,0.0,0.1221266338446396,0.1,0.002904653549194336,0.0531611442565918,0.050515108,2.9670408,0.35926424190838,0.0,0.00594316594277239,0.0,200,0.0154266357421875,0.7001866399961301,0.7011248947740436,19200,0.33495660061891025,0.0
96,1.211564540863037,0.40739412034882333,0.29230209202558666,0.6946510526729311,0.02871243910739597,0.0,0.12209001434052176,0.1,0.0028047561645507812,0.05479550361633301,0.048803404,1.5099591,0.3640772297524244,0.0,0.008147759699404374,0.0,200,0.014397621154785156,0.422805038620538,0.4264044580747691,19400,0.4823308893273576,0.0
97,1.2193784713745117,0.395298511705149,0.6205262057933669,1.4684182243059754,0.0007032115974950383,0.0,0.12194698229518638,0.1,0.002791166305541992,0.05388331413269043,0.049035735,2.4857142,0.36719935794769687,0.0,0.007905001525287622,0.0,200,0.016283273696899414,0.7329057485125816,0.7269144400183549,19600,0.583522998521345,0.0
98,1.236107587814331,0.22057967658164374,0.16490256265401126,0.4371022388338009,0.04596014105705346,0.0,0.12692546385284692,0.1,0.002682924270629883,0.057360172271728516,0.048865687,0.9150503,0.35253738981109156,0.0,0.004395206783549079,0.0,200,0.01299142837524414,0.41453590782607325,0.42927444806536846,19800,0.247744381164953,0.0
99,1.2623789310455322,0.2669851100083052,0.3393371577383243,0.8388212677653947,0.007246916923048292,0.0,0.1277841621593876,0.1,0.002858400344848633,0.05275106430053711,0.05020615,1.6628271,0.3439821618308129,0.0,0.0053397107977647355,0.0,200,0.013845682144165039,0.6243766807547437,0.6227146078738134,20000,1.0323942608524705,0.0
100,1.2448115348815918,0.13699730846640745,0.10512147911963254,0.24694132480963793,0.0026440364078894473,0.0,0.12800279009122326,0.1,0.002715587615966797,0.05258917808532715,0.049127266,0.8011577,0.32328367649437234,0.0,0.0027401021715197007,0.0,200,0.017603158950805664,1.0273203129649837,0.9582165222997312,20200,1.0362695840482152,0.0
101,1.2692835330963135,0.6050884838484484,0.5515697862875873,1.2542883900936126,0.0029018283451913832,0.0,0.11993917743812185,0.1,0.0029993057250976562,0.055464744567871094,0.048829164,2.368762,0.3514641572297799,0.0,0.012101254420609915,0.0,200,0.013927221298217773,0.6174857458020766,0.6037139602699778,20400,0.9634608396429841,0.0
102,1.2484745979309082,0.6270433483984671,0.5487600082326697,1.3983466857460172,0.09561788755070955,0.0,0.1275019915463978,0.1,0.0027871131896972656,0.0531308650970459,0.050217763,1.7965796,0.37902207634664864,0.0,0.01254096983763808,0.0,200,0.014399051666259766,0.6079740996224132,0.5776303554584922,20600,1.1878592071744885,0.0
103,1.2562453746795654,0.20250466662164884,0.3133044398667542,0.7446629560194871,0.005757957088931059,0.0,0.12546141803342845,0.1,0.0028336048126220703,0.053098201751708984,0.050038565,1.7311542,0.3613703353741487,0.0,0.0040183769971427145,0.0,200,0.013620376586914062,0.8314732658136897,0.8771470904245033,20800,1.029265874076721,0.0
104,1.240065097808838,0.15718510341491707,0.2355780404527556,0.564228899929937,0.007994788732088903,0.0,0.13375868982267689,0.1,0.003090381622314453,0.05268692970275879,0.04989049,1.1073614,0.3409518121782255,0.0,0.003143833229353893,0.0,200,0.013910293579101562,0.9013449400070628,0.8935941114063447,21000,1.1086365042310808,0.0
105,1.2467389106750488,0.35548755151510425,0.5310340563155325,1.270990795129332,0.0025318627638485428,0.0,0.12627942915165327,0.1,0.002874135971069336,0.05354475975036621,0.048258815,2.7039435,0.34240538611191335,0.0,0.0071073878947584485,0.0,200,0.013717889785766602,0.6877889995942406,0.6856686073317492,21200,0.9082044301451256,0.0
106,1.2654786109924316,0.8074723165241553,0.5601755707325001,1.4798428091165519,0.00801534532510129,0.0,0.12821612615911848,0.1,0.0027077198028564453,0.05251717567443848,0.049322728,1.4740944,0.3889120791531376,0.0,0.016149311118119104,0.0,200,0.013360261917114258,0.562499587977713,0.5418097823793049,21400,0.7260553534158113,0.0
107,1.2465832233428955,0.16717696289156286,0.13514140922210388,0.3330069871989179,0.024454035472553374,0.0,0.1286367043795229,0.1,0.002826690673828125,0.0535428524017334,0.049726915,0.811942,0.3667385675269801,0.0,0.0033430294438285355,0.0,200,0.013701915740966797,1.3573576461689385,1.4447393447509307,21600,1.277945259561431,0.0
108,1.2766599655151367,0.7183595265118682,0.46765115016772535,1.1906460547911173,0.0011248216696659495,0.0,0.13308149308440292,0.1,0.002748250961303711,0.05272173881530762,0.05025555,1.068977,0.4019006634254689,0.0,0.014367210787184552,0.0,200,0.013426065444946289,0.47000487581490863,0.4536022527923725,21800,0.7205641095296134,0.0
109,1.2698040008544922,0.5869069233195056,0.5419228836804896,1.482074673399236,0.03170141828063992,0.0,0.11923969950094833,0.1,0.0027208328247070312,0.0547633171081543,0.04940626,3.9892068,0.42040128941487254,0.0,0.011733281455915385,0.0,200,0.013302326202392578,0.5080328908680858,0.4856079094215929,22000,0.9035080657679856,0.0
110,1.282585859298706,0.3722253290673793,0.3751462695843645,0.9640819560055705,0.022542622734779385,0.0,0.11915467687500177,0.1,0.0027132034301757812,0.05259060859680176,0.049877506,2.966166,0.41558369338012324,0.0,0.0073529463310431165,0.0,200,0.013716936111450195,0.5217725471333173,0.5287820856560227,22200,0.8422514645378266,0.0
111,1.2751805782318115,1.0403236639528965,0.6194722114335898,1.6087344332444047,0.013092226099140021,0.0,0.12375372394948071,0.1,0.0027832984924316406,0.05340433120727539,0.049914073,1.4264241,0.4780576904374006,0.0,0.020804930220755607,0.0,200,0.01365971565246582,0.5253709356879862,0.4680770405748346,22400,0.29463468408263066,0.0
112,1.2502961158752441,0.8830147710891585,0.7961861227812973,1.8391911863171377,0.08115659374535548,0.0,0.12185355565955393,0.1,0.0030117034912109375,0.05483269691467285,0.04922718,1.3073479,0.5185533985025764,0.0,0.017660270360109205,0.0,200,0.01494741439819336,0.5584739223419213,0.5091086366891293,22600,0.48558739216388713,0.0
113,1.2008168697357178,0.820602938727684,0.9502789209839771,2.399371604895985,0.02278907815618191,0.0,0.1356096325772334,0.1,0.002844095230102539,0.05339622497558594,0.0489981,1.5836117,0.5487583525250872,0.0,0.01641136735594016,0.0,200,0.01394963264465332,0.6094540127678499,0.6058101737950793,22800,0.8638744634375515,0.0
114,1.2332127094268799,0.1848786302189348,0.16093799727958077,0.44096794831157204,0.022373926717166374,0.0,0.13272672847824615,0.1,0.002791881561279297,0.05330324172973633,0.049801916,0.89736676,0.5123703802944719,0.0,0.0036689158273859675,0.0,200,0.013948202133178711,8.059711493690028,6.192107878274253,23000,0.9658780785482279,0.0
115,1.230597972869873,0.5847698045669867,0.4300594772776795,1.1929378098446106,0.035352998690351904,0.0,0.12142254171577864,0.1,0.0029747486114501953,0.05452299118041992,0.049454115,2.1809287,0.5196103227217234,0.0,0.011695353929780591,0.0,200,0.014271020889282227,0.45066563756986117,0.37839244605258926,23200,1.1605599806319638,0.0
116,1.2439329624176025,0.47599756843516405,0.38461543781894825,0.9448464817828365,0.0709648084352215,0.0,0.1338100475303366,0.1,0.0034842491149902344,0.06859302520751953,0.049670037,0.88912356,0.5152490472930674,0.0,0.009500041693718923,0.0,200,0.014496564865112305,0.5230592861915492,0.42095263832698115,23400,1.0251041198192876,0.0
117,1.2800354957580566,0.194281107315335,0.11784597670875198,0.3773329179844381,0.08066765708232333,0.0,0.1231466573880713,0.1,0.003448009490966797,0.0681450366973877,0.050108485,1.1079005,0.4831522532952942,0.0,0.003735471128821517,0.0,200,0.01615452766418457,2.5382301425457747,1.3987900952789114,23600,0.6950174000281528,0.0
118,1.2729322910308838,0.8645027853602582,0.39573232353000226,1.3417053077870973,0.25091798681925714,0.0,0.13040642488839865,0.1,0.0034623146057128906,0.06828570365905762,0.050267376,1.1260982,0.5212873065017907,0.0,0.01729021080999027,0.0,200,0.016299962997436523,0.4001813421466088,0.41992489130768884,23800,0.7212306461704773,0.0
119,1.2780661582946777,0.4941098917699982,0.2908822061417449,0.8883098499660513,0.06690441081035027,0.0,0.1284226037220174,0.1,0.0034513473510742188,0.06833529472351074,0.04991686,2.0609815,0.5185695650286115,0.0,0.009882239664378272,0.0,200,0.016803264617919922,0.31745178466010626,0.3079990632296783,24000,1.5096391970323706,0.0
120,1.2781429290771484,0.5800403858263005,0.41431094707889565,1.0074317316703347,0.037139015180414625,0.0,0.1245932864509554,0.1,0.002827167510986328,0.05418038368225098,0.050220747,1.5760177,0.5247166471083804,0.0,0.011600966156487069,0.0,200,0.014487504959106445,0.39998738708637727,0.3748359178589638,24200,1.009021209892708,0.0
121,1.2767956256866455,0.2615614679250516,0.14170453507651773,0.38405160796075655,0.03793634166544449,0.0,0.12745133302983427,0.1,0.0028417110443115234,0.05311179161071777,0.049912985,0.6621862,0.49840112919004753,0.0,0.005230607190301398,0.0,200,0.019634723663330078,0.8275573231945192,0.8555399448431338,24400,1.1484188449976427,0.0
122,1.2989001274108887,1.0238718718855067,0.6444612965861155,1.9176928173079049,0.1309456036137574,0.0,0.12253136783628184,0.1,0.0028040409088134766,0.05376839637756348,0.050325174,1.5284969,0.5509482034595934,0.0,0.020477595207960223,0.0,200,0.016290903091430664,0.5186770108420348,0.49142197962014855,24600,1.068326269801043,0.0
123,1.2801237106323242,0.5037036185055879,0.4805328289586678,1.2750974442484801,0.00273165965873369,0.0,0.1191291374104637,0.1,0.002788066864013672,0.052912235260009766,0.0498747,3.2636783,0.5462237449641929,0.0,0.010023654842926088,0.0,200,0.01493978500366211,0.5039215558753045,0.5065708277678895,24800,1.5424791794862782,0.0
124,1.2874135971069336,0.5462584028416266,0.4988467085540399,1.15968223304329,0.009578365221403092,0.0,0.1309027001900758,0.1,0.002743244171142578,0.053087472915649414,0.04910769,1.0943017,0.5462272107519363,0.0,0.010923522793965192,0.0,200,0.014422416687011719,0.4969378719499461,0.5010848593942254,25000,0.9664163983372807,0.0
125,1.3127834796905518,0.871187301987486,0.6659698978663572,2.0026697017370387,0.34233861246623987,0.0,0.12424435377814369,0.1,0.0028095245361328125,0.05235576629638672,0.049423095,3.0517633,0.5787232198754912,0.0,0.01742390448120159,0.0,200,0.014508962631225586,0.4634209510840185,0.44592303548522577,25200,0.8573774835627136,0.0
126,1.2835023403167725,0.35492748205015673,0.35954016692256363,0.9365346828017241,0.02209957648278855,0.0,0.12743015309167494,0.1,0.0028541088104248047,0.053072214126586914,0.04951569,1.4581409,0.5563436460929578,0.0,0.00709821567397159,0.0,200,0.014235258102416992,0.7670204574905722,0.7786056730331793,25400,0.7869608306045414,0.0
127,1.3104183673858643,0.7243864277821045,0.5154163345103667,1.5084183736959698,0.24925129940941965,0.0,0.13153611551526648,0.1,0.0028324127197265625,0.05342268943786621,0.049858138,1.6122893,0.5731479242618726,0.0,0.014479763618944026,0.0,200,0.014840841293334961,0.4037952466244687,0.39971231364023757,25600,0.7378628816935672,0.0
128,1.29593825340271,0.27416334377467916,0.4028544603395288,0.9708683102969893,0.016875752879738245,0.0,0.12373667836119574,0.1,0.0028171539306640625,0.0520024299621582,0.049787436,1.5166682,0.5432494662131533,0.0,0.005454189021359244,0.0,200,0.011768817901611328,1.1205059068268186,1.0586409180129344,25800,0.6502153507526273,0.0
129,1.3045687675476074,0.8753415873505608,0.34017277827691433,1.2714404597601077,0.37154420308411007,0.0,0.12991804139815671,0.1,0.0028285980224609375,0.054312705993652344,0.049919553,1.1458021,0.576458678326894,0.0,0.01750583990266412,0.0,200,0.018425703048706055,0.25775803588433766,0.2597821297793466,26000,1.4313874239467115,0.0
130,1.3551952838897705,0.4947007076345881,0.2036529815984675,0.7105701124822487,0.2099286780243577,0.0,0.13309224999790015,0.1,0.003538370132446289,0.06724739074707031,0.048519555,0.8557584,0.5682828812576634,0.0,0.009887711921106521,0.0,200,0.015579700469970703,0.2339312666797138,0.22644978166468951,26200,0.7743027375459651,0.0
131,1.226217269897461,0.44817878142694034,0.4061603625155545,1.0933212025828416,0.043279194146373,0.0,0.13639431834344867,0.1,0.0028688907623291016,0.053176164627075195,0.049570743,1.1497242,0.556272471274591,0.0,0.008881372496082549,0.0,200,0.013365507125854492,0.5452355366323104,0.5209449791606086,26400,1.3354692835354214,0.0
132,1.226041555404663,0.7920316313795329,0.6685529764152367,1.677366859912595,0.031205366545874316,0.0,0.1295094207280495,0.1,0.002811908721923828,0.053284406661987305,0.049079493,1.532553,0.5798483872850853,0.0,0.015834226783605503,0.0,200,0.01353764533996582,0.49168634579316567,0.49052916016204917,26600,0.8611777271863902,0.0
133,1.2415335178375244,0.5825825903499583,0.5397351194888945,1.4805741200311502,0.06529473619814626,0.0,0.136668525889683,0.1,0.002819061279296875,0.05768704414367676,0.04988452,1.8494856,0.5801218075915726,0.0,0.01164156785515105,0.0,200,0.013473272323608398,0.4755424979597302,0.47338417551933243,26800,0.8613488711803742,0.0
134,1.2174484729766846,0.10806128425597608,0.07873058201423297,0.2351482707104352,0.029585841394415016,0.0,0.12272697435628631,0.1,0.0028502941131591797,0.05310463905334473,0.049516417,1.1941309,0.5329157552580129,0.0,0.002155702570853713,0.0,200,0.015254020690917969,12.625822338950789,10.378744789777137,27000,0.5091482241958063,0.0
135,1.2491350173950195,0.6034644153126363,0.7743848075555924,1.9041636042296826,0.00498725096341688,0.0,0.13459488859579669,0.1,0.0028257369995117188,0.05293679237365723,0.050300926,1.85872,0.5399706212634753,0.0,0.012068720219542079,0.0,200,0.014681339263916016,0.6319385391511095,0.6393926748505865,27200,0.5920029853665516,0.0
136,1.240295171737671,0.9833156346303799,0.6338513560974797,1.7614492413936178,0.022208527559633533,0.0,0.12355479825657473,0.1,0.002820253372192383,0.0550384521484375,0.050504066,1.5744139,0.5843051226001658,0.0,0.019658209549199133,0.0,200,0.014261960983276367,0.49879570632423015,0.4850452603398634,27400,0.4817800335123359,0.0
137,1.2343106269836426,0.12545266517302942,0.06729840302136181,0.1902356830008824,0.012774159936279627,0.0,0.125635045849212,0.1,0.002753734588623047,0.054038047790527344,0.05003148,1.0107412,0.5384198768574521,0.0,0.002509184972535079,0.0,200,0.013053178787231445,7.0772303025591405,7.153253011220692,27600,0.8179539820876011,0.0
138,1.2701706886291504,0.7291654464356188,0.17633070008824364,0.9715365138612065,0.47335623527513154,0.0,0.12344639349212985,0.1,0.0027599334716796875,0.05272078514099121,0.0499651,1.3536401,0.5574944338152688,0.0,0.014583451814450747,0.0,200,0.013723134994506836,0.17047672729382843,0.16961639183982558,27800,0.8299313558400955,0.0
139,1.2423417568206787,0.8661264835172702,0.45753039597672596,1.4190602683398958,0.23944467667405678,0.0,0.12699651025663225,0.1,0.002750396728515625,0.05255460739135742,0.049520418,1.3809803,0.5883576387854689,0.0,0.01732265552952513,0.0,200,0.013763427734375,0.39936587299359616,0.37102553040321795,28000,0.9896482819569422,0.0
140,1.2613704204559326,0.6065425848481721,0.41801806779323475,1.2354745292346248,0.060657846992194966,0.0,0.13373113428229988,0.1,0.002820730209350586,0.05260729789733887,0.050084867,1.201951,0.5901761333917392,0.0,0.011874743904728318,0.0,200,0.013803243637084961,0.38216810922018457,0.37079787178953927,28200,1.0080896036375113,0.0
141,1.2688696384429932,0.14117715319370783,0.14715343613368445,0.36780909716578003,0.009142514446547196,0.0,0.12985782357171305,0.1,0.002844572067260742,0.053133487701416016,0.04981378,0.85509515,0.5452762353719361,0.0,0.002823699232901783,0.0,200,0.013150930404663086,4.1911753489699315,4.052251533083192,28400,0.45795031712790935,0.0
142,1.280853271484375,0.4248131543287268,0.3641320992580538,0.9837436367538377,0.003698866473116059,0.0,0.1217495034604518,0.1,0.0027709007263183594,0.054312944412231445,0.048959836,3.0765934,0.5332299272676152,0.0,0.008430067765884359,0.0,200,0.013481616973876953,0.654325042607249,0.6138376275489765,28600,0.5802292596657808,0.0
143,1.2547008991241455,0.4109654991276109,0.3716643920615848,0.7858157959874441,0.005627478278689491,0.0,0.129599125723007,0.1,0.002852201461791992,0.052576303482055664,0.050227117,0.89495033,0.5210034844536148,0.0,0.008211744966645543,0.0,200,0.01355433464050293,0.5581551903072446,0.516464010735687,28800,1.11407664049722,0.0
144,1.2524657249450684,0.5163981238807912,0.4785935602991882,1.3115507393720687,0.03222848330968022,0.0,0.12944394596712838,0.1,0.0035185813903808594,0.06782984733581543,0.050441775,1.5458941,0.5205429483963324,0.0,0.010160292204160795,0.0,200,0.016356945037841797,0.473140983430817,0.47792165281523136,29000,1.1383460948675574,0.0
145,1.276381254196167,0.3169224170581475,0.3055696572792892,0.8221205385841339,0.0017405218327260666,0.0,0.13213984589249791,0.1,0.002934694290161133,0.05401802062988281,0.050079808,1.1817952,0.500180895262514,0.0,0.00633356383239295,0.0,200,0.013426065444946289,0.6095719736865224,0.5721448770555593,29200,1.2039224615218878,0.0
146,1.2610270977020264,0.5474004995710411,0.48178051488832496,1.2691173542942427,0.034400502789114495,0.0,0.1364458298756266,0.1,0.002838611602783203,0.05350136756896973,0.05028534,2.292437,0.5049028556933667,0.0,0.010947614026002339,0.0,200,0.014001846313476562,0.49851702503047185,0.5028034007317314,29400,1.543226340133437,0.0
147,1.2859268188476562,0.3257116622420272,0.3444222851746127,0.8660168637242462,0.012751006660512309,0.0,0.12975991743849682,0.1,0.0027475357055664062,0.05321836471557617,0.04951905,1.2895035,0.4869837363482327,0.0,0.006514391592943439,0.0,200,0.016134023666381836,0.5459625860340054,0.5352418507307235,29600,0.9351535539930231,0.0
148,1.3357982635498047,0.6484117627820097,0.724097298838461,1.872561556535476,0.07504075229340784,0.0,0.1280542945261236,0.1,0.002732992172241211,0.052514076232910156,0.04902007,1.8284385,0.5031265389916104,0.0,0.012950721702550653,0.0,200,0.016205310821533203,0.6276063586184206,0.6237323546060471,29800,0.866462029470877,0.0
149,1.243272066116333,1.1135645274801504,0.5527976833112119,1.7049054503204473,0.48076583687844926,0.0,0.12951505582532674,0.1,0.0028808116912841797,0.05353903770446777,0.049429156,1.3637832,0.5641703378404644,0.0,0.022270559440339413,0.0,200,0.014951705932617188,0.5358276519701165,0.4890527046923221,30000,0.8572096437984237,0.0
150,1.2904367446899414,0.8516966546395968,0.4200978163020675,1.3858566764802331,0.35639540349489196,0.0,0.12513738576757757,0.1,0.0028929710388183594,0.053281307220458984,0.049989924,1.6549029,0.5929229695203777,0.0,0.017034070423050395,0.0,200,0.014299392700195312,0.3973163001962364,0.32880983387971,30200,1.3182915799683952,0.0
151,1.2559549808502197,1.0825026995842881,0.7395089649285777,1.7837153258010394,0.03190542510740449,0.0,0.1361691954208962,0.1,0.0028696060180664062,0.05333971977233887,0.050170563,1.0765448,0.6418809425267687,0.0,0.021622638340784855,0.0,200,0.014676094055175781,0.503218161705842,0.4288378517225181,30400,1.0608668668438612,0.0
152,1.2755117416381836,0.3838243722805084,0.25758638807442735,0.6876585320912901,0.0597990695198815,0.0,0.12744201492478519,0.1,0.002793550491333008,0.05299067497253418,0.04955696,0.9262007,0.6160752855021427,0.0,0.007610760053464203,0.0,200,0.014121294021606445,0.8200391816497287,1.100237696053973,30600,0.9211809675215689,0.0
153,1.2573480606079102,0.43161345068902074,0.5961877607909866,1.4623071071568743,0.02978382060742968,0.0,0.13305800442303092,0.1,0.0028192996978759766,0.05264902114868164,0.049714465,1.4813113,0.5976291020208306,0.0,0.00862712723935956,0.0,200,0.018714189529418945,0.9399071407817381,0.8836959761077869,30800,1.2921460776026596,0.0
154,1.317854404449463,0.47012580411042226,0.2509022617843117,0.7567096992910723,0.07516725746650041,0.0,0.12658021674615652,0.1,0.003428220748901367,0.06826210021972656,0.05030623,0.83616525,0.5848787722297899,0.0,0.009091855625212312,0.0,200,0.01674818992614746,0.4770421658090418,0.3555247330092139,31000,1.3355068440942242,0.0
155,1.303396224975586,0.5604527085656034,0.5829873069491572,1.4012797203458323,0.012509969299813808,0.0,0.12498569640941841,0.1,0.003469705581665039,0.06790041923522949,0.049596876,2.213099,0.5824361658633712,0.0,0.01120682195826601,0.0,200,0.015745878219604492,0.5686414525000095,0.5433937001947842,31200,1.1536592483093444,0.0
156,1.2717854976654053,1.0834147060884938,0.6286982944333096,1.5856718448186329,0.011697808352349359,0.0,0.12730269473423117,0.1,0.0033347606658935547,0.06822681427001953,0.049626425,1.1634359,0.6325340198858834,0.0,0.021660630828476312,0.0,200,0.014751434326171875,0.43732987775283594,0.4347855557344625,31400,0.6532058803821755,0.0
157,1.3293819427490234,0.33357098863369017,0.2955258762355556,0.7586428550540139,0.035068083625868274,0.0,0.12963023389286138,0.1,0.002840757369995117,0.05358076095581055,0.050928105,0.8640419,0.6026377167606641,0.0,0.0066660404252225115,0.0,200,0.015875816345214844,0.7244982217652042,0.7218790641629141,31600,1.1187508118598861,0.0
158,1.2983753681182861,0.29976826860940226,0.25799382669927745,0.7457240798628811,0.12740465712063084,0.0,0.12402001481126705,0.1,0.002783060073852539,0.05276226997375488,0.04991829,1.3517942,0.572350771945538,0.0,0.00599514981519676,0.0,200,0.014163970947265625,0.9312975606761764,0.8137470804836291,31800,1.4543212363495979,0.0
159,1.294661521911621,1.2410088267716932,0.7333231017525652,2.1531646769573696,0.11030264746484762,0.0,0.13288868842296234,0.1,0.0027573108673095703,0.05355954170227051,0.050462417,1.0224191,0.6392165774281535,0.0,0.024820263251305152,0.0,200,0.013389825820922852,0.5185811486418518,0.5042369870813451,32000,0.8994342734724193,0.0
160,1.3279004096984863,0.43932361094861816,0.24225615046554153,0.6335080267289295,0.023911135352793232,0.0,0.12235961770532228,0.1,0.0027697086334228516,0.05464911460876465,0.050102968,1.6378188,0.6192272807802,0.0,0.008451106791556034,0.0,200,0.013257980346679688,0.4157424356609314,0.4307476835989833,32200,1.087941198861097,0.0
161,1.3272407054901123,0.5602969004314458,0.6264953410738375,1.6445774725130284,0.15902228136141142,0.0,0.1300699395705553,0.1,0.0028569698333740234,0.05342531204223633,0.050239295,2.052278,0.6133342427453246,0.0,0.011198920817085322,0.0,200,0.01483774185180664,0.5679916700007044,0.5695398153820053,32400,0.9381845009507667,0.0
162,1.326664686203003,0.38384237025325557,0.40529934739328044,1.0616201940159165,0.04793392748320918,0.0,0.12631615894311213,0.1,0.0034568309783935547,0.06739473342895508,0.04971623,2.4921846,0.5903850554961176,0.0,0.007675720146747395,0.0,200,0.015973329544067383,0.7210717189576069,0.6928488033831471,32600,1.3200668742102322,0.0
163,1.3541440963745117,1.0348186019353307,0.17086080782554694,1.3214407921929463,0.8769577054155842,0.0,0.12004824624374662,0.1,0.0027158260345458984,0.05170416831970215,0.050473195,1.3734512,0.634828410140039,0.0,0.020695249719566478,0.0,200,0.013857603073120117,0.24641840749765972,0.23382949690042204,32800,1.7229445143367135,0.0
164,2.1442041397094727,0.6264896975435259,0.7621809924504916,1.9012239852169608,0.011462236650337397,0.0,0.13361050930657564,0.1,0.0026209354400634766,0.05242633819580078,0.04983159,2.2963543,0.6339945388803877,0.0,0.012496383213756733,0.0,200,0.019174575805664062,0.6262507321652871,0.626483707410649,33000,1.8135862831727103,0.0
165,1.2685058116912842,0.5538629038461923,0.30342329974761084,0.8433029474351319,0.04994218061140078,0.0,0.13271569210742454,0.1,0.002861499786376953,0.0530705451965332,0.049327496,0.80742973,0.6259813753769681,0.0,0.011076749362384083,0.0,200,0.014000654220581055,0.2992627193464769,0.29684952768459383,33200,2.0384036076317367,0.0
166,1.2449963092803955,0.5503356458139874,0.3278396861199666,0.9362800102968236,0.09406651624923108,0.0,0.1240975754364692,0.1,0.0027463436126708984,0.052983999252319336,0.05074106,1.0449514,0.61841680242067,0.0,0.011001162858033365,0.0,200,0.014298677444458008,0.3294042110880742,0.3171586630456814,33400,0.9996451092730022,0.0
167,1.2506165504455566,0.48565386538902017,0.5430297437467452,1.4243838218384723,0.12207290080773892,0.0,0.12692538585080793,0.1,0.002836942672729492,0.05277705192565918,0.04938291,1.6091138,0.605140508717505,0.0,0.00966931100097457,0.0,200,0.014352798461914062,0.5764150011181508,0.5625483942339604,33600,1.004810568918184,0.0
168,1.2594609260559082,0.7482316328288223,0.7141266928063753,1.5084799838013145,0.0015117096143445069,0.0,0.14099881515584733,0.1,0.0028405189514160156,0.052987098693847656,0.049515743,1.2003256,0.6194496211286368,0.0,0.014964789355477862,0.0,200,0.013275623321533203,0.510955098002909,0.5105937670793159,33800,1.150474644207398,0.0
169,1.2690560817718506,0.5731666875918882,0.514486617459776,1.4482466582645774,0.18338976917087166,0.0,0.12505584131410086,0.1,0.0027692317962646484,0.052516937255859375,0.049675327,4.3724585,0.6148213277749619,0.0,0.011312629235038202,0.0,200,0.013629913330078125,0.48234812270139393,0.47833945701610264,34000,1.5258322630018657,0.0
170,1.2745661735534668,0.7380803209736654,0.39909866833380686,1.2552500455444815,0.13359926604603295,0.0,0.12588568949856993,0.1,0.002884387969970703,0.052622318267822266,0.049505215,1.862399,0.6271472270948323,0.0,0.014720723294383547,0.0,200,0.01400136947631836,0.3006700175759192,0.2867769830410482,34200,1.1427730151450846,0.0
171,1.2792432308197021,0.7872415722814846,0.6288297115267742,1.64372848433352,0.017299353753921425,0.0,0.13065528607908816,0.1,0.0027353763580322266,0.05263972282409668,0.04942657,1.2782038,0.6431566616134976,0.0,0.015744984734303434,0.0,200,0.015018939971923828,0.43976373951528414,0.42964368847474754,34400,1.1647565660877752,0.0
172,1.288987636566162,0.8638697688955153,0.2321245304876672,1.1860246565404762,0.5762664045406642,0.0,0.12580394656782967,0.1,0.0031464099884033203,0.053801774978637695,0.050797366,2.8478327,0.6652279723416994,0.0,0.01727717051699409,0.0,200,0.015903472900390625,0.16150188744025884,0.13592015530977522,34600,0.8037191992857681,0.0
173,1.282270908355713,0.6893663249548532,0.6450397493258277,1.4728054870323375,0.0007537781261605948,0.0,0.12312638997094598,0.1,0.002875804901123047,0.05264115333557129,0.05016226,1.1572994,0.6676418076030148,0.0,0.01378698269583657,0.0,200,0.014499664306640625,0.4814878123090353,0.4854882125255156,34800,0.5387651123114451,0.0
174,1.2991766929626465,0.6510780802818892,0.4378461660612755,1.0844145246469026,0.0528803427336894,0.0,0.13020270626534092,0.1,0.002927064895629883,0.05280351638793945,0.05078302,0.9031889,0.6659854348709023,0.0,0.013007002099046736,0.0,200,0.013524532318115234,0.370456695604943,0.3682485785004132,35000,0.6913617602918859,0.0
175,1.2909469604492188,0.5369786895573684,0.47632862094357786,1.1332302957061466,0.03431767461523446,0.0,0.12713754570265406,0.1,0.0028362274169921875,0.05332827568054199,0.04996847,1.087848,0.6530847603395489,0.0,0.010739132069565335,0.0,200,0.013604402542114258,0.5935077806439213,0.5506009285568891,35200,0.9547270270460352,0.0
176,1.3009393215179443,0.7117585061286865,0.5818004728547131,1.6304199044399248,0.18302469337246383,0.0,0.13298108066936995,0.1,0.0028553009033203125,0.0525507926940918,0.049720813,1.6991659,0.6589521349184627,0.0,0.014234383946410401,0.0,200,0.01410222053527832,0.43091345127817215,0.4253049710199469,35400,1.3050381955448154,0.0
177,1.3100032806396484,0.7559543274165363,0.7425440101852945,1.916139770215802,0.05087989279665637,0.0,0.1292334474761183,0.1,0.0028493404388427734,0.05348563194274902,0.050848972,1.7157216,0.6686523541682701,0.0,0.01511922846613845,0.0,200,0.01406550407409668,0.48621493041527025,0.4869701637495382,35600,1.3296968331120722,0.0
178,1.2987585067749023,0.7065100958789068,0.681142660258398,1.5824492842390452,0.0017692337117172015,0.0,0.1333622666307643,0.1,0.0027818679809570312,0.05254364013671875,0.049821865,1.5907547,0.6724381283393338,0.0,0.014130139834112345,0.0,200,0.01769542694091797,0.5015058699917463,0.49883807501994976,35800,0.9162915778323804,0.0
179,1.2684376239776611,0.8705271051813317,0.7494783015090406,1.8860627054338281,0.058657609269031435,0.0,0.12812183372626632,0.1,0.003014087677001953,0.05446147918701172,0.049944263,1.5945151,0.6922470260235336,0.0,0.01733272491924374,0.0,200,0.01416921615600586,0.46445224703146687,0.4560098103841465,36000,1.2423390217814652,0.0
180,1.282865285873413,0.8717629980883537,0.5967095339144756,1.6103970402165566,0.02027835310072018,0.0,0.13534488742031234,0.1,0.0029549598693847656,0.05420327186584473,0.050311618,1.0494424,0.7101986232300156,0.0,0.017418933230876208,0.0,200,0.01749110221862793,0.37792461376914316,0.36220071758153516,36200,0.9134757297029714,0.0
181,1.2807345390319824,0.9276836418158796,0.4100721187831751,1.3451625027099687,0.3498836622962714,0.0,0.12621477483591031,0.1,0.002850055694580078,0.053015947341918945,0.050229646,1.3820376,0.731947125088602,0.0,0.01854189846323309,0.0,200,0.014977693557739258,0.22309963453704937,0.20088196465836244,36400,1.0184214491662065,0.0
182,1.3086416721343994,0.7049776460474011,0.12563599027397523,0.9220482423659716,0.6232576103197215,0.0,0.12370013067716885,0.1,0.008348226547241211,0.05364871025085449,0.049906492,1.8597223,0.7292501771844819,0.0,0.01409625074603839,0.0,200,0.016054391860961914,0.09173952875904053,0.10468796347094092,36600,1.2994659943189981,0.0
183,1.3214168548583984,0.7076343948108306,0.8509315771153297,2.163733449149414,0.02500759271516516,0.0,0.12748932248945788,0.1,0.002891063690185547,0.05306196212768555,0.049506005,2.3103595,0.7270885989471169,0.0,0.014152789570425825,0.0,200,0.014353752136230469,0.6040437553475505,0.5997077047580832,36800,0.7887168082987243,0.0
184,1.2907147407531738,1.4173786676062903,0.43307025854321896,1.87427160510778,0.9083421080825708,0.0,0.12747539780206066,0.1,0.0028183460235595703,0.0532224178314209,0.050403114,1.1048901,0.7961176058130343,0.0,0.02834085423603469,0.0,200,0.016163110733032227,0.2530873443197401,0.2072113930258384,37000,1.4365315314101978,0.0
185,1.3374927043914795,0.5120589708297821,0.5794847742682868,1.4952406494246377,0.02047157061895132,0.0,0.13119034281807146,0.1,0.0072062015533447266,0.05278468132019043,0.0502455,1.3121189,0.7677117423147091,0.0,0.010241255157431503,0.0,200,0.014501094818115234,0.84558888757448,0.8893737999151605,37200,0.984934934395191,0.0
186,1.329726219177246,0.5103566423201809,0.4629674237229048,1.177519886954311,0.030832174024364445,0.0,0.12764835440386307,0.1,0.002855539321899414,0.052796363830566406,0.049803082,0.9692392,0.7419762323152563,0.0,0.010206147418446672,0.0,200,0.014697074890136719,0.934520568502243,0.7095532015714915,37400,0.6016018169233334,0.0
187,1.3229448795318604,1.2222720705173444,0.5200026683456427,1.8215969848623683,0.42056051915038545,0.0,0.11324355315208562,0.1,0.003510713577270508,0.06782245635986328,0.048955634,2.6362574,0.7900058161354653,0.0,0.024195885594038312,0.0,200,0.019258737564086914,0.3495866004702929,0.36536282141573645,37600,1.0248513362706981,0.0
188,1.3024206161499023,0.8617863023422674,0.6497710869506172,1.7553666537530532,0.16082576556439995,0.0,0.12496705724665219,0.1,0.0069217681884765625,0.0536952018737793,0.049882192,1.3432826,0.7971838647561456,0.0,0.01722911915276633,0.0,200,0.014551162719726562,0.37504088319351125,0.3743197788187685,37800,0.5224434311841791,0.0
189,1.3240463733673096,0.6275010894981567,0.6423876666506878,1.5025326446553444,0.0023178486210482475,0.0,0.13250756558815852,0.1,0.002816915512084961,0.05242586135864258,0.049923234,1.1423683,0.7802155872303467,0.0,0.01254912183270013,0.0,200,0.017041683197021484,0.5847231843690239,0.5696721888201058,38000,0.5651826409052638,0.0
190,1.312413215637207,0.6429469258080274,0.14403779288897411,0.7744342030877782,0.40220416385189606,0.0,0.12477077143813922,0.1,0.0029201507568359375,0.05342364311218262,0.049977638,1.1618603,0.7664887210881148,0.0,0.012859017830199129,0.0,200,0.013274908065795898,0.1135107608386692,0.08317100308132244,38200,0.4302131200244273,0.0
191,1.341890811920166,0.10969332713926248,0.02124889487031871,0.14229760042636308,0.08500035520654536,0.0,0.12735468802175257,0.1,0.002708911895751953,0.052658796310424805,0.04996971,1.019648,0.7008091816932296,0.0,0.0021926377903555188,0.0,200,0.015394926071166992,28.64105596534536,19.269360812537702,38400,0.7458730459544795,0.0
192,1.3481197357177734,0.5302002187835497,0.43692000342629356,1.0137146832067976,0.02624313995750808,0.0,0.1308802018919738,0.1,0.002781391143798828,0.052170515060424805,0.049350947,0.97916853,0.6837482854022616,0.0,0.010602977880206331,0.0,200,0.013683080673217773,0.43454532217172626,0.42230972299604413,38600,0.7204016529054288,0.0
193,1.3260867595672607,0.3182062854336395,0.12764030752244382,0.5290262622089865,0.19600291607590997,0.0,0.12154979529896677,0.1,0.003028392791748047,0.05325174331665039,0.050383653,1.7333046,0.6471940854053995,0.0,0.005575339260801452,0.0,200,0.01607203483581543,0.6187411875099708,0.44752432838279754,38800,0.662162605658585,0.0
194,1.2820954322814941,0.31237237342906743,0.35652948107265414,0.9211183776203081,0.03907827627743997,0.0,0.12211150629091758,0.1,0.0028870105743408203,0.053145408630371094,0.04821193,2.3177137,0.6137119142077663,0.0,0.006236278252229859,0.0,200,0.014003276824951172,0.6942777509757743,0.6451454694509323,39000,0.7616314623806772,0.0
195,1.2972564697265625,0.6285792939963388,0.4092824720775468,1.1490910531112626,0.033145985723116896,0.0,0.12355922350211575,0.1,0.0028753280639648438,0.052872657775878906,0.049820643,1.59099,0.6151986521866235,0.0,0.011986550918907764,0.0,200,0.02059030532836914,0.4662932423607962,0.4692958346751074,39200,0.5239578399987606,0.0
196,1.2956366539001465,0.7773980479377594,0.46066976328478837,1.3194365179382215,0.17566948591648146,0.0,0.12582697603392332,0.1,0.0029022693634033203,0.05296730995178223,0.049721118,1.5563437,0.6314185917617371,0.0,0.015547504348955521,0.0,200,0.013629674911499023,0.4969740504993684,0.46333793450690886,39400,0.4020139600566585,0.0
197,1.296750783920288,0.7360483774844548,0.6566301812069764,1.4924969985400665,0.01404944825361467,0.0,0.1214416845549955,0.1,0.002855062484741211,0.05273628234863281,0.050481785,1.469418,0.6418815703340089,0.0,0.014717803224615179,0.0,200,0.012398719787597656,0.5687297823457307,0.5403487024072827,39600,1.049928170728291,0.0
198,1.3016619682312012,0.6679166224958878,0.39592326661047644,1.0583229866220947,0.006267331806896212,0.0,0.1264515627101936,0.1,0.0050618648529052734,0.05550050735473633,0.05007999,0.9147034,0.6444850755501969,0.0,0.013357894600955652,0.0,200,0.013828039169311523,0.36277445657365104,0.335301611460754,39800,1.0348426061347504,0.0
199,1.2981946468353271,0.4377396051346509,0.4280030674789398,1.0822542838298208,0.011392139610472963,0.0,0.12628352946406723,0.1,0.002782583236694336,0.05376887321472168,0.049615514,1.8930475,0.6238105285086423,0.0,0.008748620560310262,0.0,200,0.014906167984008789,0.5192526930182332,0.5343567927052802,40000,0.9909158456206106,0.0
200,1.3094496726989746,0.7176205992668009,0.6877099466559117,1.4784897033727826,0.00760506819542883,0.0,0.12690290775640858,0.1,0.002979755401611328,0.053637027740478516,0.049769707,1.2544919,0.6331915355844581,0.0,0.014305930253988278,0.0,200,0.013609647750854492,0.5766963851880373,0.5628039336647563,40200,0.9247785284318479,0.0
201,1.320251226425171,1.0205068359588545,0.9444971927583345,2.088634247338377,0.07468544519090685,0.0,0.12684810778324965,0.1,0.002964496612548828,0.0523982048034668,0.050250888,1.4558407,0.6719230656218977,0.0,0.020410096140285574,0.0,200,0.013798236846923828,0.6029207157873309,0.5705120466238096,40400,1.0956805268717693,0.0
202,1.287715196609497,0.4613092509048472,0.5379968252151801,1.3849250835787106,0.05158332354322044,0.0,0.12135937570608334,0.1,0.0029070377349853516,0.05395865440368652,0.049582843,2.2367089,0.6508616841501926,0.0,0.009222038213027445,0.0,200,0.013687849044799805,0.6591475529176187,0.6984714331513912,40600,0.7470911974617046,0.0
203,1.3157424926757812,0.5366097964664215,0.5056063618531442,1.3703519972488714,0.006827958540383173,0.0,0.1256902668203353,0.1,0.004555463790893555,0.05238008499145508,0.04967081,1.8674269,0.6394364953818156,0.0,0.01073189236446348,0.0,200,0.013553857803344727,0.5604350900447431,0.5509389908751777,40800,1.3332402792758065,0.0
204,1.3105695247650146,0.3470057328047569,0.2826031644315791,0.8096235498067631,0.1021321831678801,0.0,0.12034881436700075,0.1,0.0028688907623291016,0.052396297454833984,0.049318228,1.4418454,0.6101934191241097,0.0,0.006613456882317889,0.0,200,0.0150146484375,0.8133966093443977,0.6972256455465672,41000,0.8457484845381726,0.0
205,1.3275156021118164,0.8181449291992146,0.6585790856186586,1.6999001595613248,0.1608201097530666,0.0,0.12132066167902665,0.1,0.002740621566772461,0.05226469039916992,0.049811766,1.9485794,0.6309885701316202,0.0,0.01632402774187376,0.0,200,0.013579368591308594,0.4398554651436753,0.4458652322483819,41200,0.8666270162098835,0.0
206,1.3204190731048584,0.37440136120256623,0.3421398345602782,0.8736265077493769,0.029439134213620485,0.0,0.1236169976657988,0.1,0.0034923553466796875,0.06788921356201172,0.049644515,1.7451408,0.6053298492387149,0.0,0.007349390105682809,0.0,200,0.018818378448486328,0.6482901934792511,0.6185960991656718,41400,0.8051812639537252,0.0
207,1.3743555545806885,0.656825848667984,0.5466498978607571,1.55445329978307,0.11342663181518522,0.0,0.12275562660958803,0.1,0.004536628723144531,0.053229570388793945,0.050143287,2.8502789,0.6104794491816419,0.0,0.01313047700129729,0.0,200,0.015517711639404297,0.42785156857924744,0.42962494809429735,41600,0.7361026896685435,0.0
208,1.319559097290039,0.7072911041168057,0.45684972327686135,1.202696534158305,0.15923944250832922,0.0,0.1284345428481315,0.1,0.003080606460571289,0.05336737632751465,0.04943997,1.3784642,0.6201606146751584,0.0,0.014145658444170643,0.0,200,0.01385188102722168,0.3351159738140969,0.33312718846074324,41800,0.8009247464982626,0.0
209,1.3581674098968506,0.24109088248632538,0.2232325879813514,0.5771981777545455,0.0038679120502147285,0.0,0.13296531174218157,0.1,0.003108978271484375,0.05230903625488281,0.049737077,0.93621033,0.5822536414562751,0.0,0.0048214241235959195,0.0,200,0.014288902282714844,1.470780439017334,1.3437269528475344,42000,1.099800504724053,0.0
210,1.325685977935791,0.3115750395819305,0.33908045115571805,0.8799147615204248,0.022627261106416833,0.0,0.12591904916938998,0.1,0.0028057098388671875,0.052643775939941406,0.049577154,1.3459667,0.5551857812688407,0.0,0.006229104530978275,0.0,200,0.016085147857666016,0.8067989323358726,0.7110872575253294,42200,1.1566789692713761,0.0
211,1.3169763088226318,0.9423784390019974,0.7993043155957431,1.9921208129758967,0.055254667282125795,0.0,0.13442906189980558,0.1,0.0028650760650634766,0.05240368843078613,0.04922904,1.3583215,0.5939050470421563,0.0,0.018628923639855598,0.0,200,0.015472888946533203,0.5754939983582403,0.5682164926286729,42400,0.940287279256125,0.0
212,1.363520860671997,1.1867007965500245,0.40675631746535684,1.5721861364973482,0.5475464627316383,0.0,0.11935351688840617,0.1,0.0027723312377929688,0.052660226821899414,0.050225765,1.7924777,0.6531846219929431,0.0,0.023522959529803898,0.0,200,0.014232397079467773,0.425059146748968,0.37556401127450084,42600,1.1237679081104017,0.0
213,1.3843629360198975,0.5695936542557185,0.41818095821646273,1.2039405532172238,0.08045844247514082,0.0,0.13038200424896088,0.1,0.002881765365600586,0.0550236701965332,0.050108507,1.4134705,0.6448255252192208,0.0,0.011374078920266761,0.0,200,0.01832294464111328,0.3676000922593386,0.37203806636476777,42800,1.2054425872647379,0.0
214,1.3076910972595215,0.31359723608536133,0.4744826730555487,1.1353970983278703,0.033657487417073945,0.0,0.12702941221930553,0.1,0.0030450820922851562,0.05250883102416992,0.050211698,1.4333317,0.6117026963058348,0.0,0.006167074858408962,0.0,200,0.01583123207092285,1.0702983516336113,1.1056562024157708,43000,1.9098279528168722,0.0
215,1.3727939128875732,0.5176001586901838,0.506454691814258,1.375395916942736,0.08496955384765478,0.0,0.13019436058868547,0.1,0.003241300582885742,0.052460670471191406,0.050103493,1.8851731,0.6022924425442697,0.0,0.010351736963588291,0.0,200,0.014826536178588867,0.5378191966257876,0.5311855586164319,43200,0.8144921009306986,0.0
216,1.3854730129241943,0.37427850099782856,0.2267129245436257,0.6020545965201878,0.011101849745759168,0.0,0.12747654855216997,0.1,0.0029664039611816406,0.05283236503601074,0.050401613,0.79249656,0.5794910483896256,0.0,0.007484725035805354,0.0,200,0.01389002799987793,0.6191982933396829,0.5365237446512522,43400,1.0417282527459777,0.0
217,1.3938870429992676,0.7626233849755952,0.2031018336679781,1.076922813226892,0.53173346829133,0.0,0.12470898369874092,0.1,0.002920866012573242,0.05285763740539551,0.049604088,1.8679844,0.5978042820482226,0.0,0.015252433500815541,0.0,200,0.014143228530883789,0.14503486182098205,0.15531596454457774,43600,0.5278272841178796,0.0
218,1.3309552669525146,0.24438629089675828,0.15735207437177676,0.46006189972922906,0.015403798118471371,0.0,0.1201055235487069,0.1,0.002841949462890625,0.05437660217285156,0.04945028,0.8399521,0.5624624829330762,0.0,0.004875177114883713,0.0,200,0.015674352645874023,1.5816426848066427,1.3659250503894638,43800,1.5757136697468075,0.0
219,1.3794031143188477,0.9154104633673752,0.7943031161148518,1.892570192293239,0.0023661605044804977,0.0,0.12162585160218686,0.1,0.002712249755859375,0.0521693229675293,0.050349854,2.2602618,0.5977572809765062,0.0,0.018308348090919434,0.0,200,0.015063047409057617,0.5231855902196759,0.5229266497768466,44000,0.9454070826843245,0.0
220,1.3796839714050293,0.9709807801661231,0.5027504920654184,1.7183728258446078,0.31161397031978694,0.0,0.12048701561265238,0.1,0.0026900768280029297,0.05258989334106445,0.048562597,2.8422947,0.6350796308954678,0.0,0.019418806332417427,0.0,200,0.01530766487121582,0.39402634872030196,0.36653057781692894,44200,1.1600134114634428,0.0
221,1.2695019245147705,0.6617141879203631,0.7099813663624381,1.8643517494756296,0.0307131313584185,0.0,0.11837578377999503,0.1,0.0034189224243164062,0.06799864768981934,0.04936516,3.551666,0.6377430865979574,0.0,0.01323441950666692,0.0,200,0.01621246337890625,0.545483919053443,0.5405048203667642,44400,1.2719615694472777,0.0
222,1.3066253662109375,0.48194311387655475,0.32450299918293524,0.8983838209167951,0.014562856108411201,0.0,0.12193672350372822,0.1,0.002810239791870117,0.05246543884277344,0.051571816,0.74966615,0.6221630893258172,0.0,0.009638205228127228,0.0,200,0.013374090194702148,0.33722145470939424,0.34963001976273983,44600,1.1947247022318392,0.0
223,1.3337016105651855,0.3986726940093146,0.17767373865457756,0.6169233351320023,0.12497371547195661,0.0,0.12354928535364175,0.1,0.0031397342681884766,0.052393198013305664,0.048652343,1.3445543,0.599814049794167,0.0,0.007878871848989881,0.0,200,0.015249013900756836,0.6190566298943302,0.5725057970354817,44800,1.1110021161495411,0.0
224,1.331589937210083,0.6708596644305428,0.6070314995684715,1.4319145347907738,0.04169160746364621,0.0,0.1353241975304754,0.1,0.002914905548095703,0.052446842193603516,0.04970448,1.2314279,0.6069186112578046,0.0,0.013417315202429,0.0,200,0.017901182174682617,0.4674964869282004,0.4669018365955305,45000,1.2819863608057707,0.0
225,1.3609187602996826,0.5555520431278345,0.4207842920518545,1.0899378296173734,0.08513811978754617,0.0,0.12348919044973594,0.1,0.0028874874114990234,0.053479671478271484,0.049938213,1.3248038,0.6017819544448076,0.0,0.011110534700032013,0.0,200,0.014464139938354492,0.40411884167929346,0.39987516475287976,45200,1.4727431774897355,0.0
226,1.3466575145721436,0.034088104962207724,0.01307652535790111,0.05399935800778035,0.02193868791553759,0.0,0.12094808298072815,0.1,0.0029163360595703125,0.053916215896606445,0.050350286,1.3370923,0.5450125694965476,0.0,0.0006818634764214211,0.0,200,0.01754450798034668,262.78907125854005,205.88671789062644,45400,1.1407110665295532,0.0
227,1.3387386798858643,0.4974669757332724,0.3904964911263407,1.1410210822527103,0.13583729458243277,0.0,0.12023133710617774,0.1,0.003414154052734375,0.06807732582092285,0.049804725,2.9117389,0.5402580101202201,0.0,0.009939233609670535,0.0,200,0.013476133346557617,0.41213239830955395,0.40127762046215754,45600,1.2807723217206752,0.0
228,1.3255279064178467,0.7173786164572689,0.4900357970427143,1.4761611675510522,0.25244831406495616,0.0,0.11724318602238708,0.1,0.0028581619262695312,0.052023887634277344,0.049048737,3.1062112,0.557970070753925,0.0,0.014347676823635008,0.0,200,0.013715028762817383,0.4146880796623317,0.42418977759037513,45800,1.2409773154889618,0.0
229,1.275167465209961,0.21739090246132659,0.06243529217274473,0.31454399284312035,0.16042775108452806,0.0,0.12332341575380054,0.1,0.0029859542846679688,0.053214311599731445,0.050136577,0.9216064,0.5239121539246652,0.0,0.004345522997434288,0.0,200,0.013692378997802734,1.2664163160334259,1.0659812446711692,46000,1.4462256543303267,0.0
230,1.2359142303466797,0.48582606600697037,0.43568386342541604,1.1653067201325311,0.03065672142019455,0.0,0.12584653964376843,0.1,0.002814054489135742,0.05304598808288574,0.050426282,1.2581443,0.5201035451328957,0.0,0.009716110551632556,0.0,200,0.013741731643676758,0.422832392127945,0.42824801641311305,46200,1.7173779086965535,0.0
231,1.237278699874878,0.5690396363982544,0.4269346018182459,1.0474002015986552,0.06847268850517313,0.0,0.12685484804034847,0.1,0.0028035640716552734,0.052855491638183594,0.04980512,1.3526248,0.5249971542594316,0.0,0.011378849595090324,0.0,200,0.013341903686523438,0.4237062870872551,0.41392539164229436,46400,1.5565490700966842,0.0
232,1.3117306232452393,1.3159708359911824,0.8442263502000387,2.259892133110509,0.0397210653229699,0.0,0.13058810667691326,0.1,0.0028150081634521484,0.0527188777923584,0.050449505,1.4537683,0.6040945224326066,0.0,0.026319457419131755,0.0,200,0.013908624649047852,0.6194489348367324,0.5761241050781131,46600,1.5257912554109818,0.0
233,1.297715187072754,0.5188583960550613,0.436327070928363,1.2570554096752642,0.1857586432372431,0.0,0.12788488547571963,0.1,0.0027327537536621094,0.05304694175720215,0.04956816,1.6111511,0.595570909794852,0.0,0.010329603051118604,0.0,200,0.014293193817138672,0.4380513390509157,0.44229594735189204,46800,1.4252467453473796,0.0
234,1.2374999523162842,1.0463063692331351,0.50549300903163,1.7268152539261628,0.5432409861382306,0.0,0.11801227923318454,0.1,0.0027511119842529297,0.052639007568359375,0.05007623,2.1853287,0.6406444557386805,0.0,0.020925248249009085,0.0,200,0.01628708839416504,0.3844583089529595,0.33584743063072736,47000,1.07333522158301,0.0
235,1.2323153018951416,0.7502610834248973,0.642201098112171,1.7376309654174544,0.010776812799271701,0.0,0.13186124576356795,0.1,0.0027513504028320312,0.053121328353881836,0.05049399,1.6693379,0.6516061185073021,0.0,0.015003754857948482,0.0,200,0.01387333869934082,0.4515184063714587,0.44091731481366975,47200,1.154853509416277,0.0
236,1.234635829925537,0.4647856644751425,0.4319398319714998,1.0661017853264176,0.03278962163450475,0.0,0.11791574368322304,0.1,0.0027818679809570312,0.05359315872192383,0.04952882,2.2115538,0.6329240731040862,0.0,0.009246176289109467,0.0,200,0.013539314270019531,0.6716746932301885,0.7185269978226174,47400,1.1984600299887505,0.0
237,1.2530934810638428,0.3947219585677603,0.3468806025058868,0.7692376344298928,0.03518612560176523,0.0,0.12541486874727195,0.1,0.0027501583099365234,0.052825212478637695,0.05062148,1.7921817,0.6091038616504536,0.0,0.00789429392941576,0.0,200,0.013821840286254883,0.9679557885799424,0.8762361586618722,47600,1.0500879947831494,0.0
238,1.3175489902496338,0.4947716814492382,0.07938028276854435,0.6320181540630064,0.44133850800869123,0.0,0.11452716221743126,0.1,0.0029306411743164062,0.0528104305267334,0.05321376,2.843314,0.5976706436303322,0.0,0.009469773916500696,0.0,200,0.014330625534057617,0.38869399791295334,0.2625478052637078,47800,1.086349643547049,0.0
239,1.3456263542175293,0.7635526758376268,0.5410461610324642,1.6376704511050568,0.20671478024071357,0.0,0.13355070243053177,0.1,0.0027883052825927734,0.052420854568481445,0.050125144,1.7180109,0.6142588468510616,0.0,0.015247426951158449,0.0,200,0.013809442520141602,0.35766768749333444,0.3641673744968685,48000,1.055942342725468,0.0
240,1.316044569015503,0.5964133071486268,0.4380167797968418,1.2147420264842872,0.082987924423412,0.0,0.13234363876000355,0.1,0.002774477005004883,0.052471160888671875,0.05120583,1.4790765,0.6124742928808181,0.0,0.011928403181095427,0.0,200,0.01372218132019043,0.3716882970900587,0.363203546541267,48200,1.073468923499691,0.0
241,1.317145586013794,0.8310695229072549,0.39360895360718773,1.4431869035176137,0.34624751641876417,0.0,0.12373895039821053,0.1,0.002846240997314453,0.053314924240112305,0.04999228,2.500032,0.6343338158834618,0.0,0.016619017936807097,0.0,200,0.013913631439208984,0.2567814211985868,0.25429242324862084,48400,1.2342929243570644,0.0
242,1.3347182273864746,0.4721826340079,0.3276709672870505,0.9613664948262514,0.10050668198544918,0.0,0.12787280484457103,0.1,0.002838611602783203,0.0526280403137207,0.049659967,1.7868451,0.6181186976959057,0.0,0.009364917057404042,0.0,200,0.013548135757446289,0.41230311408518305,0.4112975461393957,48600,0.9068472561148,0.0
243,1.290989875793457,0.2738464640133155,0.2607691980025369,0.6759463854935504,0.020079879983848168,0.0,0.12793764060026114,0.1,0.002897500991821289,0.05478835105895996,0.04962544,0.7923414,0.5836914743276467,0.0,0.005477071522865054,0.0,200,0.01470804214477539,1.1073068359818818,0.9827754339372282,48800,1.0390394349720464,0.0
244,1.3303108215332031,0.687343356780717,0.4761624139954732,1.289690094000392,0.14993660050778634,0.0,0.12773366358279092,0.1,0.003168344497680664,0.05509138107299805,0.049035147,1.5136201,0.5940566625729538,0.0,0.013614780359651003,0.0,200,0.014677047729492188,0.36385736753588727,0.3715963579298755,49000,0.8875207479404382,0.0
245,1.3435051441192627,0.5513801451779017,0.48805389811775896,1.253552389174374,0.06477857712800958,0.0,0.1196841348272815,0.1,0.0029866695404052734,0.05326700210571289,0.049739055,1.9112948,0.5897890108334486,0.0,0.011027750273516922,0.0,200,0.013694524765014648,0.46400884324868197,0.46134480046641474,49200,0.9260686926169864,0.0
246,1.3641860485076904,0.4751617550930175,0.09187311000487253,0.5776692386326562,0.3365697162952955,0.0,0.11988469277731867,0.1,0.0028579235076904297,0.05305647850036621,0.048699044,3.3575792,0.5783262852594055,0.0,0.009498168065815507,0.0,200,0.016829252243041992,0.08967343523197621,0.0849100237003871,49400,0.7212536985868839,0.0
247,1.308776617050171,0.5417316498680453,0.2997905583316652,0.9311995295018409,0.09673118603852658,0.0,0.12779899944507497,0.1,0.0028824806213378906,0.053050994873046875,0.049717415,1.2451031,0.5746668217202696,0.0,0.010830852383468818,0.0,200,0.014924764633178711,0.25990649452773695,0.2581385242503607,49600,0.8955589866623491,0.0
248,1.3174405097961426,0.7389056241283277,0.41479857205473303,1.386578088902536,0.3416134006438641,0.0,0.1249664570227223,0.1,0.0028574466705322266,0.053839683532714844,0.049337287,2.0671573,0.5910907019610754,0.0,0.014467021687601491,0.0,200,0.020166397094726562,0.3262973821467866,0.31943284113104375,49800,1.2849347062831755,0.0
249,1.3617360591888428,0.26581501814490993,0.1418568994969003,0.4962950575821987,0.1299638184438054,0.0,0.12295183666187096,0.1,0.00286102294921875,0.05269265174865723,0.049675837,0.74688566,0.5585631335794589,0.0,0.0053119576431147255,0.0,200,0.01613759994506836,1.0322229022706113,0.9920648122023417,50000,1.272014737810485,0.0
250,1.2799656391143799,0.2905695767094772,0.1921481663283443,0.5767322827834394,0.0984029398652795,0.0,0.12420902209791877,0.1,0.0028579235076904297,0.053594350814819336,0.04985166,1.0933774,0.5317637778924608,0.0,0.005733306994810253,0.0,200,0.023924827575683594,0.7726862339244357,0.6774739373287804,50200,1.401956825640811,0.0
251,1.2534682750701904,0.5155082283729897,0.20502283128041862,0.780673536342095,0.22177791266375912,0.0,0.12201767097962031,0.1,0.0027871131896972656,0.05225849151611328,0.050070453,1.2894002,0.5301382229405137,0.0,0.010309432892722913,0.0,200,0.014317035675048828,0.15762916563834883,0.16023746036951741,50400,1.3277582467605618,0.0
252,1.3496983051300049,0.3431377414860771,0.15714114743318103,0.524922537581932,0.16370274488482436,0.0,0.12584235346116135,0.1,0.002957582473754883,0.05283355712890625,0.048927814,0.7844407,0.51143817479507,0.0,0.006862912813387632,0.0,200,0.013953208923339844,0.35970469469492855,0.3105859606550841,50600,1.2416566799457338,0.0
253,1.3587992191314697,0.16139577344053693,0.1068851890111118,0.3178468559841279,0.023382593609140852,0.0,0.12018115462761424,0.1,0.002767324447631836,0.05296468734741211,0.04981007,0.79203445,0.47643393465961675,0.0,0.0032280644666878113,0.0,200,0.014538764953613281,2.955991110978255,2.3146465320735765,50800,1.2074954600871384,0.0
254,1.3250465393066406,0.5710519922601813,0.22802537824314553,0.9133125492325622,0.34153348627568847,0.0,0.11395858072865352,0.1,0.0027811527252197266,0.05272054672241211,0.049271803,10.889387,0.4858957404196732,0.0,0.011421195150437586,0.0,200,0.013763904571533203,0.24915677078085632,0.2654275491971934,51000,1.2107164212631913,0.0
255,1.2984471321105957,0.2513539000749285,0.28939065675510445,0.7357202509478599,0.028607650073750185,0.0,0.12417785652875536,0.1,0.004216670989990234,0.05300450325012207,0.050169643,1.8631321,0.4624415563851988,0.0,0.005025989724832265,0.0,200,0.01403665542602539,0.6870805243661238,0.6543875545810344,51200,1.3646121741029245,0.0
256,1.284013271331787,0.5860887205460728,0.532403433095585,1.313999330026759,0.006726799647518362,0.0,0.1326700040827167,0.1,0.002866983413696289,0.0535433292388916,0.04944601,1.4514331,0.47480627280128623,0.0,0.011721836540353522,0.0,200,0.015313148498535156,0.5272964398820651,0.5246774614220788,51400,1.165507563094641,0.0
257,1.2705941200256348,0.33752192971385886,0.37551160592960714,0.962950293762703,0.036392986038869105,0.0,0.12296991650457356,0.1,0.0029516220092773438,0.05248117446899414,0.049092475,2.5291903,0.46107783849254347,0.0,0.006749504059553733,0.0,200,0.013929128646850586,0.575389926808092,0.5724933259034146,51600,1.0875993764008451,0.0
258,1.3644590377807617,0.660528644796575,0.4031535989513804,1.3386707237287332,0.2775061844036694,0.0,0.11859001615836912,0.1,0.0028803348541259766,0.05249285697937012,0.049140237,2.4627595,0.48102291912294665,0.0,0.013210731337430006,0.0,200,0.014168262481689453,0.4467972050750615,0.43016997489034264,51800,1.1993707859207654,0.0
259,1.3554902076721191,0.5384698302369602,0.28105276448677796,0.9267593066957751,0.21103438430549173,0.0,0.1335383123841753,0.1,0.0027894973754882812,0.052870750427246094,0.050112367,1.4742512,0.486767610234348,0.0,0.010762302792178798,0.0,200,0.013651609420776367,0.27522981820849196,0.26090684353517385,52000,1.40494131141314,0.0
260,1.2708275318145752,0.6730848945914294,0.48949920899889365,1.39052427514817,0.008018467107008608,0.0,0.12003586537685976,0.1,0.0027806758880615234,0.052980899810791016,0.049670458,2.2367704,0.5053993386700562,0.0,0.013461722346018874,0.0,200,0.014067411422729492,0.454962301751081,0.4353591262851427,52200,1.7894553756118625,0.0
261,1.3392970561981201,1.089018180700209,0.14850964421526225,1.2407971586036608,0.8428706895287333,0.0,0.12096599784558104,0.1,0.002883434295654297,0.05370807647705078,0.050232574,1.1267565,0.5637612228730715,0.0,0.021777572554829483,0.0,200,0.013579845428466797,0.3757702032828128,0.322412823205238,52400,1.677752392623186,0.0
262,1.3766086101531982,0.38559724696116615,0.1224512464420262,0.5073198720252272,0.20168041989573504,0.0,0.128543881959721,0.1,0.002813577651977539,0.05379462242126465,0.050396048,0.9128091,0.5459448252818809,0.0,0.007710655881097626,0.0,200,0.01353597640991211,0.23856910646962654,0.328167442244542,52600,2.03812063183106,0.0
263,1.3614354133605957,0.28796345757869796,0.15811350999335552,0.4171997025737426,0.025473718526549304,0.0,0.12930642209165644,0.1,0.0028743743896484375,0.05396628379821777,0.049866494,1.2049698,0.5201466885115626,0.0,0.005759075307707868,0.0,200,0.013671875,0.902811195482181,0.9209196475385854,52800,1.9732881165212885,0.0
264,1.3629868030548096,0.8170286449815642,0.596426884672024,1.706048902271649,0.09591520233064724,0.0,0.12843695228875346,0.1,0.002716541290283203,0.05221843719482422,0.048757963,1.6998427,0.5498348841585629,0.0,0.01633989840136032,0.0,200,0.013432502746582031,0.42049972430040117,0.411308755416128,53000,1.3538074389408903,0.0
265,1.4112868309020996,0.27643214642527725,0.3781542241192752,0.9306933462044011,0.02939910809030774,0.0,0.12314067806029809,0.1,0.0028769969940185547,0.05235600471496582,0.049162827,1.3133446,0.5224946103852344,0.0,0.005528779356622016,0.0,200,0.01425623893737793,1.0725772250065186,1.0541610794252652,53200,1.6626716259732686,0.0
266,1.3717992305755615,0.38999578284643144,0.3457538532242079,0.9673275568522159,0.07853118029697437,0.0,0.13259180014493208,0.1,0.003155946731567383,0.05388474464416504,0.049996678,1.6311151,0.5092447276313541,0.0,0.007799208407949968,0.0,200,0.014854669570922852,0.5975780418949067,0.5486577249992054,53400,1.768962249280243,0.0
267,1.331481695175171,0.49927235460520303,0.2843314525670114,0.9523944821522151,0.1708017319298893,0.0,0.1244554483874037,0.1,0.002894878387451172,0.05370473861694336,0.05017661,1.213326,0.5082474903287391,0.0,0.009651149244003033,0.0,200,0.013440847396850586,0.2777703030056665,0.2803986569956356,53600,1.8812642279542053,0.0
268,1.268789291381836,0.49840299717742137,0.645119834507438,1.6151191023893332,0.09950356279755547,0.0,0.13507615720306113,0.1,0.0028574466705322266,0.05334615707397461,0.049611863,1.7674942,0.5072630410136073,0.0,0.009968205441558638,0.0,200,0.013640403747558594,0.6375049544292671,0.6345968558288376,53800,1.6183038051137533,0.0
269,1.4020683765411377,0.7303623372915342,0.39806268172408404,1.2246585909999277,0.1944476972448592,0.0,0.12740929929807715,0.1,0.0029265880584716797,0.05382800102233887,0.049399003,1.456023,0.5295729706414001,0.0,0.014606838578160359,0.0,200,0.016186952590942383,0.30588027691644193,0.30455295673126337,54000,1.9323302266932358,0.0
270,1.3658020496368408,0.1408268449437703,0.10469802560560024,0.29449376082625905,0.003653573479459683,0.0,0.12296127672231894,0.1,0.0027971267700195312,0.05339980125427246,0.04926972,0.84691966,0.49069835807163714,0.0,0.0028166079452079415,0.0,200,0.014586210250854492,4.791349689332729,4.355196961879755,54200,1.5525976299384936,0.0
271,1.3231995105743408,0.3200412701014654,0.2330379287553569,0.6971090430881158,0.10029709212053481,0.0,0.12429118611792665,0.1,0.0028777122497558594,0.053266048431396484,0.05009626,1.2959747,0.47363264927461995,0.0,0.00639356792038532,0.0,200,0.013955831527709961,0.5582960400712141,0.502378162210356,54400,1.5133494555484697,0.0
272,1.30562162399292,0.6577599644157895,0.32139936138415587,1.0391015929287128,0.16431331925804843,0.0,0.132092040670098,0.1,0.002882242202758789,0.05266928672790527,0.04982489,1.2537793,0.4920453807887369,0.0,0.013155305002650695,0.0,200,0.014507055282592773,0.2759341488762545,0.28652774388424274,54600,1.4968951998841893,0.0
273,1.2973270416259766,0.4561432683003205,0.283501100554628,0.7676869870240292,0.043749981825839335,0.0,0.12842481049236093,0.1,0.0028727054595947266,0.057129859924316406,0.049785156,1.0582767,0.4884551695398952,0.0,0.009122970642817781,0.0,200,0.014039993286132812,0.2948494751256349,0.29439346331893246,54800,1.6347464242988716,0.0
274,1.3732266426086426,0.6413321812144691,0.5177359611219604,1.325950646114263,0.10544550736707452,0.0,0.12530184085308818,0.1,0.0028400421142578125,0.05252504348754883,0.049083967,1.987243,0.5037428707073526,0.0,0.012826795580967257,0.0,200,0.0137481689453125,0.4701844064721421,0.46270547791716854,55000,1.684545899957804,0.0
275,1.3165698051452637,0.6549861160489803,0.3914519981356721,1.0456284481017104,0.13441406349890975,0.0,0.13143701969199495,0.1,0.002995729446411133,0.05260753631591797,0.050177913,1.2924145,0.5188671952415154,0.0,0.012863622146981002,0.0,200,0.013746261596679688,0.3494270560306285,0.32501788952027905,55200,1.5955339220036582,0.0
276,1.3635988235473633,1.2516985063062884,0.9460359708614506,2.5190032802959603,0.12670597119928273,0.0,0.135010037001234,0.1,0.0028839111328125,0.05391335487365723,0.049804784,1.2479016,0.5921503263479927,0.0,0.025033957154194826,0.0,200,0.014091253280639648,0.6062834252241018,0.554841532921785,55400,1.6667655597872442,0.0
277,1.326791763305664,0.41097476978329833,0.4186899584191775,1.0888952700006997,0.018479116684476694,0.0,0.1188753035510052,0.1,0.002833127975463867,0.05302715301513672,0.049864393,2.2291267,0.5740327706915234,0.0,0.00821858287107034,0.0,200,0.014400720596313477,0.5692731525734316,0.6387658358783547,55600,1.801239524684486,0.0
278,1.373136281967163,0.3628075376382828,0.29870966457292597,0.8051594539934911,0.0061916723164881305,0.0,0.12719115192968888,0.1,0.002866983413696289,0.05383944511413574,0.050142117,1.2371787,0.5529102473861993,0.0,0.007256297130510035,0.0,200,0.014237403869628906,0.827669462757919,0.8540877052894446,55800,1.9964447345566103,0.0
279,1.3731796741485596,0.050583031262429634,0.0450257817717552,0.10988884439562464,0.0024555965182861336,0.0,0.1204195103615905,0.1,0.0028738975524902344,0.05260610580444336,0.050417326,1.1668591,0.5026775257738224,0.0,0.0010108134366976428,0.0,200,0.014980077743530273,86.48432217420057,66.45245163125077,56000,0.9219136998732088,0.0
280,1.2875185012817383,0.19541834573183103,0.23751159732956886,0.6000288227820585,0.015994645534767832,0.0,0.12682730006518764,0.1,0.002834320068359375,0.054361581802368164,0.050036598,0.9407269,0.47195160776962325,0.0,0.003903359512042774,0.0,200,0.023119211196899414,2.0640803242649306,1.347547244329791,56200,1.243695885966412,0.0
281,1.3007597923278809,1.2148778296254734,1.0476701680817275,2.649338874173222,0.06182200400462629,0.0,0.13013097323834902,0.1,0.002851724624633789,0.052509307861328125,0.05004484,1.1260208,0.5462442299552083,0.0,0.024000394528998353,0.0,200,0.01575326919555664,0.6451344550683109,0.649653310050991,56400,2.222738455610265,0.0
282,1.3726444244384766,1.0417069772765455,0.9164747095236042,2.405383901240856,0.11814906911201906,0.0,0.1241943772040914,0.1,0.0027883052825927734,0.05272531509399414,0.0492944,1.9514252,0.595790504687342,0.0,0.02081941911506717,0.0,200,0.014232397079467773,0.6041754503296304,0.5741023223445011,56600,2.2567431808083214,0.0
283,1.3713910579681396,0.6739719130223863,0.5017162678342133,1.5082388563645877,0.26492845652817104,0.0,0.1395127284226004,0.1,0.0029137134552001953,0.05383014678955078,0.049441878,1.7350285,0.6036086455208465,0.0,0.013476614662800403,0.0,200,0.015367746353149414,0.4011427211505969,0.38560662535731755,56800,0.7521573882330236,0.0
284,1.2970423698425293,0.572816470774531,0.5172844120320359,1.3848972793935463,0.055035405283169754,0.0,0.12491308100022054,0.1,0.00347900390625,0.06807518005371094,0.05074433,2.0174346,0.6005294280462149,0.0,0.011453336983065691,0.0,200,0.015366077423095703,0.46703052434010245,0.4748161433416385,57000,1.1392244942029373,0.0
285,1.3935203552246094,0.3617435449783346,0.2718674580712318,0.8138014797272913,0.1103007314686892,0.0,0.12775018325631227,0.1,0.002783536911010742,0.05684614181518555,0.04900347,1.0074061,0.5766508397394269,0.0,0.00723362065982211,0.0,200,0.014046907424926758,0.7389336084719113,0.7301682241253539,57200,0.8331469427842949,0.0
286,1.256709098815918,0.2750331598304028,0.39403540661991826,0.9566943334124806,0.017454364033274505,0.0,0.12992234961250845,0.1,0.003770112991333008,0.0689690113067627,0.050307628,1.795645,0.5464890717485245,0.0,0.005491546346841114,0.0,200,0.015134572982788086,1.2033259947175465,1.0843860197098347,57400,0.5358422872501861,0.0
287,1.4035265445709229,0.860123734107588,0.7270673790396656,1.6096716893047904,0.09254878090408358,0.0,0.1226772652102372,0.1,0.0029942989349365234,0.05341815948486328,0.04930186,1.8221203,0.5778525379844308,0.0,0.017202405075688255,0.0,200,0.014964103698730469,0.4941340331620776,0.5014432640203138,57600,0.08121818191286735,0.0
288,1.4090259075164795,0.42557662339009134,0.40876979373197325,1.0726062292562686,0.0322411721570897,0.0,0.1253550172312178,0.1,0.0028543472290039062,0.05439615249633789,0.05014368,1.8920468,0.562624946524997,0.0,0.008506580293948638,0.0,200,0.016954898834228516,0.5333519256502659,0.5239839416239782,57800,0.34716684931608605,0.0
289,1.3369214534759521,0.6176872719881372,0.3062528335094395,1.017613228520059,0.1571830496579166,0.0,0.1259478575467383,0.1,0.002870798110961914,0.05269646644592285,0.049191248,1.1560799,0.568131179071311,0.0,0.012352504765244007,0.0,200,0.014824151992797852,0.21392768041515467,0.2142281893127897,58000,0.42388945492067953,0.0
290,1.3197472095489502,0.7621208967048683,0.45006705271083586,1.419405895644567,0.32344611228648124,0.0,0.12517880477085738,0.1,0.0028562545776367188,0.05395960807800293,0.049137954,2.0211682,0.5875301508346669,0.0,0.015232713361971854,0.0,200,0.017027616500854492,0.3218018984079857,0.31507261158540145,58200,0.2740836658011597,0.0
291,1.3241362571716309,1.0801153515622595,0.5381359208550149,1.708059560602657,0.25086622557879734,0.0,0.11799351401546515,0.1,0.0028226375579833984,0.05261874198913574,0.05015447,1.6845901,0.6367886709074262,0.0,0.021601884120286522,0.0,200,0.01353597640991211,0.37886486711586864,0.33922666373313465,58400,0.1554703863251346,0.0
292,1.2901084423065186,0.46573636924677975,0.6574574589025672,1.600110727638979,0.0004980061168652101,0.0,0.12264535126208816,0.1,0.003443002700805664,0.06998276710510254,0.04945214,3.3554993,0.6196834407413616,0.0,0.009312363808414591,0.0,200,0.016058683395385742,0.6928995461069568,0.7154689001006453,58600,0.07376221542184401,0.0
293,1.350511074066162,1.004516074485603,0.604875122192977,1.68142688181472,0.1573813341781963,0.0,0.13164785851780364,0.1,0.0034208297729492188,0.0716850757598877,0.050119508,1.5847719,0.6581667041157858,0.0,0.020090472417941038,0.0,200,0.01590442657470703,0.3495387966192893,0.32460774234049744,58800,0.1533379645500179,0.0
294,1.3271689414978027,0.5541597998111909,0.35578937676254524,1.0099127471117242,0.04270836540269627,0.0,0.13241639414773526,0.1,0.0037605762481689453,0.06847119331359863,0.049891688,0.94013894,0.6477660136853264,0.0,0.01106152439730286,0.0,200,0.017963409423828125,0.3513254248337939,0.36852377872908826,59000,0.11764895622745801,0.0
295,1.2883610725402832,1.1873806453254416,0.8060644361260343,2.2212946202528,0.07523793260858028,0.0,0.12488661599159831,0.1,0.00335693359375,0.06850552558898926,0.050231997,2.9543111,0.701727476849338,0.0,0.02374741837468113,0.0,200,0.016733884811401367,0.42149283189843234,0.3955380925497165,59200,2.109626823263603,0.0
296,1.3218235969543457,1.033565708704293,0.6358851826831974,1.9824870826920675,0.19015473640766012,0.0,0.12261305347891151,0.1,0.0034394264221191406,0.06795549392700195,0.04926446,2.7539153,0.7349113000348335,0.0,0.020671261082910862,0.0,200,0.015648365020751953,0.3270343851664105,0.3039472676488127,59400,2.223085534832901,0.0
297,1.2914388179779053,0.600207572031262,0.3817616475814476,0.9787553508022074,0.03269752537237452,0.0,0.12473199528691474,0.1,0.0028219223022460938,0.05251789093017578,0.050006233,0.7197947,0.7214409272344764,0.0,0.012003301546054812,0.0,200,0.013871192932128906,0.5579334751837194,0.5909535848922937,59600,1.7374735808448396,0.0
298,1.4110417366027832,1.2140771292761736,0.4972126190005244,1.8130607503460339,0.5115761552173824,0.0,0.12996486915123662,0.1,0.002805471420288086,0.0536501407623291,0.048988506,1.2614614,0.7707045474386462,0.0,0.024281562640129324,0.0,200,0.013652801513671875,0.2059499009822654,0.19811492543354084,59800,1.7687885944885704,0.0
299,1.2907516956329346,0.2744920263097171,0.17039660079096755,0.4270136297480481,0.0018695500414870668,0.0,0.12405536747296847,0.1,0.002763509750366211,0.05353546142578125,0.049764425,1.1237515,0.7210832953257533,0.0,0.005489423220052825,0.0,200,0.013628721237182617,5.027196286407656,3.674253617430617,60000,1.7600301055034688,0.0
300,1.319093942642212,0.24758125920300053,0.11938408976901069,0.43217211885482254,0.10171922666663817,0.0,0.12421756658389495,0.1,0.0028557777404785156,0.05327773094177246,0.049822614,0.9248069,0.6737330917134781,0.0,0.004950122066098199,0.0,200,0.013480901718139648,5.60721995655866,2.7134246202895382,60200,1.0650942171821018,0.0
301,1.3932650089263916,0.14164348654721393,0.18140145722041054,0.45528893457534525,0.019683934240576618,0.0,0.12160894977420969,0.1,0.0027914047241210938,0.053519248962402344,0.050020054,0.98469853,0.6205241311968517,0.0,0.002833027041947312,0.0,200,0.014152765274047852,4.789694468238483,2.362567028632908,60400,0.8253614230925347,0.0
302,1.3905649185180664,0.1489249388503798,0.16352373513826646,0.4237731345964946,0.013185707386463913,0.0,0.12933566410887237,0.1,0.0027778148651123047,0.05388069152832031,0.049620967,0.91620034,0.5733642119622046,0.0,0.0029778046706819107,0.0,200,0.01358485221862793,2.98763651043092,1.2921628366924798,60600,1.5525788018368514,0.0
303,1.3881683349609375,1.1850307349199756,0.6192642786858652,2.0925360267401363,0.5147232147459697,0.0,0.12714464093271208,0.1,0.0028939247131347656,0.05364418029785156,0.05001718,1.7365662,0.6345308642579817,0.0,0.02370076649861221,0.0,200,0.01392817497253418,0.6647144996736163,0.6259918761192791,60800,1.4221554188240104,0.0
304,1.4128308296203613,0.41056449918322235,0.4604605599809768,1.184650731443603,0.003958530709252615,0.0,0.13143709006999246,0.1,0.0029070377349853516,0.054175376892089844,0.050253764,3.052047,0.6121342277505057,0.0,0.008211341696057379,0.0,200,0.015325784683227539,0.577901771329529,0.561468080904823,61000,1.193230840652835,0.0
305,1.3966732025146484,0.5797147652263431,0.533445713565564,1.2240512758059456,0.005209810590978906,0.0,0.12547354855605505,0.1,0.0034978389739990234,0.06925630569458008,0.04969142,1.8244623,0.6088922814980895,0.0,0.011594453313725734,0.0,200,0.016071557998657227,0.520310344961484,0.5043347235973299,61200,2.106931980745421,0.0
306,1.3934814929962158,0.8424431695855332,0.3993340054271647,1.426495485415246,0.31585852850402524,0.0,0.12375851406519356,0.1,0.0036704540252685547,0.0687403678894043,0.049857102,2.519188,0.6322473703068339,0.0,0.016848770064931354,0.0,200,0.017833471298217773,0.4074106034244163,0.38050432005354307,61400,2.211300426510402,0.0
307,1.4221444129943848,0.5119724563375858,0.3623982640648043,1.093422073019255,0.09526421864536593,0.0,0.12923984435691951,0.1,0.0029654502868652344,0.056327104568481445,0.048955508,1.7058666,0.6202198789099092,0.0,0.010232666379828559,0.0,200,0.015367746353149414,0.3803780445068265,0.3748014860034839,61600,1.6015108201229744,0.0
308,1.3058562278747559,0.8658704099935871,0.5698715317256766,1.541095000894582,0.25036499619352315,0.0,0.12248247855411533,0.1,0.0028839111328125,0.0532991886138916,0.049617767,1.7131859,0.644784932018277,0.0,0.01731499287691256,0.0,200,0.014001131057739258,0.4689191919423454,0.44656204465065985,61800,1.1208813339832668,0.0
309,1.2773640155792236,1.0236270602446746,0.5961473527944855,1.666365833962973,0.10817786136180661,0.0,0.12071342051012504,0.1,0.0028946399688720703,0.05414438247680664,0.049445227,2.1085927,0.6826691448409169,0.0,0.02047167700696529,0.0,200,0.01609206199645996,0.4818429910318428,0.4441855165465474,62000,1.6329683662950958,0.0
310,1.3501031398773193,0.8452846164315375,0.5017784176695552,1.2432675241738311,0.008027153014686587,0.0,0.12410380917819823,0.1,0.002766847610473633,0.0578768253326416,0.050190877,1.332747,0.6989306919999789,0.0,0.016905842410654213,0.0,200,0.015436410903930664,0.3794845783287521,0.34596787504289506,62200,1.3221972290057096,0.0
311,1.2944645881652832,1.1837983911006726,0.755957486408782,2.1143326113833685,0.32424647441688437,0.0,0.1307344156461787,0.1,0.0035266876220703125,0.06840848922729492,0.050190166,1.4063926,0.7474174619100484,0.0,0.02367607640760578,0.0,200,0.014172554016113281,0.4649460680583559,0.41156746434132774,62400,2.055729711967207,0.0
312,1.2821416854858398,1.223803400159982,0.42110916329614123,1.8024983378222834,0.6158246971361275,0.0,0.12077180686083966,0.1,0.0027620792388916016,0.052635908126831055,0.049670763,1.5185807,0.7950560557350418,0.0,0.024474599966672558,0.0,200,0.014872312545776367,0.2692010949981653,0.1870463872349598,62600,2.438516115038126,0.0
313,1.4014108180999756,0.07897937116620693,0.03727313202957386,0.1253607572374611,0.03596583928269182,0.0,0.1169566208426282,0.1,0.0028989315032958984,0.05249285697937012,0.05059349,1.178732,0.7234483872781583,0.0,0.0015797384853318062,0.0,200,0.015854835510253906,94.20885894972298,91.66460685828838,62800,2.0600384538704075,0.0
314,1.2967133522033691,0.39652159516925556,0.2444098572820508,0.7255366550952769,0.08312043653172066,0.0,0.1312204563968696,0.1,0.002870321273803711,0.05419325828552246,0.050360765,0.7786966,0.690755708067268,0.0,0.00793054280104554,0.0,200,0.014345407485961914,1.6277346771242462,0.9894326643729224,63000,2.0302027140566454,0.0
315,1.408393383026123,0.601368036609167,0.7748594952875174,1.914460306028924,0.025787898078619104,0.0,0.12841833694867952,0.1,0.002814054489135742,0.05556678771972656,0.05000572,2.2499561,0.681816940921458,0.0,0.012003347259313816,0.0,200,0.014539480209350586,0.6671317357231715,0.62675827258373,63200,2.4211452493778944,0.0
316,1.3880925178527832,0.8171552713735236,0.41379080541106283,1.248690299489281,0.2804740260654136,0.0,0.12152815775451928,0.1,0.002860546112060547,0.0534052848815918,0.05067866,2.3860986,0.6953507739666644,0.0,0.016343054088797927,0.0,200,0.014584779739379883,0.2476083157508985,0.27204992746844114,63400,2.3174870762511937,0.0
317,1.4199719429016113,0.8318070665742998,0.8016663853883841,1.8200994360966982,0.010065033787249536,0.0,0.1278757810586215,0.1,0.002858877182006836,0.05348014831542969,0.05114539,3.485028,0.7089964032274281,0.0,0.016631858415269495,0.0,200,0.01429605484008789,0.5196178025066219,0.5205270472252668,63600,1.7783789190262382,0.0
318,1.3019845485687256,1.045051194047183,0.5922525255762513,1.5983476230850455,0.05417334910876481,0.0,0.12931746995280416,0.1,0.0028786659240722656,0.05246567726135254,0.05026341,1.1267102,0.7426018823094036,0.0,0.020901004312202518,0.0,200,0.014357566833496094,0.39983468450499215,0.3751716202117897,63800,2.569100982267503,0.0
319,1.4257137775421143,0.8128731943293792,0.6959223452837302,1.9745964933066578,0.12827163773364592,0.0,0.12300992527240563,0.1,0.002821207046508789,0.0525357723236084,0.050004613,2.0651472,0.7496290135114012,0.0,0.01604991618343906,0.0,200,0.015546798706054688,0.47182180916236105,0.4540122855546183,64000,1.2773825683391107,0.0
320,1.3427882194519043,0.3892255239250224,0.516696621067794,1.2824682659235118,0.042746164764842366,0.0,0.12100475341075001,0.1,0.002832174301147461,0.054085493087768555,0.04982291,1.3970306,0.7135886645527633,0.0,0.007776922418760733,0.0,200,0.015015840530395508,0.8273677699971728,0.8548639169481496,64200,1.7562459126903496,0.0
321,1.3710575103759766,1.4076142356912509,0.6660908438551083,2.0272310656306622,0.30241537628893833,0.0,0.1289929405223438,0.1,0.002878904342651367,0.05490875244140625,0.04936145,1.196917,0.7829912216666121,0.0,0.028152130504962375,0.0,200,0.014820575714111328,0.3896882394734404,0.3581150851794071,64400,0.83980559972187,0.0
322,1.2989413738250732,0.5507013291678855,0.4350387216811315,1.0578701622368647,0.09569366472727685,0.0,0.129112512842788,0.1,0.0028667449951171875,0.054181575775146484,0.04991887,0.6935806,0.7597622324167393,0.0,0.011010580155289204,0.0,200,0.014409542083740234,0.5386916978912331,0.5958775945107745,64600,1.0880547901284559,0.0
323,1.2670314311981201,0.3833190483404276,0.1627469633036468,0.6328238681255496,0.2021649845751727,0.0,0.13276817288277465,0.1,0.0027921199798583984,0.05294680595397949,0.04978277,0.76399285,0.7221179140091082,0.0,0.007666252698392419,0.0,200,0.013839006423950195,1.227658860307167,1.089124945249932,64800,1.7327974006720854,0.0
324,1.5355892181396484,1.0236639565121326,0.0876696054513578,1.116948275499552,0.8963115222491391,0.0,0.12339410765437209,0.1,0.002931356430053711,0.05748295783996582,0.04998854,1.6607888,0.7522725182594107,0.0,0.020473420536342705,0.0,200,0.014675378799438477,0.06934066978832472,0.07752793883926479,65000,1.4226396236494203,0.0
325,1.351792335510254,0.8747443975772367,0.8150669591113171,1.9976358241831156,0.0496796531318141,0.0,0.12733878403266793,0.1,0.0028243064880371094,0.05417180061340332,0.049670752,1.2914717,0.7645197061911932,0.0,0.017449923964683693,0.0,200,0.014508485794067383,0.4794915674312854,0.47526425836290687,65200,1.8646970474398934,0.0
326,1.270331621170044,0.8572007672805374,0.7531198676395541,1.7431948802516333,0.005505054585113812,0.0,0.13440593509811738,0.1,0.0028662681579589844,0.053711652755737305,0.05011557,1.3084831,0.7737878123001276,0.0,0.01714416806394694,0.0,200,0.014534711837768555,0.44318949008614217,0.4409603231652617,65400,1.6201383166505208,0.0
327,1.301372766494751,0.5565105202549333,0.7919468436255969,1.922446210516971,0.0058884867081353135,0.0,0.1359982806295299,0.1,0.002794504165649414,0.05355024337768555,0.049272712,1.4802731,0.7520600830956082,0.0,0.011128823229053307,0.0,200,0.014606475830078125,0.7599067975701683,0.7489865596298615,65600,1.646211430702362,0.0
328,1.2788808345794678,0.9947986028667681,0.6745040300217153,1.9534417670992983,0.05974300653850134,0.0,0.1270787030585801,0.1,0.002887248992919922,0.05338239669799805,0.049653355,2.3450408,0.7763339350727243,0.0,0.019890282981074363,0.0,200,0.014402389526367188,0.36995924060775953,0.3680336486986165,65800,1.3508073055590515,0.0
329,1.3549532890319824,0.41630692103121,0.2694997508164544,0.8760722328314798,0.1873068339005298,0.0,0.12524024470088,0.1,0.0028085708618164062,0.056877851486206055,0.050203852,0.9567021,0.7403312336685729,0.0,0.008325923222190052,0.0,200,0.017129898071289062,0.8879613724443323,0.816317525102488,66000,1.3265470940210147,0.0
330,1.380432367324829,0.6309400983312667,0.573885768434124,1.584293259545236,0.17361982130346543,0.0,0.1238707572762237,0.1,0.00289154052734375,0.05341148376464844,0.049697537,1.3588656,0.7293921201348422,0.0,0.012616621998584276,0.0,200,0.0200653076171875,0.4944527917641481,0.4781551292903461,66200,0.9068004214670838,0.0
331,1.3431949615478516,1.1477800858066693,0.6112517113702003,2.0582964310833844,0.4226474877193228,0.0,0.12939612402971895,0.1,0.002774953842163086,0.05285024642944336,0.049995597,1.8407859,0.771230916702025,0.0,0.022867293658452664,0.0,200,0.015607595443725586,0.3488402034232763,0.3451178115870383,66400,1.1686560660061789,0.0
332,1.3940551280975342,0.6894343328219924,0.45797711250954193,1.2278398982842942,0.023656127079775283,0.0,0.13063002385912034,0.1,0.0028634071350097656,0.05361342430114746,0.04947354,0.9698092,0.7630512583140218,0.0,0.013787817003343368,0.0,200,0.015923261642456055,0.33350716911674666,0.33318881616192697,66600,0.9478875753856523,0.0
333,1.3836157321929932,0.588711738729831,0.358736068255309,1.0154222030673874,0.0755821375312321,0.0,0.12840038076707794,0.1,0.0027751922607421875,0.05270957946777344,0.050276414,0.99555343,0.7456173063556027,0.0,0.011680983954812403,0.0,200,0.015680551528930664,0.3644237055452951,0.35926212529986296,66800,0.6313537432725739,0.0
334,1.4084415435791016,0.75363363344153,0.46571658650999087,1.1603473745347292,0.013691120663500582,0.0,0.12278545084118807,0.1,0.0028078556060791016,0.052477359771728516,0.048981715,1.9119269,0.7464189390641955,0.0,0.015072096773307751,0.0,200,0.014695882797241211,0.3050959909650364,0.30450463398856775,67000,0.873974584606747,0.0
335,1.4285767078399658,0.8936701435731615,0.6879867979428961,1.772149996827916,0.07119216764331297,0.0,0.1222266456339138,0.1,0.0036287307739257812,0.06842565536499023,0.049880907,1.235942,0.7611440595150922,0.0,0.017602219693345966,0.0,200,0.018684864044189453,0.4113710900884294,0.40678290746427404,67200,1.3074868796537245,0.0
336,1.4306893348693848,0.6896781684054314,0.4366308784158449,1.254061858280824,0.028103349271849154,0.0,0.1306933452844265,0.1,0.0028047561645507812,0.05277252197265625,0.05047211,0.9700841,0.7539974704041261,0.0,0.013793697903654624,0.0,200,0.015459060668945312,0.3209657670427074,0.3207951223547654,67400,0.6086233232858923,0.0
337,1.440202236175537,0.31773644376480925,0.18406008253577133,0.5027905395290181,0.0331213062193498,0.0,0.1293308724425622,0.1,0.002874612808227539,0.05354452133178711,0.04965023,0.74457514,0.7103713677401944,0.0,0.006301790123843954,0.0,200,0.016408205032348633,1.4903525090258398,1.241419970886428,67600,0.3545592695374034,0.0
338,1.443589687347412,0.4272212846340184,0.3976735432097873,0.9669501303095636,0.023424063733540074,0.0,0.12494253885861256,0.1,0.003000497817993164,0.05366373062133789,0.049631458,0.8671152,0.6820563594295768,0.0,0.008539892064395094,0.0,200,0.017861127853393555,0.7132098759615074,0.6108875151198762,67800,0.15728894001394342,0.0
