iteration,time_sampling,stoc_pol_mean,stoc_pol_std,stoc_pol_max,stoc_pol_min,rollout_success,alpha,delta,time_vpg,time_npg,kl_dist,surr_improvement,running_score,rwd_sparse,rwd_dense,success_percentage,num_samples,time_VF,VF_error_before,VF_error_after,env_samples,eval_score,eval_success
0,1.85017728805542,75.32001300310715,0.03858464598502391,75.36972392778843,75.26555727380915,0.0,0.16315467044777374,0.1,0.032527923583984375,0.0613100528717041,0.053899974,0.5592753,75.32001300310715,0.0,0.9907789514736793,0.0,300,0.05836200714111328,0.9979030116882345,0.9914062201816688,300,75.29724125789483,0.0
1,1.5414457321166992,75.22366907677399,0.1600672143963555,75.34187358495323,74.94845155760879,0.0,0.1628124598836381,0.1,0.003319978713989258,0.0614776611328125,0.051368453,0.52921784,75.31037861047383,0.0,0.9896292985804394,0.0,300,0.06290340423583984,0.9914616403083515,0.9824017562444454,600,75.29523270913111,0.0
2,1.669325590133667,75.311452430594,0.019865607353449072,75.33390851448301,75.28593678828038,0.0,0.17269095020392475,0.1,0.0033636093139648438,0.059534549713134766,0.050993104,0.55798954,75.31048599248585,0.0,0.9906606377867663,0.0,300,0.057875871658325195,0.9827941625818005,0.9677520003809175,900,75.30342305304258,0.0
3,1.7912721633911133,75.33452810546727,0.06927883872431874,75.41570729761044,75.26477765485657,0.0,0.1769875348186992,0.1,0.00513768196105957,0.14537525177001953,0.052579608,0.56721985,75.31289020378401,0.0,0.9909682953574634,0.0,300,0.054129838943481445,0.9672443508114685,0.9405159263304481,1200,75.29470540770352,0.0
4,1.872636318206787,75.27426513894069,0.148320689933554,75.3782207184442,75.01944788389595,0.0,0.18002581046109778,0.1,0.0037589073181152344,0.06373810768127441,0.051918823,0.58433515,75.30902769729968,0.0,0.9902476335879078,0.0,300,0.10930156707763672,0.9404447295339963,0.8969438978862359,1500,75.31998576712513,0.0
5,1.9565136432647705,75.19226383854011,0.23800243548025127,75.48717152582016,74.89551874248735,0.0,0.17202760964994326,0.1,0.02208685874938965,0.2379138469696045,0.05092975,0.5910319,75.29735131142374,0.0,0.9891930915662794,0.0,300,0.20026779174804688,0.8988834750852446,0.8346195689933775,1800,75.32898398831053,0.0
6,1.9226162433624268,75.15352810296612,0.23479227385612703,75.46991636655109,74.89769610676156,0.0,0.1765575106374952,0.1,0.006446361541748047,0.25849390029907227,0.05059825,0.5232062,75.28296899057798,0.0,0.9886598290960433,0.0,300,0.24511146545410156,0.8310023921861581,0.739288635258747,2100,75.33732080688982,0.0
7,1.9073152542114258,75.25145534767526,0.06325586696032054,75.31825017076406,75.16449462907275,0.0,0.16415218601241988,0.1,0.011352300643920898,0.4302792549133301,0.049361836,0.5406239,75.27981762628772,0.0,0.9898858657807664,0.0,300,0.22271156311035156,0.7391572179751428,0.6206654113222838,2400,75.35088346416845,0.0
8,1.9993557929992676,75.04778136676383,0.20424411109002344,75.39371117196329,74.87800257502109,0.0,0.17740865399910927,0.1,0.016303062438964844,0.3007688522338867,0.050411433,0.58924574,75.25661400033533,0.0,0.9873749076284529,0.0,300,0.18561172485351562,0.618160972398729,0.48201147850005893,2700,75.25420865542834,0.0
9,1.6558234691619873,75.09551688005114,0.19794361654746503,75.41665726214865,74.89472077917816,0.0,0.1739514608969468,0.1,0.07769274711608887,1.3551476001739502,0.05194862,0.6451183,75.24050428830692,0.0,0.9880182410741385,0.0,300,0.34107542037963867,0.4819810046099717,0.3443381990215539,3000,75.04201579171878,0.0
10,1.6906754970550537,75.24267835267713,0.08323101000294104,75.30087096962536,75.09979567492701,0.0,0.16872175283263463,0.1,0.13975977897644043,1.3539636135101318,0.05180497,0.71633756,75.24072169474394,0.0,0.9898355506284554,0.0,300,0.41928553581237793,0.33981542070853993,0.2288647441750622,3300,74.99654687201998,0.0
11,1.6743175983428955,75.37770313573633,0.0580821305914066,75.4210538513412,75.27898082193883,0.0,0.1868404411973112,0.1,0.12006807327270508,1.455786943435669,0.0513366,0.6810018,75.25441983884318,0.0,0.9915502867565738,0.0,300,0.3647284507751465,0.2345456837865221,0.1727496925545819,3600,74.98989713817149,0.0
12,1.7654883861541748,75.21479401892518,0.15513357272172051,75.38846157787243,74.98147934452211,0.0,0.17494862753781104,0.1,0.0926361083984375,1.3716583251953125,0.049926884,0.6027351,75.25045725685138,0.0,0.9895216620034367,0.0,300,0.37273120880126953,0.1783230867069107,0.1646568095430282,3900,75.36441152899819,0.0
13,1.6710319519042969,75.10384519469635,0.16777280186053597,75.37662903407195,74.93977596244595,0.0,0.16867384399117888,0.1,0.14746499061584473,1.381258249282837,0.050883792,0.6128584,75.23579605063588,0.0,0.9881333667856032,0.0,300,0.21888160705566406,0.17472816854679402,0.165322726468615,4200,75.36832062374428,0.0
14,1.6834921836853027,75.15984071855607,0.1340211997028743,75.30734539012379,74.94653872972826,0.0,0.16329355950965094,0.1,0.14954471588134766,1.382904291152954,0.05058196,0.6861132,75.22820051742791,0.0,0.9888654403867563,0.0,300,0.4242246150970459,0.18059796418994714,0.15533771081253223,4500,75.38289784492476,0.0
15,1.6265923976898193,75.24073132542553,0.1581280994628752,75.38399483820977,74.97296187277955,0.0,0.1689030547346387,0.1,0.134857177734375,1.3347978591918945,0.049507238,1.7326823,75.22945359822768,0.0,0.989799855517701,0.0,300,0.41788434982299805,0.1362078649612726,0.12230989592433028,4800,75.40352821335411,0.0
16,1.6783125400543213,75.19604587133578,0.17787791100215222,75.39619133328046,74.93791389482749,0.0,0.1702732813542529,0.1,0.006938934326171875,0.39477992057800293,0.05031178,0.8393031,75.22611282553848,0.0,0.9893203107563102,0.0,300,0.2442629337310791,0.1319547415427709,0.12049814927593673,5100,75.42017250062187,0.0
17,1.628335952758789,75.15696304397633,0.21003483975110937,75.42432988121382,74.89557584782848,0.0,0.15957037433221052,0.1,0.07646822929382324,1.028193712234497,0.050754074,0.9547987,75.21919784738228,0.0,0.9888059517520975,0.0,300,0.2458629608154297,0.12027322667940132,0.1097089393001336,5400,75.4809577257099,0.0
18,1.7050926685333252,75.19079076295924,0.19946947209403276,75.4717310173284,74.97597961485576,0.0,0.1655561792731816,0.1,0.07798933982849121,1.269101858139038,0.050516214,1.3374288,75.21635713893997,0.0,0.9892832890823047,0.0,300,0.24377846717834473,0.11272632122301032,0.10275483403401081,5700,75.11623507661558,0.0
19,1.6809260845184326,75.12666236657891,0.16120806048543845,75.30471580046382,74.89988693891105,0.0,0.16826113525549416,0.1,0.0840764045715332,0.4822070598602295,0.048908066,0.7733668,75.20738766170386,0.0,0.9883771775987475,0.0,300,0.24376535415649414,0.1033591458267315,0.0959896451992897,6000,75.3703549349818,0.0
20,1.6492459774017334,75.269403693496,0.2070588859600458,75.46108168952826,74.92214923282536,0.0,0.17400931128628228,0.1,0.077301025390625,1.2572076320648193,0.05120575,1.3789666,75.21358926488308,0.0,0.990236873307588,0.0,300,0.2502925395965576,0.10111742119669176,0.09600756823072057,6300,75.47615112245124,0.0
21,1.6304519176483154,75.26219967643397,0.10341360233008319,75.38783679385364,75.10038742002426,0.0,0.16427791514065604,0.1,0.07957315444946289,1.2449278831481934,0.05016916,1.8715332,75.21845030603818,0.0,0.990174134548418,0.0,300,0.29410457611083984,0.08618408349848225,0.08182177820721923,6600,75.35688749923774,0.0
22,1.7969326972961426,74.99344112520373,0.03940555518919009,75.06050813442448,74.95926440576355,0.0,0.16013827474591374,0.1,0.1030430793762207,1.290585994720459,0.049709138,3.4030817,75.19594938795474,0.0,0.9867312242011486,0.0,300,0.3525657653808594,0.09048072414889698,0.08675977345895892,6900,75.31717083270222,0.0
23,1.6868932247161865,75.33829208979625,0.044903787533631494,75.39660715346896,75.2750563713364,0.0,0.17599238277969087,0.1,0.002887725830078125,0.703284740447998,0.050242003,1.1469321,75.21018365813889,0.0,0.9910530883842741,0.0,300,0.33794617652893066,0.08300788297415068,0.07986430208436084,7200,75.30068532093948,0.0
24,1.7683155536651611,75.18243742236409,0.15906867247597714,75.35852677798096,74.93979835705115,0.0,0.17012759598714214,0.1,0.07811498641967773,1.3141319751739502,0.04922031,1.3102653,75.20740903456141,0.0,0.9891671753566957,0.0,300,0.4049358367919922,0.07680191961200354,0.07402337256866821,7500,74.91718806092432,0.0
25,1.7289822101593018,75.22938777347916,0.17499489363642584,75.37992658656067,74.93156329134234,0.0,0.1673649020982253,0.1,0.07639265060424805,1.3040194511413574,0.050106667,2.990012,75.20960690845318,0.0,0.9896872571292143,0.0,300,0.3348369598388672,0.0694094994162405,0.06745160848464361,7800,74.9256656282772,0.0
26,1.7048766613006592,75.1490964340111,0.19340737247558382,75.34863646203267,74.94158298711766,0.0,0.16064094019777916,0.1,0.1490786075592041,1.3567192554473877,0.050505552,1.9420463,75.20355586100898,0.0,0.9886516650372996,0.0,300,0.3286600112915039,0.06964744370146023,0.06763126186171486,8100,74.92873222351209,0.0
27,1.6814355850219727,75.12947097642106,0.16540387547690694,75.32731549429865,74.88656139813929,0.0,0.16831057451983564,0.1,0.07357120513916016,1.3426995277404785,0.050442968,1.5596535,75.1961473725502,0.0,0.9884595525190268,0.0,300,0.41806936264038086,0.07636600455115153,0.07415080065834055,8400,74.95490406496629,0.0
28,1.9353322982788086,75.2379543736805,0.1981495937459583,75.45820196275635,74.91642705470848,0.0,0.15669617923431828,0.1,0.09464454650878906,1.495760440826416,0.048778184,2.5503926,75.20032807266324,0.0,0.9897421374857847,0.0,300,0.37755680084228516,0.07067627356561754,0.06846336754029518,8700,74.94307620030733,0.0
29,1.6946935653686523,75.21364711819706,0.14313855067334702,75.35103344052976,74.97337963198824,0.0,0.1715356769826399,0.1,0.10660195350646973,1.3925371170043945,0.05096712,1.090591,75.20165997721662,0.0,0.9895130117548356,0.0,300,0.41382265090942383,0.06985932965107368,0.06779202556887727,9000,75.29628842966748,0.0
30,1.9182932376861572,75.33093497593511,0.036841288641504405,75.37784478372171,75.28831504197453,0.0,0.15977044613401198,0.1,0.1485898494720459,1.4961340427398682,0.049373876,1.9040352,75.21458747708847,0.0,0.9909676516714836,0.0,300,0.36699581146240234,0.0677689748099604,0.06539886233143964,9300,75.30454888807984,0.0
31,1.662590503692627,75.33100329466583,0.04891574766199871,75.3913451025462,75.25688496444482,0.0,0.1671520978630073,0.1,0.07794451713562012,1.3351242542266846,0.049992837,2.0355277,75.2262290588462,0.0,0.9909522647482447,0.0,300,0.39183712005615234,0.06862065802346062,0.06704954004609902,9600,75.31039419364232,0.0
32,1.742931842803955,75.28966533011422,0.04652458159625935,75.34857696086671,75.21968055499408,0.0,0.17428329279972107,0.1,0.08926725387573242,1.3616282939910889,0.05089431,0.8132473,75.23257268597301,0.0,0.990585939249087,0.0,300,0.31327366828918457,0.0650241347124292,0.06294942919191691,9900,75.31006664459599,0.0
33,1.81192946434021,75.11775462214722,0.18348812395147213,75.34824628006598,74.90737698680276,0.0,0.15316698581419552,0.1,0.09382772445678711,1.446774959564209,0.0498922,2.9469635,75.22109087959043,0.0,0.9882817078413788,0.0,300,0.3368353843688965,0.053993515236613526,0.05168707016693975,10200,75.19538353212683,0.0
34,1.7932007312774658,75.13011715836454,0.15798405840025317,75.31877824978457,74.916583143127,0.0,0.15506383596267673,0.1,0.07915139198303223,1.3084707260131836,0.050422136,2.184636,75.21199350746785,0.0,0.988421337022585,0.0,300,0.40331149101257324,0.0671478196621819,0.06451467927767594,10500,75.2217840275362,0.0
35,1.5880961418151855,75.11289024641229,0.19234015302064653,75.30945253581076,74.90058197774461,0.0,0.15625385268928732,0.1,0.07536435127258301,1.3657824993133545,0.04998177,2.225873,75.2020831813623,0.0,0.988166462213441,0.0,300,0.3039369583129883,0.05268620294976735,0.05039691575829225,10800,75.28836510803363,0.0
36,1.7921550273895264,75.16607083990287,0.15454392727255004,75.2926653944346,74.90924996903279,0.0,0.14807864219466663,0.1,0.08249092102050781,1.3613841533660889,0.050844453,54.541218,75.19848194721635,0.0,0.9888684565015957,0.0,300,0.4329721927642822,0.051876464402602136,0.05028459500452878,11100,75.27949963490707,0.0
37,1.7887959480285645,74.98661416231138,0.10605729232602654,75.09146117815713,74.81615720963448,0.0,0.16000821840660234,0.1,0.08864569664001465,1.4314460754394531,0.048894405,1.3087496,75.17729516872586,0.0,0.9866028044048856,0.0,300,0.32636475563049316,0.055698283622768574,0.053480780318654164,11400,75.29252464286368,0.0
38,1.8016622066497803,75.22608615012815,0.17810359281739,75.37595902714236,74.92713478484077,0.0,0.16923167245482804,0.1,0.0794825553894043,1.3748250007629395,0.0500635,1.4488182,75.1821742668661,0.0,0.9896413030299299,0.0,300,0.32504844665527344,0.04860053884998954,0.04648887811280081,11700,75.29159220530462,0.0
39,1.7988574504852295,75.38835515490445,0.031040618399310077,75.41182527526067,75.33601082752072,0.0,0.1539189243054695,0.1,0.08357858657836914,1.4450392723083496,0.05017076,3.194076,75.20279235566994,0.0,0.9916649219502185,0.0,300,0.40796518325805664,0.05300895690269268,0.05109282793586561,12000,75.27957975794097,0.0
40,1.7508440017700195,75.21008061289037,0.17330076690889096,75.36537585780756,74.91624019747907,0.0,0.1638182778259856,0.1,0.10583233833312988,1.335350513458252,0.049965013,1.2574321,75.20352118139199,0.0,0.9894159742846583,0.0,300,0.3310518264770508,0.05476721467719893,0.052201237368288446,12300,75.29409054432674,0.0
41,1.84824800491333,75.1973833382865,0.19392405765770082,75.41970080574613,74.95372469435401,0.0,0.15961310221699937,0.1,0.07760977745056152,1.3321146965026855,0.04974932,1.5985837,75.20290739708145,0.0,0.9892935983036255,0.0,300,0.38269972801208496,0.04507283451443696,0.04210870777827458,12600,75.29498391748885,0.0
42,1.858854055404663,75.22338936975164,0.15136853195669156,75.33565986768463,74.96261835562987,0.0,0.17125902832253276,0.1,0.07785463333129883,1.3440625667572021,0.049104102,1.5834677,75.20495559434846,0.0,0.989566216565604,0.0,300,0.37590909004211426,0.05003576031935061,0.04863419100531715,12900,75.2882634423115,0.0
43,1.8130290508270264,75.24778485281276,0.09238167154072234,75.31474836224362,75.08851336456675,0.0,0.16123091071961768,0.1,0.1179192066192627,1.314758062362671,0.050394353,4.760679,75.20923852019489,0.0,0.9899010535028545,0.0,300,0.38283801078796387,0.0456978274631175,0.04413025790153309,13200,75.26008164272471,0.0
44,1.8587121963500977,75.29526068046798,0.031978725628257154,75.32013453465424,75.24058189031015,0.0,0.15068209867756321,0.1,0.08015108108520508,1.350945234298706,0.050264142,3.5865495,75.21784073622219,0.0,0.9905766588675662,0.0,300,0.43088698387145996,0.03984644316155178,0.03778683234254312,13500,75.26923737353331,0.0
45,1.8467206954956055,75.07661979530846,0.17333901255132214,75.25507297988447,74.82824061915817,0.0,0.16319974771394438,0.1,0.07896780967712402,1.3004882335662842,0.050651733,1.4196029,75.20371864213082,0.0,0.9877887501891207,0.0,300,0.311767578125,0.045629833186093205,0.043392987452315464,13800,75.28237658358407,0.0
46,1.7380015850067139,75.24880389826791,0.17605382892846713,75.39258331579987,74.94741010817101,0.0,0.17470858255248148,0.1,0.08109498023986816,1.3353538513183594,0.04905782,1.8454219,75.20822716774454,0.0,0.9898940876449833,0.0,300,0.32685399055480957,0.04707232694949397,0.04467281210784581,14100,75.28489842653366,0.0
47,1.7093181610107422,75.22422238107478,0.19230050409899113,75.3786509658148,74.89544872241343,0.0,0.15080755330311715,0.1,0.07714343070983887,1.40659499168396,0.05067938,4.8401794,75.20982668907757,0.0,0.989596832483171,0.0,300,0.34212660789489746,0.03887814030620278,0.03741515478829557,14400,75.27318686740544,0.0
48,1.7939069271087646,75.26257271067936,0.13281467408978884,75.36922561069629,75.03814621904395,0.0,0.15036709098360115,0.1,0.0982363224029541,1.4549639225006104,0.049277622,2.9475288,75.21510129123776,0.0,0.9901012360320482,0.0,300,0.3511035442352295,0.039449732732121774,0.03772307110028149,14700,75.2773960560992,0.0
49,1.9464738368988037,75.18335115668555,0.15590873803810418,75.39605449215429,75.02704891228433,0.0,0.16479604847872856,0.1,0.08375668525695801,1.497063159942627,0.05032614,2.4533107,75.21192627778254,0.0,0.9891111078620999,0.0,300,0.33848023414611816,0.03975151377396081,0.03715779886605703,15000,75.26691013776535,0.0
50,1.7498950958251953,75.18437544601659,0.10583454035208383,75.27922452491876,75.02231621908656,0.0,0.1621232371697884,0.1,0.07896757125854492,1.461817741394043,0.0504414,3.3948257,75.20917119460594,0.0,0.9891467943677901,0.0,300,0.39066100120544434,0.03389311253752395,0.031376838754440375,15300,75.26881312156571,0.0
51,1.7964775562286377,75.33999534768076,0.03694478839349054,75.39728882189578,75.29404604249386,0.0,0.17326650095370286,0.1,0.08584070205688477,1.378274917602539,0.049552046,2.1506813,75.22225360991342,0.0,0.991044860510229,0.0,300,0.41437578201293945,0.03414744828870701,0.03216202351279452,15600,75.27839820396824,0.0
52,1.6220016479492188,75.27410076474004,0.02603707152859497,75.31037415878556,75.23675602525358,0.0,0.16827510132314283,0.1,0.10730481147766113,1.360553503036499,0.049423385,1.4362239,75.22743832539608,0.0,0.9902724072739701,0.0,300,0.4028327465057373,0.028388983482063486,0.02576630552706425,15900,75.27249073953706,0.0
53,1.7367119789123535,75.16246283452838,0.19047864110596133,75.36650564565717,74.93270331394405,0.0,0.18250393419736333,0.1,0.1101982593536377,1.382965326309204,0.05061621,0.87967193,75.22094077630932,0.0,0.9888067103579787,0.0,300,0.3382720947265625,0.03663147975945554,0.03529087229531442,16200,75.27113915121085,0.0
54,1.7683866024017334,75.21254463728545,0.1531931989816186,75.32218982595452,74.94844337674478,0.0,0.16679008257706943,0.1,0.13825702667236328,2.035684823989868,0.050625682,2.8955948,75.22010116240693,0.0,0.9894508232050745,0.0,300,0.2740137577056885,0.023959288976039717,0.021180807896336702,16500,75.27479527316633,0.0
55,1.77805495262146,75.2160505091707,0.14637435343325228,75.34618423034888,74.9681396920081,0.0,0.16667110076690905,0.1,0.0825042724609375,1.097787857055664,0.050758302,2.282217,75.21969609708331,0.0,0.9895410359117859,0.0,300,0.22850251197814941,0.030825059665986823,0.027990289551244548,16800,75.28997245189639,0.0
56,1.9377148151397705,75.35843006283892,0.06662391941728743,75.46322563914725,75.28519205608954,0.0,0.16347637261370315,0.1,0.08309006690979004,1.321254014968872,0.04984653,2.6211195,75.23356949365888,0.0,0.9913038484148116,0.0,300,0.24093914031982422,0.023883465484990034,0.02311167796500145,17100,75.29911439104352,0.0
57,1.8874151706695557,75.29151762185612,0.05253501138453114,75.37670546689274,75.23373505226964,0.0,0.17752782900063616,0.1,0.08188247680664062,0.6320340633392334,0.049444724,9.510917,75.23936430647859,0.0,0.9904450553826589,0.0,300,0.22390151023864746,0.025098625341458316,0.023384757109152384,17400,75.29167235417755,0.0
58,1.953678846359253,75.22196902950759,0.08415916223567584,75.35355876822938,75.12539575741147,0.0,0.15458400112131038,0.1,0.08065056800842285,0.20157957077026367,0.05027143,4.9021883,75.2376247787815,0.0,0.9895585732762491,0.0,300,0.22691702842712402,0.025707218787611428,0.02243465698552306,17700,75.28806697081212,0.0
59,1.8613553047180176,75.31731505811332,0.029125419360547068,75.34701432803988,75.28359879055289,0.0,0.17370384427238464,0.1,0.0829315185546875,0.5883188247680664,0.049719512,1.8507624,75.24559380671468,0.0,0.9907341578444848,0.0,300,0.19381308555603027,0.02112156954641553,0.0202517699454116,18000,75.29934589679536,0.0
60,1.8142881393432617,75.29906874673229,0.01429430770271189,75.32253677982101,75.28620747327633,0.0,0.15874696472786598,0.1,0.07461738586425781,0.06291651725769043,0.05026697,13.542206,75.25094130071645,0.0,0.9905069890016425,0.0,300,0.17670392990112305,0.026942914780144395,0.0219704530776918,18300,75.3021947293196,0.0
61,1.815683126449585,75.31470016607831,0.03913478335035177,75.3803251207756,75.28443380153612,0.0,0.1553866100126,0.1,0.003153562545776367,0.05737590789794922,0.049520914,3.7854695,75.25731718725264,0.0,0.9907783003733566,0.0,300,0.034154415130615234,0.019656997292616718,0.01963614743850408,18600,75.28906626276229,0.0
62,1.9144270420074463,75.16514625708434,0.11427342679402183,75.28528854262895,75.0221016870295,0.0,0.16708412349331558,0.1,0.006213665008544922,0.05480313301086426,0.050666973,2.1187327,75.24810009423581,0.0,0.9888755124326944,0.0,300,0.2259063720703125,0.018840440678860395,0.017287520308762638,18900,75.29481848611181,0.0
63,1.8446695804595947,75.2703777302452,0.050492662474845226,75.314206701421,75.18750178518503,0.0,0.17398279903972774,0.1,0.09323740005493164,0.19808506965637207,0.049819376,2.9111342,75.25032785783675,0.0,0.9902090511404877,0.0,300,0.2616424560546875,0.017753482013658367,0.01697484265705544,19200,75.28232598642946,0.0
64,1.9048545360565186,75.14211124105198,0.13456604269079575,75.29673344450498,74.97410941174624,0.0,0.17297173293142465,0.1,0.0029065608978271484,0.39519476890563965,0.049372666,1.4530351,75.23950619615827,0.0,0.9886072245428557,0.0,300,0.25219082832336426,0.020624787676103887,0.01890025988689388,19500,75.26231657838625,0.0
65,1.87312650680542,75.21271532171708,0.1380111281748902,75.31132987089336,74.97504526255835,0.0,0.16502200446361776,0.1,0.08343696594238281,0.2658231258392334,0.049731404,9.290365,75.23682710871415,0.0,0.9894526716616666,0.0,300,0.13124656677246094,0.01639022262893499,0.014535579868932752,19800,75.31177590820293,0.0
66,1.842625617980957,75.29230193526625,0.1456953163928838,75.42672840643246,75.05398619847591,0.0,0.15731060065974892,0.1,0.0825965404510498,0.07263040542602539,0.04970359,4.271506,75.24237459136937,0.0,0.9905182803566615,0.0,300,0.24094271659851074,0.019651088802182623,0.016057564072319144,20100,75.31667579245382,0.0
67,2.0338239669799805,75.2788777136863,0.0039785309505159586,75.28334367820473,75.27337546561863,0.0,0.18270315391967804,0.1,0.0856177806854248,0.3456723690032959,0.049124524,1.1607473,75.24602490360105,0.0,0.9902619002381781,0.0,300,0.23148846626281738,0.01722557487448203,0.015229606696846741,20400,75.29815977676255,0.0
68,1.9034645557403564,75.13134232421021,0.24350184794793395,75.3691427755993,74.72473104355805,0.0,0.16296902208591119,0.1,0.08306646347045898,0.30667567253112793,0.05100602,1.0284561,75.23455664566197,0.0,0.9885248212527592,0.0,300,0.22745800018310547,0.02096679600686972,0.017435955912650698,20700,75.28513735091734,0.0
69,1.8911802768707275,75.27244949298735,0.047683288501488265,75.32271745458165,75.19971049834363,0.0,0.1645957680807371,0.1,0.09163045883178711,0.39196133613586426,0.049658187,3.908191,75.2383459303945,0.0,0.9902405634050132,0.0,300,0.058290719985961914,0.0152841864585743,0.013580026386814886,21000,75.29371052196281,0.0
70,1.9498577117919922,75.21611515322469,0.20783578924434634,75.4264575877829,74.87072283431968,0.0,0.17176233113193884,0.1,0.08174920082092285,0.05834054946899414,0.050145626,0.80532295,75.23612285267751,0.0,0.9894921699291213,0.0,300,0.18391680717468262,0.013492330382489044,0.011523948634262924,21300,75.29114860381792,0.0
71,2.005642890930176,75.16603131221966,0.1843568380643334,75.40594334580322,74.91495145511279,0.0,0.1714733336851821,0.1,0.08879232406616211,0.7152731418609619,0.049647857,1.1527368,75.22911369863174,0.0,0.9889025909589225,0.0,300,0.08748221397399902,0.01492043147472987,0.01341826242839192,21600,75.3019052903996,0.0
72,2.0151801109313965,75.47385988619678,0.13665085442321426,75.6167300228987,75.31732713866454,0.0,0.17172410568336988,0.1,0.08074426651000977,0.1371445655822754,0.049866345,1.1206907,75.25358831738825,0.0,0.9928762768540014,0.0,300,0.15302205085754395,0.013588045257721833,0.011925130058193685,21900,75.3016162630062,0.0
73,1.91349458694458,75.11091263736778,0.12284299565289693,75.32059498299101,75.00708869025206,0.0,0.16076030216577789,0.1,0.08303380012512207,0.4461979866027832,0.050507274,1.5757153,75.2393207493862,0.0,0.9882166531944909,0.0,300,0.10549807548522949,0.020740924570031394,0.019354548247999728,22200,75.34637373097003,0.0
74,1.9502363204956055,75.33188389583334,0.10401433024835943,75.50145811314879,75.22907888411842,0.0,0.1744349725669777,0.1,0.08313250541687012,0.3136568069458008,0.050206512,1.53806,75.24857706403091,0.0,0.9910165074038997,0.0,300,0.20551562309265137,0.011022183952524016,0.010293205425671529,22500,75.31982873210657,0.0
75,2.1200027465820312,75.23870695507465,0.09983801267623366,75.32464781052735,75.06990645496862,0.0,0.18325994953387723,0.1,0.06702852249145508,0.5554032325744629,0.049769744,0.71565294,75.2475900531353,0.0,0.989782742641885,0.0,300,0.2454676628112793,0.016633560366194088,0.014138927180117215,22800,75.32161938580384,0.0
76,2.084564447402954,75.35321888223059,0.1632271760468864,75.62087701773932,75.17941762540038,0.0,0.18099374414641795,0.1,0.08456110954284668,0.3815302848815918,0.049527224,0.92428875,75.25815293604484,0.0,0.9913419886228703,0.0,300,0.13748383522033691,0.009966660244475423,0.00946727817081643,23100,75.34866103539899,0.0
77,2.240833282470703,75.20437290944051,0.11896806561595415,75.28586540204103,74.99888613930139,0.0,0.1733436108383249,0.1,0.02957320213317871,0.06194806098937988,0.05046636,0.7451021,75.2527749333844,0.0,0.9893994791103224,0.0,300,0.04339027404785156,0.01039277110377347,0.010023869605077222,23400,75.33281836657763,0.0
78,1.9248859882354736,75.32237814039509,0.06351142852785929,75.42872669712693,75.26073942208426,0.0,0.18097910795066244,0.1,0.08246326446533203,0.1376485824584961,0.050105017,1.6135877,75.25973525408547,0.0,0.9909174243012304,0.0,300,0.23426485061645508,0.012249104841840072,0.010353995684976322,23700,75.35046690701039,0.0
79,1.868628740310669,75.16484191896481,0.21680439558113088,75.43726089667238,74.93094954094241,0.0,0.18121247266157584,0.1,0.0032982826232910156,0.05703473091125488,0.050417088,0.7927148,75.2502459205734,0.0,0.9888891672872329,0.0,300,0.1659409999847412,0.011412678473598968,0.010897549161105238,24000,75.35838670737506,0.0
80,1.9907090663909912,75.26561511546397,0.18734075042000708,75.42548919026204,74.94836619337877,0.0,0.18452506085168396,0.1,0.08591914176940918,0.3254361152648926,0.04996155,0.77083,75.25178284006248,0.0,0.9901604203124406,0.0,300,0.04770946502685547,0.01116599075892498,0.010520039027407632,24300,75.36381082583853,0.0
81,1.8090555667877197,75.31979753963235,0.18775850477882336,75.4463926100477,74.99521255358576,0.0,0.16127409174367632,0.1,0.08204913139343262,0.5279731750488281,0.050346907,1.5655967,75.25858431001947,0.0,0.990883580270675,0.0,300,0.22756266593933105,0.014881859558851754,0.013439997828280939,24600,75.36572190312822,0.0
82,2.0274996757507324,75.18056762079388,0.08511945259581649,75.28674380111956,75.0549825044067,0.0,0.17469410308641625,0.1,0.0030171871185302734,0.05952787399291992,0.050076555,1.2290307,75.2507826410969,0.0,0.9891086383799654,0.0,300,0.04342174530029297,0.011611089117142315,0.011215398209867406,24900,75.35955212559053,0.0
83,2.0537548065185547,75.15519636793333,0.15703650621193743,75.34774919791688,74.97093551518464,0.0,0.16788068483234936,0.1,0.06483244895935059,0.12203669548034668,0.050131813,0.8296194,75.24122401378054,0.0,0.9888103769485552,0.0,300,0.22985029220581055,0.009500501506562736,0.006105678026324862,25200,75.35062383066789,0.0
84,1.8050620555877686,75.33636958858371,0.035396518895650236,75.36884460108948,75.27840291778865,0.0,0.1721322587689403,0.1,0.08144259452819824,0.6180703639984131,0.049623836,2.2324476,75.25073857126085,0.0,0.9910131681200816,0.0,300,0.22258400917053223,0.013593359095131582,0.010209221381670545,25500,75.38483767738812,0.0
85,1.9248807430267334,75.19786532482055,0.08964922676794515,75.2905244705074,75.10175924779024,0.0,0.18351769475070026,0.1,0.09182906150817871,1.1618101596832275,0.050832245,0.6313603,75.24545124661682,0.0,0.9893205524935635,0.0,300,0.1999342441558838,0.012559918491816655,0.011039506698188347,25800,75.37766667143707,0.0
86,1.901829481124878,75.27446517120102,0.1469558071081276,75.4032088280367,75.0252690979978,0.0,0.2004499698142432,0.1,0.08573484420776367,0.5892846584320068,0.050142206,0.7014679,75.24835263907524,0.0,0.9902493843742585,0.0,300,0.13937616348266602,0.011875994404032454,0.010283113145587166,26100,75.36650981448055,0.0
87,1.96669340133667,75.23670610716826,0.12590981792853154,75.33238051124879,75.02008323528912,0.0,0.16927906950485513,0.1,0.003021240234375,0.2454235553741455,0.048744388,0.50104505,75.24718798588454,0.0,0.9897525115739282,0.0,300,0.2131960391998291,0.00909599508853787,0.00892493498563271,26400,75.3256131986219,0.0
88,2.1207921504974365,75.16617086090264,0.2470412385953785,75.44600032459697,74.91545709576882,0.0,0.1752488944150446,0.1,0.08886194229125977,0.16213202476501465,0.049583875,0.9847046,75.23908627338635,0.0,0.9889153756986092,0.0,300,0.22865843772888184,0.010700757932858913,0.009396410203551689,26700,75.36554496456009,0.0
89,2.040573835372925,75.2090243868565,0.15318575722644356,75.38079257105093,75.0091216587841,0.0,0.16912872695147252,0.1,0.08327651023864746,0.33953428268432617,0.050378382,1.0994257,75.23608008473337,0.0,0.9894867876702409,0.0,300,0.2323617935180664,0.0058974060885347455,0.005779142156199637,27000,75.35271150531136,0.0
90,1.9870038032531738,75.24175878161907,0.18320724032717792,75.41684058904936,74.93501116332175,0.0,0.1810174480381864,0.1,0.08293485641479492,0.057351112365722656,0.049918823,0.67084974,75.23664795442195,0.0,0.9898530244929934,0.0,300,0.2328779697418213,0.008219189512367527,0.0068110675297527665,27300,75.30248745183145,0.0
91,1.9921472072601318,75.28164325034854,0.01754816813254215,75.30387970208265,75.26103621738484,0.0,0.1764831299138492,0.1,0.08099222183227539,0.13350605964660645,0.05014128,0.9606591,75.24114748401462,0.0,0.9903273423991159,0.0,300,0.2626199722290039,0.009266250836860904,0.00901244972926472,27600,75.31142203698833,0.0
92,2.044787883758545,75.18154358488509,0.154799612280541,75.33863316843163,74.92952938873594,0.0,0.18639173491897792,0.1,0.003131389617919922,0.481212854385376,0.049796794,0.539505,75.23518709410166,0.0,0.9890706275879183,0.0,300,0.1998753547668457,0.007571253920185978,0.007289071056394035,27900,75.30182582831591,0.0
93,2.027977466583252,75.35404623702193,0.05966604012589234,75.45208786961942,75.29085465716383,0.0,0.18510760124285283,0.1,0.08687281608581543,0.7928962707519531,0.04979006,0.6965361,75.24707300839368,0.0,0.9912370469418497,0.0,300,0.09032773971557617,0.0133600818261995,0.011940954317421338,28200,75.29335979246956,0.0
94,2.022524833679199,75.38210162025388,0.1612110860124421,75.65889706686677,75.27024448173866,0.0,0.18958184197913233,0.1,0.004999399185180664,0.05989432334899902,0.050363757,1.3886292,75.26057586957971,0.0,0.9916269525832362,0.0,300,0.08823537826538086,0.008455255196537963,0.0085362630683564,28500,75.29803324780177,0.0
95,2.056852102279663,75.22952617034085,0.14649522732478454,75.33233401911296,74.97738263473909,0.0,0.1970506108136104,0.1,0.004920005798339844,0.11807775497436523,0.049305152,0.595976,75.25747089965581,0.0,0.9896605667076023,0.0,300,0.058348655700683594,0.007542095176056204,0.006327832176690368,28800,75.2825306728772,0.0
96,1.8665659427642822,75.22291691624227,0.12388365753717237,75.3906123493649,75.08100898770905,0.0,0.1683811614379561,0.1,0.0030319690704345703,0.055207014083862305,0.04922104,0.8854812,75.25401550131447,0.0,0.9896649776934487,0.0,300,0.07568168640136719,0.010254726370091928,0.008295700425507887,29100,75.2854344803684,0.0
97,1.986048698425293,75.22598799239995,0.14792959791411583,75.34953322646595,74.97321526595624,0.0,0.1790515387169129,0.1,0.0040013790130615234,0.27681589126586914,0.050549325,0.7087151,75.25121275042302,0.0,0.9896378262091934,0.0,300,0.056437015533447266,0.011050849695380475,0.009548423409930062,29400,75.27755061879905,0.0
98,1.8495466709136963,75.17028736805678,0.16297074642117482,75.33788867123579,74.90258192392834,0.0,0.17858353525824622,0.1,0.00308990478515625,0.05702972412109375,0.049856503,0.6265091,75.2431202121864,0.0,0.9890280485536547,0.0,300,0.07912921905517578,0.015331559602217501,0.013601759400931699,29700,75.27877788556758,0.0
99,1.9986560344696045,75.33379846833756,0.07663497866310368,75.46620445345718,75.28496431348084,0.0,0.1870582449699381,0.1,0.003528118133544922,0.057512521743774414,0.05059005,0.85733724,75.25218803780152,0.0,0.9909615505053467,0.0,300,0.10779619216918945,0.014234386510184485,0.012873671321492051,30000,75.28090661518304,0.0
100,2.107379913330078,75.2072999798314,0.12280675925091089,75.35739377400935,75.03301414875983,0.0,0.1908218432625784,0.1,0.003161191940307617,0.05717349052429199,0.050541215,0.48925328,75.2476992320045,0.0,0.9894355454127834,0.0,300,0.03778409957885742,0.012820170275090052,0.007563559866746002,30300,75.28029937558577,0.0
101,2.021962881088257,75.168211468356,0.11230744656522647,75.27743321453336,75.02033049629232,0.0,0.17695813854135797,0.1,0.005101680755615234,0.058034658432006836,0.050037567,0.71155,75.23975045563965,0.0,0.9889389797256263,0.0,300,0.22652268409729004,0.012821231278739654,0.013244367528383054,30600,75.2780303993417,0.0
102,2.0450873374938965,75.29886773949814,0.055201530589009076,75.36149900811394,75.21266927288876,0.0,0.19734996856126333,0.1,0.0030002593994140625,0.056791067123413086,0.051319256,0.65729845,75.2456621840255,0.0,0.9905590076155825,0.0,300,0.13551926612854004,0.01142965537650555,0.008112026754013155,30900,75.28779048770127,0.0
103,1.9707391262054443,75.33197469185708,0.05003480135733292,75.4173104347453,75.2920780253981,0.0,0.18425261354567926,0.1,0.07441282272338867,0.06062197685241699,0.04967135,0.62848306,75.25429343480866,0.0,0.9909702898954745,0.0,300,0.04101371765136719,0.00985855358537609,0.010587324137107963,31200,75.2841623973343,0.0
104,2.1015079021453857,75.15563209919252,0.1306401786006997,75.34224701302266,74.9772879315372,0.0,0.19687099017681112,0.1,0.003004789352416992,0.05893087387084961,0.05066315,0.4686941,75.24442730124704,0.0,0.9888245314076627,0.0,300,0.042201995849609375,0.013569190290359863,0.010610873587157624,31500,75.29212675756253,0.0
105,2.0290768146514893,75.2976319182201,0.012659760309672625,75.31359976993718,75.27947083348694,0.0,0.18520664743572057,0.1,0.0039014816284179688,0.0583186149597168,0.050102826,0.65629977,75.24974776294435,0.0,0.9904929545702789,0.0,300,0.05162191390991211,0.006883208295674215,0.006659806775481307,31800,75.28764533762269,0.0
106,1.8906593322753906,75.31473978129267,0.05131055242916152,75.39983169605806,75.26472192425939,0.0,0.19344638637921494,0.1,0.003050565719604492,0.05894970893859863,0.050164156,0.65236056,75.2562469647792,0.0,0.9908027875098893,0.0,300,0.1150364875793457,0.019641420379147272,0.011934640547608162,32100,75.29015131359765,0.0
107,1.9992880821228027,75.31749348035052,0.03197109674824338,75.36655832486436,75.2865499014176,0.0,0.18828197498416754,0.1,0.012157440185546875,0.08575654029846191,0.049667746,0.65187204,75.26237161633632,0.0,0.9908271559533194,0.0,300,0.04108071327209473,0.01278443113434652,0.014698606567682451,32400,75.28696450827611,0.0
108,1.9733870029449463,75.30361881316985,0.01847325104830085,75.33531620256929,75.28979654176388,0.0,0.193038480600249,0.1,0.08265471458435059,0.05914759635925293,0.049507476,0.6329864,75.26649633601969,0.0,0.9905808348890497,0.0,300,0.07735013961791992,0.005969686113988209,0.005092193050882716,32700,75.2840721948194,0.0
109,1.9471652507781982,75.34345600645861,0.1030633250884385,75.50122389938694,75.22799858949871,0.0,0.18412275698623218,0.1,0.003078937530517578,0.0579526424407959,0.04981599,0.54434466,75.27419230306359,0.0,0.9911181798170416,0.0,300,0.029210805892944336,0.008622497638559929,0.00792497341645806,33000,75.28172488857726,0.0
110,2.0157036781311035,75.35162163594684,0.11185495813615078,75.52057808783223,75.22583156288813,0.0,0.20489486779653887,0.1,0.004724979400634766,0.2543628215789795,0.050308675,0.5376262,75.28193523635193,0.0,0.9912397883978464,0.0,300,0.03711080551147461,0.012462467318882644,0.00873006232012531,33300,75.28172916226899,0.0
111,2.0362274646759033,75.30913538857706,0.06338077388258588,75.39462566608773,75.21684426589832,0.0,0.19960948226084255,0.1,0.08241653442382812,0.06609869003295898,0.05014572,0.49437392,75.28465525157443,0.0,0.9907207609962391,0.0,300,0.13117408752441406,0.013326918623584656,0.010972114521989524,33600,75.2752336047403,0.0
112,2.1673707962036133,75.23413698560942,0.09310452171113215,75.3107976322105,75.07494665542937,0.0,0.1858142312021163,0.1,0.044972896575927734,0.055321693420410156,0.049429405,0.665079,75.27960342497794,0.0,0.989728239510153,0.0,300,0.1894245147705078,0.017031306221582165,0.016892882595589798,33900,75.27249355917694,0.0
113,1.9415309429168701,75.25522958594362,0.06188803765654596,75.30516761358867,75.15233074622405,0.0,0.19870212819956962,0.1,0.015067100524902344,0.05508828163146973,0.049618088,0.67058796,75.27716604107451,0.0,0.9900069090225037,0.0,300,0.10082316398620605,0.010786323961103735,0.010022516313665603,34200,75.27279203061971,0.0
114,1.92903733253479,75.24866452513157,0.09537670919696711,75.30683835707143,75.08358384924858,0.0,0.1893087389298776,0.1,0.005245685577392578,0.0571596622467041,0.05030396,0.6738007,75.2743158894802,0.0,0.9899114935231131,0.0,300,0.04230380058288574,0.010451888487644253,0.009883708744800919,34500,75.2727816082523,0.0
115,1.7022244930267334,75.23835115065553,0.0809047594997235,75.29139868764652,75.09840155537455,0.0,0.20248082408950435,0.1,0.08093690872192383,0.061798810958862305,0.04991659,0.5504188,75.27071941559774,0.0,0.9897842358408877,0.0,300,0.15357232093811035,0.012445278255417271,0.00993218691959787,34800,75.2700434186664,0.0
116,1.9322600364685059,75.29120388478346,0.021659946065497218,75.32780639431552,75.27346346669046,0.0,0.18395071646350342,0.1,0.08178853988647461,0.11741042137145996,0.051178932,0.54615515,75.27276786251632,0.0,0.990416683243772,0.0,300,0.040087223052978516,0.019847553125771394,0.01341529619451415,35100,75.27656301887728,0.0
117,1.8881890773773193,75.27507480685013,0.05611779158447775,75.34740912732262,75.19048928501915,0.0,0.17722973012293008,0.1,0.08081626892089844,0.13347649574279785,0.04956899,1.1229744,75.2729985569497,0.0,0.9902776668695824,0.0,300,0.0428617000579834,0.012473533957072638,0.00836979459968928,35400,75.27055304360343,0.0
118,1.8175201416015625,75.28217340950866,0.028482045666632438,75.31188603309427,75.2404695859577,0.0,0.18030099971834423,0.1,0.0028901100158691406,0.05580449104309082,0.050985623,0.5355904,75.2739160422056,0.0,0.9903465888312701,0.0,300,0.0346837043762207,0.009398923886904949,0.00954761036526919,35700,75.27486213565953,0.0
119,1.933351993560791,75.34917778639931,0.050688081150750706,75.41373658682956,75.28709605362027,0.0,0.1926487912623591,0.1,0.0029401779174804688,0.058222055435180664,0.04924131,0.60696065,75.28144221662498,0.0,0.9911754106060092,0.0,300,0.18607735633850098,0.009463447761240397,0.006384769465637331,36000,75.2759117361119,0.0
120,2.005471706390381,75.29822408122382,0.05660107223992172,75.3748522454138,75.21507702141415,0.0,0.19174616240074774,0.1,0.003937959671020508,0.05604410171508789,0.049016465,0.61904377,75.28312040308487,0.0,0.9905128781841428,0.0,300,0.03445291519165039,0.009476543448610588,0.009831995008514104,36300,75.27159402499191,0.0
121,1.9653701782226562,75.266461695122,0.014740045990583692,75.28477278823317,75.24702723373898,0.0,0.18624928804752025,0.1,0.005216836929321289,0.15864038467407227,0.050045803,0.65617317,75.28145453228859,0.0,0.9901257369858087,0.0,300,0.20337247848510742,0.005798888539773728,0.004242506319696435,36600,75.2732399852673,0.0
122,1.9758572578430176,75.15953882691812,0.13297724065594527,75.28602592611068,74.96640001104801,0.0,0.20009766097875414,0.1,0.03278398513793945,0.0592195987701416,0.049537107,0.5277113,75.26926296175155,0.0,0.9887848853706603,0.0,300,0.025567054748535156,0.006697223996217581,0.006711581842147344,36900,75.2738959671541,0.0
123,2.065828561782837,75.04250654830565,0.14222687885391566,75.18768792062457,74.86469007817415,0.0,0.18458245278026508,0.1,0.004648685455322266,0.0648341178894043,0.050583836,0.50033236,75.24658732040697,0.0,0.9873112524193499,0.0,300,0.033715248107910156,0.008404686004863333,0.006459875291420008,37200,75.27002464528516,0.0
124,2.153160572052002,75.30219629214498,0.05689580602464916,75.40056762251284,75.26546876653806,0.0,0.17802372726113339,0.1,0.07424283027648926,0.057303428649902344,0.050194383,0.72664344,75.25214821758078,0.0,0.9905700929146235,0.0,300,0.0723576545715332,0.01278243426693263,0.007123154615853057,37500,75.26938651301951,0.0
125,2.081610679626465,75.32679538858042,0.07930868150631994,75.46272014185485,75.26297271775982,0.0,0.19044376826872503,0.1,0.002910137176513672,0.07414770126342773,0.05023841,0.55116946,75.25961293468076,0.0,0.9908969663131977,0.0,300,0.1402735710144043,0.0073029960931127935,0.008098532403650138,37800,75.2709286461609,0.0
126,2.082916021347046,75.19651368633893,0.1461980916415893,75.29246000775835,74.94405212302732,0.0,0.19888972913292235,0.1,0.008041620254516602,0.05415034294128418,0.049660046,0.4741717,75.25330300984658,0.0,0.9892012320774389,0.0,300,0.09647703170776367,0.01440792582831881,0.010388952316592022,38100,75.27206562941589,0.0
127,2.0688016414642334,75.30687238790897,0.04398216650743176,75.37532360525655,75.26621162479039,0.0,0.19147782979543568,0.1,0.0031671524047851562,0.3778092861175537,0.04960499,0.603976,75.25865994765283,0.0,0.9906425129473839,0.0,300,0.1683664321899414,0.009534109312429343,0.009975561922899764,38400,75.27005795446783,0.0
128,2.113286256790161,75.2168667206147,0.16050416800091558,75.37870813687657,74.94991141157801,0.0,0.18825508689145098,0.1,0.013523340225219727,0.17923426628112793,0.0499844,0.68076295,75.25448062494903,0.0,0.9895068849096593,0.0,300,0.04633283615112305,0.008097050442268775,0.005633888686311515,38700,75.26883045445415,0.0
129,1.9441149234771729,75.255754032974,0.03733038248983104,75.2886935080383,75.19428577130411,0.0,0.1881359157566011,0.1,0.04058408737182617,0.05858898162841797,0.050665777,0.5302519,75.25460796575152,0.0,0.9899706335571389,0.0,300,0.22297430038452148,0.007484197417199842,0.007748550370747716,39000,75.26637228313983,0.0
130,1.9405696392059326,75.29123417850559,0.02254779000581188,75.32212437329909,75.26455850226915,0.0,0.18360860851491928,0.1,0.0029222965240478516,0.05454397201538086,0.049310185,0.49703518,75.25827058702693,0.0,0.990431891936866,0.0,300,0.0658574104309082,0.007310590971946737,0.004882685613831433,39300,75.26659305441662,0.0
131,2.0776803493499756,75.28842260235244,0.013573239520393158,75.30730068644354,75.27440715475005,0.0,0.1962264631141847,0.1,0.003220796585083008,0.05495285987854004,0.049908705,0.69038546,75.26128578855949,0.0,0.9903837511677065,0.0,300,0.21457695960998535,0.00816608884597315,0.008067117792369722,39600,75.26763088444419,0.0
132,2.030618190765381,75.27897067226169,0.04245260378697132,75.34761191695459,75.23124250447495,0.0,0.19044268139119166,0.1,0.0032799243927001953,0.09957623481750488,0.05079917,0.4857631,75.26305427692971,0.0,0.9902916258043284,0.0,300,0.04705333709716797,0.004533984634148393,0.004445913505721248,39900,75.26554511277605,0.0
133,2.040083646774292,75.27036323309932,0.046647882097839606,75.33416675259917,75.20323112934368,0.0,0.19593542739901093,0.1,0.012460470199584961,0.14925646781921387,0.049921058,0.6091534,75.26378517254666,0.0,0.9901542132213799,0.0,300,0.04893994331359863,0.010929169049627251,0.010472165789570031,40200,75.26673407019283,0.0
134,2.1285650730133057,75.2518263348236,0.07111791164296082,75.3107860440799,75.13054812407253,0.0,0.1848931872417962,0.1,0.003467082977294922,0.06172347068786621,0.0499031,0.6424311,75.26258928877435,0.0,0.9899412744465622,0.0,300,0.03415942192077637,0.006468563637090781,0.00628208224707675,40500,75.26588578573195,0.0
135,2.0529839992523193,75.28250327708564,0.015299045358178213,75.30778794786161,75.27011426124284,0.0,0.18390354967416386,0.1,0.004828214645385742,0.2355031967163086,0.049776454,0.5231884,75.26458068760547,0.0,0.9902787926347385,0.0,300,0.08031821250915527,0.007329639341593065,0.006193314054266395,40800,75.26585081758978,0.0
136,2.047077178955078,75.23330260531058,0.16719619646045794,75.40452165272386,74.95659684677086,0.0,0.18959973881710832,0.1,0.03401899337768555,0.2633094787597656,0.05053816,0.592521,75.26145287937598,0.0,0.989643685868977,0.0,300,0.05200910568237305,0.005608394680283409,0.004816296336327404,41100,75.26598749005952,0.0
137,2.0765132904052734,75.22216015538838,0.09175862303084403,75.28303918271256,75.06358659441749,0.0,0.18767049001056862,0.1,0.002857208251953125,0.07164120674133301,0.05080315,0.47358054,75.25752360697723,0.0,0.9895717970815427,0.0,300,0.16371560096740723,0.012047127981047354,0.009277552079909915,41400,75.26585860531351,0.0
138,2.1750426292419434,75.25263631919388,0.05051965620629764,75.28302458705012,75.16514381812149,0.0,0.18521611466995838,0.1,0.08131289482116699,0.33458399772644043,0.04955501,0.6123718,75.2570348781989,0.0,0.9899225209941199,0.0,300,0.04964590072631836,0.005989680500000144,0.005868217275379403,41700,75.26563259464702,0.0
139,2.12804913520813,75.26720189356806,0.08990391095410988,75.39201723598893,75.1491070965433,0.0,0.1937121646603099,0.1,0.08112382888793945,0.09474921226501465,0.049899552,0.609615,75.25805157973582,0.0,0.9901251735150718,0.0,300,0.06619834899902344,0.007895826458508686,0.007308245208080562,42000,75.26587138342663,0.0
