iteration,time_sampling,stoc_pol_mean,stoc_pol_std,stoc_pol_max,stoc_pol_min,rollout_success,alpha,delta,time_vpg,time_npg,kl_dist,surr_improvement,running_score,rwd_sparse,rwd_dense,success_percentage,num_samples,time_VF,VF_error_before,VF_error_after,env_samples,eval_score,eval_success
0,1.6675407886505127,0.02840271251605464,0.021390696161997708,0.05874072978138064,0.002828451376944199,0.0,0.1417376659748871,0.1,0.22013592720031738,1.6628665924072266,0.055653658,1.3631973,0.02840271251605464,0.0,0.0005619289354258068,0.0,200,0.2185835838317871,2.446190302751013,0.8560467320390168,200,0.025783157139715646,0.0
1,1.3303320407867432,0.03053441835316332,0.011025891997250365,0.045357681797690945,0.01847518241546633,0.0,0.14685473239510696,0.1,0.00506138801574707,0.06454086303710938,0.04891756,0.853453,0.02861588309976551,0.0,0.0006006625724392997,0.0,200,0.07331442832946777,0.6448730316189463,0.33148484131074757,400,0.02996107375621217,0.0
2,1.1928918361663818,0.026214275430502865,0.005531587758847266,0.03264035730238835,0.017461910989645703,0.0,0.14817488365316484,0.1,0.17915034294128418,1.6836516857147217,0.05284771,1.0077131,0.02837572233283925,0.0,0.0005214152153549871,0.0,200,0.3283219337463379,0.5402770849421891,0.222923113954816,600,0.03364532733033405,0.0
3,1.398576259613037,0.024327895997223875,0.018108309164131302,0.05200124374703745,0.005548102403284415,0.0,0.14570783512879001,0.1,0.004788637161254883,0.1140434741973877,0.05079794,0.8558459,0.027970939699277712,0.0,0.0004840939244349457,0.0,200,0.031426191329956055,0.4584161831021948,0.4530734860291079,800,0.049780841016425846,0.0
4,1.383145809173584,0.11448050850811228,0.06814536331629073,0.21115858879186084,0.019432278365969044,0.0,0.1548148054788824,0.1,0.17970013618469238,2.860933303833008,0.049881563,0.93017024,0.03662189658016117,0.0,0.002274589693458969,0.0,200,0.3284642696380615,0.8437141543309588,0.46101000523096747,1000,0.06516948568167377,0.0
5,1.487748622894287,0.08361410137444987,0.04053911310168351,0.13684304573043052,0.02490444429964259,0.0,0.13802757975956934,0.1,0.1852712631225586,1.7502658367156982,0.04889907,1.1054353,0.04132111705959004,0.0,0.0016679701204585257,0.0,200,0.30269384384155273,0.4167600911821444,0.6868229073303148,1200,0.07128568494492228,0.0
6,1.410297155380249,0.03896597444879795,0.02287701279749792,0.07217545061893521,0.017323850984492628,0.0,0.15799056880310816,0.1,0.18834257125854492,1.7220790386199951,0.051811952,0.88962317,0.04108560279851083,0.0,0.0007780333757696416,0.0,200,0.3242945671081543,3.310228591193115,1.2791870656849114,1400,0.08579214946994629,0.0
7,1.3665766716003418,0.018776744814570177,0.004382021247861139,0.025782395727087258,0.01423572878435152,0.0,0.1548500005005863,0.1,0.012309074401855469,0.06313395500183105,0.051613316,0.9305172,0.038854717000116765,0.0,0.0003705867587314629,0.0,200,0.07853221893310547,13.23131558365223,0.9342236982444346,1600,0.0655647972396367,0.0
8,1.7632486820220947,0.09709756328630205,0.09125733715190781,0.2463433170277335,0.017917367735520332,0.0,0.13796813251225612,0.1,0.005179166793823242,0.0557103157043457,0.05172271,1.5796148,0.044679001628735296,0.0,0.0019341655483348767,0.0,200,0.05623602867126465,0.7534516389166085,0.8226049248570149,1800,0.0834151740642635,0.0
9,1.5245447158813477,0.07915641556878818,0.06628934292694642,0.18892562373213279,0.011970583651828652,0.0,0.14619950437344142,0.1,0.12596845626831055,1.9454219341278076,0.05250665,1.3693357,0.04812674302274059,0.0,0.0015698921411980169,0.0,200,0.3189568519592285,0.7537463572545651,0.6033827819941959,2000,0.08764222342589754,0.0
10,1.2824547290802002,0.04868787863879084,0.028188809098429825,0.08570312772034402,0.011632597256686448,0.0,0.14623659151808194,0.1,0.1919877529144287,3.161317825317383,0.048551716,0.961331,0.04818285658434562,0.0,0.0009736248078662131,0.0,200,0.3215067386627197,0.38961486909173326,0.45626195169632183,2200,0.08241706811772888,0.0
11,1.4035413265228271,0.10494119212366027,0.09013113884338626,0.25426979257727694,0.030020300536489963,0.0,0.1351552754703076,0.1,0.1834721565246582,1.3379180431365967,0.047453374,2.748919,0.053858690138277085,0.0,0.002086631281165244,0.0,200,0.3099019527435303,0.632934716756335,0.5765816395960194,2400,0.08752600021101155,0.0
12,1.4172906875610352,0.10529579238288274,0.06852236917513761,0.18117887018775744,0.02826296229159605,0.0,0.14086512704392187,0.1,0.15752172470092773,0.12570810317993164,0.049623434,1.1443875,0.059002400362737656,0.0,0.0020966771410155377,0.0,200,0.04708290100097656,0.48096693082636327,0.43444783991243274,2600,0.09481687658609794,0.0
13,1.2735702991485596,0.11587026742774124,0.14844350069944562,0.37131075613142733,0.014180974231823575,0.0,0.13208080476813083,0.1,0.1862325668334961,3.1192305088043213,0.05115076,1.9928198,0.06468918706923801,0.0,0.0022989089382414647,0.0,200,0.3244497776031494,0.6980723200157395,0.6842922559006782,2800,0.09491669636833126,0.0
14,1.359710454940796,0.15933369870665548,0.0824533612526613,0.2945547994070518,0.07711119083435433,0.0,0.13007028059536513,0.1,0.11428666114807129,0.08452129364013672,0.047845792,2.2713947,0.07415363823297977,0.0,0.0031804337572052355,0.0,200,0.1730945110321045,0.37510308679648735,0.3268376516271473,3000,0.10478459812437445,0.0
15,1.3585827350616455,0.063111023548766,0.01468803546635945,0.08676197441488921,0.04639287088495121,0.0,0.13812155618084934,0.1,0.05110764503479004,0.054987192153930664,0.05112185,1.4121735,0.07304937676455839,0.0,0.0012545742245158547,0.0,200,0.16712570190429688,2.7039173292608285,1.9028212861023495,3200,0.1063897383757596,0.0
16,1.5980384349822998,0.06462479048078856,0.024732288871683907,0.09613423824291051,0.029227726033596385,0.0,0.13716018572727062,0.1,0.003537416458129883,0.05731964111328125,0.050722424,1.5396472,0.07220691813618141,0.0,0.0012531161479581695,0.0,200,0.11767888069152832,1.1806610934164012,0.2979789091584384,3400,0.0951382214959376,0.0
17,1.5675206184387207,0.07780133953598821,0.040943614175330406,0.13648689505143677,0.031664940973210355,0.0,0.14455712308474095,0.1,0.11110734939575195,1.691330909729004,0.049148154,1.0146823,0.0727663602761621,0.0,0.001548405932727551,0.0,200,0.27199602127075195,0.29371239016615525,0.34363967776763427,3600,0.12067458895212474,0.0
18,1.5524206161499023,0.18354480100295675,0.06909548915802216,0.259012933044379,0.0793583862501491,0.0,0.13786314739315852,0.1,0.011844635009765625,0.055613040924072266,0.050331526,1.0211077,0.08384420434884157,0.0,0.003669046100303101,0.0,200,0.048480987548828125,0.6087909838879966,0.5166010939362596,3800,0.12039105170015187,0.0
19,1.3460965156555176,0.1255218234831985,0.13157113469122572,0.3494752942432045,0.016121101130392765,0.0,0.14095568133310815,0.1,0.09550213813781738,1.6475439071655273,0.05050697,1.3016814,0.08801196626227727,0.0,0.0024692707211351798,0.0,200,0.3035447597503662,0.648665003294419,0.5894038521639664,4000,0.10719913502855564,0.0
20,1.4481918811798096,0.1608716841324678,0.08102229213475043,0.2658478510414888,0.07712705034099412,0.0,0.136254146966647,0.1,0.18987703323364258,3.034794807434082,0.050763458,1.1864303,0.09529793804929633,0.0,0.0031683894691449947,0.0,200,0.32314538955688477,0.4252613203117903,0.3417289515558494,4200,0.11661521992425737,0.0
21,1.5225746631622314,0.12048197382963714,0.0991400546739316,0.24794229375764923,0.023086158654908737,0.0,0.13868307000216154,0.1,0.18560791015625,1.917874813079834,0.048473313,1.1113328,0.09781634162733041,0.0,0.0023839508853784695,0.0,200,0.3261394500732422,0.4926370473478719,0.5410704405683896,4400,0.13298584318593054,0.0
22,1.5161750316619873,0.2078294127742458,0.16046387849562452,0.46104154196561,0.0183374984837813,0.0,0.14300975111585032,0.1,0.19469475746154785,3.001598596572876,0.04862925,1.0603659,0.10881764874202196,0.0,0.004116445404374008,0.0,200,0.1845383644104004,0.4800902975661473,0.46072029597024283,4600,0.2392201497271961,0.0
23,1.3807649612426758,0.08362682410536151,0.03591512186936781,0.12641063323621257,0.04688494906310815,0.0,0.13688221313307633,0.1,0.18784666061401367,1.8989043235778809,0.048390117,1.2731512,0.10629856627835592,0.0,0.0016590789786092588,0.0,200,0.3303649425506592,1.0734753180780636,0.7968442555325987,4800,0.16276685432824348,0.0
24,1.4467997550964355,0.18783828833426663,0.10805712062297743,0.31050364205305087,0.03902468944062066,0.0,0.13015778168438788,0.1,0.19309520721435547,3.1094157695770264,0.050738014,1.635038,0.11445253848394699,0.0,0.003714494328399677,0.0,200,0.3204503059387207,0.3803591226664326,0.39259857896668343,5000,0.27862086949682086,0.0
25,1.4881722927093506,0.1223972495166523,0.03912425831092986,0.16721189065012762,0.06874640089901506,0.0,0.13530038724283835,0.1,0.18046021461486816,2.99868106842041,0.050060242,1.1621568,0.11524700958721752,0.0,0.002366552820572976,0.0,200,0.3268008232116699,0.20274209895881587,0.20123957744896284,5200,0.14384576746878203,0.0
26,1.508150339126587,0.07631670349351427,0.02618752006889371,0.10834896900183653,0.043789609086864495,0.0,0.13472545413382794,0.1,0.17671775817871094,3.0021347999572754,0.049378034,1.5719271,0.1113539789778472,0.0,0.0015199515278457826,0.0,200,0.3128092288970947,0.8632325258890984,0.5237663816724476,5400,0.27323332039830944,0.0
27,1.3659896850585938,0.07907241810536304,0.08523628530557945,0.2249757156129697,0.014091233535042519,0.0,0.1327671127251759,0.1,0.16899919509887695,2.881394147872925,0.05045065,1.8608453,0.10812582289059879,0.0,0.0015765956818233383,0.0,200,0.3149220943450928,0.7131351292806247,0.6258432000848215,5600,0.377585188583714,0.0
28,1.4675838947296143,0.054766225515435904,0.02801871999277782,0.1030373461650126,0.034681572723288624,0.0,0.12972489008486102,0.1,0.1884613037109375,3.2036967277526855,0.050520767,1.9491905,0.1027898631530825,0.0,0.0010921673656286639,0.0,200,0.3385474681854248,0.7605654611313883,0.3555343314334427,5800,0.4179249161967113,0.0
29,1.450089693069458,0.09277526604063807,0.058872647597751813,0.1800666491474311,0.015509782520115915,0.0,0.13405449692473007,0.1,0.1920003890991211,2.575662851333618,0.050248746,1.6681424,0.10178840344183807,0.0,0.0018431110605617146,0.0,200,0.3259584903717041,0.43542612655932006,0.477297727548451,6000,0.3583255820308824,0.0
30,1.4900274276733398,0.1626484151748807,0.10505433398105318,0.31248004732073575,0.019495943838881244,0.0,0.14290437593098834,0.1,0.19266891479492188,2.8063230514526367,0.049824607,0.8594717,0.10787440461514233,0.0,0.00319908008698959,0.0,200,0.04393506050109863,0.6747396874250204,0.5526228070791138,6200,0.3198246200596891,0.0
31,1.4027647972106934,0.21232812902029577,0.14359289599720595,0.4184833275527377,0.05499604121914133,0.0,0.13920537122613205,0.1,0.003222227096557617,0.05594468116760254,0.049676463,1.0663841,0.11831977705565769,0.0,0.004227790494167308,0.0,200,0.021923065185546875,0.6173659730985156,0.4949510436654941,6400,0.3518964417503813,0.0
32,1.52817964553833,0.10603924674383443,0.03873099321599764,0.1637937680128417,0.054671633323452276,0.0,0.13534575635508708,0.1,0.003213167190551758,0.05533123016357422,0.049740855,0.8834831,0.11709172402447536,0.0,0.0021060969485118724,0.0,200,0.07265806198120117,0.36487623826942445,0.5795324238407928,6600,0.3915628666007083,0.0
33,1.3725295066833496,0.20822749871428475,0.11854967929431921,0.3779689689624705,0.05232233166615487,0.0,0.1324894027327756,0.1,0.1027841567993164,1.645754098892212,0.049845118,0.79358,0.1262053014934563,0.0,0.004084154750871592,0.0,200,0.10731172561645508,0.37968066477689266,0.3453036326762069,6800,0.39566045138597855,0.0
34,1.6344020366668701,0.13018591926862655,0.06972473284583453,0.21245159517223577,0.039446852394334216,0.0,0.13243237280561135,0.1,0.07508659362792969,0.05668067932128906,0.04910129,0.96092993,0.12660336327097332,0.0,0.0025557278040898427,0.0,200,0.11593747138977051,0.4427898788069727,0.46933448476671696,7000,0.3832365816976247,0.0
35,1.468066692352295,0.15267303702210788,0.06427708028460703,0.2463447580509058,0.0654377355339149,0.0,0.13566755221461843,0.1,0.07335162162780762,0.05527544021606445,0.050160524,1.6986246,0.12921033064608678,0.0,0.0030090269441973767,0.0,200,0.02522110939025879,0.2655872465352905,0.2493071759482879,7200,0.2699863098071877,0.0
36,1.4449119567871094,0.16686964219593134,0.11463002572814078,0.349729708623716,0.03337010752330818,0.0,0.13190916191975088,0.1,0.0045909881591796875,0.05636143684387207,0.04910985,1.4709461,0.13297626180107125,0.0,0.003262204252593542,0.0,200,0.16775989532470703,0.43715252772176405,0.4327077497161778,7400,0.33970619561769305,0.0
37,1.3714556694030762,0.06682294093661723,0.046883457096817314,0.14225014510592668,0.01839505345381067,0.0,0.1376213565538302,0.1,0.0044515132904052734,0.058737993240356445,0.049760796,1.2049183,0.12636092971462587,0.0,0.0012875584411649725,0.0,200,0.32469749450683594,1.9717042526552786,1.3201223732944618,7600,0.4108328388345542,0.0
38,1.5368585586547852,0.10201096614994015,0.05278483538603446,0.15889219427504447,0.04560798032615989,0.0,0.13324654477240114,0.1,0.18754863739013672,2.7441208362579346,0.049615413,1.0578916,0.12392593335815731,0.0,0.0019912210582358194,0.0,200,0.3335285186767578,0.4557636531751307,0.31320789483164907,7800,0.3735510251414178,0.0
39,1.3766059875488281,0.15089933696898178,0.10153691418776768,0.2893195023887444,0.0312532547252584,0.0,0.13939731500296912,0.1,0.09339547157287598,0.11250519752502441,0.05066504,0.9079595,0.12662327371923976,0.0,0.0029770437419187473,0.0,200,0.19161176681518555,0.42034186905328363,0.45391504470847444,8000,0.437472238126236,0.0
40,1.609098196029663,0.17127421461650524,0.10838784142453144,0.3192600111991462,0.030335041648333595,0.0,0.13504571845569652,0.1,0.19303607940673828,2.495049476623535,0.049949802,1.3383429,0.1310883678089663,0.0,0.003348496219931981,0.0,200,0.3344573974609375,0.5048027718084118,0.4755386517093733,8200,0.42728107831807516,0.0
41,1.483647346496582,0.35896871227746413,0.04727421218533345,0.3976007654172092,0.2796955452888103,0.0,0.13259958707883465,0.1,0.18862485885620117,3.1593759059906006,0.050298143,0.85240006,0.15387640225581609,0.0,0.0070256464824960275,0.0,200,0.337507963180542,0.5846361371068516,0.4306906072637264,8400,0.396511528489684,0.0
42,1.4385900497436523,0.17650779948280879,0.06920459961690516,0.2527334244546079,0.09248517994947453,0.0,0.1381572979676963,0.1,0.19084930419921875,1.856795072555542,0.050475467,0.90730935,0.15613954197851534,0.0,0.003385349085412069,0.0,200,0.32501912117004395,0.2294756731968844,0.2146828599732728,8600,0.3790069106839154,0.0
43,1.4911351203918457,0.2552018090181056,0.0846907968177368,0.39183047486405254,0.160968319033006,0.0,0.1393919938509619,0.1,0.18620085716247559,3.153257131576538,0.049759474,1.724373,0.1660457686824744,0.0,0.005084163429254596,0.0,200,0.3290693759918213,0.251809864938468,0.241800048722729,8800,0.38926016818617,0.0
44,1.3639836311340332,0.24315368951685115,0.1532404964340784,0.4594604006329464,0.05847721108086238,0.0,0.12980852991572084,0.1,0.18292522430419922,2.001145124435425,0.049613632,1.3799869,0.1737565607659121,0.0,0.004737923388327324,0.0,200,0.3296959400177002,0.3762811662051331,0.3868463120219256,9000,0.434595133503301,0.0
45,1.4795219898223877,0.15314378860577965,0.08744719064583985,0.26513814885334275,0.02921937386595385,0.0,0.13482130110005458,0.1,0.18758296966552734,3.1810739040374756,0.050356783,0.8245438,0.17169528354989885,0.0,0.002944243814784926,0.0,200,0.33670854568481445,0.7382913251473631,0.55164871961887,9200,0.43813988696295586,0.0
46,1.385571002960205,0.1941596641024204,0.12675084714649998,0.41109535422653876,0.09932885897837039,0.0,0.13306537945564154,0.1,0.19339919090270996,3.1390562057495117,0.0501762,1.6363693,0.173941721605151,0.0,0.003878107337939897,0.0,200,0.3347632884979248,0.43616672980994003,0.38470304615884143,9400,0.43389267979191876,0.0
47,1.484250783920288,0.16774871739415678,0.07956044381017251,0.2914677393609002,0.07496230332092835,0.0,0.12791082327985678,0.1,0.17560791969299316,2.9769444465637207,0.05062314,3.0100596,0.1733224211840516,0.0,0.0032789302709383622,0.0,200,0.3211336135864258,0.3066417268673725,0.2684331846765238,9600,0.3476860628172029,0.0
48,1.5022504329681396,0.2739570487244275,0.13709416785058146,0.4455822694079263,0.11958803968797202,0.0,0.13672873983736933,0.1,0.09331512451171875,2.60780668258667,0.049378797,1.3105565,0.18338588393808922,0.0,0.005446969174546724,0.0,200,0.3161897659301758,0.38925401664934306,0.39151024846039056,9800,0.28680180258269916,0.0
49,1.5024693012237549,0.25622650088502824,0.13876095706708594,0.4381817596386944,0.10637962503537153,0.0,0.12966297564554946,0.1,0.18256807327270508,3.023207187652588,0.04979753,1.9601871,0.1906699456327831,0.0,0.005044743961337772,0.0,200,0.3196713924407959,0.3943309133387774,0.3670728611520431,10000,0.27625023953798783,0.0
50,1.5160541534423828,0.17017868606454084,0.10317022171133569,0.3361167707445774,0.0536584427062027,0.0,0.13312176903366246,0.1,0.1820533275604248,1.9527804851531982,0.050170206,1.2465281,0.18862081967595887,0.0,0.0033319480149950603,0.0,200,0.32752108573913574,0.35235235772002926,0.36165676371843314,10200,0.3910255722947055,0.0
51,1.504934310913086,0.19880226438051363,0.11186643089009916,0.35550664470243487,0.08598709793087139,0.0,0.12533037778037448,0.1,0.18847179412841797,1.915306568145752,0.050010778,1.3295283,0.18963896414641435,0.0,0.0038970631690088174,0.0,200,0.3249368667602539,0.3363086012121484,0.33231220344895995,10400,0.458864544243282,0.0
52,1.4635555744171143,0.10852811356223441,0.06470907656404297,0.20968114606516822,0.03818869081506695,0.0,0.13293813150404724,0.1,0.1855299472808838,2.070976972579956,0.049943604,1.3219941,0.18152787908799634,0.0,0.0021253398073456334,0.0,200,0.3284339904785156,1.026406996470932,0.7714802483601424,10600,0.4784094586789675,0.0
53,1.4913971424102783,0.11657530260803772,0.062063979890983875,0.21135252654393547,0.03861010723632676,0.0,0.1314310000847553,0.1,0.19155120849609375,2.958529233932495,0.050572734,1.8825078,0.17503262144000048,0.0,0.0022806966767572935,0.0,200,0.3145115375518799,0.6139685779379114,0.38706956448060953,10800,0.4530228452650206,0.0
54,1.5641698837280273,0.21940589302803729,0.12042919576148842,0.3990193643478667,0.09192000218421847,0.0,0.12921640234317186,0.1,0.18807125091552734,1.9946684837341309,0.049509063,1.4059818,0.17946994859880416,0.0,0.004289157168370525,0.0,200,0.05282258987426758,0.3482171642083837,0.37094837160410443,11000,0.4723167963530435,0.0
55,1.4686269760131836,0.190223412713459,0.1158169137900008,0.36913327204130464,0.07073924224854898,0.0,0.1298452691546584,0.1,0.0714716911315918,0.052817583084106445,0.049507346,1.4205945,0.18054529501026967,0.0,0.0037042060009331522,0.0,200,0.10209369659423828,0.38535943368593445,0.3706696572335643,11200,0.4319141340486052,0.0
56,1.3762309551239014,0.2589619127978611,0.17126034541204596,0.5130152318897682,0.09406898906971202,0.0,0.12328672360629936,0.1,0.0052797794342041016,0.07263565063476562,0.049450647,1.2723815,0.18838695678902884,0.0,0.005056130532325379,0.0,200,0.024517536163330078,0.46714051701632553,0.42128106115042546,11400,0.4743065101263874,0.0
57,1.3366425037384033,0.12750915001406665,0.14740033180690496,0.38101542273048156,0.018110542456005563,0.0,0.1332226472944688,0.1,0.004625797271728516,0.053585052490234375,0.049948767,1.9758463,0.18229917611153262,0.0,0.002516961802199789,0.0,200,0.028979778289794922,0.7153038061710382,0.7602951397302674,11600,0.37147794675516715,0.0
58,1.719585657119751,0.14820333775568267,0.06434904932707246,0.2267608713085869,0.049805092415895674,0.0,0.12871203253064792,0.1,0.11648964881896973,2.289668560028076,0.04963423,1.3335437,0.17888959227594764,0.0,0.00295706264104066,0.0,200,0.33316755294799805,0.3046192973448517,0.2871684326314725,11800,0.28502156527287376,0.0
59,1.4887583255767822,0.17528302033465532,0.07802556480364391,0.30300600186741145,0.10498587713843546,0.0,0.13158438411996776,0.1,0.18428659439086914,3.056515693664551,0.050505776,1.0706674,0.1785289350818184,0.0,0.003445444143985346,0.0,200,0.27040982246398926,0.23279778620068756,0.22749058907442557,12000,0.10338320264696231,0.0
60,1.5747885704040527,0.0992196182401596,0.07351025129661065,0.2108782429819015,0.030115921235876447,0.0,0.12207287492135377,0.1,0.09512615203857422,1.9873242378234863,0.050271884,4.906092,0.17059800339765252,0.0,0.001957831689832489,0.0,200,0.3314542770385742,0.7902104130597356,0.6468225156586548,12200,0.17115987025320453,0.0
61,1.5022914409637451,0.2591856985535541,0.11985370357481856,0.3914690909764975,0.07383575937669253,0.0,0.12489058676053601,0.1,0.18993210792541504,3.1309728622436523,0.049266968,1.8915497,0.1794567729132427,0.0,0.0049730078049835345,0.0,200,0.31862902641296387,0.384179019204893,0.36447367879027753,12400,0.24617149671061198,0.0
62,1.4855444431304932,0.2651363787425332,0.1425403464994107,0.4284620832059907,0.061513602322551084,0.0,0.12595601319318464,0.1,0.17783093452453613,2.7987968921661377,0.049789194,1.2571433,0.18802473349617174,0.0,0.005188627513428949,0.0,200,0.32405567169189453,0.4060997431090373,0.3439610275896691,12600,0.38699876265576955,0.0
63,1.5293257236480713,0.1849948894919145,0.132429999753952,0.3664702955414222,0.04757380782289765,0.0,0.12584551325387108,0.1,0.17349600791931152,2.9654526710510254,0.049539264,1.4142989,0.18772174909574602,0.0,0.003623462164540613,0.0,200,0.3117687702178955,0.4149279015724896,0.43719107304907945,12800,0.44203660362065916,0.0
64,1.4903895854949951,0.1755548709189389,0.0842160759915249,0.2859985518534831,0.06493822363873068,0.0,0.1310998415986842,0.1,0.19140362739562988,2.26277232170105,0.04986358,0.98952085,0.18650506127806532,0.0,0.003451073020885864,0.0,200,0.29569363594055176,0.31020244806812936,0.31143371407474724,13000,0.40902958915798315,0.0
65,1.6588134765625,0.2816391465938945,0.10866580043829685,0.41981179431263244,0.13866649733561395,0.0,0.13050186555039342,0.1,0.1871795654296875,3.065005302429199,0.05029578,1.2476033,0.19601846980964824,0.0,0.005576216761931128,0.0,200,0.33660888671875,0.25116306406387123,0.2411250280489474,13200,0.4697200232398917,0.0
66,1.5013136863708496,0.32950154394720393,0.1827154940362096,0.4949381769356474,0.03176413622709027,0.0,0.12462035441764749,0.1,0.10895943641662598,1.6801180839538574,0.049403943,0.9086418,0.20936677722340383,0.0,0.006502330824500932,0.0,200,0.24272775650024414,0.3546962682128252,0.3217433957418197,13400,0.3839496792550409,0.0
67,1.4770731925964355,0.25323185507212154,0.19410129485359953,0.5192464416185273,0.04841420427297975,0.0,0.13092340159819033,0.1,0.003210783004760742,0.06082606315612793,0.050613966,1.2711765,0.21375328500827562,0.0,0.004935514996924981,0.0,200,0.02631521224975586,0.43296815665205596,0.4313474162482577,13600,0.35149631068789633,0.0
68,1.4926142692565918,0.32539417130446935,0.1841688525289798,0.5279435950393631,0.06405301838722277,0.0,0.12802190061946567,0.1,0.002881765365600586,0.053046226501464844,0.04995103,1.0913688,0.22491737363789502,0.0,0.006391651483587608,0.0,200,0.15443634986877441,0.3292981734754415,0.31581983028690996,13800,0.46023311280638063,0.0
69,1.4912281036376953,0.2767463976319098,0.1696620042617261,0.4823361498666846,0.02882147353555806,0.0,0.12597163339149572,0.1,0.04850316047668457,0.05420541763305664,0.04940227,1.3783096,0.2301002760372965,0.0,0.005417482518384659,0.0,200,0.11250829696655273,0.30852660819340927,0.3040766343732727,14000,0.38553298762695837,0.0
70,1.6413609981536865,0.141677383276063,0.08663080643025198,0.2536245894698191,0.04415487537559622,0.0,0.13398028235250464,0.1,0.10181856155395508,2.280947685241699,0.050384358,1.0795643,0.22125798676117314,0.0,0.002721576634817968,0.0,200,0.3377492427825928,1.1254781560299725,0.7137315282815174,14200,0.42410192280853365,0.0
71,1.4012095928192139,0.26218236095817127,0.18278504050514124,0.5329516578810961,0.04711858226918079,0.0,0.1225679470264855,0.1,0.003154277801513672,0.054558515548706055,0.04881183,1.438701,0.22535042418087298,0.0,0.005124705910550703,0.0,200,0.05633187294006348,0.35860608208359246,0.37444239059605355,14400,0.5888950538820541,0.0
72,1.5358896255493164,0.3313439304596076,0.03939598661753558,0.37900673544289604,0.2820018049033645,0.0,0.1256283043409429,0.1,0.08702492713928223,0.06535148620605469,0.04960946,1.3013906,0.23594977480874646,0.0,0.006517911945118222,0.0,200,0.16971182823181152,0.18081794555075867,0.16766454862885022,14600,0.5081776266656999,0.0
73,1.444786787033081,0.40242178514898264,0.1562349179804425,0.553754080914516,0.15111828932919383,0.0,0.12925606468115022,0.1,0.0030350685119628906,0.053363800048828125,0.05059396,0.85177374,0.2525969758427701,0.0,0.007811190849852747,0.0,200,0.062297821044921875,0.3523618177144221,0.26227359951059287,14800,0.27175408420973535,0.0
74,1.5051014423370361,0.31347848828878366,0.19640010599781593,0.5398763863276572,0.10752387389569751,0.0,0.12886442849014854,0.1,0.11898922920227051,1.7386770248413086,0.050134946,1.0993831,0.25868512708737146,0.0,0.006116034568634583,0.0,200,0.32937002182006836,0.3063832480580907,0.3102829330205845,15000,0.300349698539312,0.0
75,1.4900901317596436,0.26432390765149516,0.15132821738574245,0.525147270476288,0.16481388758616888,0.0,0.13517260793972447,0.1,0.17367291450500488,2.970643997192383,0.049313,1.4247664,0.25924900514378385,0.0,0.00522755894025588,0.0,200,0.3129894733428955,0.43182787747097096,0.4318335706467444,15200,0.29713955639395345,0.0
76,1.5304999351501465,0.2556696401149021,0.046392216904950496,0.33493245592898346,0.21790038228891923,0.0,0.13217355790267038,0.1,0.17502832412719727,2.939225196838379,0.049994163,1.0150253,0.25889106864089567,0.0,0.005042620931033784,0.0,200,0.33300137519836426,0.2825114868495028,0.16194662439772045,15400,0.32447966326048366,0.0
77,1.5819833278656006,0.3045557322355328,0.19373292704560194,0.49015885230393375,0.014129032798087545,0.0,0.12616429872789647,0.1,0.18711614608764648,2.405327558517456,0.05020498,0.9415393,0.2634575350003594,0.0,0.0059889725030712465,0.0,200,0.3196101188659668,0.32349626313285296,0.33497047747307634,15600,0.33371359613627277,0.0
78,1.469287633895874,0.20295609997454095,0.12172024588281541,0.4027936046900634,0.09310636299963383,0.0,0.13018472243479795,0.1,0.17237448692321777,2.97479248046875,0.049679205,1.93504,0.2574073914977776,0.0,0.004033570918134525,0.0,200,0.3278520107269287,0.5046647305087227,0.3780379345728252,15800,0.3056758926680054,0.0
79,1.497551679611206,0.24081466145106944,0.11648054035110819,0.4285317515983578,0.11070870782068211,0.0,0.12789310405640303,0.1,0.16995882987976074,2.9572463035583496,0.050254617,1.1412213,0.25574811849310675,0.0,0.0046875855498013565,0.0,200,0.3116910457611084,0.2356395348366591,0.24605957959822566,16000,0.33329695769060835,0.0
80,1.5137698650360107,0.2536639920195467,0.0496997174946715,0.28978136748229644,0.16906723019706357,0.0,0.13571475190233956,0.1,0.1760406494140625,2.723538637161255,0.04946022,1.0964646,0.25553970584575075,0.0,0.004938548499156554,0.0,200,0.31218910217285156,0.13193155229111184,0.13800658962141585,16200,0.2906104086486872,0.0
81,1.532405138015747,0.33873865435957184,0.0952947383164887,0.4212274662624791,0.18595231647298557,0.0,0.12468969615811466,0.1,0.17592144012451172,2.74448561668396,0.04928286,1.3326523,0.2638596006971329,0.0,0.006621194589178236,0.0,200,0.332808256149292,0.2770368536026827,0.22070211389254552,16400,0.2883956864417816,0.0
82,1.6663806438446045,0.22890999510076848,0.12470748406576408,0.37146118345705115,0.042876072313069336,0.0,0.1254275409055804,0.1,0.18971586227416992,2.956373929977417,0.04961818,1.4313513,0.26036464013749644,0.0,0.004554959996173813,0.0,200,0.2011709213256836,0.28055351790527266,0.29576713215864403,16600,0.40803379655385713,0.0
83,1.6781654357910156,0.30508445945764257,0.11408175709322248,0.4361372593317396,0.12292364372914645,0.0,0.11929281529765373,0.1,0.1452803611755371,0.292849063873291,0.050083607,1.2466613,0.26483662206951103,0.0,0.005939800461039733,0.0,200,0.03405165672302246,0.21292241312952143,0.1939309904277446,16800,0.4983387981343775,0.0
84,1.552570104598999,0.45498962341378946,0.05907524650709198,0.5250088547915307,0.3850717253788439,0.0,0.12263804179756102,0.1,0.003093719482421875,0.058747291564941406,0.049706295,1.2531682,0.2838519222039389,0.0,0.00879457615745613,0.0,200,0.18435978889465332,0.2327342527255051,0.14214515568147645,17000,0.4073581324993612,0.0
85,1.5528910160064697,0.48547967472550657,0.24915077728322618,0.7843224527909968,0.09933608588148084,0.0,0.12568247507974095,0.1,0.003326892852783203,0.05437183380126953,0.049673315,1.0547045,0.30401469745609566,0.0,0.009639471561773508,0.0,200,0.15549564361572266,0.3439940031018098,0.3020064648028524,17200,0.38747832298376933,0.0
86,1.5100181102752686,0.31517772066993593,0.14655955636498497,0.4606587838950997,0.10354981533100703,0.0,0.13117998664411845,0.1,0.05809497833251953,0.05621671676635742,0.049791627,0.9183824,0.3051309997774797,0.0,0.006138308870758229,0.0,200,0.13148951530456543,0.48104618783611647,0.4339540549135175,17400,0.28877868617688085,0.0
87,1.4150989055633545,0.22803406517575323,0.10524510639953134,0.3641477506256676,0.09212322049913636,0.0,0.1264056606330246,0.1,0.03870844841003418,0.05611872673034668,0.049715422,1.309446,0.29742130631730707,0.0,0.004489077623273772,0.0,200,0.10753393173217773,1.267690958711116,0.5031195581014294,17600,0.414072706300886,0.0
88,1.6184570789337158,0.3634676432285297,0.13523382131068523,0.5567049568787128,0.2166602745716284,0.0,0.11896679377691008,0.1,0.003804445266723633,0.053749799728393555,0.049416818,2.0575013,0.3040259400084293,0.0,0.0072021152434540575,0.0,200,0.14475584030151367,0.19560567743387489,0.22405258701278283,17800,0.39943294270401003,0.0
89,1.5367815494537354,0.2954625427952273,0.1189575359153668,0.4820743753279623,0.1794766217220088,0.0,0.1275516813943431,0.1,0.003142118453979492,0.054242610931396484,0.049160734,1.3576888,0.3031696002871091,0.0,0.005746730670962587,0.0,200,0.01799941062927246,0.18841376083146014,0.19987729984212904,18000,0.34222380679867553,0.0
90,1.6408581733703613,0.2862541991341857,0.1592893947379056,0.45410599385289757,0.03070675778757275,0.0,0.13111563851861427,0.1,0.09713959693908691,1.6884808540344238,0.050167646,0.81671005,0.3014780601718167,0.0,0.005614722628720834,0.0,200,0.3290841579437256,0.34179823325611325,0.3499493423690389,18200,0.3585544186003669,0.0
91,1.5460424423217773,0.2500279989724883,0.19283324664068197,0.5428952515309008,0.058590120437142956,0.0,0.1271578006326177,0.1,0.18128132820129395,2.0600202083587646,0.050071474,1.5668056,0.2963330540518839,0.0,0.004888765796380994,0.0,200,0.3131873607635498,0.4636750267213232,0.462720490960698,18400,0.8157445914014291,0.0
92,1.5920724868774414,0.36213580511679017,0.1718291575580248,0.509501163696879,0.07471268638296093,0.0,0.12699274538197322,0.1,0.18383240699768066,1.7190923690795898,0.05043936,0.82557493,0.30291332915837454,0.0,0.007045411659742611,0.0,200,0.3037583827972412,0.35440364243569344,0.3340369480749441,18600,0.8899641507547016,0.0
93,1.5256404876708984,0.23967702433779392,0.06852455999712867,0.33858585793551377,0.15408261101933923,0.0,0.12247916235777727,0.1,0.1801433563232422,2.324010133743286,0.05021118,0.9472363,0.29658969867631646,0.0,0.004632250468417363,0.0,200,0.21361994743347168,0.11017898532909222,0.11117703965528145,18800,0.9786290355467046,0.0
94,1.5705273151397705,0.33406976788294257,0.06638521361437882,0.3905539066467205,0.2232972467829634,0.0,0.12729430913010023,0.1,0.10662031173706055,1.6729280948638916,0.049210276,0.7894652,0.3003377055969791,0.0,0.006448834525291273,0.0,200,0.24535369873046875,0.1340852660259704,0.11242048931636561,19000,0.7227398892814257,0.0
95,1.5090641975402832,0.3658600633764008,0.09101458504225675,0.5225248643282774,0.29713089315364477,0.0,0.1256251183395258,0.1,0.0049285888671875,0.11471176147460938,0.05043316,1.250138,0.30688994137492126,0.0,0.00729421912547794,0.0,200,0.17036151885986328,0.19817991837147084,0.17011474212157165,19200,0.9072545494506447,0.0
96,1.4525070190429688,0.41031638781314006,0.14222852381609444,0.6183809183011161,0.21714956749751077,0.0,0.11728868349130668,0.1,0.006958484649658203,0.0545196533203125,0.049473997,2.4663126,0.31723258601874316,0.0,0.008142821641398625,0.0,200,0.1624150276184082,0.20565974287966332,0.15859214110824,19400,0.35823835088194506,0.0
97,1.5746092796325684,0.2794519292609529,0.20519160825562704,0.6028998130588166,0.08710237152543276,0.0,0.12025900615907746,0.1,0.18551421165466309,2.228806734085083,0.049946252,1.4086549,0.31345452034296417,0.0,0.005525428452093985,0.0,200,0.3139011859893799,0.4683797463751092,0.4364706839269482,19600,0.35111329202470426,0.0
98,1.5898098945617676,0.40456914117764,0.091514102501562,0.49394561434413214,0.26547464252244174,0.0,0.13150815370388577,0.1,0.1777799129486084,3.0143661499023438,0.050272852,1.0234189,0.32256598242643175,0.0,0.007953273342097271,0.0,200,0.313551664352417,0.12044060030317771,0.12154844044604557,19800,0.527497423880954,0.0
99,1.5896847248077393,0.38920280148907627,0.115633195573872,0.5185273081650857,0.25671739672441285,0.0,0.12318363903996363,0.1,0.18947196006774902,1.7242207527160645,0.05033018,1.8880609,0.32922966433269624,0.0,0.007703396522062242,0.0,200,0.3349578380584717,0.15806437919033997,0.15323395290816258,20000,0.47932883465998793,0.0
100,1.6012592315673828,0.3166046178456424,0.24761237083216203,0.6655755800473642,0.05731506790947426,0.0,0.13093809111031485,0.1,0.19038653373718262,2.926908493041992,0.04963756,1.1341078,0.3279671596839908,0.0,0.006208128258336061,0.0,200,0.3225595951080322,0.4122829851699079,0.40757986491750364,20200,0.45177380011432455,0.0
101,1.5440552234649658,0.3480717155255926,0.10645155435607731,0.49315154677319356,0.20646284113342026,0.0,0.12864841396986812,0.1,0.003017902374267578,0.05685091018676758,0.050034944,1.3682376,0.329977615268151,0.0,0.006857058545010189,0.0,200,0.023415327072143555,0.15279760414969298,0.1480192754199242,20400,0.7790396917838001,0.0
102,1.560051679611206,0.34457409782190945,0.15567472929652618,0.6109291546588752,0.22537685444242234,0.0,0.13240117384895742,0.1,0.06830835342407227,0.053424835205078125,0.050199054,1.4704121,0.33143726352352687,0.0,0.006802074784993599,0.0,200,0.08666658401489258,0.22085981310333444,0.21916174154755247,20600,0.5870110913569812,0.0
103,1.5634560585021973,0.39073250191771214,0.21753053939001754,0.7577511121839567,0.18820133294838323,0.0,0.1320623610306589,0.1,0.0506129264831543,0.057047367095947266,0.05053464,1.3426739,0.3373667873629454,0.0,0.00756448915798068,0.0,200,0.1499929428100586,0.3096166499258419,0.30118168890348423,20800,0.6834816083479628,0.0
104,1.5331571102142334,0.2652535469283837,0.06992603780952296,0.3549122405509453,0.18958934601374763,0.0,0.13716962404240846,0.1,0.002966165542602539,0.057973623275756836,0.050095264,1.2130314,0.3301554633194892,0.0,0.0052764417809691684,0.0,200,0.09790706634521484,0.2847113129874462,0.22337415303388772,21000,1.0166089849034743,0.0
105,1.5552911758422852,0.29515086549013947,0.11346934737962602,0.4886772961109521,0.19856225429621494,0.0,0.12666977250325123,0.1,0.08758664131164551,0.14562654495239258,0.05004818,2.0908127,0.32665500353655424,0.0,0.005836696323764275,0.0,200,0.1705799102783203,0.1647000767154899,0.15448344724539856,21200,0.9436035643207323,0.0
106,1.5350556373596191,0.25304865601852056,0.1523085790597919,0.48785634881385054,0.0888318744050826,0.0,0.12703038476726045,0.1,0.08868288993835449,0.08834958076477051,0.049812518,1.5307457,0.3192943687847509,0.0,0.004902765168985836,0.0,200,0.11037588119506836,0.3585265240474692,0.3464500055019671,21400,0.47678873729903004,0.0
107,1.8595621585845947,0.48186560754314284,0.14950533472961752,0.6721014617216019,0.26207549293537363,0.0,0.12356693733807513,0.1,0.1013178825378418,3.0429067611694336,0.050030112,1.1893649,0.3355514926605901,0.0,0.00939300280059536,0.0,200,0.32709169387817383,0.29400480874608037,0.2525712477359614,21600,0.6555994260066679,0.0
108,1.5460855960845947,0.4642826844174387,0.14139736638057354,0.610851098145826,0.3019052957495596,0.0,0.13274908835328314,0.1,0.17104578018188477,2.9758851528167725,0.048877466,0.8782866,0.34842461183627493,0.0,0.009118109548081146,0.0,200,0.32326722145080566,0.23619282189367966,0.1942492101501444,21800,1.1010139596681014,0.0
109,1.5311024188995361,0.26170032303767266,0.14536820462379774,0.4584749878281768,0.08796188061325518,0.0,0.1259704943215646,0.1,0.17983293533325195,2.723881483078003,0.050187707,1.2916443,0.3397521829564147,0.0,0.005084698968522311,0.0,200,0.3204162120819092,0.3725136755404471,0.4157592849693258,22000,1.1142327039681932,0.0
110,1.5716371536254883,0.47078242874286824,0.07371715886463141,0.549621401874039,0.35034332088598763,0.0,0.1250501623418472,0.1,0.19389033317565918,2.6468875408172607,0.050691027,0.73772705,0.35285520753506006,0.0,0.009313096047811524,0.0,200,0.3289062976837158,0.1282365029862663,0.11284060649821767,22200,1.1072688647955948,0.0
111,1.5100970268249512,0.4014127782645269,0.11934093107285504,0.5531800728706148,0.25686393610973135,0.0,0.13019104065535983,0.1,0.08956217765808105,0.06222248077392578,0.050333567,1.4324473,0.3577109646080068,0.0,0.007822202032929002,0.0,200,0.08178186416625977,0.11401463944457864,0.1089910315594931,22400,1.059937900141484,0.0
112,1.520838737487793,0.31651086443519133,0.1773665645673901,0.535835637337311,0.052507806300722396,0.0,0.12939093311581668,0.1,0.1850755214691162,2.400770902633667,0.049648374,1.3310083,0.3535909545907252,0.0,0.006196348498502131,0.0,200,0.32190537452697754,0.3455829803393666,0.3363935217318615,22600,1.0515567271289739,0.0
113,1.549398422241211,0.3341596318224267,0.26179475308611183,0.7450459526396697,0.055077241902125366,0.0,0.12273031072290044,0.1,0.18558359146118164,3.1449854373931885,0.04985521,1.2534833,0.35164782231389535,0.0,0.0065807396030749515,0.0,200,0.3406848907470703,0.40935351191706654,0.3959993270049688,22800,0.5786061402090732,0.0
114,1.6026747226715088,0.39697054509886653,0.1042666365259031,0.518952425846232,0.27149499633090535,0.0,0.12725897009692938,0.1,0.187086820602417,2.756957769393921,0.049989685,0.9666332,0.35618009459239247,0.0,0.007755378819221356,0.0,200,0.04097867012023926,0.10367642092102258,0.1064516161679113,23000,0.9316968395585091,0.0
115,1.562499761581421,0.4185598518189226,0.09943096173841105,0.5300381438359395,0.29946836190729104,0.0,0.1223192319643156,0.1,0.17849206924438477,1.6199736595153809,0.05019513,1.1165138,0.36241807031504547,0.0,0.008131543531018155,0.0,200,0.2944831848144531,0.12341479115185311,0.10976374399323664,23200,1.0334655805752884,0.0
116,1.6361281871795654,0.5516640662706219,0.08425063150314348,0.6887295878290376,0.4756749143555591,0.0,0.11718217021535716,0.1,0.09840726852416992,1.6891095638275146,0.049621973,1.5962036,0.3813426699106031,0.0,0.010664295687398021,0.0,200,0.31790804862976074,0.1762802446736356,0.11426033727803457,23400,1.0320249632792058,0.0
117,1.6252057552337646,0.4021027629171427,0.1642423465979887,0.5715958611568518,0.22024596567335297,0.0,0.12636007307129749,0.1,0.17976069450378418,2.9807302951812744,0.050056648,1.0003203,0.38341867921125705,0.0,0.007879964649518437,0.0,200,0.3353238105773926,0.21949335797322184,0.24986055260533535,23600,1.0212944936964734,0.0
118,1.5259971618652344,0.5068601822178127,0.13431070398047382,0.6361943932262666,0.282596901143645,0.0,0.13142363368733948,0.1,0.0034608840942382812,0.05647778511047363,0.049984228,0.876051,0.3957628295119126,0.0,0.00982237628599527,0.0,200,0.0311281681060791,0.1068057821140051,0.10325560802888564,23800,0.9736881068531033,0.0
119,1.7262933254241943,0.4369933938858906,0.20202051963274442,0.7398796965990931,0.22977422021848576,0.0,0.12763033260278825,0.1,0.0030913352966308594,0.054876089096069336,0.050270367,0.9674727,0.3998858859493104,0.0,0.008604760989908007,0.0,200,0.12137603759765625,0.27000492765899964,0.24488742334600808,24000,0.944256515858013,0.0
120,1.5125181674957275,0.403591473647961,0.11731964577958061,0.5497481920618347,0.28321762984919074,0.0,0.12895823900330242,0.1,0.003256082534790039,0.05447816848754883,0.04931463,1.3127971,0.4002564447191755,0.0,0.007992012118390558,0.0,200,0.04603075981140137,0.18562438656593122,0.15056055435128948,24200,1.0282395227506085,0.0
121,1.6028532981872559,0.43956323191869007,0.12031200725963735,0.5791639594696971,0.25197928352958116,0.0,0.12352338998322795,0.1,0.007309675216674805,0.05801534652709961,0.04942089,1.0917188,0.404187123439127,0.0,0.008572560045372575,0.0,200,0.12650299072265625,0.10044392792770152,0.1120217765294488,24400,0.8961273486921227,0.0
122,1.6521825790405273,0.4635139946059589,0.19054279943815666,0.6470469390941483,0.15848595098984591,0.0,0.12867176655979115,0.1,0.0032024383544921875,0.05821847915649414,0.0496613,0.9223061,0.4101198105558102,0.0,0.009165583440460843,0.0,200,0.06344962120056152,0.20691025380075329,0.19530609763600656,24600,0.8281067648109258,0.0
123,1.74070405960083,0.2443279290013618,0.15981340456657847,0.4598365101992995,0.08273960689504962,0.0,0.12403621322490758,0.1,0.09780240058898926,1.6871304512023926,0.049418077,1.3555226,0.39354062240036536,0.0,0.004748507552642301,0.0,200,0.28503966331481934,0.620345604030664,0.5454410291625129,24800,0.8134028100332801,0.0
