iteration,time_sampling,stoc_pol_mean,stoc_pol_std,stoc_pol_max,stoc_pol_min,rollout_success,alpha,delta,time_vpg,time_npg,kl_dist,surr_improvement,running_score,rwd_sparse,rwd_dense,success_percentage,effort,num_samples,time_VF,VF_error_before,VF_error_after,env_samples,eval_score,eval_success
0,1.0747458934783936,-11.897666852246761,1.9097499048502315,-9.521750677572138,-14.793226034876412,0.0,0.08677551366530122,0.1,0.0434880256652832,0.0303955078125,0.051021945,2.1953266,-11.897666852246761,-0.1370941160335943,-0.05200958532249515,0.0,0.06060365634891939,61,0.0024826526641845703,1.0152289799068765,1.0152289799068765,61,-16.794613981320307,0.0
1,0.7467005252838135,-9.537552697720537,1.560327176314151,-6.99841175960938,-11.08454401686374,0.0,0.11617916984781296,0.1,0.0019991397857666016,0.02669668197631836,0.05009372,1.5258892,-11.661655436794138,-0.11510456423272655,-0.041263620419158285,0.0,0.0599364690166033,58,0.007357597351074219,1.0193266517425317,1.0193266517425317,119,-16.353692423417943,0.0
2,0.7526206970214844,-9.64536003915371,1.6656408146782158,-7.807237050441502,-12.18534464688936,0.0,0.1119663159440283,0.1,0.0018362998962402344,0.027290821075439453,0.050771296,2.8991597,-11.460025897030096,-0.10818783366563045,-0.04043630967701437,0.0,0.05916861091421124,60,0.007178068161010742,1.0181496183048782,1.0181496183048782,179,-15.995719338707156,0.0
3,0.7608795166015625,-11.956119596643845,1.5041950414700531,-10.319110718334997,-13.797189231570663,0.0,0.12789664531682873,0.1,0.0018990039825439453,0.02625131607055664,0.051079363,2.8427088,-11.509635266991472,-0.12737246269538433,-0.05024307835535655,0.0,0.0565265889492879,63,0.007570981979370117,1.0153034315999374,1.0153034315999374,242,-14.580490509081528,0.0
4,0.7520754337310791,-9.854567109883714,0.8577976231990598,-8.682328362824082,-11.09076856034026,0.0,0.11115224790444024,0.1,0.0013153553009033203,0.026024580001831055,0.04569025,1.557398,-11.344128451280696,-0.12267499267870698,-0.041439480857872454,0.0,0.059262580811880336,54,0.002088308334350586,1.0190553776643976,1.0190553776643976,296,-14.323571084944069,0.0
5,0.8082177639007568,-9.117729827155223,2.332454495668129,-6.278463862998043,-11.555635077504826,0.0,0.11666276481123475,0.1,0.001476287841796875,0.024797439575195312,0.052097037,1.2473646,-11.121488588868148,-0.09845757906314545,-0.03692159214867955,0.0,0.05968103744865212,60,0.0020012855529785156,1.019405098929115,1.019405098929115,356,-14.084007007368593,0.04166666666666667
6,1.337695837020874,-8.958131042136879,0.9756430848380053,-7.30234595954508,-9.802461988444806,0.0,0.12141350281719679,0.1,0.034299612045288086,0.04781603813171387,0.049298223,1.585826,-10.905152834195022,-0.10181034792159506,-0.040681783077715875,0.0,0.059049647220928266,64,0.057799577713012695,1.0215377215419859,1.0215377215419859,420,-14.577369661711307,0.04166666666666667
7,0.9946796894073486,-10.907655901800576,0.7135141787759713,-9.839307954160985,-11.84646558846802,0.0,0.1220265552420667,0.1,0.001961231231689453,0.02851247787475586,0.050295345,2.5653732,-10.905403140955578,-0.12342657716805605,-0.047834779218189905,0.0,0.06030136104505083,62,0.002274751663208008,1.0170770265171696,1.0170770265171696,482,-15.522741032941928,0.04166666666666667
8,0.8741493225097656,-10.890903283059908,1.7257247243421283,-9.14571645616946,-13.649951840856827,0.125,0.12254148351485125,0.1,0.002023935317993164,0.04145002365112305,0.051150408,1.6391301,-10.903953155166011,-0.11502171512279594,-0.047372523372183714,0.125,0.059116660172712755,68,0.0023894309997558594,1.0167156623089524,1.0167156623089524,550,-15.948697722636204,0.04166666666666667
9,0.8577704429626465,-9.833034161629794,1.9233258368637909,-7.374411360445424,-11.923289992825138,0.0,0.1138254996368456,0.1,0.0017533302307128906,0.028796911239624023,0.050076224,2.0988657,-10.79686125581239,-0.11347219804957126,-0.04131862286720272,0.0,0.0596214416886713,58,0.0021734237670898438,1.0175561631792844,1.0175561631792844,608,-15.591126404544006,0.04166666666666667
10,0.8689770698547363,-7.370147704702131,1.0539497830500448,-5.959383828261074,-8.607989551496427,0.0,0.11435067687387224,0.1,0.0014967918395996094,0.030625581741333008,0.05127773,1.4308473,-10.454189900701364,-0.08945475034401143,-0.02928479503929464,0.0,0.05892682570646156,53,0.002099752426147461,1.0229899911744285,1.0229899911744285,661,-13.901931173319488,0.04166666666666667
11,1.0531935691833496,-7.506959043201325,1.6515497058941926,-5.627296603656266,-9.373043666455764,0.25,0.13445963028522984,0.1,0.001809835433959961,0.030396223068237305,0.051614273,1.6583035,-10.15946681495136,-0.08409676920859208,-0.03207737887701969,0.25,0.06021874507038808,60,0.007624626159667969,1.0236368309175123,1.0236368309175123,721,-13.999297943372495,0.04166666666666667
12,0.8391790390014648,-9.202486901189527,3.293898556208254,-5.374861763215758,-14.263086191083815,0.0,0.1340860749097268,0.1,0.0019693374633789062,0.028927087783813477,0.051914364,0.72801864,-10.063768823575177,-0.10290075016633149,-0.041052971468401624,0.0,0.05876083366536433,64,0.0020210742950439453,1.0185175902501071,1.0185175902501071,785,-13.211384240572004,0.04166666666666667
13,0.8527312278747559,-10.844704707890296,3.2337443314150978,-6.007007463374883,-15.059376205570542,0.0,0.12426326152073468,0.1,0.0019207000732421875,0.027622222900390625,0.049396288,1.432102,-10.141862412006688,-0.12176682559927968,-0.04752011007503747,0.0,0.05888216624353888,61,0.002315044403076172,1.0152639841838171,1.0152639841838171,846,-15.183252042669784,0.0
14,1.0092318058013916,-9.250989327576988,1.407754726896909,-6.971150450291624,-10.793494369741019,0.0,0.10615338732442615,0.1,0.002062559127807617,0.030339479446411133,0.049759652,3.0503728,-10.052775103563718,-0.11126489260713808,-0.03762376841697729,0.0,0.059379026720435754,54,0.00217437744140625,1.0187259734769476,1.0187259734769476,900,-15.147481187995572,0.04166666666666667
15,0.9464840888977051,-9.68865478587026,2.1807729750382756,-6.663316302171573,-11.832668139519138,0.0,0.13180330863890502,0.1,0.0020334720611572266,0.028095006942749023,0.049079478,1.2933544,-10.016363071794371,-0.10448436095405259,-0.04023445149012446,0.0,0.05982312252848215,61,0.0023124217987060547,1.0182121697007338,1.0182121697007338,961,-14.410952230953251,0.0
16,0.9320831298828125,-10.293453658732084,2.367426373280757,-7.091003191982325,-13.313664408812155,0.0,0.1225869033286271,0.1,0.0019807815551757812,0.027703046798706055,0.05189816,1.7496616,-10.044072130488143,-0.11700545936633296,-0.04419387148111296,0.0,0.06066651180790988,60,0.002141714096069336,1.0171533486804216,1.0171533486804216,1021,-15.611297983551973,0.0
17,0.9208984375,-9.90479350303903,2.0814371177008595,-7.417343691092981,-13.159776276328866,0.0,0.11899251415354425,0.1,0.0013637542724609375,0.027060270309448242,0.049475763,1.0073075,-10.030144267743232,-0.11295014148429894,-0.040213190134171434,0.0,0.060169363109545765,57,0.002111673355102539,1.017635761717596,1.017635761717596,1078,-14.112141726161118,0.0
18,0.9361062049865723,-8.147427226232313,0.6555917513522369,-7.581423772423486,-9.209660526838467,0.0,0.12464344162493128,0.1,0.0013473033905029297,0.029457569122314453,0.048911817,1.7310328,-9.84187256359214,-0.10490326147662021,-0.03400093397199762,0.0,0.05830233396128977,52,0.0017497539520263672,1.021702001139079,1.021702001139079,1130,-14.291024160887316,0.0
19,0.9507873058319092,-10.83769107127726,1.485426217447828,-8.385535984525498,-12.384280629705469,0.0,0.12486513860797882,0.1,0.0015451908111572266,0.02758932113647461,0.05057686,1.3774233,-9.941454414360653,-0.13032389583605133,-0.04554658861094385,0.0,0.060486234282104756,56,0.0021054744720458984,1.0163614418046645,1.0163614418046645,1186,-13.85392367758839,0.0
20,0.9731762409210205,-9.918735167319129,1.7513160021280685,-7.148943574255705,-11.785015245559938,0.0,0.11337668239725432,0.1,0.0019655227661132812,0.027901172637939453,0.048883077,1.4637691,-9.9391824896565,-0.11594531515264685,-0.04234619024109568,0.0,0.06069888566399782,58,0.0020678043365478516,1.0176715968228272,1.0176715968228272,1244,-13.81700734169758,0.04166666666666667
21,0.8204395771026611,-9.417999986303895,1.6851046695866394,-6.773364565004826,-11.289232521854629,0.0,0.1239621145339856,0.1,0.001947641372680664,0.02934122085571289,0.05044474,1.1433253,-9.88706423932124,-0.10856747806205516,-0.0418318432816548,0.0,0.061986422389972,62,0.0019996166229248047,1.0199662918008139,1.0199662918008139,1306,-13.586466519843517,0.0
22,0.8204154968261719,-9.902084010400491,2.1690331396610465,-7.041672883144972,-12.240633971280813,0.0,0.13166249941306543,0.1,0.002009868621826172,0.04059886932373047,0.049704798,1.8269266,-9.888566216429165,-0.10523366956472639,-0.042914768541924234,0.0,0.05984143798482174,66,0.0021758079528808594,1.017777590548941,1.017777590548941,1372,-13.513749773795675,0.0
23,0.8588404655456543,-10.032637612295947,3.339362115910132,-7.353690969576389,-15.73743899132214,0.0,0.1469157824480342,0.1,0.0019140243530273438,0.040264129638671875,0.049880605,0.8994308,-9.902973356015844,-0.1010076818473026,-0.043532314479752025,0.0,0.05944039683378656,67,0.0025093555450439453,1.0164049315167545,1.0164049315167545,1439,-13.261612105195669,0.04166666666666667
24,0.8362374305725098,-10.485989262827722,1.653531500375636,-8.332107815846856,-12.330056116228297,0.0,0.14266318780574935,0.1,0.0020470619201660156,0.04268789291381836,0.0506042,1.1254737,-9.961274946697031,-0.10646780378229795,-0.04691974569023407,0.0,0.06144621727220439,70,0.0026254653930664062,1.017889268854657,1.017889268854657,1509,-13.432170699094911,0.0
25,0.8597800731658936,-13.636045548751728,3.1808936561484917,-9.792859701250032,-17.939206323202978,0.0,0.14001648993916527,0.1,0.0022385120391845703,0.04360246658325195,0.048957035,0.7813045,-10.328752006902501,-0.14084922108505676,-0.06006965231028105,0.0,0.06213644148515473,69,0.002145528793334961,1.012463382799361,1.012463382799361,1578,-14.051296289101963,0.0
26,0.9041728973388672,-10.41359366476775,1.6480176320425213,-8.694567308696575,-13.12990262205443,0.0,0.13484061546434026,0.1,0.0020809173583984375,0.030770063400268555,0.051695235,1.1046206,-10.337236172689028,-0.12371448117808383,-0.043596730296234315,0.0,0.0610538576955719,57,0.0023317337036132812,1.0169865367395905,1.0169865367395905,1635,-13.544984429739719,0.0
27,1.0107853412628174,-11.170822429528364,2.852002725665517,-7.5729899963772525,-15.507331736478342,0.0,0.14987043676236858,0.1,0.0022017955780029297,0.043923139572143555,0.049674656,0.8315301,-10.420594798372962,-0.11950998939164742,-0.05057089722440131,0.0,0.05998871342833441,67,0.002290964126586914,1.0157287662027097,1.0157287662027097,1702,-14.036339260534076,0.0
28,1.0004127025604248,-8.578135853623793,2.785406981647424,-5.282796296493176,-12.96462147265894,0.125,0.1286034862455081,0.1,0.0018606185913085938,0.028861045837402344,0.04875769,1.0931426,-10.236348903898046,-0.09697617770520633,-0.03676899941017748,0.125,0.062150113166838786,60,0.0022978782653808594,1.0189655514908527,1.0189655514908527,1762,-15.0974532417528,0.0
29,1.0069799423217773,-11.934354353622258,1.2379864491957508,-9.955418735121837,-13.168630779171057,0.0,0.12205473261632226,0.1,0.0019683837890625,0.03086400032043457,0.049717203,2.4600296,-10.406149448870467,-0.13235913268196964,-0.05126666375739429,0.0,0.06252444401393836,62,0.0023517608642578125,1.0152068121283266,1.0152068121283266,1824,-14.916839752821451,0.0
30,1.7629384994506836,-9.27696755880708,2.5430368179428577,-5.674956109609554,-12.132490351264716,0.0,0.12878345982048783,0.1,0.002019166946411133,0.04266643524169922,0.048707325,2.2604842,-10.293231259864129,-0.092554552521629,-0.04023336443163554,0.0,0.0594432150968658,69,0.002314329147338867,1.0186401773312102,1.0186401773312102,1893,-14.17893073778243,0.0
31,11.060406684875488,-9.86459268697509,2.183224550465179,-7.7953996132426235,-13.301667091197045,0.0,0.14292020772918496,0.1,0.02792215347290039,0.05438637733459473,0.049121886,1.3865806,-10.250367402575225,-0.10452109191008,-0.044290249945682474,0.0,0.06015864457432241,68,0.00581812858581543,1.018004838994635,1.018004838994635,1961,-14.839245032139376,0.0
32,0.8125114440917969,-10.374466649866203,2.654316613190594,-6.694423728451586,-13.636754973694302,0.0,0.1290887348687095,0.1,0.001941680908203125,0.028170108795166016,0.049155187,1.2843033,-10.262777327304322,-0.12445871995627764,-0.04366921454631645,0.0,0.059100414533286405,56,0.0021619796752929688,1.0167536371830161,1.0167536371830161,2017,-13.600521983195321,0.0
33,0.8160858154296875,-10.101173303505776,3.058686802766677,-7.670038011889385,-15.33360723718878,0.0,0.1349335982470204,0.1,0.0018734931945800781,0.04184532165527344,0.050771702,0.77643526,-10.246616924924469,-0.10892669682299652,-0.0447463207104946,0.0,0.06016151236038616,65,0.0024623870849609375,1.0168040422415785,1.0168040422415785,2082,-13.325869965451703,0.0
34,0.7931003570556641,-7.547990606837929,2.0358388785885024,-5.248257525213174,-10.789279881383518,0.125,0.13179968396286787,0.1,0.00189208984375,0.028093576431274414,0.04888952,1.1378281,-9.976754293115814,-0.0799301812925512,-0.03222879687713595,0.125,0.061658795883612574,63,0.0025420188903808594,1.021284939312204,1.021284939312204,2145,-14.260382573491805,0.0
35,0.7986555099487305,-11.69072214774673,1.577798289193848,-8.995672993162326,-12.964856050690127,0.0,0.12894347480129134,0.1,0.0019562244415283203,0.029191970825195312,0.049692888,1.5583277,-10.148151078578906,-0.1256549044021615,-0.0495463808380397,0.0,0.06187975845509018,63,0.002335071563720703,1.0154396122408473,1.0154396122408473,2208,-13.938255136854615,0.0
36,0.7987756729125977,-10.48986537355567,2.425851049624424,-7.14512163704764,-13.712458654611082,0.125,0.12559969573886196,0.1,0.0018930435180664062,0.02760624885559082,0.05033809,1.5165821,-10.182322508076583,-0.1258664216171514,-0.043719675856384754,0.125,0.060521147280742565,55,0.0024514198303222656,1.0163300891870914,1.0163300891870914,2263,-14.980559359604088,0.0
37,0.7849316596984863,-8.58124577103632,1.1983533791931482,-6.818533184254269,-10.060109657094626,0.0,0.13686441646696604,0.1,0.0018439292907714844,0.0278470516204834,0.049809966,1.3141863,-10.022214834372557,-0.09879603979284125,-0.036347313791877583,0.0,0.05934555124739879,59,0.002259969711303711,1.0205959916485643,1.0205959916485643,2322,-14.54785036202523,0.0
38,0.9365651607513428,-9.046478392101008,0.4817483214007707,-8.568909993955376,-9.646091765045963,0.0,0.12156936250458332,0.1,0.0014944076538085938,0.027961015701293945,0.04925681,2.3901408,-9.924641190145403,-0.1162533174439786,-0.03851789831595255,0.0,0.05831543149016072,53,0.0021085739135742188,1.0203573322365662,1.0203573322365662,2375,-14.036171725019985,0.0
39,0.980872631072998,-10.041231754335474,0.7094592888384237,-9.086133259057398,-10.970358655632676,0.0,0.12374808949703928,0.1,0.0015282630920410156,0.02793741226196289,0.051430564,2.059917,-9.936300246564409,-0.12308170075629245,-0.04061007840618554,0.0,0.061985339491627836,53,0.002164125442504883,1.017346096390263,1.017346096390263,2428,-14.130940459954031,0.0
40,0.9844632148742676,-8.881878361584887,1.721514419288979,-6.38482568949958,-11.148774429306181,0.125,0.12762508367054498,0.1,0.0015180110931396484,0.028193950653076172,0.049707334,1.1823128,-9.830858058066458,-0.10858655138542526,-0.03631962740195627,0.125,0.05977669340705658,53,0.0020761489868164062,1.0188959165788287,1.0188959165788287,2481,-14.07661545204684,0.0
41,0.9803318977355957,-9.48444673356023,1.5579254576560155,-7.165641609377385,-11.532526685267403,0.0,0.1306549351145504,0.1,0.0015709400177001953,0.0258791446685791,0.050406694,1.2009763,-9.796216925615836,-0.11264226300052058,-0.03877303726960617,0.0,0.060839433924462075,56,0.002149820327758789,1.018976469269134,1.018976469269134,2537,-13.474247025538707,0.0
42,1.035895586013794,-9.97031545254619,2.3064071726354265,-6.497526113821402,-12.984452828885628,0.0,0.1281093198895754,0.1,0.0015838146209716797,0.029912471771240234,0.049122624,1.6873068,-9.813626778308873,-0.11745222594713507,-0.041474342893616165,0.0,0.05939944455518109,56,0.0021016597747802734,1.0176148943309171,1.0176148943309171,2593,-13.170793145109888,0.0
43,1.013740062713623,-11.24954675182278,1.2924625760721362,-9.138906010310802,-12.553210679233821,0.0,0.1306333083946831,0.1,0.001985311508178711,0.029493093490600586,0.050704893,1.6155456,-9.957218775660264,-0.1317059644954288,-0.047309877582862224,0.0,0.060668067492871056,57,0.002289295196533203,1.0160443275903095,1.0160443275903095,2650,-12.98711136236306,0.0
44,1.1244559288024902,-11.003543414742998,0.6961284024942411,-9.970840227936783,-11.891856352215926,0.0,0.13938392287825727,0.1,0.0019254684448242188,0.031031131744384766,0.050214723,1.3222584,-10.061851239568536,-0.12434657402400212,-0.044868585248557864,0.0,0.06079170371148753,58,0.0024232864379882812,1.0163713740625688,1.0163713740625688,2708,-13.419832704163072,0.0
45,1.182610034942627,-8.368863573652968,1.6571970028554213,-5.801018534175631,-10.419476318752864,0.0,0.11964098678375897,0.1,0.0015716552734375,0.02924513816833496,0.04920353,2.0987625,-9.892552472976979,-0.1070569636202327,-0.03375586464731861,0.0,0.06070518395406922,51,0.002053499221801758,1.0201675493791382,1.0201675493791382,2759,-13.369528572007662,0.0
46,1.0043327808380127,-12.709475865371525,3.408851028176791,-10.060416344185033,-18.44903554747937,0.0,0.14133538768404125,0.1,0.002119779586791992,0.04204916954040527,0.05063027,1.086492,-10.174244812216434,-0.12976549136246046,-0.055939578815496056,0.0,0.060834435933174606,70,0.0025086402893066406,1.0131512209845426,1.0131512209845426,2829,-13.12032210165249,0.0
47,0.9281654357910156,-8.427426249933704,1.5529159158152128,-6.794409383656742,-10.36005073466443,0.125,0.133451638843008,0.1,0.0017027854919433594,0.029708385467529297,0.05052916,0.93794876,-9.99956295598816,-0.1060703650709502,-0.03446555469771616,0.125,0.059640242152195974,52,0.007002353668212891,1.0213234981098325,1.0213234981098325,2881,-13.110865644444528,0.0
48,0.9478123188018799,-11.38555996027031,1.8993388012952606,-9.297360066261444,-14.449643097066682,0.0,0.12804926342547235,0.1,0.002025604248046875,0.029071569442749023,0.0485701,1.8370882,-10.138162656416377,-0.12782123643183424,-0.0478763518880575,0.0,0.060537325982454315,60,0.0026230812072753906,1.0153867676005965,1.0153867676005965,2941,-13.197974152980926,0.04166666666666667
49,0.9573814868927002,-8.999705368650995,1.7871348700387524,-7.553660108724675,-12.056672760752235,0.0,0.12869203710352337,0.1,0.0014851093292236328,0.03108668327331543,0.052003875,0.95531416,-10.02431692763984,-0.10428327853998749,-0.03734330594885654,0.0,0.06012884388551508,57,0.00215911865234375,1.0195804144646647,1.0195804144646647,2998,-12.865660283358208,0.0
50,0.9312300682067871,-9.470307387356304,0.9905502697711357,-8.561059820066454,-11.066715145611276,0.0,0.13002320782659976,0.1,0.0018389225006103516,0.026914596557617188,0.050639182,1.6138659,-9.968915973611486,-0.11118059200359934,-0.03969827798092968,0.0,0.06029226025243625,57,0.002332925796508789,1.019451349678736,1.019451349678736,3055,-12.691052439618739,0.0
51,0.9050939083099365,-9.435296660212778,1.9707814534022288,-6.246923415891651,-11.249652374388045,0.0,0.1364397253449181,0.1,0.001920938491821289,0.02809429168701172,0.05005644,1.3580633,-9.915554042271614,-0.10850572214091588,-0.038381664834207865,0.0,0.05837216496269402,56,0.002416849136352539,1.0182349770843084,1.0182349770843084,3111,-12.78483418702838,0.0
52,0.9209268093109131,-8.169601430943978,0.7391725230084693,-7.618701581832239,-9.441645027788882,0.0,0.12285623354900926,0.1,0.001499176025390625,0.026361703872680664,0.048935976,2.1872792,-9.74095878113885,-0.10119292434697304,-0.034654495299280254,0.0,0.06287890154598759,55,0.002118825912475586,1.0221453724408487,1.0221453724408487,3166,-13.998236367253305,0.0
53,0.9641084671020508,-8.4804247774363,2.4929963496905767,-6.010618685293436,-11.642871163921892,0.125,0.1369800260157845,0.1,0.0014438629150390625,0.02777695655822754,0.04933464,0.9668924,-9.614905380768597,-0.1003311271873161,-0.03592334238701526,0.125,0.057040357487207156,57,0.0020537376403808594,1.0201359195465958,1.0201359195465958,3223,-13.288375280989278,0.0
54,0.9322974681854248,-7.581123280512959,2.042184883121243,-5.676360292998981,-10.552159182807356,0.0,0.12884669254751824,0.1,0.0018863677978515625,0.02804112434387207,0.048589207,0.8891076,-9.411527170743035,-0.09104652841789448,-0.03285912842319391,0.0,0.06081203592081393,58,0.002074003219604492,1.0233001131781483,1.0233001131781483,3281,-12.857310684337753,0.0
55,0.9290821552276611,-10.143866351309438,1.5226345841935924,-8.37271575912443,-11.860981414483222,0.0,0.12709120114072922,0.1,0.0018644332885742188,0.026734352111816406,0.05029578,1.8450407,-9.484761088799676,-0.11838897110723076,-0.04226207352793685,0.0,0.06174371024683006,57,0.0023958683013916016,1.0177698707048957,1.0177698707048957,3338,-12.691104211920631,0.04166666666666667
56,0.9433932304382324,-10.431749301243594,1.2552161859132829,-8.64089124933182,-11.77314716178636,0.0,0.11462762654408455,0.1,0.0013332366943359375,0.025072097778320312,0.05166553,2.6474388,-9.579459910044068,-0.12801320714638825,-0.04226415839277366,0.0,0.06161523477293236,53,0.0021255016326904297,1.0175623622946823,1.0175623622946823,3391,-13.138392716932053,0.04166666666666667
57,0.9669537544250488,-9.335117409866234,2.8664828042453845,-6.82851088438359,-13.892516882609133,0.0,0.12789165771069735,0.1,0.0019130706787109375,0.02739739418029785,0.050666142,0.7563111,-9.555025660026285,-0.10367905990096049,-0.03903582922956764,0.0,0.06021366931579077,62,0.002068758010864258,1.0173263506969716,1.0173263506969716,3453,-12.599289724808836,0.0
58,0.9477593898773193,-9.288789098455707,1.4828923184528353,-7.402174184237632,-11.242961640693558,0.0,0.12930042763403482,0.1,0.0018038749694824219,0.023874282836914062,0.049447227,1.2624195,-9.528402003869227,-0.11367730036833808,-0.04045895324065161,0.0,0.06012301836458783,57,0.002232074737548828,1.01955064803345,1.01955064803345,3510,-13.151134351841618,0.0
59,0.9554786682128906,-8.008163718997881,1.867410769951245,-6.6863939256599,-11.23150577082847,0.0,0.12159420663716923,0.1,0.029369592666625977,0.05327773094177246,0.049258348,1.6017303,-9.376378175382092,-0.1020989552572639,-0.034987052614756646,0.0,0.06058444841559743,54,0.04142355918884277,1.0221638317684172,1.0221638317684172,3564,-13.61169897705578,0.0
60,0.900531530380249,-10.813847928523083,2.2530206130775943,-8.181401465705182,-13.10466690622662,0.0,0.14131725730608652,0.1,0.0021753311157226562,0.02941441535949707,0.049589217,1.7939216,-9.520125150696192,-0.11236982162846919,-0.044669716389987395,0.0,0.061209391884182535,63,0.002081155776977539,1.0166147399490375,1.0166147399490375,3627,-13.073085350804197,0.0
61,0.8811826705932617,-9.283742182917154,2.4036444534130794,-5.415873170353045,-11.567230992498867,0.125,0.13424742086777647,0.1,0.001978158950805664,0.02911090850830078,0.049086504,0.9661402,-9.496486853918288,-0.10839933229508714,-0.03931400206142003,0.125,0.062277947318046395,58,0.0020058155059814453,1.0185689818646946,1.0185689818646946,3685,-13.772059779194835,0.0
62,0.8498740196228027,-9.934210860121212,2.404148363092346,-6.919205314539601,-13.44275447668836,0.0,0.12687294741740554,0.1,0.002084493637084961,0.030827999114990234,0.051261965,0.8304771,-9.540259254538581,-0.12129966612544947,-0.042298550508399764,0.0,0.061239268573083344,57,0.0023698806762695312,1.0178373979796023,1.0178373979796023,3742,-12.685360680167777,0.04166666666666667
63,0.8428535461425781,-8.847324669181111,0.8049620326944436,-8.041045590598406,-10.187367545742191,0.0,0.13787978667005432,0.1,0.0020685195922851562,0.042088985443115234,0.04896454,1.1203474,-9.470965796002835,-0.09609275965150983,-0.03914616632032605,0.0,0.06159647777829795,67,0.002597332000732422,1.02166106165569,1.02166106165569,3809,-12.475742860290287,0.0
64,0.8398928642272949,-7.668376749441769,0.5791918603326749,-6.678421486246396,-8.095425976039774,0.0,0.13782487431397347,0.1,0.0023407936096191406,0.028308391571044922,0.0492964,1.3710092,-9.29070689134673,-0.08585952670175073,-0.03347014981660294,0.0,0.059088425383984,63,0.002422332763671875,1.024431927545809,1.024431927545809,3872,-12.649877643196794,0.0
65,0.8185172080993652,-11.052973264283715,3.748765265353978,-7.589302725848391,-17.380407872194493,0.0,0.14022564268676369,0.1,0.001981496810913086,0.028041839599609375,0.04967185,0.76032025,-9.466933528640428,-0.12768865051297038,-0.04813727066935361,0.0,0.06142956810203316,59,0.002413034439086914,1.0144995967823685,1.0144995967823685,3931,-13.168326857474218,0.0
66,0.8275415897369385,-7.791393901491187,1.9873093911597375,-4.7033647525277535,-9.618046671039489,0.125,0.12658585043061496,0.1,0.001728057861328125,0.026958942413330078,0.049911257,1.1503332,-9.299379565925506,-0.0949231347773781,-0.03324378645851213,0.125,0.06236754384956571,56,0.0023412704467773438,1.0213572212494142,1.0213572212494142,3987,-13.338958166503595,0.0
67,0.8112630844116211,-10.175010408249427,0.7976995035650377,-8.929133344691932,-11.127113636523355,0.125,0.13184933089528914,0.1,0.001402139663696289,0.02775406837463379,0.049379207,2.9506752,-9.386942650157899,-0.11585382531419382,-0.041466487295695666,0.125,0.06166146041853959,57,0.002256631851196289,1.0174308868051398,1.0174308868051398,4044,-13.170580815796868,0.0
68,0.8163490295410156,-12.203267020298387,2.1109000696404654,-8.775277319337635,-14.19961721185769,0.0,0.13638073290071062,0.1,0.001977682113647461,0.0265195369720459,0.05053879,1.2002815,-9.668575087171948,-0.13944915446526032,-0.05236221475884125,0.0,0.0619939916819045,60,0.0021386146545410156,1.014303893080078,1.014303893080078,4104,-12.861486021450958,0.0
69,0.8388292789459229,-9.106946056810656,3.262928529303918,-4.674698259506497,-12.764849290542355,0.0,0.13562157930690752,0.1,0.0019631385803222656,0.027070283889770508,0.050812643,0.9212055,-9.61241218413582,-0.1002213933061665,-0.03747644600470914,0.0,0.06260524175970611,58,0.0024383068084716797,1.0180844654624985,1.0180844654624985,4162,-12.56898639864365,0.0
70,0.8143301010131836,-7.859005386037235,0.9202114015302254,-6.5807630207472965,-8.941327798985396,0.0,0.12960905485280966,0.1,0.0013456344604492188,0.027477741241455078,0.050075192,1.3901298,-9.437071504325962,-0.09022975898668353,-0.03150549385456219,0.0,0.0606392778335023,56,0.0019931793212890625,1.0221604161621656,1.0221604161621656,4218,-12.819446868278332,0.0
71,0.8064849376678467,-11.709873731414977,1.789018794761264,-9.56910035401262,-13.887161260429908,0.0,0.13347426510446003,0.1,0.0019059181213378906,0.026453018188476562,0.050347265,1.6850529,-9.664351727034864,-0.13110556502614795,-0.05020579360032199,0.0,0.06174593984625292,61,0.0022547245025634766,1.0154591837057234,1.0154591837057234,4279,-12.702095900036133,0.0
72,0.8251240253448486,-9.380067242131279,1.8231591470775153,-6.581930139337994,-11.299560537927327,0.0,0.13256863087732976,0.1,0.0018644332885742188,0.03005051612854004,0.04883648,1.2858106,-9.635923278544507,-0.11037543024039212,-0.03930039126300771,0.0,0.06228649414394107,58,0.0023560523986816406,1.0186567779630094,1.0186567779630094,4337,-12.726838771583742,0.0
73,0.810234785079956,-9.26538481288609,1.2381522303862802,-7.247579806209462,-10.448530217235913,0.0,0.12978925455566678,0.1,0.0015106201171875,0.027607202529907227,0.049456835,1.6608346,-9.598869431978667,-0.11977369366143757,-0.037570390349082675,0.0,0.05778871359136443,50,0.002062082290649414,1.0195172211754757,1.0195172211754757,4387,-13.363895604878428,0.0
74,0.8859992027282715,-10.26225001355436,2.1874156623040357,-7.521489113298083,-13.601059607093838,0.125,0.1275396256893253,0.1,0.0019092559814453125,0.02550196647644043,0.04979306,1.0262767,-9.665207490136236,-0.13092881799274236,-0.04383231500087302,0.125,0.06097600082682471,54,0.002065420150756836,1.0172899449975512,1.0172899449975512,4441,-12.889622165909302,0.0
75,0.860060453414917,-8.365379380901997,0.43880979908116824,-7.974193278536281,-9.110056574107913,0.0,0.13477727435206077,0.1,0.00186920166015625,0.027497053146362305,0.048967168,1.7623864,-9.535224679212812,-0.09493834354786254,-0.03450822708769229,0.0,0.060066109144126065,58,0.0018773078918457031,1.0215366191606758,1.0215366191606758,4499,-13.243456038302725,0.0
76,0.8177652359008789,-9.451537462867208,1.8794331812792702,-7.169007609109782,-11.777408256850972,0.125,0.12061323827417898,0.1,0.0013260841369628906,0.025531768798828125,0.049255155,1.8206993,-9.52685595757825,-0.11330001113707015,-0.037734418624991,0.125,0.06130164564687973,53,0.0020809173583984375,1.018045364379609,1.018045364379609,4552,-13.349596641304908,0.0
77,0.8949322700500488,-10.431289026661025,1.630444579697482,-7.627058260665314,-11.633165706371805,0.0,0.12592558050954283,0.1,0.001628875732421875,0.02578449249267578,0.050790496,1.3323652,-9.61729926448653,-0.12266815261063985,-0.04249968920387781,0.0,0.060683378689906586,56,0.0020971298217773438,1.017370030183938,1.017370030183938,4608,-13.45864645286696,0.0
78,0.8111586570739746,-9.798461412805388,3.724807001905739,-6.117720085881153,-15.970039588500669,0.0,0.14698587222837198,0.1,0.0020160675048828125,0.027177095413208008,0.049185447,0.75340873,-9.635415479318416,-0.1011560495983303,-0.04078051161258961,0.0,0.061165062853592696,62,0.002317190170288086,1.015642168896338,1.015642168896338,4670,-13.470701960148292,0.0
79,0.788346529006958,-10.475390055823619,2.0258467169858854,-7.321347862924718,-12.609060137325631,0.0,0.12583048142021236,0.1,0.0012233257293701172,0.025098562240600586,0.049902473,1.2178007,-9.719412936968936,-0.12362885046031107,-0.04209271465950449,0.0,0.060560759756375086,54,0.002088785171508789,1.0159557182695629,1.0159557182695629,4724,-13.367942385829565,0.0
80,0.7800171375274658,-8.564885812586407,1.972925171096393,-5.257919307437825,-10.297918497527604,0.0,0.13018139797869846,0.1,0.001940011978149414,0.02585887908935547,0.049682204,1.7602105,-9.603960224530683,-0.10012908122622047,-0.037305924662152865,0.0,0.06286794056583268,59,0.002304553985595703,1.0201725284113745,1.0201725284113745,4783,-12.774998859471433,0.0
81,0.7918055057525635,-9.184333908746737,2.235811060387221,-7.303650237251189,-13.002643796821314,0.0,0.12391098981534733,0.1,0.0016069412231445312,0.026576519012451172,0.050589256,0.7737251,-9.561997592952288,-0.11379684395519643,-0.03701225197288821,0.0,0.06269199168280407,52,0.002199411392211914,1.018346737195018,1.018346737195018,4835,-12.354282108355749,0.04166666666666667
82,0.7984468936920166,-9.55299247392012,0.4399337626698563,-8.837332358529231,-10.003208023549158,0.0,0.13817693727510766,0.1,0.001990079879760742,0.027196645736694336,0.04974601,1.3003328,-9.561097081049072,-0.11842200641971985,-0.040954870991700004,0.0,0.06388262296180468,56,0.007584571838378906,1.0195550446709152,1.0195550446709152,4891,-12.301831964175086,0.0
83,0.7874629497528076,-8.986887362927924,1.387484818401509,-7.6098539967881305,-11.23216619093246,0.0,0.12777649178691738,0.1,0.0017902851104736328,0.025570392608642578,0.050145976,1.3386894,-9.503676109236956,-0.1096747768793453,-0.03700208647500018,0.0,0.06078659304998686,54,0.0022842884063720703,1.0193203388430332,1.0193203388430332,4945,-12.079894765909026,0.0
84,0.7944080829620361,-9.83972441634474,1.4733198215246526,-8.260693585507983,-12.255710902083823,0.0,0.13188134986011255,0.1,0.0018417835235595703,0.025951147079467773,0.050289895,1.4648384,-9.537280939947735,-0.1079268979612957,-0.041184808981241626,0.0,0.05889880442072762,61,0.0025815963745117188,1.018611476015991,1.018611476015991,5006,-11.223678356553718,0.0
85,0.7863731384277344,-8.496072571739646,1.5071786887385452,-6.281308824504267,-10.21746986705238,0.125,0.12960446630429528,0.1,0.0018460750579833984,0.026166200637817383,0.0492895,1.5363108,-9.433160103126927,-0.09775847482862715,-0.03381884313020089,0.125,0.060862630713456906,57,0.002361774444580078,1.0207349267669636,1.0207349267669636,5063,-11.72148166413688,0.04166666666666667
86,0.7887065410614014,-9.048000039751559,1.822437495692523,-6.235136272758455,-11.26615873921029,0.0,0.14683990449547515,0.1,0.0018415451049804688,0.027194976806640625,0.05056324,0.7655459,-9.39464409678939,-0.09954877904393696,-0.03946355469410545,0.0,0.06119228329953057,63,0.002291440963745117,1.0205328348182967,1.0205328348182967,5126,-11.511251714264846,0.0
87,0.816572904586792,-8.70438924171307,2.6359190614610086,-5.699467347776178,-11.450363964142484,0.0,0.13374013316339284,0.1,0.001990795135498047,0.02680802345275879,0.051071014,1.2199345,-9.325618611281758,-0.09577909538731907,-0.03606393840426407,0.0,0.062263858908170655,61,0.002337217330932617,1.0189235940935937,1.0189235940935937,5187,-12.420080830883228,0.0
88,0.8038051128387451,-9.983544702459682,2.7066702635530344,-5.53954749766598,-12.480092126956167,0.0,0.12421659781557737,0.1,0.0018057823181152344,0.025316953659057617,0.050099287,1.1869308,-9.39141122039955,-0.11074355055287596,-0.04207397540516768,0.0,0.06280069344525382,61,0.0020101070404052734,1.0176932031126698,1.0176932031126698,5248,-12.44434218399442,0.0
89,0.7964181900024414,-9.34660262314342,3.049461871175331,-5.417812462062512,-13.41544914522574,0.0,0.1397444764435422,0.1,0.001940011978149414,0.02661299705505371,0.049314983,0.76934785,-9.386930360673938,-0.10935300449121571,-0.03840954921548415,0.0,0.06070525415332252,55,0.002290487289428711,1.0171958166780182,1.0171958166780182,5303,-12.02937153219424,0.0
90,0.8178303241729736,-9.248847156596572,1.2550066783314098,-7.968412219036475,-10.638527023841224,0.0,0.13872955452906097,0.1,0.0018558502197265625,0.02605152130126953,0.04924669,1.3139733,-9.373122040266201,-0.10176999920633788,-0.03773239361909355,0.0,0.060922317870319646,59,0.002321958541870117,1.0192243262535583,1.0192243262535583,5362,-12.353812443583662,0.0
91,0.8228368759155273,-9.795438041848456,0.6197254617477459,-8.786726959538324,-10.344185003079598,0.0,0.12811649384022242,0.1,0.001961946487426758,0.02453303337097168,0.049779806,1.4581023,-9.415353640424428,-0.11405057957679218,-0.0410315677582574,0.0,0.06210439636236363,58,0.002201080322265625,1.0192992624455879,1.0192992624455879,5420,-12.398095534864536,0.0
92,0.8220160007476807,-7.324620172516173,1.11955024606118,-5.968516742926054,-9.016160304627256,0.125,0.14390334292339943,0.1,0.001811981201171875,0.024974584579467773,0.050419137,0.7717161,-9.206280293633602,-0.08272036212032599,-0.029357959188600572,0.125,0.061010209347612504,57,0.0021376609802246094,1.0230846713998807,1.0230846713998807,5477,-11.862644542060906,0.0
93,0.7753555774688721,-8.88186280815628,1.3064992549051069,-6.657329832172513,-9.900359331970215,0.0,0.13092931961929358,0.1,0.0020041465759277344,0.025832653045654297,0.04850109,1.564322,-9.17383854508587,-0.09987683924734266,-0.03764809999022865,0.0,0.06120119151496519,61,0.002482891082763672,1.0212288117333812,1.0212288117333812,5538,-12.45309124285159,0.0
94,0.758756160736084,-7.773279668847885,2.6723336919586824,-4.488778982050339,-10.741441605932227,0.0,0.12944494917771052,0.1,0.0015377998352050781,0.024617671966552734,0.04971695,0.7199244,-9.033782657462071,-0.098890864713956,-0.03316757221156409,0.0,0.062214587504616864,54,0.0020525455474853516,1.0213752508888128,1.0213752508888128,5592,-12.062666403142805,0.0
95,0.787644624710083,-10.633000553987424,4.832966383902054,-6.15924708057546,-18.788411171818012,0.375,0.12889523001474681,0.1,0.0018591880798339844,0.02469944953918457,0.050078914,0.66672665,-9.193704447114605,-0.112689875558866,-0.04333587774193576,0.375,0.06190867523957116,58,0.0019202232360839844,1.012864774563761,1.012864774563761,5650,-12.09278324092188,0.0
96,0.7557170391082764,-8.307999926637812,0.5381610484104326,-7.609839084757396,-8.877261316900539,0.0,0.12937379978722335,0.1,0.0012919902801513672,0.02570629119873047,0.05070067,1.7606677,-9.105133995066927,-0.10246866200101742,-0.033294763763593686,0.0,0.06010762062326527,52,0.002010345458984375,1.0209390208642841,1.0209390208642841,5702,-11.50611139390602,0.0
97,0.7581789493560791,-8.911225858830203,1.9020480087630167,-6.503389328655256,-11.321970242276745,0.0,0.13420223070800494,0.1,0.0019104480743408203,0.025120019912719727,0.049408726,1.1086688,-9.085743181443254,-0.11246294712802501,-0.037717158562187804,0.0,0.061988812200666835,54,0.0020372867584228516,1.0198896979177619,1.0198896979177619,5756,-11.503497635862304,0.0
98,0.7687342166900635,-8.509987951465344,0.9090257603492874,-7.371605402466651,-9.51335438755604,0.0,0.11134467547774805,0.1,0.0019042491912841797,0.026279449462890625,0.05069701,5.2324486,-9.028167658445463,-0.1072445570438466,-0.034861206070134265,0.0,0.060618600553670215,53,0.0023641586303710938,1.0211648044480508,1.0211648044480508,5809,-11.79166377783398,0.0
99,0.7927794456481934,-9.770236499953063,3.4551089915314663,-6.027814876109493,-15.389695968684896,0.0,0.14074621448975058,0.1,0.0018804073333740234,0.03959178924560547,0.049877666,1.300634,-9.102374542596223,-0.10231733266649168,-0.04240329739135679,0.0,0.06278878032960165,66,0.002224445343017578,1.0154382473442278,1.0154382473442278,5875,-11.535086990691568,0.0
100,0.8033699989318848,-7.703574830192998,1.1970820730582434,-5.907784926179304,-8.999766604859744,0.0,0.11630707357489112,0.1,0.001631021499633789,0.02942204475402832,0.049345307,1.533727,-8.9624945713559,-0.09422927874698026,-0.03143764095624566,0.0,0.06312966917248275,54,0.0021092891693115234,1.0223873226228264,1.0223873226228264,5929,-12.431061865909241,0.0
101,0.7863578796386719,-9.640931244101344,1.3479166189972647,-7.430123570627774,-11.075404632164735,0.0,0.1367043206681283,0.1,0.0019652843475341797,0.025725603103637695,0.04823513,3.0460036,-9.030338238630446,-0.11277068639867324,-0.04232195250000524,0.0,0.06185667670728463,60,0.002447843551635742,1.0193340468641798,1.0193340468641798,5989,-11.649155424560135,0.0
102,0.8511590957641602,-7.878987588779321,1.3470204894445228,-6.193070575036145,-9.287053187656857,0.0,0.14023754951738324,0.1,0.001997232437133789,0.027453184127807617,0.050127048,1.5488076,-8.915203173645333,-0.10150904569219811,-0.03438373085493121,0.0,0.059821720763761896,55,0.0020210742950439453,1.0241102750308873,1.0241102750308873,6044,-12.144187468226368,0.0
103,0.8356912136077881,-10.198902203700701,1.9372304963605944,-6.998467619758517,-12.1633604733784,0.0,0.12184376032036354,0.1,0.0018947124481201172,0.02950119972229004,0.049214374,1.3190582,-9.04357307665087,-0.12123631099300744,-0.043246711429837256,0.0,0.06163248979217991,57,0.0022573471069335938,1.017735565367524,1.017735565367524,6101,-12.010273667125432,0.0
104,0.8733758926391602,-9.691215989713214,0.631369807204417,-8.93609939273819,-10.424309597750543,0.0,0.12452434473089298,0.1,0.0017123222351074219,0.028784513473510742,0.050250053,1.975634,-9.108337367957105,-0.11959725860640136,-0.04099694976266273,0.0,0.06117109187668428,55,0.0021436214447021484,1.0191136660434459,1.0191136660434459,6156,-12.36951897368885,0.0
105,0.8487777709960938,-8.11753296496315,2.32230757618465,-5.878531710413568,-11.280798531913337,0.125,0.13456397808653628,0.1,0.00193023681640625,0.02844977378845215,0.05065027,0.6182662,-9.00925692765771,-0.0944006058661026,-0.03506912585809561,0.125,0.0622236371461225,59,0.0023505687713623047,1.0217161369933097,1.0217161369933097,6215,-11.319775755376815,0.0
106,0.820988655090332,-9.913209722175889,0.978486481677085,-8.389641095688962,-10.975023228858923,0.0,0.11965417299089072,0.1,0.0014538764953613281,0.026938199996948242,0.050368566,3.6442478,-9.099652207109527,-0.12488024441277237,-0.04251201227332635,0.0,0.06294474041318796,55,0.002101898193359375,1.0190766226680206,1.0190766226680206,6270,-12.08542511288678,0.0
107,0.934434175491333,-8.943245714104869,1.0769991941575385,-8.089733135900143,-10.764068691780688,0.0,0.1157296518644603,0.1,0.0015897750854492188,0.026599884033203125,0.049117982,4.0046554,-9.08401155780906,-0.11416801102395187,-0.037395494974801706,0.0,0.06338617526846035,52,0.002029895782470703,1.0204023897211456,1.0204023897211456,6322,-12.135852525148147,0.0
108,0.9815146923065186,-9.71074857323542,2.026398844747287,-7.259857765575582,-12.543876902001651,0.0,0.1330513494104709,0.1,0.0018486976623535156,0.027245759963989258,0.048690587,1.4738054,-9.146685259351695,-0.11400677360747456,-0.04063762469279089,0.0,0.06216833165922365,57,0.0016028881072998047,1.0183367685789126,1.0183367685789126,6379,-11.974419362850705,0.0
109,1.0006237030029297,-8.956610724301164,1.617310260214379,-7.2123573253103945,-11.588280273016084,0.125,0.1280195894961336,0.1,0.0018506050109863281,0.026557207107543945,0.049596477,1.3067418,-9.127677805846641,-0.10237651312136758,-0.03830685419008362,0.125,0.06215097004838577,60,0.002271890640258789,1.0199343249969106,1.0199343249969106,6439,-11.945681677491997,0.0
110,1.104781150817871,-9.199867321937747,2.279554782715383,-5.4759806497741135,-11.676357050811848,0.0,0.1282919457876522,0.1,0.0019428730010986328,0.02658867835998535,0.04952925,1.4170758,-9.134896757455753,-0.11009359581350313,-0.03913062000141282,0.0,0.061721946823342824,56,0.002452373504638672,1.0189044980849007,1.0189044980849007,6495,-12.122737882051942,0.0
111,0.9126846790313721,-8.193777109472844,0.5157090140732734,-7.493977879238081,-8.859721624166605,0.125,0.13948885147837536,0.1,0.0018858909606933594,0.026040315628051758,0.05036511,1.557909,-9.040784792657462,-0.09320343122101368,-0.03287922060581026,0.125,0.06250799985800118,57,0.002292633056640625,1.0220273484175861,1.0220273484175861,6552,-11.863922710611236,0.0
112,0.9099123477935791,-8.690123306996632,1.4376319363760777,-6.269386009536381,-9.818741212270655,0.0,0.11895209989216389,0.1,0.0015082359313964844,0.02618885040283203,0.04936761,1.5372572,-9.00571864409138,-0.10570869418428928,-0.03566598923982625,0.0,0.06276030545490863,54,0.0021123886108398438,1.0205068820583183,1.0205068820583183,6606,-12.492167240893473,0.0
113,0.914935827255249,-8.270253212699046,2.965081423496127,-4.882103788020328,-12.331800946485721,0.0,0.13182481719765368,0.1,0.0014414787292480469,0.02680039405822754,0.048825935,0.763483,-8.932172100952146,-0.10076512322424078,-0.035623014743617384,0.0,0.06327220542022732,57,0.002147674560546875,1.0201630263553392,1.0201630263553392,6663,-13.084735402519122,0.04166666666666667
114,0.9366343021392822,-8.064637882512425,0.8124698636362717,-7.121817942583625,-8.910637376150419,0.0,0.13247790992052372,0.1,0.002049684524536133,0.02840876579284668,0.050668683,1.4316722,-8.845418679108175,-0.09886309790793738,-0.03579710948170242,0.0,0.06366966181369499,58,0.002465486526489258,1.0233862603710717,1.0233862603710717,6721,-13.183282889004838,0.0
115,0.909412145614624,-10.16641856794431,2.395077235865212,-8.266974037797034,-14.251464578941773,0.0,0.12196890492540044,0.1,0.0018825531005859375,0.0260775089263916,0.049629778,1.2599968,-8.977518667991788,-0.11466334325268929,-0.041494630163953126,0.0,0.06388988320721996,58,0.0023822784423828125,1.0164874737086196,1.0164874737086196,6779,-13.408458938650803,0.0
116,0.9354274272918701,-10.657854876517346,2.900828654325458,-5.914771965640194,-13.520693677483235,0.0,0.139754562531758,0.1,0.0018963813781738281,0.026946306228637695,0.050556317,0.8043863,-9.145552288844344,-0.12200395290251,-0.04645959489164466,0.0,0.06211132508986396,61,0.002114534378051758,1.0161704653770682,1.0161704653770682,6840,-13.113943094614209,0.0
117,0.9397287368774414,-9.24942477412143,1.647804786646485,-7.159301706303069,-11.656821525655868,0.0,0.12240425834575289,0.1,0.0020020008087158203,0.031222820281982422,0.05000592,1.7639697,-9.155939537372053,-0.09946551406957388,-0.039181901552231044,0.0,0.061285178447380136,64,0.039613962173461914,1.0192180716746526,1.0192180716746526,6904,-13.094356012375519,0.0
118,0.8576722145080566,-10.68011615137034,1.7351966631170908,-8.253003399430023,-13.155766052105697,0.0,0.12996973686871852,0.1,0.0021152496337890625,0.02805805206298828,0.050233856,1.5319959,-9.308357198771883,-0.12559364660697853,-0.04600358005548566,0.0,0.06416386463359405,59,0.0021452903747558594,1.0170013692022204,1.0170013692022204,6963,-13.198148925386063,0.0
119,0.845465898513794,-7.570845141205856,1.3689927572537923,-6.3866698915193485,-9.76575635211292,0.125,0.12420189542638373,0.1,0.0015194416046142578,0.02712392807006836,0.050098997,1.2421618,-9.134605993015281,-0.09883011610228762,-0.032857956691131,0.125,0.0634993783967253,53,0.00790548324584961,1.0236955698163404,1.0236955698163404,7016,-12.879615183559025,0.04166666666666667
120,0.8456048965454102,-10.201313267293312,2.386473473123995,-7.00425128679088,-13.717007522063966,0.0,0.12258349080864778,0.1,0.0015439987182617188,0.029410839080810547,0.04978261,0.9816421,-9.241276720443084,-0.13174381296444257,-0.042186763437101885,0.0,0.06323963050808677,51,0.0020487308502197266,1.0170808175663233,1.0170808175663233,7067,-12.798374095079135,0.0
121,0.8887362480163574,-9.665011683077935,0.8864067387640723,-8.76102702516038,-11.012094104356429,0.0,0.12211077697573987,0.1,0.001895904541015625,0.028189420700073242,0.0486891,1.9356885,-9.283650216706569,-0.11150462936469671,-0.03959741071957576,0.0,0.06296135121620741,57,0.002312898635864258,1.0187924440979472,1.0187924440979472,7124,-13.313109262098536,0.0
122,0.8811001777648926,-7.9259607045093325,1.80233665124302,-4.896848940659881,-9.395415388194309,0.0,0.12272979504476106,0.1,0.0015769004821777344,0.02900385856628418,0.050295506,1.3141907,-9.147881265486847,-0.09791409967823969,-0.03236298923144194,0.0,0.0638181781390271,54,0.002131938934326172,1.0220981194235932,1.0220981194235932,7178,-13.415322862731452,0.0
123,0.8866927623748779,-6.778342611788037,1.0863868088880784,-5.1649906822564,-7.935387653862562,0.125,0.1232617028801643,0.1,0.0016448497772216797,0.029206037521362305,0.049381882,2.0434575,-8.910927400116966,-0.07763044335228655,-0.025667029438051797,0.125,0.06266573986334707,53,0.0020787715911865234,1.0251800365384458,1.0251800365384458,7231,-13.925082688438978,0.0
124,0.8756325244903564,-9.027076034646079,2.359229322504992,-6.1234908929609,-12.700352513718975,0.125,0.1120993990031255,0.1,0.0018274784088134766,0.028456926345825195,0.050370988,1.6858675,-8.922542263569877,-0.11183640220758598,-0.03707083963953508,0.125,0.06490913050395256,52,0.002213001251220703,1.0179226829121264,1.0179226829121264,7283,-14.066205087682585,0.04166666666666667
125,0.8474974632263184,-7.939524751746761,2.1082790472930237,-5.118328913885089,-10.981095524414,0.0,0.12198579717512811,0.1,0.0012888908386230469,0.02689981460571289,0.05042984,1.3076998,-8.824240512387565,-0.10073624162884556,-0.03359295975317138,0.0,0.06233596582927547,53,0.0020020008087158203,1.0215215125532433,1.0215215125532433,7336,-14.297217444653755,0.04166666666666667
126,0.8784332275390625,-9.460026748737288,2.6889800883301707,-5.830726200177342,-13.048124462658354,0.0,0.12631464050855096,0.1,0.0018610954284667969,0.02805042266845703,0.05061391,0.8048112,-8.887819136022538,-0.10834636466192052,-0.03842637053353126,0.0,0.06328909185226353,56,0.0021049976348876953,1.017746954858436,1.017746954858436,7392,-13.91467304809317,0.04166666666666667
127,0.8646090030670166,-9.492708264054382,2.3098950099709676,-6.4797636727570485,-12.967869290013287,0.0,0.13191783079924813,0.1,0.0014505386352539062,0.02791309356689453,0.050900254,0.79089737,-8.948308048825723,-0.11388167042366715,-0.040006303355522306,0.0,0.06427258547724907,56,0.001909494400024414,1.0184387984679428,1.0184387984679428,7448,-14.112141152821872,0.04166666666666667
128,0.8067197799682617,-7.761632951722666,1.3462817139515602,-5.70318552827387,-9.072567566532381,0.125,0.11673001765584533,0.1,0.0016143321990966797,0.02765798568725586,0.049960118,1.6767126,-8.829640539115417,-0.09787240664698893,-0.032343663855884976,0.125,0.06418556097209467,53,0.002071857452392578,1.0229541166341987,1.0229541166341987,7501,-13.465072537675143,0.04166666666666667
129,0.7956247329711914,-9.498447354617875,2.702799869375957,-5.885948907760251,-13.406075801449944,0.125,0.14719322452408176,0.1,0.001836538314819336,0.029775619506835938,0.05090001,0.71736753,-8.896521220665663,-0.10100980937448309,-0.040345803175123235,0.125,0.06351631498817209,64,0.002319812774658203,1.017955650115578,1.017955650115578,7565,-12.76498912003823,0.04166666666666667
130,0.7952489852905273,-7.577587649302167,1.7412217898665807,-6.044670936724787,-10.47519428533769,0.125,0.12080298623360523,0.1,0.001924276351928711,0.0258941650390625,0.050692122,1.2887565,-8.764627863529313,-0.09544176088158819,-0.034392752533856076,0.125,0.06400581812553027,58,0.002135038375854492,1.0232060561222953,1.0232060561222953,7623,-12.717702516693722,0.04166666666666667
131,0.7966945171356201,-9.664015049151452,1.0988340265938699,-7.90766358708232,-10.748215638724565,0.0,0.13240471555898928,0.1,0.00196075439453125,0.02570962905883789,0.049752202,1.152225,-8.854566582091527,-0.11290374748192036,-0.03917763743018794,0.0,0.06446519913406049,57,0.0023179054260253906,1.0181475528409618,1.0181475528409618,7680,-12.116229355940021,0.04166666666666667
132,0.7999880313873291,-7.829709944395698,0.89387045527651,-6.323071260524106,-8.652991175153659,0.0,0.1283123697460527,0.1,0.0019922256469726562,0.028213024139404297,0.049418155,1.6433921,-8.752080918321944,-0.08211316571992225,-0.032370679089256164,0.0,0.06546822406408186,63,0.0023996829986572266,1.0222491260639417,1.0222491260639417,7743,-13.088854561072287,0.04166666666666667
133,0.8002645969390869,-9.785882508929054,1.2203725465563104,-8.426303984179846,-11.519846264214408,0.0,0.13129787099567952,0.1,0.0012238025665283203,0.02507925033569336,0.049598485,1.2123318,-8.855461077382655,-0.11319197477213948,-0.04037255729333657,0.0,0.06324602836330684,57,0.0020372867584228516,1.0186421537704256,1.0186421537704256,7800,-12.1622473282111,0.04166666666666667
134,0.8066093921661377,-9.699283034568083,2.6065501598414142,-5.557181285105026,-12.766960559606984,0.0,0.12900250063642882,0.1,0.0018050670623779297,0.026782512664794922,0.04993533,1.0368469,-8.939843273101198,-0.1165394795037912,-0.04290092752022619,0.0,0.06318196125581141,58,0.002462148666381836,1.0181787099049724,1.0181787099049724,7858,-13.07076082123772,0.04166666666666667
135,0.8315200805664062,-8.187559661247052,1.2309956181170716,-6.481756942159217,-9.640838974560605,0.25,0.12503405747928048,0.1,0.0018868446350097656,0.027192354202270508,0.049913786,1.5578189,-8.864614911915783,-0.08996999825389151,-0.03274370993791431,0.25,0.0628311331290273,58,0.002493619918823242,1.0216752185631148,1.0216752185631148,7916,-12.862600468472813,0.04166666666666667
136,0.8333048820495605,-7.427093069272338,1.2773643069106058,-5.756718332234849,-9.237219270293975,0.125,0.12433571126421186,0.1,0.0018630027770996094,0.026927947998046875,0.050322507,0.9726913,-8.72086272765144,-0.09137643768949459,-0.03017207143627771,0.125,0.06501273086433904,54,0.002184629440307617,1.023464837530544,1.023464837530544,7970,-12.569076878503315,0.04166666666666667
137,0.8323838710784912,-9.53037352062342,2.2210045124846736,-6.634436038032332,-11.872683041289953,0.0,0.13510833938570435,0.1,0.0019495487213134766,0.02786564826965332,0.05064397,0.99443173,-8.801813806948637,-0.11027510355837152,-0.0414577763070826,0.0,0.06334042008925753,60,0.007615566253662109,1.0184404576590174,1.0184404576590174,8030,-12.179181337503001,0.04166666666666667
138,0.8400108814239502,-8.473861952948624,1.4774574759725716,-6.339824279690306,-10.406674686256197,0.125,0.11908767380340116,0.1,0.0014908313751220703,0.028567790985107422,0.051087692,1.2977476,-8.769018621548636,-0.10365103015285942,-0.03498856322033971,0.125,0.06259856597317422,54,0.002127408981323242,1.021359248069733,1.021359248069733,8084,-12.517047593232418,0.04166666666666667
139,0.9094939231872559,-10.576729317840998,2.43090041136556,-7.341606185485148,-13.391979057596174,0.0,0.13456011504398696,0.1,0.0018463134765625,0.02710700035095215,0.050194252,1.018108,-8.949789691177873,-0.11500182424099033,-0.04502331821743259,0.0,0.06229391952234231,63,0.0020775794982910156,1.0169338072998444,1.0169338072998444,8147,-12.61093307864723,0.04166666666666667
140,0.8237943649291992,-9.520356131959772,0.6176045366200025,-8.718960433457177,-10.183316177832472,0.0,0.12590140725499344,0.1,0.0018031597137451172,0.02666950225830078,0.04948042,1.4710056,-9.006846335256064,-0.11006786601499143,-0.040452794244992527,0.0,0.06372963383930245,59,0.0019774436950683594,1.0190539005720494,1.0190539005720494,8206,-12.602051926243083,0.04166666666666667
141,1.3552005290985107,-8.78242382642221,1.805083453640638,-6.707953832307822,-11.34849311076542,0.0,0.13448223393503816,0.1,0.001539468765258789,0.028186321258544922,0.05000693,0.9571791,-8.98440408437268,-0.10886409636484184,-0.037753425058746806,0.0,0.0639534843024437,56,0.0021131038665771484,1.0206112369253117,1.0206112369253117,8262,-13.225505745870246,0.04166666666666667
142,0.7774882316589355,-9.495594763567606,1.602583748489871,-7.4182691363357245,-11.917832894889163,0.125,0.13083769105172346,0.1,0.0016608238220214844,0.02747631072998047,0.049273342,2.1377058,-9.035523152292173,-0.11318438752914159,-0.03885621485806771,0.125,0.0614706725694952,55,0.0022165775299072266,1.019179564583838,1.019179564583838,8317,-13.017663396281899,0.0
143,0.7524166107177734,-10.47582158752769,0.9460605946140356,-9.487960773443952,-12.006131128114951,0.0,0.13527252904333112,0.1,0.0019268989562988281,0.02685093879699707,0.04944822,1.2927581,-9.179552995815726,-0.12027999669613428,-0.04422024043458932,0.0,0.06348602776793304,59,0.0023233890533447266,1.0177854812549432,1.0177854812549432,8376,-12.740445144425832,0.04166666666666667
144,0.7797608375549316,-8.12329643283498,2.2242515113093453,-5.86847807385813,-11.648060160138561,0.25,0.11580535092849631,0.1,0.0016198158264160156,0.026332378387451172,0.04941205,0.939068,-9.07392733951765,-0.0923800459469777,-0.03242847686714753,0.25,0.06392172495478038,56,0.002164125442504883,1.0205071301146738,1.0205071301146738,8432,-13.290017979855506,0.04166666666666667
145,0.7750244140625,-8.519900735222233,2.3395589719420795,-5.806347086963983,-12.227363770447079,0.125,0.13161602558392976,0.1,0.0019176006317138672,0.02658820152282715,0.050238147,0.83376664,-9.01852467908811,-0.10197104737660767,-0.037948343375441396,0.125,0.060648689252976,59,0.0020570755004882812,1.0206726229137533,1.0206726229137533,8491,-13.244896698792544,0.0
146,0.7809107303619385,-8.622505124714676,1.4387156984796161,-7.357182619061819,-11.029817900551034,0.0,0.12887415907922953,0.1,0.0014374256134033203,0.02533721923828125,0.05087275,1.4013278,-8.978922723650767,-0.10741540177202448,-0.03707729185251061,0.0,0.06293078926252868,55,0.002117633819580078,1.0213511851655377,1.0213511851655377,8546,-13.468206188132015,0.0
147,0.7931990623474121,-9.571303587883005,3.0797343133108113,-4.8944532359767825,-12.689029984154029,0.125,0.13738427069872297,0.1,0.0019097328186035156,0.026819944381713867,0.049577873,0.91957504,-9.03816081007399,-0.10083957820837412,-0.04037303402959649,0.125,0.06379700582184485,64,0.0021224021911621094,1.017933127462691,1.017933127462691,8610,-13.223140629669425,0.0
148,0.8207159042358398,-8.521127409266938,1.573712370257782,-6.787962689103814,-10.184306757990674,0.125,0.1192784696270804,0.1,0.0018811225891113281,0.025522947311401367,0.04906165,1.4061377,-8.986457469993285,-0.0951012256092279,-0.03631600073067417,0.125,0.06372216818296647,63,0.001974821090698242,1.0212621276243063,1.0212621276243063,8673,-11.85493546439605,0.0
149,0.7936508655548096,-8.385896937369234,1.8991141120130377,-6.234839778131055,-11.26057849520587,0.0,0.1290429960277927,0.1,0.0019147396087646484,0.027461528778076172,0.049868587,0.69122493,-8.92640141673088,-0.10562510055057739,-0.03718817645354233,0.0,0.06222704001176186,57,0.002141237258911133,1.0220884968619577,1.0220884968619577,8730,-12.08912713424016,0.04166666666666667
150,0.804469108581543,-9.067267595644115,1.1528221917345856,-7.36777924294874,-10.61246743604362,0.0,0.13098483610571338,0.1,0.0015873908996582031,0.02577376365661621,0.05006457,1.1905838,-8.940488034622204,-0.10608284721887659,-0.03857910656156173,0.0,0.06240536148537859,58,0.002004384994506836,1.0200387610213253,1.0200387610213253,8788,-12.423680889111504,0.0
151,0.8153026103973389,-9.885999434531552,0.3404501510152077,-9.403486747792261,-10.345003976885256,0.0,0.1217321113467691,0.1,0.001909017562866211,0.026050090789794922,0.050000146,1.5281768,-9.035039174613138,-0.11821298267376962,-0.042327981547879416,0.0,0.06461466709583734,58,0.0022215843200683594,1.0190418982304508,1.0190418982304508,8846,-12.553175092865315,0.0
152,0.7931127548217773,-8.923373585004342,0.8643276704691806,-7.9370715739188125,-9.97742995223835,0.125,0.11623856781663772,0.1,0.0020499229431152344,0.027312040328979492,0.04895879,1.8934327,-9.023872615652259,-0.1094139119935296,-0.03776411404605935,0.125,0.06347891354678141,57,0.0019910335540771484,1.0206639210414257,1.0206639210414257,8903,-13.493565374136246,0.04166666666666667
153,0.792412281036377,-8.517004052159585,1.316332865148076,-6.802066286013647,-10.482913183671386,0.0,0.11899869274070292,0.1,0.0013744831085205078,0.024872303009033203,0.050931152,0.96883756,-8.973185759302991,-0.10257118523088454,-0.03617904229952511,0.0,0.0629784247126595,56,0.0019559860229492188,1.0211270684839562,1.0211270684839562,8959,-14.055590867242907,0.0
154,0.7923474311828613,-10.837455318924247,3.651293687394803,-5.842668139990678,-15.837499552502173,0.125,0.12455099924912062,0.1,0.0018262863159179688,0.025794506072998047,0.049720198,1.1779796,-9.159612715265116,-0.12184389570139488,-0.044731113036232485,0.125,0.06152258850159273,57,0.002189159393310547,1.015083669577188,1.015083669577188,9016,-13.412311193621598,0.0
155,0.791374683380127,-8.05061118381036,1.6011374124503348,-5.949239959147317,-9.65815807880747,0.25,0.13409508815055926,0.1,0.0018463134765625,0.02476358413696289,0.05052911,1.1802917,-9.048712562119642,-0.08914952819801009,-0.03403098170625232,0.25,0.06237139780407281,61,0.007310390472412109,1.0224168936280131,1.0224168936280131,9077,-13.29072525091309,0.0
156,0.7969710826873779,-8.188451103245843,2.065886559150795,-4.8256398810201375,-10.276432609071666,0.25,0.11983491009607891,0.1,0.0016086101531982422,0.02420639991760254,0.049547464,1.3056444,-8.962686416232263,-0.09643153649206966,-0.03415972937873029,0.25,0.06313477059169924,56,0.001909017562866211,1.0215499476817143,1.0215499476817143,9133,-13.801196566709017,0.0
157,0.816321849822998,-10.764810895539718,1.4648035635853016,-8.33925201135256,-12.268284700721727,0.125,0.11996825478892507,0.1,0.0018525123596191406,0.039551734924316406,0.049304813,2.6563394,-9.142898864163008,-0.10903667324271357,-0.04371866000917939,0.125,0.06210877261743026,65,0.0020406246185302734,1.0170120895095058,1.0170120895095058,9198,-14.251370157162613,0.0
158,0.7778122425079346,-7.047587011351079,1.0902132041748078,-5.909702278414278,-8.625293043064678,0.0,0.12076849329261904,0.1,0.0019464492797851562,0.02710127830505371,0.050145213,1.3641993,-8.933367678881815,-0.08281380454848897,-0.029828561103231874,0.0,0.06247544272559555,58,0.002045869827270508,1.025777820051003,1.025777820051003,9256,-14.063970665950293,0.0
159,0.7612109184265137,-9.5300306334928,1.179013325622183,-7.865954082157614,-11.188235384262741,0.0,0.13427925664046786,0.1,0.0016591548919677734,0.02661919593811035,0.05028015,1.028077,-8.993033974342914,-0.11080617198802102,-0.04082601425557624,0.0,0.06351739796116221,59,0.0020766258239746094,1.0195543359232835,1.0195543359232835,9315,-12.452989233780992,0.04166666666666667
160,0.7710540294647217,-10.38511179511519,2.445443044044063,-6.886509122240177,-13.772962392428688,0.0,0.13251276348032603,0.1,0.0019254684448242188,0.040152788162231445,0.050473467,1.0245907,-9.132241756420141,-0.10912891649875073,-0.04496648389847381,0.0,0.06483260467681043,66,0.002081632614135742,1.016491560675462,1.016491560675462,9381,-12.41042250081595,0.04166666666666667
161,0.7723760604858398,-8.612472098812358,1.587115526813318,-6.577680047207636,-10.72646177688354,0.125,0.12213865652965059,0.1,0.0013632774353027344,0.02631354331970215,0.050581392,1.4239845,-9.080264790659363,-0.1049055763714978,-0.03561614227012872,0.125,0.06297779074927667,54,0.012192487716674805,1.020599617007943,1.020599617007943,9435,-12.138742901341502,0.04166666666666667
162,0.7787487506866455,-11.8653234664843,1.0834000622273698,-10.306028888632957,-13.32475645350693,0.0,0.12400664146142559,0.1,0.0018475055694580078,0.024118900299072266,0.049864262,1.821466,-9.358770658241857,-0.13397019708877145,-0.05090748942571441,0.0,0.06334182690325002,61,0.0023031234741210938,1.015667078978196,1.015667078978196,9496,-12.574537077769882,0.04166666666666667
163,0.7951498031616211,-9.08338544298371,2.377783755520634,-5.083984803792917,-11.112216006312273,0.125,0.1256979084885041,0.1,0.0015764236450195312,0.02411651611328125,0.049938086,1.2201988,-9.331232136716043,-0.10526452845279027,-0.03656301071780897,0.125,0.06166019294078397,56,0.0019271373748779297,1.0187028850725819,1.0187028850725819,9552,-13.590101032148072,0.04166666666666667
164,0.7913112640380859,-10.913392002299362,1.6010573994439172,-8.810111438231125,-13.311077560765387,0.0,0.13677863630028278,0.1,0.001964569091796875,0.027094364166259766,0.051409524,1.4125535,-9.489448123274375,-0.1199278316747899,-0.047335400647380454,0.0,0.06296416274444101,63,0.002209186553955078,1.0165040395472602,1.0165040395472602,9615,-13.971618860478818,0.04166666666666667
165,0.8184459209442139,-8.978584729003952,1.164838869297038,-7.415905193197497,-10.701912983187633,0.125,0.11918479373127469,0.1,0.0014226436614990234,0.02777838706970215,0.049942248,1.5726376,-9.438361783847334,-0.10502720012820095,-0.036276730509838206,0.125,0.061832441746696595,55,0.0020771026611328125,1.0197482345370845,1.0197482345370845,9670,-14.481509384621162,0.04166666666666667
166,0.821307897567749,-7.958735973292302,1.9858943408409104,-4.773475684057903,-9.961370808448434,0.0,0.12608820093739428,0.1,0.0018095970153808594,0.026642799377441406,0.04821642,0.9124035,-9.29039920279183,-0.08847990641765947,-0.03312263607772494,0.0,0.06342866967755226,59,0.0021605491638183594,1.0219836543489351,1.0219836543489351,9729,-15.448740494903062,0.04166666666666667
167,0.7887568473815918,-8.438537558815415,1.210664274326251,-6.940943930942773,-10.184701495748921,0.125,0.11833119445881209,0.1,0.001827239990234375,0.027068614959716797,0.049576595,2.3036368,-9.20521303839419,-0.0999553421630361,-0.03385113021875594,0.125,0.06305043616875516,55,0.0018787384033203125,1.020388313721347,1.020388313721347,9784,-14.7062885921276,0.04166666666666667
168,0.7950327396392822,-7.67286425804754,1.1633848562145048,-6.44319395822906,-8.877532164282275,0.0,0.11574431103021751,0.1,0.0014233589172363281,0.0271151065826416,0.05001132,1.2129245,-9.051978160359525,-0.09236715626467057,-0.033940773429884406,0.0,0.06323941340044655,59,0.0019736289978027344,1.0245320760941867,1.0245320760941867,9843,-13.40509730961409,0.04166666666666667
169,0.821500301361084,-7.540466125353383,2.6318140780371855,-4.620595585191119,-10.657547725367005,0.125,0.1400391787515757,0.1,0.00194549560546875,0.04038596153259277,0.04985214,0.82541436,-8.90082695685891,-0.0781109732256093,-0.03356137903291763,0.125,0.0640282458861908,69,0.00197601318359375,1.0216960864067652,1.0216960864067652,9912,-12.426466879688006,0.04166666666666667
170,0.8048126697540283,-8.340548328212966,1.8992512557100585,-6.215489045189565,-11.203219217152856,0.125,0.12653208788516368,0.1,0.0013914108276367188,0.025498151779174805,0.04906647,1.0683639,-8.844799093994316,-0.09800280381555086,-0.036041677546933104,0.125,0.060739016829412476,59,0.0018968582153320312,1.0213441926016102,1.0213441926016102,9971,-13.408354053410472,0.04166666666666667
171,0.826488733291626,-9.115457085414183,1.714830188984417,-7.119159811772175,-11.844513922372306,0.0,0.1389411373710968,0.1,0.001903533935546875,0.0397953987121582,0.05059928,0.9872242,-8.871864893136303,-0.09505672019274347,-0.03906820967609732,0.0,0.06386133098701559,68,0.0019605159759521484,1.0201495340075857,1.0201495340075857,10039,-12.244711613249317,0.04166666666666667
172,0.8141865730285645,-10.980667024136613,0.8841141240585518,-10.310485094169637,-12.473677263553164,0.0,0.11082509398843862,0.1,0.0018467903137207031,0.02561783790588379,0.0496678,2.5887232,-9.082745106236334,-0.12530575009418154,-0.04606512064440332,0.0,0.06498035906245733,59,0.006752967834472656,1.0171053551919071,1.0171053551919071,10098,-12.089131359596577,0.04166666666666667
173,0.8302814960479736,-9.537503107865685,2.3927130780685717,-7.207292535236103,-13.425505590468708,0.125,0.1371654153222142,0.1,0.0018546581268310547,0.03982281684875488,0.050426144,0.63912237,-9.128220906399271,-0.09583514345194748,-0.041667543497537124,0.125,0.06732483311033102,69,0.001961231231689453,1.0184617814120052,1.0184617814120052,10167,-11.71677340250161,0.04166666666666667
174,0.7734596729278564,-8.286500332123214,0.4973053885554179,-7.630978597800914,-9.03034874837926,0.0,0.13799461990366427,0.1,0.001779794692993164,0.023848772048950195,0.049785428,1.1065142,-9.044048848971666,-0.10394298760217247,-0.037469166182294844,0.0,0.062164487494213896,58,0.0017497539520263672,1.0236568058967974,1.0236568058967974,10225,-12.210319438034958,0.04166666666666667
175,0.7779614925384521,-10.023966788317262,0.6322287779978519,-9.12617481058419,-10.756743050972204,0.0,0.11985233067350656,0.1,0.0018656253814697266,0.024434804916381836,0.050071403,4.715288,-9.142040642906226,-0.11601335278850165,-0.04112064476908645,0.0,0.06427605711684861,57,0.0044095516204833984,1.0180216163180182,1.0180216163180182,10282,-12.304667336602996,0.04166666666666667
176,0.7781662940979004,-9.004205827716866,1.8187604249374671,-6.314430583132636,-11.340958452018914,0.125,0.11922125178081212,0.1,0.0014731884002685547,0.024740219116210938,0.05043989,1.9404638,-9.12825716138729,-0.11031694380418577,-0.03714660464829324,0.125,0.06495016340205648,54,0.001911163330078125,1.0191606333606142,1.0191606333606142,10336,-13.124754494011341,0.04166666666666667
177,0.794933557510376,-8.464863739373437,1.9422352468523345,-5.887774879052488,-11.23903408670937,0.0,0.1361444009243384,0.1,0.001430511474609375,0.024312973022460938,0.049631424,1.0078477,-9.061917819185906,-0.09317297978364417,-0.033919349660497644,0.0,0.06467038030627,58,0.0018854141235351562,1.0201905387152579,1.0201905387152579,10394,-12.99356390723401,0.04166666666666667
178,0.8409500122070312,-9.894336576971437,1.2025010476234195,-7.879838472347775,-11.060532230119385,0.0,0.12742501267705908,0.1,0.0018737316131591797,0.02672553062438965,0.049298048,1.7325789,-9.145159694964459,-0.10924349151718842,-0.04279813759430453,0.0,0.06565083958550791,63,0.0019245147705078125,1.0181598317490412,1.0181598317490412,10457,-12.436820472894462,0.04166666666666667
179,0.829866886138916,-9.911475843400831,3.282575425108032,-4.716875304101223,-13.689597420743311,0.0,0.13213373470774228,0.1,0.0018265247344970703,0.02472090721130371,0.050317697,1.0618956,-9.221791309808097,-0.1021721992748244,-0.04116419084421552,0.0,0.06384653838032439,63,0.0020847320556640625,1.016892176886689,1.016892176886689,10520,-13.410404588176851,0.04166666666666667
180,0.8386139869689941,-9.086587321628581,2.1337124598066524,-7.725156765517719,-12.774342992287771,0.0,0.12606530481476072,0.1,0.002004384994506836,0.03957629203796387,0.050815593,1.2021085,-9.208270910990144,-0.10108133678288964,-0.04107188926964345,0.0,0.06600704232834155,65,0.001995563507080078,1.0201427140481096,1.0201427140481096,10585,-12.619441422769972,0.04166666666666667
181,0.8369708061218262,-8.853275820727317,0.9919581261668163,-7.246097615969201,-9.817290082033338,0.0,0.11672990768308318,0.1,0.001425027847290039,0.02606654167175293,0.050191563,2.162305,-9.172771401963862,-0.1136979106964521,-0.038264068504775296,0.0,0.06350794442855057,54,0.0018727779388427734,1.0210575503890835,1.0210575503890835,10639,-12.663768218233436,0.04166666666666667
182,0.8687784671783447,-8.932148320508382,1.4134456013298045,-6.652049063530179,-10.521967758517416,0.0,0.1304537776288691,0.1,0.001880645751953125,0.025109529495239258,0.050287377,1.0937722,-9.148709093818313,-0.1033570863484618,-0.03761477712366574,0.0,0.06452439098927905,60,0.001905202865600586,1.0199827999522513,1.0199827999522513,10699,-12.555533892074147,0.04166666666666667
183,0.8666212558746338,-9.885985188960877,2.7165038488842117,-7.002705203985366,-14.314621664794927,0.0,0.1463518115346158,0.1,0.001987457275390625,0.04126858711242676,0.04931534,0.97317946,-9.222436703332571,-0.10018288297278492,-0.0444785918779292,0.0,0.06766036760536005,71,0.002064943313598633,1.0173164003522746,1.0173164003522746,10770,-11.987130311488544,0.0
184,0.8609020709991455,-9.009987578681809,1.675361279171803,-6.903760410868331,-11.279540538799985,0.0,0.12694553953302812,0.1,0.0019676685333251953,0.02769923210144043,0.049998287,1.1649952,-9.201191790867494,-0.10651149513136268,-0.03841504859117632,0.0,0.06560691613927706,57,0.002168416976928711,1.0201322052613513,1.0201322052613513,10827,-13.40185079744811,0.0
185,0.8105373382568359,-9.327748682389924,1.3685753797946383,-8.117654002884162,-11.647586015426418,0.125,0.13240200944555033,0.1,0.0020601749420166016,0.026480913162231445,0.05002667,1.7287694,-9.213847480019737,-0.09728680566131606,-0.03910578040872696,0.125,0.06289432321809735,64,0.001973390579223633,1.0191959993221105,1.0191959993221105,10891,-13.756550058627278,0.0
186,0.8014411926269531,-8.316077117668787,1.372664640125788,-6.331333382443221,-10.061080425479416,0.0,0.13320030649733505,0.1,0.0018227100372314453,0.02556157112121582,0.050434038,0.94364315,-9.124070443784642,-0.09585104307913393,-0.03659564167812518,0.0,0.06396128357513703,61,0.0020949840545654297,1.022786545442554,1.022786545442554,10952,-13.453638403886181,0.0
187,0.8239014148712158,-9.648720654990194,4.3772625570906,-5.4489846478786,-16.094043470429853,0.125,0.13510296527204965,0.1,0.0019297599792480469,0.029583215713500977,0.049371097,0.90702665,-9.176535464905198,-0.10078843536015544,-0.040921731598893854,0.125,0.061749067744742835,63,0.0021560192108154297,1.0158275594836526,1.0158275594836526,11015,-13.358386651417538,0.0
188,0.8151686191558838,-9.052599521014518,2.1731172760727717,-7.2764833758579766,-12.762665649841475,0.125,0.13474812796689511,0.1,0.0019135475158691406,0.040374755859375,0.04913687,0.84550613,-9.16414187051613,-0.10014627565621029,-0.0396032586055009,0.125,0.06190846314645486,65,0.002091646194458008,1.0197161904645677,1.0197161904645677,11080,-12.44178805729038,0.0
189,0.792830228805542,-8.829330502306814,2.9232302353390014,-5.702404243015485,-12.256031980919293,0.125,0.12462493668308365,0.1,0.0018854141235351562,0.026244640350341797,0.050294455,0.83897465,-9.130660733695198,-0.09763407328626394,-0.03578571821675235,0.125,0.06607994389451234,58,0.0023674964904785156,1.0187533563188833,1.0187533563188833,11138,-12.72163258144942,0.0
190,0.7956564426422119,-8.360347172276231,0.8206585984511088,-7.135737646601248,-9.447487158201904,0.0,0.12144086469390736,0.1,0.0013129711151123047,0.027767658233642578,0.04934275,1.556858,-9.053629377553301,-0.10453306000929685,-0.035289761915486134,0.0,0.06468069107166052,54,0.0019419193267822266,1.0218584958010175,1.0218584958010175,11192,-13.947781550788042,0.0
191,0.7817473411560059,-9.066026968143614,1.3157602890447013,-7.427954651366925,-11.063575137201557,0.0,0.1366912452209473,0.1,0.0018188953399658203,0.03870391845703125,0.049759053,1.2072469,-9.054869136612334,-0.09280399647355378,-0.03758150388520978,0.0,0.06292754877782362,65,0.0020787715911865234,1.0198941846967344,1.0198941846967344,11257,-12.785769288338825,0.0
192,0.7909343242645264,-9.681717658150285,2.1624150557436312,-7.342794438633274,-13.149624586902776,0.0,0.12737435713661127,0.1,0.0018002986907958984,0.025224924087524414,0.049905896,2.2715158,-9.11755398876613,-0.11109013289779837,-0.039267414912216116,0.0,0.06376987139103012,56,0.00215911865234375,1.017779052512305,1.017779052512305,11313,-11.63438081125767,0.0
193,0.7917885780334473,-10.342335229437541,2.5119805071003145,-7.4285989760588365,-14.1200218351455,0.0,0.13517990440707442,0.1,0.0017855167388916016,0.024752378463745117,0.049991082,0.9878409,-9.240032112833271,-0.11241619551644157,-0.04290204200784565,0.0,0.06397151270423002,61,0.0015254020690917969,1.0165732810282684,1.0165732810282684,11374,-11.927495305302132,0.0
194,0.8034679889678955,-9.580797446197803,2.1395350618304034,-6.380825564157586,-11.566343517378142,0.0,0.1301251943289746,0.1,0.0018355846405029297,0.02584552764892578,0.0498855,1.0629504,-9.274108646169724,-0.10579315380777055,-0.03848461763763832,0.0,0.06278096302519538,57,0.0021266937255859375,1.0180466466166895,1.0180466466166895,11431,-12.063688497183788,0.0
195,0.8107566833496094,-8.672846162717388,1.137148794266808,-6.87993932426238,-9.824085800110304,0.125,0.13201323010645225,0.1,0.0013315677642822266,0.02477741241455078,0.049962282,0.8619304,-9.213982397824491,-0.09938421333919586,-0.03661335172847303,0.125,0.06257784234062158,59,0.002009868621826172,1.0213630019030853,1.0213630019030853,11490,-12.10113201879568,0.0
196,0.8231186866760254,-10.517378461745356,2.1687254367569957,-8.074064258908596,-12.965797735951478,0.0,0.13559269016754327,0.1,0.0017876625061035156,0.026204824447631836,0.0501249,1.0129447,-9.344322004216579,-0.11915234254407588,-0.04503005604817124,0.0,0.06342638420164574,60,0.002132415771484375,1.0164461196258086,1.0164461196258086,11550,-12.186588226364298,0.0
197,0.8137502670288086,-8.957255079098765,1.122934420585756,-7.109365931583124,-9.89495239682553,0.0,0.11650327499411897,0.1,0.0018100738525390625,0.025871992111206055,0.048940737,2.4022572,-9.305615311704798,-0.10049550824450408,-0.03800738503709022,0.0,0.06522190500072728,61,0.002239227294921875,1.0206306687722635,1.0206306687722635,11611,-11.67286561469595,0.0
198,0.8012435436248779,-8.529204723633473,1.802568341332831,-5.571877488349628,-10.07811432002856,0.0,0.1150695854873664,0.1,0.0013616085052490234,0.025145769119262695,0.048781637,1.704386,-9.227974252897667,-0.10140692536953894,-0.03391162087406633,0.0,0.06519399738124147,53,0.007277488708496094,1.0194847244705711,1.0194847244705711,11664,-11.893036863800598,0.0
199,0.809887170791626,-7.940885890245447,1.4850540289377903,-5.752845999652457,-9.863282268911838,0.125,0.13271739197506796,0.1,0.0018830299377441406,0.025722742080688477,0.05017159,1.437729,-9.099265416632445,-0.08264865899740398,-0.031802552655492755,0.125,0.0612539531433774,61,0.0020618438720703125,1.0216157108425545,1.0216157108425545,11725,-12.070576339526943,0.0
200,0.8138957023620605,-8.919595860837118,1.8804506677999617,-6.077610539953853,-10.852400657611287,0.0,0.14239656835097503,0.1,0.001863241195678711,0.04016566276550293,0.05129664,0.819164,-9.081298461052912,-0.09305957248753523,-0.03853125579643504,0.0,0.06419044993216452,66,0.002163410186767578,1.0194774343531234,1.0194774343531234,11791,-11.462774452791038,0.0
201,0.8016715049743652,-8.8668108184758,1.5949448582511239,-6.297008009312629,-10.356695031681173,0.0,0.13304246077002563,0.1,0.0012090206146240234,0.0250241756439209,0.051273514,0.7209887,-9.059849696795201,-0.10601786509929266,-0.03534705094238454,0.0,0.06529924499898822,54,0.002048492431640625,1.0192800444171617,1.0192800444171617,11845,-11.589739469943424,0.0
202,0.8107399940490723,-10.369749790538606,1.9453665267110087,-8.02226907369269,-13.188529984916865,0.0,0.1266855676859506,0.1,0.0018694400787353516,0.028823375701904297,0.050716612,0.9221681,-9.190839706169543,-0.12115595318380892,-0.043317655635743434,0.0,0.06357762560818842,58,0.002266407012939453,1.0174050682974436,1.0174050682974436,11903,-11.963198230348093,0.0
203,0.8219330310821533,-9.081185154145679,1.6714196207882566,-6.763804456460331,-11.285785022168916,0.0,0.1343353488947304,0.1,0.0019228458404541016,0.025590181350708008,0.049671464,1.0602006,-9.179874250967156,-0.10491413786254922,-0.039331292228957634,0.0,0.0648679735143698,60,0.002240419387817383,1.0202612337175072,1.0202612337175072,11963,-11.579355653930484,0.0
204,0.8093280792236328,-8.050048227090777,1.0589153223569985,-6.966287285656739,-9.596586706067171,0.125,0.1259432992687355,0.1,0.001918792724609375,0.025714397430419922,0.05027723,1.4107003,-9.066891648579519,-0.09043482699225172,-0.033546149059424935,0.125,0.06251327010942044,59,0.0021245479583740234,1.0220407372538034,1.0220407372538034,12022,-11.411199506590863,0.0
205,0.8169426918029785,-9.965286704568967,1.261948913331366,-8.16017364511617,-11.2988407237024,0.0,0.1164255414761839,0.1,0.0019359588623046875,0.027506589889526367,0.05047921,1.1816226,-9.156731154178464,-0.1154366517648902,-0.043558604845789474,0.0,0.06548932972028096,61,0.0023255348205566406,1.019064444682117,1.019064444682117,12083,-11.804106568189164,0.0
206,0.8258252143859863,-8.083784964924382,0.6194065973222138,-7.177081648614047,-8.695992659172687,0.0,0.14835109862805196,0.1,0.0019102096557617188,0.039885520935058594,0.05020118,1.0212505,-9.049436535253056,-0.08402736959647782,-0.03614390901256584,0.0,0.06414137813295254,70,0.0021317005157470703,1.0238143612760893,1.0238143612760893,12153,-11.34947570042374,0.0
207,0.8274714946746826,-9.563038910771365,2.109538667672599,-6.860006688263761,-12.241489571400724,0.0,0.12337036006114144,0.1,0.001844644546508789,0.025933265686035156,0.05067206,0.9205283,-9.100796772804886,-0.10473753255586811,-0.03988260899333465,0.0,0.06128130169744449,60,0.0018889904022216797,1.0177622463859992,1.0177622463859992,12213,-10.879074757385638,0.0
208,0.8139545917510986,-10.282849807132768,0.6103913826604498,-9.2851275796941,-10.790761884516087,0.0,0.1380746443999964,0.1,0.0018475055694580078,0.02516031265258789,0.049776867,1.1430556,-9.219002076237674,-0.11437772506578191,-0.04329241746403681,0.0,0.06339366174414553,61,0.0020897388458251953,1.0182376018813792,1.0182376018813792,12274,-10.440964582855518,0.0
209,0.8164520263671875,-9.722871518765631,1.956192293240343,-7.84066760589465,-12.655182095936375,0.0,0.13228340249438314,0.1,0.0018699169158935547,0.028931617736816406,0.049312137,1.0333757,-9.269389020490468,-0.1096740686446496,-0.03988250884056806,0.0,0.06267345107022876,61,0.0022475719451904297,1.0184384483267606,1.0184384483267606,12335,-10.154714199598143,0.0
210,0.8224506378173828,-9.530849928485658,3.599748378514547,-5.2893607887430285,-14.536841659954701,0.125,0.127025722604817,0.1,0.0013766288757324219,0.026541709899902344,0.050591834,0.8084853,-9.295535111289988,-0.11572714644002993,-0.04106750351823351,0.125,0.06608889054394004,57,0.0020689964294433594,1.0171213666053276,1.0171213666053276,12392,-11.311956538529756,0.04166666666666667
211,0.8135254383087158,-8.058246090225966,0.48453416522348675,-7.2233626543183815,-8.403370488104745,0.0,0.12548146637300714,0.1,0.001922607421875,0.026165008544921875,0.05002037,1.3631891,-9.171806209183586,-0.09694938489474267,-0.03379018736182521,0.0,0.06428948286057885,56,0.002089262008666992,1.0227861283231747,1.0227861283231747,12448,-12.21008401439549,0.04166666666666667
212,0.8066303730010986,-7.468907603771298,1.0024664412823252,-6.789762581549166,-9.193908688378833,0.25,0.11262954978598312,0.1,0.0013430118560791016,0.02435302734375,0.049119823,1.8308814,-9.001516348642358,-0.09069752703702047,-0.0302974450514069,0.25,0.06209495780862579,54,0.003668069839477539,1.022366403716456,1.022366403716456,12502,-12.003574647582367,0.04166666666666667
213,0.7855889797210693,-9.266559812394899,2.166953275459615,-6.9362634605764795,-12.808006351439186,0.125,0.1330623461635322,0.1,0.002023458480834961,0.025015592575073242,0.049878217,0.88072664,-9.028020695017613,-0.10305169632753373,-0.037568300484234374,0.125,0.06050575820100238,59,0.0021076202392578125,1.0187384202904972,1.0187384202904972,12561,-11.750188780804132,0.04166666666666667
214,0.81253981590271,-10.11907435683828,2.8717439780346696,-6.247179008352288,-14.330167670870566,0.125,0.12895084093161568,0.1,0.0018343925476074219,0.0258328914642334,0.05041354,0.975045,-9.13712606119968,-0.10606851677652722,-0.04280859056488673,0.125,0.06427733723027479,64,0.002191781997680664,1.0167552403466458,1.0167552403466458,12625,-11.538145440490318,0.04166666666666667
215,0.8066034317016602,-8.577212571231435,3.1077559670166655,-4.465601144304764,-12.804997394161907,0.25,0.12845426181640837,0.1,0.0014467239379882812,0.025812387466430664,0.04963592,0.9709046,-9.081134712202857,-0.09355020512064996,-0.034266798386237037,0.25,0.06330177390492446,58,0.0021605491638183594,1.018346476874597,1.018346476874597,12683,-12.190801849040467,0.04166666666666667
216,0.7972087860107422,-7.694490424963604,1.7971513218258177,-6.066215287192017,-10.47895774562402,0.0,0.12468769949354983,0.1,0.0018258094787597656,0.024675846099853516,0.049559914,1.0893798,-8.942470283478931,-0.09254843376951147,-0.03256948179357226,0.0,0.06142220244481413,57,0.0022890567779541016,1.023347249856088,1.023347249856088,12740,-11.398156362943043,0.04166666666666667
217,0.8096742630004883,-11.142329999373608,1.5026910755629428,-9.773960476174706,-13.675247791381675,0.0,0.12893395846456904,0.1,0.0018436908721923828,0.025645971298217773,0.049596746,1.2885867,-9.162456255068399,-0.13384957636934994,-0.047053540231449906,0.0,0.06557634026531271,56,0.0019249916076660156,1.01609579915528,1.01609579915528,12796,-11.722285850112307,0.04166666666666667
218,0.8172488212585449,-10.762684095019534,1.7106246332418558,-9.197398129796394,-13.645696481705631,0.125,0.14063563952866814,0.1,0.0018634796142578125,0.039205074310302734,0.050545614,0.66595584,-9.322479039063513,-0.10915668544881987,-0.04800313014655605,0.125,0.06367203295810835,72,0.0021355152130126953,1.0175032226851306,1.0175032226851306,12868,-12.874467741388942,0.04166666666666667
219,0.8047022819519043,-8.837771208962188,0.6264031681276466,-7.98109369983072,-9.7446004955165,0.0,0.12498994665445161,0.1,0.0014786720275878906,0.0269162654876709,0.049318288,2.2951488,-9.274008256053381,-0.10073127842534783,-0.03595520562897637,0.0,0.06385291092686951,57,0.001995086669921875,1.0206253025291223,1.0206253025291223,12925,-12.523560825382404,0.04166666666666667
220,0.8339273929595947,-11.563000492002406,1.9070763286664822,-9.26626828304171,-13.801882477581898,0.0,0.120439936212907,0.1,0.00170135498046875,0.024940967559814453,0.049568765,1.3897129,-9.502907479648284,-0.13223711080796252,-0.049520705262384807,0.0,0.06360001138959935,60,0.0021817684173583984,1.0155971032040034,1.0155971032040034,12985,-12.702849525241087,0.04166666666666667
221,0.8198990821838379,-7.931280638820671,1.1342110176711278,-6.106037977419121,-9.115460833895757,0.125,0.1159160851810442,0.1,0.0018286705017089844,0.026576995849609375,0.050131187,2.364039,-9.345744795565523,-0.09551449732222539,-0.033598668186537534,0.125,0.06471082923962974,57,0.0023200511932373047,1.0233228314987426,1.0233228314987426,13042,-12.530256277469306,0.04166666666666667
222,0.8472380638122559,-9.94505459997309,1.6821420609747622,-7.099621919978016,-11.383611668767262,0.0,0.14284299137679252,0.1,0.0019266605377197266,0.039522409439086914,0.050296675,0.9507927,-9.40567577600628,-0.1044481929390067,-0.0436687871263024,0.0,0.06420063039510175,68,0.0021317005157470703,1.0184438442342996,1.0184438442342996,13110,-12.73596909264702,0.04166666666666667
223,0.8260610103607178,-8.076562937110983,1.9512907650151543,-4.923146408605627,-10.180952943356642,0.0,0.1356628968632864,0.1,0.002228260040283203,0.026925325393676758,0.050424837,0.6654286,-9.27276449211675,-0.0972843086548868,-0.03545186546808535,0.0,0.064366139018357,58,0.002066373825073242,1.0226755483405199,1.0226755483405199,13168,-12.723822100992672,0.04166666666666667
224,0.8376924991607666,-9.686430916810004,2.090668439143059,-7.013959516230785,-12.697438526782815,0.125,0.12861660199989886,0.1,0.0018270015716552734,0.02748727798461914,0.05051168,1.2863555,-9.314131134586075,-0.10535495913909206,-0.039342436176678174,0.125,0.06329185763915514,60,0.0022318363189697266,1.0172905549130895,1.0172905549130895,13228,-12.983659167497057,0.04166666666666667
225,0.7872202396392822,-9.595617193302102,0.21798029460131077,-9.360147423727675,-9.91079955810294,0.125,0.12270164535753601,0.1,0.0013952255249023438,0.026154279708862305,0.048619058,1.941637,-9.342279740457679,-0.1129028891410936,-0.04012758528192582,0.125,0.06399424467328829,57,0.0019407272338867188,1.0190170296597518,1.0190170296597518,13285,-13.205684514223803,0.04166666666666667
226,0.7958335876464844,-6.7980242378079705,1.6379384130628203,-5.164656120529011,-8.698165830158556,0.25,0.12201573497907356,0.1,0.0012805461883544922,0.025484561920166016,0.05055536,1.1634169,-9.087854190192708,-0.07748190186595275,-0.02772252353549999,0.25,0.06323082377671796,57,0.002091646194458008,1.0264316159257925,1.0264316159257925,13342,-12.943717657631126,0.0
227,0.7995755672454834,-8.903624813548461,2.5617078766390473,-4.891215380231305,-11.282534148969342,0.125,0.12747846489189762,0.1,0.001995086669921875,0.025684356689453125,0.049566276,0.8911682,-9.069431252528283,-0.0998081616810834,-0.03713276277832624,0.125,0.06576456688493296,59,0.002218961715698242,1.018717684625789,1.018717684625789,13401,-12.982645171215651,0.0
228,0.8211574554443359,-9.873209016583441,2.4158214710763897,-6.547453721409288,-13.128476861209462,0.125,0.13448548715523181,0.1,0.0019109249114990234,0.03969001770019531,0.050050408,1.0565639,-9.149809028933799,-0.10077620342814032,-0.04308501150542832,0.125,0.0638180314730404,67,0.00226593017578125,1.0178645871322727,1.0178645871322727,13468,-12.65543933374565,0.04166666666666667
229,0.8016753196716309,-7.065744229345693,1.256975759192159,-5.150889049594953,-8.63766219423352,0.125,0.12078312712638331,0.1,0.0019407272338867188,0.030529022216796875,0.049571697,1.8835638,-8.941402548974988,-0.0798924373822471,-0.029327715657680112,0.125,0.06689197184272085,59,0.0025322437286376953,1.024520077730751,1.024520077730751,13527,-12.674624605599313,0.04166666666666667
230,0.8000302314758301,-8.70776728137554,1.1212179969479712,-7.520445423322334,-10.544593091047696,0.125,0.13433855100520273,0.1,0.001873016357421875,0.04037785530090332,0.049991734,1.0988134,-8.918039022215044,-0.09479781946650784,-0.0375272367863095,0.125,0.06620291012676477,65,0.0022478103637695312,1.0214960325069697,1.0214960325069697,13592,-12.197690296915239,0.04166666666666667
231,0.8038523197174072,-9.962806766614483,1.5727219157901973,-7.966309523485565,-12.009428505501813,0.125,0.12634771248429122,0.1,0.0019838809967041016,0.025340557098388672,0.049391586,1.9331964,-9.02251579665499,-0.10232070480217814,-0.039556174514420166,0.125,0.062421411529462074,63,0.0023136138916015625,1.0174805799750453,1.0174805799750453,13655,-11.792130953353992,0.04166666666666667
232,0.8015799522399902,-8.128118976915705,1.1609122841239743,-6.927573083909276,-9.815312542242467,0.125,0.13345578688514198,0.1,0.0018613338470458984,0.024441957473754883,0.049583457,1.152643,-8.93307611468106,-0.09055537674115091,-0.03384116148406368,0.125,0.06533372629866209,60,0.002306222915649414,1.0223736853353083,1.0223736853353083,13715,-11.871444982266828,0.04166666666666667
233,0.8068788051605225,-9.638800596193523,1.5959007624965695,-8.112372176924621,-12.22581632401917,0.0,0.12685904846955437,0.1,0.0017707347869873047,0.023778200149536133,0.0498569,1.1286473,-9.003648562832307,-0.1135627853808616,-0.043171956966363036,0.0,0.06424468406286953,61,0.0022678375244140625,1.0190231439969073,1.0190231439969073,13776,-11.833267393644547,0.04166666666666667
234,0.8353312015533447,-11.050919699130503,1.5058421474947574,-9.374076396084053,-13.426339066649671,0.0,0.12965047765093116,0.1,0.0018427371978759766,0.026511430740356445,0.049314987,1.6711816,-9.208375676462127,-0.12130046678636666,-0.04780763253847228,0.0,0.06291965022112662,63,0.0021889209747314453,1.016975404696187,1.016975404696187,13839,-11.814334080537401,0.0
235,0.8054420948028564,-7.497624446485693,0.8296669263045854,-6.49509906156621,-8.788797268094685,0.125,0.12637832720079714,0.1,0.0013964176177978516,0.024842500686645508,0.049289506,1.561101,-9.037300553464483,-0.08458727645937064,-0.030775970056020917,0.125,0.06305731118894661,58,0.0020384788513183594,1.0237738929129756,1.0237738929129756,13897,-12.140145524434642,0.04166666666666667
236,0.8007254600524902,-9.815175100353677,1.3607872681958233,-7.8460607137878124,-11.124871383463425,0.125,0.12596863565455205,0.1,0.0017969608306884766,0.027306318283081055,0.04995265,1.3432215,-9.115088008153402,-0.1058288012313368,-0.041309518093218325,0.125,0.06461037125943202,62,0.0022499561309814453,1.019016671007963,1.019016671007963,13959,-12.03303192244006,0.0
237,0.8060452938079834,-8.957609866481278,1.7124892647741805,-6.056763481111088,-10.369376428888632,0.0,0.12874799589950117,0.1,0.0018432140350341797,0.025634050369262695,0.049052022,1.2152771,-9.099340193986189,-0.10304690945310163,-0.036960746825788336,0.0,0.06481074359456154,57,0.002122640609741211,1.0194048451696591,1.0194048451696591,14016,-11.444144132192806,0.0
238,0.8064665794372559,-8.407126949380153,2.5951674392116977,-6.1605540885022725,-12.657316830313224,0.25,0.1386097670865948,0.1,0.0018146038055419922,0.039232730865478516,0.050540954,0.7508643,-9.030118869525584,-0.08814433829457867,-0.0364922150608927,0.25,0.06407076881007587,65,0.0021376609802246094,1.0192943570919981,1.0192943570919981,14081,-11.365418532081828,0.0
239,0.9070167541503906,-8.504439875966428,2.4542934887229406,-6.171407340141771,-12.427418329952827,0.0,0.14110428114282483,0.1,0.00194549560546875,0.028104305267333984,0.04851878,0.78696746,-8.977550970169668,-0.09641225126249539,-0.038748796440329705,0.0,0.06752963163215246,63,0.002193450927734375,1.0210816593699772,1.0210816593699772,14144,-12.324849550601229,0.0
240,0.9297258853912354,-8.527588818393976,1.262250933198724,-6.687892223705248,-10.096019893947748,0.0,0.13589210074405914,0.1,0.0018229484558105469,0.04029130935668945,0.048984088,1.3486767,-8.932554754992099,-0.09111831411815227,-0.03593133856920096,0.0,0.06686365469378922,65,0.0021827220916748047,1.021099242454261,1.021099242454261,14209,-12.003691974203946,0.0
241,0.8689954280853271,-9.312866550393252,2.897110949044794,-4.4912238901671095,-12.222131711690295,0.125,0.13059243941806178,0.1,0.0018649101257324219,0.030173301696777344,0.04942374,1.5513865,-8.970585934532215,-0.10674558547865352,-0.03951569660533652,0.125,0.06384718868671405,59,0.0022165775299072266,1.0178368451497914,1.0178368451497914,14268,-12.238319810652676,0.0
242,0.9042346477508545,-8.552512212973518,2.3019891690618137,-6.949178178251344,-12.507176038866175,0.125,0.14877545288669977,0.1,0.002047300338745117,0.03009939193725586,0.04986848,0.67809963,-8.928778562376344,-0.08826891552961809,-0.034411052627084486,0.125,0.06467928436311274,63,0.0023043155670166016,1.0201229449197875,1.0201229449197875,14331,-11.693654069999411,0.0
243,0.786989688873291,-9.922765168232951,1.6752378365031109,-8.415506551696026,-12.673031687874245,0.0,0.12517724280752268,0.1,0.00196075439453125,0.029962778091430664,0.049124572,1.6336886,-9.028177222962006,-0.12070025746754412,-0.04325741031928823,0.0,0.06223161174325166,57,0.009385824203491211,1.018359154593788,1.018359154593788,14388,-12.235949659845554,0.0
244,0.7994129657745361,-8.93170640023075,1.4355727742139657,-6.642658013045102,-10.573014120842803,0.0,0.11573191727680024,0.1,0.0014462471008300781,0.028378009796142578,0.050023157,1.632433,-9.018530140688881,-0.10674059176992938,-0.0356531057123616,0.0,0.06548633227477722,54,0.0021178722381591797,1.0197914461006572,1.0197914461006572,14442,-11.725541236291912,0.0
245,0.8063113689422607,-8.80037099555184,1.1840074349255445,-7.2456964018685746,-9.978959082541358,0.125,0.12841758462683614,0.1,0.0018758773803710938,0.027477502822875977,0.049876932,1.1894518,-8.996714226175177,-0.10513140784044855,-0.03800382209662243,0.125,0.06559625018915671,59,0.0025463104248046875,1.0205820843815492,1.0205820843815492,14501,-11.898308035818856,0.0
246,0.8269069194793701,-11.910958979763102,5.660568046377872,-7.289948854867644,-21.463938022275887,0.0,0.1354491370476828,0.1,0.001949310302734375,0.0420076847076416,0.050289247,0.5595896,-9.28813870153397,-0.11797034878926459,-0.052129590297519166,0.0,0.06628244299658209,73,0.002353668212890625,1.0127359375361535,1.0127359375361535,14574,-11.56493405832201,0.0
247,0.8136460781097412,-8.553972655356741,2.062744378788036,-5.843389148529397,-11.128098935279782,0.125,0.13892615018920268,0.1,0.001905202865600586,0.03009939193725586,0.05070347,0.8300794,-9.214722096916248,-0.09680910689209235,-0.03604024759821706,0.125,0.0638285433504065,60,0.002118349075317383,1.0203681289841786,1.0203681289841786,14634,-11.689399211804878,0.0
248,0.8108639717102051,-8.507759032425618,1.7673608393566578,-6.594983133249606,-10.648756246801895,0.0,0.12808478917413654,0.1,0.0019605159759521484,0.028875350952148438,0.049931146,1.3603289,-9.144025790467186,-0.09704415336944128,-0.03414805569339795,0.0,0.0648352768234978,56,0.0022745132446289062,1.019499515353493,1.019499515353493,14690,-12.110691168576714,0.0
249,0.7949340343475342,-10.176271563741121,1.2413762218371698,-8.473465812531169,-11.9045130597363,0.0,0.13182646667639566,0.1,0.0018770694732666016,0.04047417640686035,0.05049752,1.1429564,-9.24725036779458,-0.10923142246428609,-0.0458457829485793,0.0,0.0660180052713951,67,0.002328634262084961,1.018175266788638,1.018175266788638,14757,-12.41453126183739,0.0
250,0.8007090091705322,-8.752602698245598,1.660151284612932,-7.733696059630315,-11.627043210402658,0.0,0.126142825471391,0.1,0.0018744468688964844,0.028153419494628906,0.05021514,1.1778722,-9.197785600839682,-0.09938042964323632,-0.03698534388734124,0.0,0.06426568600877858,59,0.002141237258911133,1.0203652439135313,1.0203652439135313,14816,-12.288369626427333,0.0
251,0.8027498722076416,-9.174351744555114,1.4872988519450527,-7.610597011431867,-11.603826351875124,0.25,0.12772600726782538,0.1,0.0018401145935058594,0.026827096939086914,0.04971047,2.5674381,-9.195442215211225,-0.09879236829837898,-0.03823736027299173,0.25,0.06464732943661719,63,0.0022971630096435547,1.0195269263286046,1.0195269263286046,14879,-12.101491343791151,0.0
252,0.8097739219665527,-9.163055090694943,0.5890721188161966,-8.331624097651837,-9.997139533887117,0.0,0.12934914449374316,0.1,0.001804351806640625,0.026468992233276367,0.049546413,1.2412773,-9.192203502759597,-0.10742011324364241,-0.03885280132327117,0.0,0.0628838016642389,58,0.0054738521575927734,1.020838036216914,1.020838036216914,14937,-11.849225539177072,0.0
253,0.8577806949615479,-7.689005629243746,0.9764433813277364,-6.30483000394082,-9.066538533475548,0.0,0.12126109772271673,0.1,0.001800537109375,0.027697324752807617,0.04900503,2.0205572,-9.041883715408012,-0.08719320921903054,-0.03337397594793482,0.0,0.06353601975892778,61,0.002330780029296875,1.0248294247747145,1.0248294247747145,14998,-12.328538245917192,0.0
254,0.8246190547943115,-6.5216893820840784,1.0606890226605468,-5.453446328533165,-8.251194821454593,0.25,0.12804032404702387,0.1,0.0017406940460205078,0.025892257690429688,0.04961414,3.2792063,-8.78986428207562,-0.07067988313520214,-0.02707685125287284,0.25,0.06547689516250484,62,0.0022187232971191406,1.027891164031147,1.027891164031147,15060,-12.30989374279896,0.0
255,0.8417398929595947,-10.887524671920195,1.9750358207442646,-8.915772820481973,-13.157387630775084,0.0,0.12084326818128524,0.1,0.0017986297607421875,0.027127981185913086,0.049793232,1.6180145,-8.999630321060076,-0.11993014888456238,-0.044474928047611335,0.0,0.06577844207419428,60,0.0021665096282958984,1.0162199403883907,1.0162199403883907,15120,-12.259590559487547,0.0
256,0.8446457386016846,-9.490702998989155,1.3882102932761202,-7.436861292019689,-11.337896868790693,0.0,0.12517041574995064,0.1,0.0019338130950927734,0.027278661727905273,0.04945723,1.3838298,-9.048737588852983,-0.10423788589675026,-0.04002302076528891,0.0,0.06640253697646108,63,0.002206563949584961,1.0193648312299066,1.0193648312299066,15183,-11.6084485752315,0.0
257,0.8655335903167725,-9.110832704853236,3.8442503901718204,-6.247222641510397,-15.625234846371432,0.125,0.12420598854418458,0.1,0.0019526481628417969,0.04133868217468262,0.050349146,0.7843038,-9.05494710045301,-0.0898822122361105,-0.0403904304761694,0.125,0.06608859538352006,70,0.0021698474884033203,1.0175776908393264,1.0175776908393264,15253,-11.834602465099472,0.0
258,0.840019941329956,-9.052882670785714,2.397740392487694,-5.364014405363854,-11.732432969514472,0.125,0.12689216031342307,0.1,0.001863241195678711,0.02668452262878418,0.05048092,1.1964228,-9.054740657486281,-0.0957035476267549,-0.036703718729018724,0.125,0.06502893266598653,61,0.0022394657135009766,1.0187995586514706,1.0187995586514706,15314,-12.018440888083406,0.0
259,0.8451352119445801,-11.128284967301703,2.55010092470355,-6.8289626647965,-13.464194140490594,0.0,0.13611024642929104,0.1,0.0018765926361083984,0.02771449089050293,0.050386455,0.772658,-9.262095088467824,-0.11849393024599497,-0.046492311687712805,0.0,0.0667524996769796,64,0.002257823944091797,1.0152533870604534,1.0152533870604534,15378,-11.791657341811375,0.0
260,0.7976255416870117,-7.615761821009068,1.4486507555683146,-5.15971921800041,-8.906956673368732,0.125,0.144917838675805,0.1,0.0019512176513671875,0.026895999908447266,0.050479602,0.8206581,-9.097461761721949,-0.09203413978399516,-0.03282862667642664,0.125,0.06484724454494595,58,0.002280712127685547,1.0243532959218935,1.0243532959218935,15436,-11.636639176435716,0.0
261,0.802642822265625,-10.06883131416334,2.2108487452665653,-6.98080606941124,-12.750016154627355,0.125,0.13467171949961887,0.1,0.0019724369049072266,0.027721643447875977,0.049970593,1.346574,-9.194598716966087,-0.11210037710738968,-0.04161339539508295,0.125,0.06649607768765321,60,0.0032651424407958984,1.01677080149941,1.01677080149941,15496,-10.966602660071878,0.0
262,0.7915172576904297,-7.270806816351807,2.4633291673101785,-4.531668337525981,-11.252465432767654,0.25,0.12965913492075293,0.1,0.0014629364013671875,0.025855541229248047,0.050128244,1.0258762,-9.00221952690466,-0.08384561705357824,-0.03047779337693885,0.25,0.06841121958141225,58,0.002058744430541992,1.022575885126162,1.022575885126162,15554,-11.062953997884463,0.0
263,0.7862353324890137,-8.087664594835225,1.9184834745441397,-5.91251801240746,-10.443373308985194,0.0,0.13142829910896792,0.1,0.001434326171875,0.02718973159790039,0.04997799,0.8494067,-8.910764033697717,-0.092477136120109,-0.03330730996626067,0.0,0.06804080753074782,57,0.0021469593048095703,1.0214771112883525,1.0214771112883525,15611,-10.878912283008136,0.04166666666666667
264,0.8002159595489502,-9.352788071607243,2.650351729851093,-4.91998663995047,-11.86343401015052,0.125,0.1294502396894374,0.1,0.0018703937530517578,0.02776050567626953,0.04929138,1.1558315,-8.95496643748867,-0.10549853930608652,-0.0387576138948836,0.125,0.06566774254794468,59,0.0022153854370117188,1.0179407501053335,1.0179407501053335,15670,-10.325650198487898,0.0
265,0.8455865383148193,-9.609136390398215,5.309623049909169,-4.787805026602856,-18.398171991471926,0.25,0.12883155877172103,0.1,0.001974344253540039,0.028466463088989258,0.05105352,0.6696191,-9.020383432779624,-0.09635469151766994,-0.040695605445820585,0.25,0.06595743134289932,64,0.0023849010467529297,1.0141298420387488,1.0141298420387488,15734,-11.296399948358763,0.0
266,0.8133854866027832,-9.712384363618344,0.602903307579346,-8.722662730014482,-10.295322393271364,0.0,0.1285250176216982,0.1,0.0019345283508300781,0.04039907455444336,0.049729668,1.4708811,-9.089583525863498,-0.10676881296016792,-0.04401484201227427,0.0,0.0677547884100629,66,0.0023756027221679688,1.0197443066855965,1.0197443066855965,15800,-10.976606910781404,0.0
267,0.8497495651245117,-7.7083485117564035,1.1349474447580004,-6.084870146436911,-8.857179968031838,0.0,0.1501608493620288,0.1,0.0018315315246582031,0.027631521224975586,0.05035669,0.90922666,-8.951460024452789,-0.08643197982031507,-0.033695468992444036,0.0,0.0656231413409078,62,0.0025968551635742188,1.0236975452026393,1.0236975452026393,15862,-10.881990469974058,0.0
268,0.8441548347473145,-6.995573014518836,0.5077972982266008,-6.4457488301076165,-7.549826359211184,0.25,0.1208331087394843,0.1,0.0014348030090332031,0.027810335159301758,0.050225206,1.6431996,-8.755871323459395,-0.08012534304787117,-0.02747961552055985,0.25,0.06500678572217909,55,0.002179861068725586,1.0248700818024066,1.0248700818024066,15917,-10.660829997707383,0.04166666666666667
269,0.8393657207489014,-7.961957278169585,1.1832267578354785,-6.691997612890997,-9.901722659655261,0.125,0.12749552807665704,0.1,0.0019168853759765625,0.024905681610107422,0.050043818,1.2258947,-8.676479918930415,-0.09169778270353202,-0.03360928715791902,0.125,0.06579563861999645,59,0.0022916793823242188,1.02297144090415,1.02297144090415,15976,-10.307402440157373,0.04166666666666667
270,0.8587517738342285,-7.702721533596062,1.5234089907793136,-5.971365331488666,-9.52143587708851,0.0,0.13586047341312107,0.1,0.001397848129272461,0.026711463928222656,0.050082684,1.0164446,-8.57910408039698,-0.08975118361931264,-0.031855816225480546,0.0,0.06591936656168922,57,0.0020041465759277344,1.023165176336711,1.023165176336711,16033,-9.987234217968249,0.04166666666666667
271,0.8284938335418701,-8.173938040363089,1.0044538165397061,-6.572954829489776,-9.235744518746733,0.0,0.11970508429471734,0.1,0.001825571060180664,0.024968862533569336,0.04955914,1.4668454,-8.538587476393593,-0.09603903582293506,-0.034318806052009876,0.0,0.06751852595380467,58,0.002101898193359375,1.021770962335114,1.021770962335114,16091,-10.064874602577268,0.04166666666666667
272,0.8452837467193604,-8.586484075356775,2.122004350983096,-5.376705079727824,-10.572064853489156,0.125,0.14458970194892057,0.1,0.0018928050994873047,0.024670124053955078,0.05007286,0.8080792,-8.54337713628991,-0.09521799983800742,-0.03778279978825892,0.125,0.06898381830138772,63,0.0056231021881103516,1.0207449249087248,1.0207449249087248,16154,-9.764711982798312,0.04166666666666667
273,1.2583560943603516,-8.686678140439358,2.0280241512175676,-5.650850150233642,-10.879303136899196,0.0,0.13784354789365355,0.1,10.664293766021729,0.08680009841918945,0.050284397,0.8034488,-8.557707236704855,-0.10105662174939663,-0.036644273297190395,0.0,0.06984308339683681,58,0.011142730712890625,1.020317773704621,1.020317773704621,16212,-10.141161412772258,0.04166666666666667
274,0.9503259658813477,-6.87311029764704,2.2199436364382925,-4.869143259009957,-10.634093172233307,0.0,0.12380649108010615,0.1,0.0018107891082763672,0.02830815315246582,0.050372075,0.67982507,-8.389247542799074,-0.07678704358993013,-0.029093866269248127,0.0,0.07249272186123222,60,0.002231597900390625,1.024059790556836,1.024059790556836,16272,-10.117453694089596,0.04166666666666667
275,0.862952709197998,-7.341794426721074,2.380329635525508,-4.289975157479727,-10.533940849029857,0.125,0.11852039597637895,0.1,0.0015463829040527344,0.02923417091369629,0.050198387,0.7987913,-8.284502231191274,-0.08879136304529132,-0.030646384760776434,0.125,0.0680013724784705,56,0.002192974090576172,1.0232148407103816,1.0232148407103816,16328,-9.971536484966679,0.04166666666666667
276,0.8950810432434082,-8.194295978902456,1.9398533761862713,-5.942771780466038,-10.93959944429144,0.125,0.13176066667324643,0.1,0.0014157295227050781,0.028533220291137695,0.050104592,0.86373436,-8.275481605962392,-0.10092280192817123,-0.03536452615945158,0.125,0.0655157305589352,56,0.002197742462158203,1.0210532668399595,1.0210532668399595,16384,-10.353645682770543,0.04166666666666667
277,0.8472058773040771,-7.233297504692793,1.9001506105471881,-4.907605161008204,-9.569431713898885,0.25,0.13572300678040858,0.1,0.0016040802001953125,0.030683517456054688,0.04997429,0.7261246,-8.171263195835433,-0.084832115398592,-0.03069171508225177,0.25,0.06530252956337058,58,0.0022721290588378906,1.0241786944824671,1.0241786944824671,16442,-10.616363468302607,0.0
278,0.8551242351531982,-9.76254994644036,2.5840187645570665,-5.383897838008897,-12.050402267281868,0.125,0.12807483557813967,0.1,0.0019669532775878906,0.02971816062927246,0.050247483,0.98022294,-8.330391870895927,-0.10460728139056301,-0.04251804070400216,0.125,0.06898584811895993,64,0.002360820770263672,1.018404525002608,1.018404525002608,16506,-10.206710332600128,0.04166666666666667
279,0.8191812038421631,-8.837795155830122,1.2806440010037503,-7.1656343054589495,-10.76902532875058,0.0,0.1244875410106578,0.1,0.0019197463989257812,0.03132033348083496,0.049975745,1.6791537,-8.381132199389347,-0.10938972862832796,-0.039178423554966396,0.0,0.0709321286799536,58,0.0020294189453125,1.0211935094737765,1.0211935094737765,16564,-9.89944199610205,0.04166666666666667
280,0.8393871784210205,-8.258287733503028,1.052323701144386,-6.597663305819829,-9.470277651421977,0.125,0.13299449960593832,0.1,0.0019407272338867188,0.028235912322998047,0.049369123,1.4316502,-8.368847752800715,-0.0897511568917121,-0.034410318234991834,0.125,0.06702474335069135,61,0.0022292137145996094,1.0215395803237444,1.0215395803237444,16625,-10.036231559690467,0.0
281,0.8240807056427002,-10.013866047954517,1.532525467206402,-7.43647160719296,-11.464440204001608,0.0,0.13012951793136804,0.1,0.0018870830535888672,0.027617931365966797,0.050163563,1.2834077,-8.533349582316095,-0.11453895363661389,-0.04424343198834181,0.0,0.06544912392573023,62,0.002317190170288086,1.0188765663048969,1.0188765663048969,16687,-10.09952012994062,0.0
282,0.8296215534210205,-7.091843010621675,2.1697928134550954,-5.136504383506322,-10.410294432204982,0.0,0.13546681398764193,0.1,0.0018508434295654297,0.028395652770996094,0.049973197,0.66867876,-8.389198925146653,-0.08153641372812445,-0.031370948932647164,0.0,0.06778948517751891,61,0.0021343231201171875,1.0242460009474357,1.0242460009474357,16748,-9.886033826391438,0.0
283,0.8248229026794434,-8.627635397289202,1.5926660621773483,-6.793702099774739,-10.439170226993621,0.125,0.13509888513702784,0.1,0.0018334388732910156,0.029108762741088867,0.050950143,0.81513494,-8.413042572360908,-0.09700883672377611,-0.03544855487710987,0.125,0.06858532269421266,60,0.0024251937866210938,1.0203221703742744,1.0203221703742744,16808,-10.219219556563205,0.04166666666666667
284,0.8423318862915039,-8.883396060723847,2.357086987809315,-6.39443573546818,-12.315310244074723,0.0,0.13651257893178578,0.1,0.001917123794555664,0.027437686920166016,0.050085753,0.9401276,-8.460077921197202,-0.09818544052260864,-0.03880958652290277,0.0,0.067640860762229,64,0.002433300018310547,1.0198393536832193,1.0198393536832193,16872,-10.222640083526024,0.0
285,0.871326208114624,-8.202899772921137,2.233285547303111,-4.419273524529981,-9.972455278791173,0.125,0.1346358215548515,0.1,0.0019288063049316406,0.040935516357421875,0.050074197,0.90665895,-8.434360106369596,-0.08781419658948296,-0.03548454507413153,0.125,0.06871086835572057,65,0.0022385120391845703,1.0213428822296786,1.0213428822296786,16937,-10.028302938585835,0.0
286,0.8166494369506836,-7.223291477241144,0.6069665680003102,-6.552502903102484,-7.930735828664921,0.0,0.11262935221462259,0.1,0.0017845630645751953,0.026764869689941406,0.04964803,2.3547947,-8.313253243456751,-0.08642157742183929,-0.03115368264257475,0.0,0.06795545590615278,58,0.0018935203552246094,1.0255339574917939,1.0255339574917939,16995,-10.346215362480455,0.0
287,0.8636043071746826,-11.008611745390203,1.7030994930085581,-9.13365562942071,-13.082644503287291,0.0,0.13951718931392587,0.1,0.0018486976623535156,0.03969240188598633,0.048888717,1.0481509,-8.582789093650096,-0.11845271887890461,-0.04834961126163006,0.0,0.06962558175568376,65,0.0020503997802734375,1.0166563101842667,1.0166563101842667,17060,-10.537279996661493,0.0
288,0.8562192916870117,-7.212288754716336,1.4490827749471955,-5.57709089446791,-8.775550035202567,0.125,0.13432929787797507,0.1,0.0012989044189453125,0.02509307861328125,0.049784664,0.77013284,-8.44573905975672,-0.08312638359081001,-0.030143223699684772,0.125,0.06663488994772013,58,0.002071380615234375,1.0247897370309929,1.0247897370309929,17118,-10.170382836741238,0.0
289,0.8492786884307861,-8.849886674113446,3.9419305998431002,-4.650220657151062,-13.432263512907701,0.125,0.12326179218090329,0.1,0.001497030258178711,0.027176856994628906,0.04989196,0.7744436,-8.486153821192392,-0.10408481148489093,-0.03781149244105234,0.125,0.06736547926959335,57,0.002009868621826172,1.0171357322189543,1.0171357322189543,17175,-10.410190832992633,0.0
290,0.8690850734710693,-9.353139254219908,1.3030637656832038,-8.003867567411127,-10.995935796261488,0.0,0.12716306565682264,0.1,0.0018734931945800781,0.02680063247680664,0.048345853,1.2167544,-8.572852364495144,-0.10059457645169681,-0.0403281214100962,0.0,0.06925668215214213,64,0.002295970916748047,1.019164806424159,1.019164806424159,17239,-10.561090199560583,0.0
291,0.9086449146270752,-10.385930412560619,2.8143175628004156,-7.751456470056773,-14.660235928222821,0.0,0.1610834205044605,0.1,0.0018439292907714844,0.04031944274902344,0.05030705,0.8037135,-8.754160169301691,-0.09809545176268546,-0.048853937125163796,0.0,0.07136688144063764,81,0.002400636672973633,1.0164637153889964,1.0164637153889964,17320,-10.653696505188321,0.0
292,0.8054490089416504,-9.032002094499319,0.8678417434188942,-8.282535733385888,-10.489887346476173,0.0,0.13901161141216553,0.1,0.0020389556884765625,0.027430057525634766,0.049668718,1.0944214,-8.781944361821454,-0.10407964553615945,-0.04008625012767939,0.0,0.06724351911660409,62,0.002434253692626953,1.021361017456739,1.021361017456739,17382,-10.51918957326855,0.0
293,0.8050422668457031,-9.495587559121725,1.25622436383284,-8.000407786492314,-11.451825069878831,0.0,0.11864589947795759,0.1,0.0019893646240234375,0.027853727340698242,0.050549325,1.8471802,-8.853308681551482,-0.11130656901812264,-0.03874269978970822,0.0,0.06734362132821148,57,0.0022134780883789062,1.01916262860487,1.01916262860487,17439,-10.378711674808889,0.0
294,1.1510062217712402,-9.796001666803203,1.4124871432475314,-8.427448263347829,-11.866411612033827,0.0,0.13174645642726152,0.1,0.002212047576904297,0.029632091522216797,0.049615383,1.2923766,-8.947577980076654,-0.11002531443412529,-0.04189599441049448,0.0,0.06980129134922287,61,0.038197994232177734,1.018757634997528,1.018757634997528,17500,-10.341051069964768,0.0
295,0.8760716915130615,-7.114568483611663,1.1948150582764343,-5.414545252015393,-8.582701262476235,0.0,0.11764232742463318,0.1,0.0019116401672363281,0.02920389175415039,0.05045573,1.1776593,-8.764277030430154,-0.09281070531915414,-0.030808044745927035,0.0,0.06907969382526928,54,0.03782010078430176,1.0263404038243344,1.0263404038243344,17554,-10.061858023056237,0.0
296,0.8863341808319092,-11.433675215997441,1.5954060436778335,-9.276125600080618,-12.97361535744452,0.0,0.13008081696026566,0.1,0.0019309520721435547,0.04042840003967285,0.050415166,1.5174046,-9.031216848986883,-0.11931421485305349,-0.04914991672151996,0.0,0.06468157394544413,66,0.0020546913146972656,1.0161135004492934,1.0161135004492934,17620,-10.16736233603499,0.0
297,0.864501953125,-13.627957871185824,0.709119095700069,-12.788100576002524,-14.632703981088428,0.125,0.14473259691775936,0.1,0.0020143985748291016,0.04092860221862793,0.049393654,1.477164,-9.490890951206778,-0.13044708811454472,-0.0594682138442857,0.125,0.07184226728073974,74,0.002216815948486328,1.0134771731983172,1.0134771731983172,17694,-10.286865344489074,0.0
298,0.8445188999176025,-8.407892040093351,1.9110764182258486,-5.894878699575071,-10.74605419222652,0.125,0.13058923229858874,0.1,0.0019037723541259766,0.027337312698364258,0.050079353,0.9294675,-9.382591060095434,-0.09942079019914601,-0.036561132641184456,0.125,0.0659276090957373,59,0.0020532608032226562,1.0213854185980307,1.0213854185980307,17753,-13.004415404661861,0.0
299,0.855942964553833,-9.706209503170736,1.5875043753517561,-7.583849233039133,-11.28945279871097,0.0,0.1306439290256131,0.1,0.0019259452819824219,0.02724146842956543,0.049761903,1.453869,-9.414952904402965,-0.1069068298981368,-0.04207621720845993,0.0,0.06790080312220244,63,0.0022270679473876953,1.018767890443275,1.018767890443275,17816,-10.082424153767517,0.0
300,0.8216538429260254,-6.705937648080263,1.478706160048985,-4.689883611144947,-8.385571679641043,0.0,0.12641227280706432,0.1,0.0014863014221191406,0.027162551879882812,0.050356835,1.1067108,-9.144051378770696,-0.09029047672305877,-0.02884133009852735,0.0,0.0657815185412255,51,0.0020437240600585938,1.0262735285209277,1.0262735285209277,17867,-10.512413903551035,0.0
301,0.8599050045013428,-8.631101929110995,1.8180312480831848,-6.515699436500195,-11.118296293441018,0.0,0.12695130018835493,0.1,0.0018091201782226562,0.039940595626831055,0.049957193,0.84556,-9.092756433804725,-0.09280999292075356,-0.0379584966076962,0.0,0.06974129375906823,68,0.0021224021911621094,1.0215327462103778,1.0215327462103778,17935,-10.174571510616836,0.0
302,0.8588211536407471,-7.965625311989637,2.324005970343463,-5.2571194655631155,-10.562214701488303,0.0,0.12544113928904094,0.1,0.001821756362915039,0.02617025375366211,0.050351813,1.0992951,-8.980043321623217,-0.08915843805565578,-0.035560619739952025,0.0,0.06898546376758115,63,0.002043485641479492,1.0221660028898711,1.0221660028898711,17998,-10.28530801153992,0.0
303,0.8816359043121338,-8.139017923998415,3.9844009619390803,-3.9825357464702673,-14.290451450812416,0.25,0.14308428396296385,0.1,0.0019202232360839844,0.039906978607177734,0.050101317,0.74507385,-8.895940781860737,-0.08430241344637472,-0.03742025585296566,0.25,0.0707767317064841,69,0.0020847320556640625,1.0187464626855909,1.0187464626855909,18067,-13.058994304311824,0.0
304,0.8541617393493652,-8.878792815316062,0.362112721203037,-8.292972975482307,-9.215312008364467,0.0,0.11516112438741608,0.1,0.0018761157989501953,0.02793121337890625,0.049903415,2.4714515,-8.89422598520627,-0.10124802206547356,-0.038497643177683075,0.0,0.07053378984608655,61,0.0019092559814453125,1.0209745932497587,1.0209745932497587,18128,-9.848960324556352,0.0
305,0.8652653694152832,-11.268325392501449,3.46815236089192,-8.670059729133676,-17.133176301423504,0.0,0.12353222970668014,0.1,0.0018258094787597656,0.028142213821411133,0.049868904,0.8823781,-9.13163592593579,-0.13556764406869473,-0.050664705757406,0.0,0.07025824051119689,61,0.001949310302734375,1.0152651903648175,1.0152651903648175,18189,-9.687270188178019,0.0
306,0.8458445072174072,-8.498802493691558,2.942851494362989,-4.417108167395614,-11.459904214493385,0.125,0.11043041000210622,0.1,0.0018031597137451172,0.030268192291259766,0.050588552,1.2375587,-9.068352582711366,-0.09715970597160323,-0.03541305054154909,0.125,0.06859177452684145,58,0.0019137859344482422,1.0192195514498625,1.0192195514498625,18247,-9.607641625064614,0.0
307,0.8563261032104492,-9.628531297308966,1.508839459125452,-7.592338226281766,-11.824551554283431,0.0,0.14987378363062062,0.1,0.0019485950469970703,0.04441571235656738,0.04988046,1.1265699,-9.124370454171126,-0.09870308141998642,-0.043355154241261476,0.0,0.06808032153715009,71,0.002221822738647461,1.0199080813200185,1.0199080813200185,18318,-12.82715631868104,0.0
308,1.5606627464294434,-9.5963294486854,2.552548040173172,-5.895875155282369,-13.03853914980626,0.0,0.1432972173303902,0.1,0.0019659996032714844,0.04045844078063965,0.049873486,0.8546548,-9.171566353622554,-0.09888693216094324,-0.04212249225493438,0.0,0.0695516308904495,67,0.0020749568939208984,1.0176789836963176,1.0176789836963176,18385,-11.316239849865795,0.04166666666666667
309,0.8125584125518799,-8.32628231639886,0.6316587054227939,-7.290564911890982,-8.862833685599966,0.0,0.134881228990859,0.1,0.0020384788513183594,0.04059243202209473,0.04943069,1.2494135,-9.087037949900184,-0.08865790743426441,-0.036315352114144925,0.0,0.06858333717216127,66,0.002306222915649414,1.0222149943176413,1.0222149943176413,18451,-11.254129108819194,0.04166666666666667
310,0.7999897003173828,-8.91023167360059,1.517098647450227,-6.304515715096829,-10.089581627502952,0.0,0.13394621205857082,0.1,0.0019593238830566406,0.026726722717285156,0.049796782,1.3515967,-9.069357322270225,-0.10164635675934747,-0.038600599729548726,0.0,0.07101965258416569,62,0.0015940666198730469,1.0205984067959808,1.0205984067959808,18513,-11.146597453722995,0.04166666666666667
311,0.806469202041626,-9.571084185379544,1.586244778389772,-8.179561391348793,-12.261466875654035,0.0,0.13382311904529523,0.1,0.0018990039825439453,0.02694392204284668,0.049836315,1.1092159,-9.119530008581156,-0.1050956576167277,-0.04000925190787254,0.0,0.06976125392363174,61,0.0019669532775878906,1.0190092351051638,1.0190092351051638,18574,-11.559754140802433,0.04166666666666667
312,0.8479492664337158,-8.973118552136711,1.2856274605070952,-6.843620990085129,-10.256784500625137,0.125,0.1514848342806159,0.1,0.0020189285278320312,0.04049944877624512,0.049697667,0.86610115,-9.104888862936711,-0.09743941265625414,-0.04034092453694951,0.125,0.07266787520681925,71,0.0022132396697998047,1.0206031533481068,1.0206031533481068,18645,-11.587692006072922,0.0
313,0.8142564296722412,-9.772597053771614,3.1719646954703857,-6.026296579691369,-14.080900497707367,0.125,0.1296183787896002,0.1,0.0019032955169677734,0.025484561920166016,0.049438417,0.92469,-9.171659682020202,-0.10501379548235013,-0.0421355071621097,0.125,0.06971640801450373,63,0.0021550655364990234,1.0170976673484309,1.0170976673484309,18708,-11.187547021603358,0.0
314,0.8054416179656982,-9.988841943774517,3.5743479323239673,-4.227235021703573,-14.04401938909561,0.125,0.13466064494547528,0.1,0.0018715858459472656,0.04014110565185547,0.049284186,0.9561319,-9.253377908195633,-0.09918736964230229,-0.04499725919937365,0.125,0.07130980614499902,70,0.002100706100463867,1.0168344989139957,1.0168344989139957,18778,-11.05440823702466,0.0
315,0.8157253265380859,-9.175260715862876,1.9366460998263675,-6.053022906872711,-11.358967579905762,0.0,0.1285815291308573,0.1,0.0018584728240966797,0.026290178298950195,0.05021206,1.1026552,-9.245566188962357,-0.10527776082456719,-0.039782908262654466,0.0,0.07156823183984401,60,0.0021169185638427734,1.0198557128286903,1.0198557128286903,18838,-9.488936755355295,0.0
316,0.8445637226104736,-11.491125613243051,3.1729071025073465,-8.88375866345955,-16.91849823528092,0.0,0.14485396159905142,0.1,0.001956939697265625,0.04058098793029785,0.050613113,0.7906116,-9.470122131390427,-0.11930216411147024,-0.05060800725775122,0.0,0.07171156165308817,69,0.003973960876464844,1.0147678096024708,1.0147678096024708,18907,-9.760600533211605,0.0
317,0.7938966751098633,-6.899240948110755,2.5145348456129284,-4.082409499370941,-10.515571553218653,0.125,0.12396611131817106,0.1,0.0018069744110107422,0.026477813720703125,0.050350122,1.1050483,-9.21303401306246,-0.07870652831552086,-0.029200632393319558,0.125,0.07291289798020106,58,0.002094745635986328,1.0234270482981258,1.0234270482981258,18965,-9.83607089873429,0.0
318,0.7818140983581543,-7.5927114041929515,0.5519045015122274,-6.728286785686959,-8.229856444194187,0.0,0.13575052994722359,0.1,0.0018157958984375,0.025125741958618164,0.049691256,1.3240814,-9.05100175217551,-0.09100392949600213,-0.0331646844987617,0.0,0.06870547508382953,59,0.0018351078033447266,1.0252213537482422,1.0252213537482422,19024,-9.847446944277882,0.0
319,0.7781925201416016,-7.463609071791182,1.9558071910758899,-5.2831574433895,-9.821866115839379,0.125,0.12517585392516611,0.1,0.0017619132995605469,0.023992538452148438,0.05062423,0.896689,-8.892262484137078,-0.08527785233635668,-0.030503120030636443,0.125,0.06821023257370157,58,0.0019903182983398438,1.0226772164779914,1.0226772164779914,19082,-11.899981252930658,0.0
