Iter | Sampling Pol | Evaluation Pol | Best (Sampled) 
   0 -1.92 -1.94 -100000000.00 
   1 -1.90 -1.94 -1.92 
   2 -1.93 -1.94 -1.90 
   3 -1.94 -1.88 -1.90 
   4 -1.93 -1.89 -1.90 
   5 -1.93 -1.88 -1.90 
   6 -1.93 -1.89 -1.90 
   7 -1.93 -1.89 -1.90 
   8 -1.94 -1.91 -1.90 
   9 -1.95 -1.90 -1.90 
  10 -1.94 -1.89 -1.90 
  11 -1.94 -1.90 -1.90 
  12 -1.86 -1.92 -1.90 
  13 -1.94 -1.92 -1.86 
  14 -1.86 -1.91 -1.86 
  15 -1.92 -1.91 -1.86 
  16 -1.92 -1.90 -1.86 
  17 -1.94 -1.90 -1.86 
  18 -1.93 -1.91 -1.86 
  19 -1.94 -1.90 -1.86 
  20 -1.90 -1.91 -1.86 
  21 -1.92 -1.89 -1.86 
  22 -1.86 -1.89 -1.86 
  23 -1.32 -1.89 -1.86 
  24 -1.92 -1.87 -1.32 
  25 -1.89 -1.85 -1.32 
  26 -1.89 -1.85 -1.32 
  27 -1.86 -1.85 -1.32 
  28 -1.35 -1.83 -1.32 
  29 -1.40 -1.87 -1.32 
  30 -1.35 -1.86 -1.32 
  31 -1.73 -1.84 -1.32 
  32 -1.35  0.18 -1.32 
  33 -1.33 -1.85 -1.32 
  34 -1.30 -1.84 -1.32 
  35 -0.82  0.18 -1.30 
  36 -1.32  0.18 -0.82 
  37 -1.31  0.19 -0.82 
  38 -1.22  0.20 -0.82 
  39 -1.86  0.19 -0.82 
  40 -1.86  0.22 -0.82 
  41 -1.72  0.20 -0.82 
  42 -1.29  0.20 -0.82 
  43 -0.78  0.22 -0.82 
  44 -1.85 -1.78 -0.78 
  45 -1.22  0.23 -0.78 
  46 -0.87  0.25 -0.78 
  47 -1.32  0.24 -0.78 
  48 -0.63  0.25 -0.78 
  49 -1.69  0.26 -0.63 
  50 -1.26  0.28 -0.63 
  51 -0.63  0.29 -0.63 
  52 -1.60  0.34 -0.63 
  53 -1.86  0.30 -0.63 
  54 -1.80  0.27 -0.63 
  55 -0.75  0.27 -0.63 
  56 -0.67 -1.73 -0.63 
  57 -1.26  0.29 -0.63 
  58 -0.85 -1.68 -0.63 
  59 -1.07  0.38 -0.63 
  60 -1.60  0.46 -0.63 
  61 -0.55  0.45 -0.63 
  62 -1.00  0.51 -0.55 
  63  0.60  0.44 -0.55 
  64 -0.66  0.46  0.60 
  65 -1.21  0.50  0.60 
  66 -0.48  0.43  0.60 
  67 -1.14  0.49  0.60 
  68 -0.24  0.48  0.60 
  69 -0.71  0.50  0.60 
  70 -0.83  0.59  0.60 
  71 -1.09  0.78  0.60 
  72 -0.53  0.75  0.60 
  73 -0.35  0.96  0.60 
  74 -0.04  1.00  0.60 
  75 -0.08  1.07  0.60 
  76 -0.34  0.95  0.60 
  77 -0.51  1.33  0.60 
  78  0.29  1.59  0.60 
  79  0.05  1.73  0.60 
  80 -0.32  1.71  0.60 
  81 -0.10  1.58  0.60 
  82  0.01  1.71  0.60 
  83  0.17  1.48  0.60 
  84  0.42  1.40  0.60 
  85 -0.46  1.59  0.60 
  86  0.55  1.68  0.60 
  87  0.15  1.87  0.60 
  88  0.85  1.88  0.60 
  89  0.19  2.23  0.85 
  90 -0.67  2.12  0.85 
  91  0.29  2.32  0.85 
  92 -0.29  3.22  0.85 
  93  0.68  2.30  0.85 
  94  0.03  2.27  0.85 
  95 -0.42  2.34  0.85 
  96  0.61  2.53  0.85 
  97  1.31  2.93  0.85 
  98  1.79  3.14  1.31 
  99  1.07  3.24  1.79 
 100  1.98  1.93  1.79 
 101  0.87  4.30  1.98 
 102  0.40  2.01  1.98 
 103 -0.41 -0.22  1.98 
 104  1.09 -0.52  1.98 
 105  1.82  3.22  1.98 
 106 -0.03  0.02  1.98 
 107  0.78 -0.46  1.98 
 108  0.71 -0.19  1.98 
 109  1.42 -0.71  1.98 
 110  0.51 -0.74  1.98 
 111  2.05 -0.62  1.98 
 112  1.63 -0.64  2.05 
 113  1.78 -0.65  2.05 
 114  1.54 -0.82  2.05 
 115  0.76 -0.62  2.05 
 116  1.25 -0.34  2.05 
 117  0.75 -0.44  2.05 
 118  2.51 -0.28  2.05 
 119  1.61 -0.43  2.51 
 120  1.62 -0.23  2.51 
 121  1.58 -0.34  2.51 
 122  3.05 -0.66  2.51 
 123  0.82 -0.47  3.05 
 124  1.59 -0.54  3.05 
 125  1.28  0.90  3.05 
 126  1.97 -0.48  3.05 
 127  2.43 -0.32  3.05 
 128  2.11 -0.91  3.05 
 129  0.68 -0.77  3.05 
 130  1.02 -0.62  3.05 
 131  2.73 -0.37  3.05 
 132  0.90  0.31  3.05 
 133  1.34 -0.32  3.05 
 134  1.09 -0.34  3.05 
 135  2.08 -0.35  3.05 
 136  2.01 -0.34  3.05 
 137  0.98  2.01  3.05 
 138  2.73  3.13  3.05 
 139  1.94  2.92  3.05 
 140  2.79  2.92  3.05 
 141  2.48  2.69  3.05 
 142  3.41  2.80  3.05 
 143  2.11  2.21  3.41 
 144  2.69 -0.14  3.41 
 145  1.97 -0.23  3.41 
 146  1.68  0.15  3.41 
 147  1.69 -0.28  3.41 
 148  1.81  2.01  3.41 
 149  3.25  0.36  3.41 
 150  2.14  6.50  3.41 
 151  2.36  3.67  3.41 
 152  3.42  5.19  3.41 
 153  3.90  5.87  3.42 
 154  3.09  5.78  3.90 
 155  2.39  5.60  3.90 
 156  2.07  4.83  3.90 
 157  2.88  6.25  3.90 
 158  2.01  5.65  3.90 
 159  4.62  7.15  3.90 
 160  4.02  5.00  4.62 
 161  1.46  6.16  4.62 
 162  2.96  3.37  4.62 
 163  1.13  3.60  4.62 
 164  3.20  4.67  4.62 
 165  2.98  3.80  4.62 
 166  3.65  1.05  4.62 
 167  1.64  3.04  4.62 
 168  2.58  3.09  4.62 
 169  1.97  4.32  4.62 
 170  2.16  4.28  4.62 
 171  3.07  2.86  4.62 
 172  2.25  2.79  4.62 
 173  3.04  2.72  4.62 
 174  3.61  1.77  4.62 
 175  3.64  3.02  4.62 
 176  4.09  3.93  4.62 
 177  3.09  3.75  4.62 
 178  2.61  2.63  4.62 
 179  2.24  4.11  4.62 
 180  1.60  3.14  4.62 
 181  4.03  2.50  4.62 
 182  1.11  3.16  4.62 
 183  3.53  0.77  4.62 
 184  4.73  3.15  4.62 
 185  0.88  3.94  4.73 
 186  3.84  3.85  4.73 
 187  2.41  3.98  4.73 
 188  2.62  4.31  4.73 
 189  4.76  6.94  4.73 
 190  3.28  3.87  4.76 
 191  3.34  4.37  4.76 
 192  2.90  4.03  4.76 
 193  3.18  3.20  4.76 
 194  2.99  0.95  4.76 
 195  4.16  4.28  4.76 
 196  2.99  4.18  4.76 
 197  3.96  5.24  4.76 
 198  2.80  6.94  4.76 
 199  4.15  4.65  4.76 
 200  3.22  4.11  4.76 
 201  3.74  5.18  4.76 
 202  3.98  3.71  4.76 
 203  4.63  4.23  4.76 
 204  4.48  4.09  4.76 
 205  4.33  3.77  4.76 
 206  3.02  4.89  4.76 
 207  3.19  3.65  4.76 
 208  3.66  3.57  4.76 
 209  3.45  3.00  4.76 
 210  3.55  5.19  4.76 
 211  3.30  4.34  4.76 
 212  3.61  3.46  4.76 
 213  1.73  4.49  4.76 
 214  3.43  4.41  4.76 
 215  4.41  4.79  4.76 
 216  4.13  2.95  4.76 
 217  3.65  4.57  4.76 
 218  3.42  3.71  4.76 
 219  4.96  4.39  4.76 
 220  3.92  3.80  4.96 
 221  3.18  2.82  4.96 
 222  4.09  2.72  4.96 
 223  2.99  3.90  4.96 
 224  3.15  3.97  4.96 
 225  3.73  2.69  4.96 
 226  4.59  2.67  4.96 
 227  2.88  2.02  4.96 
 228  5.03  2.27  4.96 
 229  3.94  1.95  5.03 
 230  2.85  2.23  5.03 
 231  4.24  2.12  5.03 
 232  4.53  2.45  5.03 
 233  4.23  1.93  5.03 
 234  3.39  2.95  5.03 
 235  4.34  3.07  5.03 
 236  3.40  3.29  5.03 
 237  5.56  3.56  5.03 
 238  4.89  2.95  5.56 
 239  4.45  3.16  5.56 
 240  4.88  2.47  5.56 
 241  4.45  2.49  5.56 
 242  4.62  2.67  5.56 
 243  4.35  2.53  5.56 
 244  4.36  2.97  5.56 
 245  4.63  2.55  5.56 
 246  4.77  2.66  5.56 
 247  3.21  2.30  5.56 
 248  3.18  2.09  5.56 
 249  3.19  1.89  5.56 
 250  3.71  2.20  5.56 
 251  4.85  1.97  5.56 
 252  4.68  1.93  5.56 
 253  3.91  2.51  5.56 
 254  2.58  2.01  5.56 
 255  4.42  2.10  5.56 
 256  3.71  2.27  5.56 
 257  5.44  2.53  5.56 
 258  4.22  2.88  5.56 
 259  2.78  4.44  5.56 
 260  3.29  3.52  5.56 
 261  4.85  2.15  5.56 
 262  5.40  3.67  5.56 
 263  3.20  3.35  5.56 
 264  4.04  3.83  5.56 
 265  5.18  5.41  5.56 
 266  4.14  4.70  5.56 
 267  3.55  5.44  5.56 
 268  3.30  4.25  5.56 
 269  4.32  5.22  5.56 
 270  3.23  4.91  5.56 
 271  3.77  4.52  5.56 
 272  3.58  4.89  5.56 
 273  5.67  5.28  5.56 
 274  6.04  5.45  5.67 
 275  3.91  4.37  6.04 
 276  5.86  5.36  6.04 
 277  3.77  6.30  6.04 
 278  4.57  5.73  6.04 
 279  3.31  6.10  6.04 
 280  4.05  5.20  6.04 
 281  4.03  5.01  6.04 
 282  4.42  8.02  6.04 
 283  3.83  7.07  6.04 
 284  5.90  5.56  6.04 
 285  4.30  9.31  6.04 
 286  4.81  8.74  6.04 
 287  4.50  6.37  6.04 
 288  6.04  6.22  6.04 
 289  4.08  5.18  6.04 
 290  4.52  3.90  6.04 
 291  4.51  4.89  6.04 
 292  4.01  4.35  6.04 
 293  5.66  4.79  6.04 
 294  3.88  4.20  6.04 
 295  5.09  4.82  6.04 
 296  4.25  8.56  6.04 
 297  5.63  5.97  6.04 
 298  3.62  9.23  6.04 
 299  3.19  5.68  6.04 
 300  4.46  5.75  6.04 
 301  4.20  5.26  6.04 
 302  3.50  3.90  6.04 
 303  5.44  3.98  6.04 
 304  6.35  4.54  6.04 
 305  5.63  3.91  6.35 
 306  5.20  6.33  6.35 
 307  5.59  6.61  6.35 
 308  4.02  3.16  6.35 
 309  4.90  2.86  6.35 
 310  4.79  8.66  6.35 
 311  5.77  3.02  6.35 
 312  5.23  4.37  6.35 
 313  4.87  3.25  6.35 
 314  6.61  6.66  6.35 
 315  4.86  4.03  6.61 
 316  5.07  6.70  6.61 
 317  4.27  3.43  6.61 
 318  5.80  4.15  6.61 
 319  4.84  4.46  6.61 
 320  3.55  4.44  6.61 
 321  5.62  4.03  6.61 
 322  6.50  2.86  6.61 
 323  5.10  4.40  6.61 
 324  4.88  3.41  6.61 
 325  5.03  3.34  6.61 
 326  4.78  3.26  6.61 
 327  5.10  3.33  6.61 
 328  6.16  4.27  6.61 
 329  7.48  3.40  6.61 
 330  4.87  5.21  7.48 
 331  5.44  5.52  7.48 
 332  5.16  4.41  7.48 
 333  4.13  6.26  7.48 
 334  6.10  5.27  7.48 
 335  6.26  5.20  7.48 
 336  4.41  5.29  7.48 
 337  5.52  6.00  7.48 
 338  5.85  8.59  7.48 
 339  5.67  8.17  7.48 
 340  2.89  4.06  7.48 
 341  4.81  5.49  7.48 
 342  6.28  6.24  7.48 
 343  5.34  6.29  7.48 
 344  4.60  6.35  7.48 
 345  6.70  6.30  7.48 
 346  6.81  8.03  7.48 
 347  3.73  7.08  7.48 
 348  6.89  6.56  7.48 
 349  5.65  7.07  7.48 
 350  5.36  7.38  7.48 
 351  6.93  8.14  7.48 
 352  5.08  7.18  7.48 
 353  7.02  5.87  7.48 
 354  5.05  5.44  7.48 
 355  5.60  8.80  7.48 
 356  3.67  6.60  7.48 
 357  5.12  6.06  7.48 
 358  5.88  6.56  7.48 
 359  5.69  6.32  7.48 
 360  3.87  6.32  7.48 
 361  7.86  6.98  7.48 
 362  6.44  8.93  7.86 
 363  6.62 11.76  7.86 
 364  3.99  7.96  7.86 
 365  8.03  7.18  7.86 
 366  6.12  9.02  8.03 
 367  5.93  7.98  8.03 
 368  7.27  7.26  8.03 
 369  6.33  5.89  8.03 
 370  5.34  7.74  8.03 
 371  5.08 10.14  8.03 
 372  6.95  7.42  8.03 
 373  5.41  6.66  8.03 
 374  3.93  5.89  8.03 
 375  6.39  6.16  8.03 
 376  8.41  6.01  8.03 
 377  5.17  8.38  8.41 
 378  5.41  7.82  8.41 
 379  5.74 11.14  8.41 
 380  5.03  6.31  8.41 
 381  4.66  6.22  8.41 
 382  5.44  6.50  8.41 
 383  5.99  5.97  8.41 
 384  5.53  6.38  8.41 
 385  5.49  7.85  8.41 
 386  5.55  4.90  8.41 
 387  5.26  6.56  8.41 
 388  6.95  8.14  8.41 
 389  4.63  5.74  8.41 
 390  5.84  8.34  8.41 
 391  7.44  9.50  8.41 
 392  5.30  6.24  8.41 
 393  7.01  6.37  8.41 
 394  3.64  5.79  8.41 
 395  7.80  4.76  8.41 
 396  5.64  6.01  8.41 
 397  4.69  5.97  8.41 
 398  7.10  6.30  8.41 
 399  8.63  5.55  8.41 
 400  7.85  4.88  8.63 
 401  5.84  6.90  8.63 
 402  3.26  6.31  8.63 
 403  5.10  4.36  8.63 
 404  5.36  5.20  8.63 
 405  6.71  6.00  8.63 
 406  7.02  5.82  8.63 
 407  7.89  5.22  8.63 
 408  5.12  5.63  8.63 
 409  5.36  3.17  8.63 
 410  6.06  5.41  8.63 
 411  4.46  6.20  8.63 
 412  7.59  5.33  8.63 
 413  6.31  7.39  8.63 
 414  5.99  5.47  8.63 
 415  5.21  5.14  8.63 
 416  4.38 10.00  8.63 
 417  6.54  6.37  8.63 
 418  5.69  5.88  8.63 
 419  6.59  9.58  8.63 
 420  7.72  8.34  8.63 
 421  7.63  4.58  8.63 
 422  6.35 10.17  8.63 
 423  7.43  4.75  8.63 
 424  6.50  4.87  8.63 
 425  5.85  9.61  8.63 
 426  6.83  3.20  8.63 
 427  6.32  6.00  8.63 
 428  3.53  6.67  8.63 
 429  7.81  3.98  8.63 
 430  7.18  3.28  8.63 
 431  6.64  3.37  8.63 
 432  5.56  3.72  8.63 
 433  5.00  5.75  8.63 
 434  7.99  7.52  8.63 
 435  5.76  7.49  8.63 
 436  5.23  7.20  8.63 
 437  4.86  6.68  8.63 
 438  5.07  8.72  8.63 
 439  4.72  8.90  8.63 
 440  8.04 11.14  8.63 
 441  6.13  4.25  8.63 
 442  5.20  4.44  8.63 
 443  6.59  3.77  8.63 
 444  6.65  6.08  8.63 
 445  5.82  9.17  8.63 
 446  5.31 10.36  8.63 
 447  7.61  9.01  8.63 
 448  5.82  4.03  8.63 
 449  4.52  4.70  8.63 
 450  5.10  7.88  8.63 
 451  6.24 10.39  8.63 
 452  6.46  5.51  8.63 
 453  6.71  7.09  8.63 
 454  5.56  9.64  8.63 
 455  7.79  5.88  8.63 
 456  7.09  7.28  8.63 
 457  6.39  7.94  8.63 
 458  6.19  4.58  8.63 
 459  3.40  3.69  8.63 
 460  6.30  4.37  8.63 
 461  6.50  7.15  8.63 
 462  7.07  4.82  8.63 
 463  6.52  9.46  8.63 
 464  4.97  3.33  8.63 
 465  7.38  5.41  8.63 
 466  5.17  6.26  8.63 
 467  6.14  7.48  8.63 
 468  5.63  7.01  8.63 
 469  5.46  7.62  8.63 
 470  6.03  0.77  8.63 
 471  5.22  4.83  8.63 
 472  6.58  6.68  8.63 
 473  5.19  5.94  8.63 
 474  5.36  8.14  8.63 
 475  5.74  4.25  8.63 
 476  4.24  8.11  8.63 
 477  5.30  3.66  8.63 
 478  5.41  8.32  8.63 
 479  5.52  4.17  8.63 
 480  6.24 10.65  8.63 
 481  5.12  3.57  8.63 
 482  8.73  7.27  8.63 
 483  7.67  5.46  8.73 
 484  6.56  3.94  8.73 
 485  6.89  4.72  8.73 
 486  7.88  4.60  8.73 
 487  6.70  4.24  8.73 
 488  7.44  4.34  8.73 
 489  7.71  4.98  8.73 
 490  6.88  6.79  8.73 
 491  6.32  4.23  8.73 
 492  5.43  3.78  8.73 
 493  6.04  3.97  8.73 
 494  8.40  2.47  8.73 
 495  6.48  3.34  8.73 
 496  6.32  5.18  8.73 
 497  7.28  4.99  8.73 
 498  7.90  8.39  8.73 
 499  6.99  7.89  8.73 
 500  7.11  5.14  8.73 
 501  5.85  6.86  8.73 
 502  5.78  8.65  8.73 
 503  6.52 11.12  8.73 
 504  7.14  3.36  8.73 
 505  7.34  4.24  8.73 
 506  6.16  3.63  8.73 
 507  7.63  3.69  8.73 
 508  4.52  8.01  8.73 
 509  5.44  5.82  8.73 
 510  8.37  5.53  8.73 
 511  8.44  6.95  8.73 
 512  6.79  6.31  8.73 
 513  6.59  7.17  8.73 
 514  8.48  3.77  8.73 
 515  6.81  3.09  8.73 
 516  5.14  5.65  8.73 
 517  6.02  4.49  8.73 
 518  6.60  5.88  8.73 
 519  5.58  5.40  8.73 
 520  6.87  5.71  8.73 
 521  7.17  7.85  8.73 
 522  4.44  4.26  8.73 
 523  7.40  4.17  8.73 
 524  6.30  4.23  8.73 
 525  6.98  3.22  8.73 
 526  6.27  4.59  8.73 
 527  7.11  6.65  8.73 
 528  9.32  4.75  8.73 
 529  5.19  5.49  9.32 
 530  6.47  7.34  9.32 
 531  5.46  7.43  9.32 
 532  7.85  4.53  9.32 
 533  4.85  5.62  9.32 
 534  5.11 11.26  9.32 
 535  7.16  5.33  9.32 
 536  7.10 10.28  9.32 
 537  6.44  6.98  9.32 
 538  7.46  6.67  9.32 
 539  5.94  4.66  9.32 
 540  7.80  5.67  9.32 
 541  8.96 11.37  9.32 
 542  6.36  7.71  9.32 
 543  7.85 10.64  9.32 
 544  7.12  7.17  9.32 
 545  6.47  9.15  9.32 
 546  8.61  8.36  9.32 
 547  5.92  8.80  9.32 
 548  7.91 11.10  9.32 
 549  8.21  9.32  9.32 
 550  7.47  6.37  9.32 
 551  5.17  9.79  9.32 
 552  6.14 10.54  9.32 
 553  5.61 10.00  9.32 
 554  7.00 10.64  9.32 
 555  6.87  7.75  9.32 
 556  8.05  6.99  9.32 
 557  6.57  6.83  9.32 
 558  8.91  6.58  9.32 
 559  5.64  9.89  9.32 
 560  6.67  5.03  9.32 
 561  7.24  7.48  9.32 
 562  6.73  7.76  9.32 
 563  7.80  8.09  9.32 
 564  8.52  9.64  9.32 
 565  6.64  8.19  9.32 
 566  7.48  8.01  9.32 
 567  8.84  6.38  9.32 
 568  6.83  7.72  9.32 
 569  7.90  8.04  9.32 
 570  7.61  7.10  9.32 
 571  7.96  6.48  9.32 
 572  8.33  8.47  9.32 
 573  7.59  7.89  9.32 
 574  8.02 10.04  9.32 
 575  6.96  7.00  9.32 
 576  6.59  7.79  9.32 
 577  9.04  7.29  9.32 
 578  5.58 11.31  9.32 
 579  6.54  5.52  9.32 
 580  7.05 10.06  9.32 
 581  8.10  8.34  9.32 
 582  6.24  7.94  9.32 
 583  8.39  5.71  9.32 
 584  8.44  8.58  9.32 
 585  8.26  7.68  9.32 
 586  8.06  4.91  9.32 
 587  6.35  7.34  9.32 
 588  7.53  8.13  9.32 
 589  9.11 11.20  9.32 
 590  8.70  4.39  9.32 
 591  6.27 10.10  9.32 
 592  8.41  5.95  9.32 
 593  4.78  7.57  9.32 
 594  7.47  8.75  9.32 
 595  8.73  7.88  9.32 
 596  5.43  9.41  9.32 
 597  5.54  6.98  9.32 
 598  6.97 10.12  9.32 
 599  6.37  7.01  9.32 
 600  5.65  7.65  9.32 
 601  8.53  6.79  9.32 
 602  6.30  9.82  9.32 
 603  4.77  8.66  9.32 
 604  7.61  7.69  9.32 
 605  6.82  6.87  9.32 
 606  5.78  5.40  9.32 
 607  6.98  5.53  9.32 
 608  6.04  5.51  9.32 
 609  6.90  5.77  9.32 
 610  6.13  5.95  9.32 
 611  8.47  5.97  9.32 
 612  6.36  6.22  9.32 
 613  5.71  5.44  9.32 
 614  6.45  6.13  9.32 
 615  6.99  7.18  9.32 
 616  5.65  5.30  9.32 
 617  7.98  9.30  9.32 
 618  7.48  4.35  9.32 
 619  7.03  6.24  9.32 
 620  6.61  5.26  9.32 
 621  7.11  6.46  9.32 
 622  6.61  5.19  9.32 
 623  9.37  5.30  9.32 
 624  6.65 11.56  9.37 
 625  8.47  6.42  9.37 
 626  7.96 10.03  9.37 
 627  8.29  6.95  9.37 
 628  6.43  5.38  9.37 
 629  6.67  5.50  9.37 
 630  9.29  5.45  9.37 
 631  8.71  6.33  9.37 
 632  9.04  7.22  9.37 
 633  8.39  8.31  9.37 
 634  7.97  8.36  9.37 
 635  5.68  6.74  9.37 
 636  6.88 12.65  9.37 
 637  8.05  7.48  9.37 
 638  6.16 10.02  9.37 
 639  6.72  7.46  9.37 
 640  5.19  5.30  9.37 
 641  7.84  7.68  9.37 
 642  5.20  9.23  9.37 
 643  6.06  9.12  9.37 
 644  8.15  7.21  9.37 
 645  8.88  4.99  9.37 
 646  8.09  4.74  9.37 
 647  7.55  3.88  9.37 
 648  6.22  4.71  9.37 
 649  6.03  6.79  9.37 
 650  6.47  7.29  9.37 
 651  6.40  6.10  9.37 
 652  6.47  7.96  9.37 
 653  6.98  5.68  9.37 
 654  6.90  4.29  9.37 
 655  7.69  5.88  9.37 
 656  7.43  4.72  9.37 
 657  7.03  5.48  9.37 
 658  7.85  3.70  9.37 
 659  8.45  5.04  9.37 
 660  6.40  5.76  9.37 
 661  7.50  4.36  9.37 
 662  5.50  5.14  9.37 
 663  5.98  3.79  9.37 
 664  7.13  6.47  9.37 
 665  6.92  9.25  9.37 
 666  6.17  8.96  9.37 
 667  5.56  6.35  9.37 
 668  6.29  6.16  9.37 
 669  6.96  6.00  9.37 
 670  7.56  8.29  9.37 
 671  8.61  5.84  9.37 
 672  5.82  4.52  9.37 
 673  6.87  5.90  9.37 
 674  8.32  3.89  9.37 
 675 10.53  4.43  9.37 
 676  6.95  3.96 10.53 
 677  6.22  8.04 10.53 
 678  7.21  6.40 10.53 
 679  6.99  5.36 10.53 
 680  7.35  5.00 10.53 
 681  5.58  5.13 10.53 
 682  7.02  4.55 10.53 
 683  4.50  6.07 10.53 
 684  7.02  4.55 10.53 
 685  7.62  3.98 10.53 
 686  9.37  4.34 10.53 
 687  6.51  4.43 10.53 
 688  7.77  3.19 10.53 
 689  5.53  4.75 10.53 
 690  7.73  4.01 10.53 
 691  7.58  3.12 10.53 
 692  5.81  5.42 10.53 
 693  4.84 10.37 10.53 
 694  8.48  6.32 10.53 
 695  7.79  4.49 10.53 
 696  7.58  4.43 10.53 
 697  4.88  6.70 10.53 
 698  4.83  3.55 10.53 
 699  8.58  6.80 10.53 
 700  5.62  6.61 10.53 
 701  6.56  4.57 10.53 
 702  5.82  6.38 10.53 
 703  7.52  7.32 10.53 
 704  6.60  7.02 10.53 
 705  7.57  9.35 10.53 
 706  5.78  5.37 10.53 
 707  6.01 11.01 10.53 
 708  4.55  8.72 10.53 
 709  5.81 11.85 10.53 
 710  6.80 10.15 10.53 
 711  8.97  6.53 10.53 
 712  6.40 11.37 10.53 
 713  5.72  8.10 10.53 
 714  6.03  6.33 10.53 
 715  7.25  6.17 10.53 
 716  5.71  4.64 10.53 
 717  6.48  6.69 10.53 
 718  4.86  7.87 10.53 
 719  7.32  7.76 10.53 
 720  8.16  4.95 10.53 
 721  6.19  6.19 10.53 
 722  7.08  8.15 10.53 
 723  7.98 10.33 10.53 
 724  5.49  8.17 10.53 
 725  7.71  4.09 10.53 
 726  7.02  8.98 10.53 
 727  6.63  7.68 10.53 
 728  6.04  4.61 10.53 
 729  6.40  6.67 10.53 
 730  6.72  5.65 10.53 
 731  8.93  5.35 10.53 
 732  5.37  8.56 10.53 
 733  7.04  9.62 10.53 
 734  6.24  4.73 10.53 
 735  7.55  7.89 10.53 
 736  7.63  4.39 10.53 
 737  7.29  5.94 10.53 
 738  7.37 10.31 10.53 
 739  6.60  3.97 10.53 
 740  7.41 10.52 10.53 
 741  7.83  5.60 10.53 
 742  7.34 11.10 10.53 
 743  7.53  9.51 10.53 
 744  8.75  3.93 10.53 
 745  8.91  8.80 10.53 
 746  7.78  8.35 10.53 
 747  5.03  8.15 10.53 
 748  6.74  8.51 10.53 
 749  8.34  4.57 10.53 
 750  6.47  7.44 10.53 
 751  5.43  4.79 10.53 
 752  8.24  7.41 10.53 
 753  5.59  5.61 10.53 
 754  8.02  9.17 10.53 
 755  7.97  4.13 10.53 
 756  7.91  9.99 10.53 
 757  8.85  7.33 10.53 
 758  7.82  7.13 10.53 
 759  8.74  4.81 10.53 
 760  7.77  5.67 10.53 
 761  5.99  7.20 10.53 
 762  5.74  5.46 10.53 
 763  7.58  6.64 10.53 
 764  6.93  6.49 10.53 
 765  8.42  6.35 10.53 
 766  5.91  4.64 10.53 
 767  6.96  5.38 10.53 
 768  6.77  6.78 10.53 
 769  6.45  8.44 10.53 
 770  7.91  7.29 10.53 
 771  7.45  7.30 10.53 
 772  7.41  6.12 10.53 
 773  6.14  7.86 10.53 
 774  6.70  4.60 10.53 
 775  8.74  6.70 10.53 
 776  9.79  2.52 10.53 
 777  5.93  8.86 10.53 
 778  5.78  4.01 10.53 
 779  6.84  4.14 10.53 
 780  8.15  2.69 10.53 
 781  8.18  4.86 10.53 
 782  4.83  9.31 10.53 
 783  6.12  7.46 10.53 
 784  7.42  5.62 10.53 
 785  7.53  4.39 10.53 
 786  6.73  3.21 10.53 
 787  8.29  4.37 10.53 
 788  8.28  4.33 10.53 
 789  6.33  6.38 10.53 
 790  8.26  6.16 10.53 
 791  7.85  5.63 10.53 
 792  6.19 10.62 10.53 
 793  7.12  7.18 10.53 
 794  6.14  2.91 10.53 
 795  6.12  4.61 10.53 
 796  9.01  4.69 10.53 
 797  6.68  7.81 10.53 
 798  9.08  7.82 10.53 
 799  8.15  7.89 10.53 
 800  8.81  5.15 10.53 
 801  8.49  7.57 10.53 
 802  7.43  5.17 10.53 
 803  6.07  5.81 10.53 
 804  7.36 11.28 10.53 
 805  8.65  4.17 10.53 
 806  6.97  7.34 10.53 
 807  7.61  5.42 10.53 
 808  7.46  5.98 10.53 
 809  7.13 11.33 10.53 
 810  6.88  4.75 10.53 
 811  5.81  8.30 10.53 
 812  8.10  7.30 10.53 
 813  7.54  8.91 10.53 
 814  7.48  5.65 10.53 
 815  8.48  6.71 10.53 
 816  7.03  6.06 10.53 
 817  5.61  4.57 10.53 
 818  8.94  4.17 10.53 
 819  8.00  5.74 10.53 
 820  8.51  4.24 10.53 
 821  7.99  3.37 10.53 
 822  6.63  4.12 10.53 
 823  6.91  7.43 10.53 
 824  8.32  9.45 10.53 
 825  7.18  8.68 10.53 
 826  8.87  3.89 10.53 
 827  7.01  9.02 10.53 
 828 10.40  8.34 10.53 
 829  7.34  5.61 10.53 
 830  8.31  6.07 10.53 
 831  9.05  6.98 10.53 
 832  7.54  7.05 10.53 
 833  6.18  6.68 10.53 
 834  7.35  9.08 10.53 
 835  7.98  6.36 10.53 
 836  9.90  7.22 10.53 
 837  9.94  5.59 10.53 
 838  7.77  5.65 10.53 
 839  7.73  5.16 10.53 
 840  9.14  5.90 10.53 
 841  7.14  7.58 10.53 
 842  7.59  7.49 10.53 
 843  9.44  6.87 10.53 
 844 10.33  4.56 10.53 
 845  8.54  5.25 10.53 
 846  8.52  5.26 10.53 
 847  9.60  5.97 10.53 
 848  8.98  6.33 10.53 
 849  9.47  4.64 10.53 
 850  7.08  5.12 10.53 
 851  7.26  6.91 10.53 
 852  7.66  6.05 10.53 
 853  6.36  8.71 10.53 
 854  8.37  5.08 10.53 
 855  8.98  8.34 10.53 
 856  7.79  7.11 10.53 
 857  8.77  8.04 10.53 
 858  6.98  7.66 10.53 
 859  8.68 11.69 10.53 
 860  6.91  7.99 10.53 
 861 10.39 12.79 10.53 
 862  8.75  6.98 10.53 
 863  6.24  9.52 10.53 
 864  8.26  9.50 10.53 
 865  9.54  6.86 10.53 
 866  9.16  6.97 10.53 
 867  5.09  4.01 10.53 
 868  8.92  5.25 10.53 
 869  6.57  9.21 10.53 
 870  7.96  5.66 10.53 
 871  8.37  9.75 10.53 
 872  7.82  6.17 10.53 
 873  8.35  5.97 10.53 
 874  7.49  5.05 10.53 
 875  9.12  8.36 10.53 
 876  6.52  5.08 10.53 
 877  7.47  9.99 10.53 
 878  7.14 10.84 10.53 
 879  6.89 10.93 10.53 
 880  6.98  4.07 10.53 
 881  7.40  5.81 10.53 
 882  6.88  5.79 10.53 
 883  9.17  6.89 10.53 
 884  7.16 11.35 10.53 
 885  9.33  4.89 10.53 
 886  7.01  6.18 10.53 
 887  9.17  9.45 10.53 
 888  9.69  9.97 10.53 
 889  7.31  5.60 10.53 
 890  8.39  8.30 10.53 
 891  7.97  5.73 10.53 
 892  6.65  8.56 10.53 
 893  7.71  3.92 10.53 
 894  6.70  3.94 10.53 
 895  8.02  4.92 10.53 
 896  7.20  5.14 10.53 
 897  8.20  8.52 10.53 
 898  8.44  7.61 10.53 
 899  5.72  4.78 10.53 
 900  6.60  4.13 10.53 
 901  5.53  4.37 10.53 
 902  7.65  3.23 10.53 
 903  7.21  2.70 10.53 
 904  8.85 12.20 10.53 
 905  5.55  4.34 10.53 
 906  7.89  9.75 10.53 
 907  6.77  6.45 10.53 
 908  6.13  6.95 10.53 
 909  7.37  7.16 10.53 
 910  7.20  6.29 10.53 
 911  6.97  5.78 10.53 
 912  7.25  5.02 10.53 
 913  9.01  3.38 10.53 
 914  7.81  6.63 10.53 
 915  8.09  2.59 10.53 
 916  4.29  4.19 10.53 
 917  7.20  1.59 10.53 
 918  8.43  4.76 10.53 
 919  7.19  2.19 10.53 
 920  7.52  5.47 10.53 
 921  8.81  4.55 10.53 
 922  8.12  3.86 10.53 
 923  6.70  7.13 10.53 
 924  7.45  2.79 10.53 
 925  7.29  3.66 10.53 
 926  7.40  4.93 10.53 
 927  5.82  5.80 10.53 
 928  6.82  6.78 10.53 
 929  6.19  4.65 10.53 
 930  7.30  2.71 10.53 
 931  9.98  7.50 10.53 
 932  9.28  5.73 10.53 
 933  8.94  4.14 10.53 
 934  7.97  4.99 10.53 
 935  6.45  4.68 10.53 
 936  9.42  4.44 10.53 
 937  7.40  4.92 10.53 
 938  7.61  5.98 10.53 
 939  7.48  6.14 10.53 
 940  9.18  3.89 10.53 
 941  8.52  3.90 10.53 
 942  8.07  0.78 10.53 
 943  7.03  3.67 10.53 
 944  9.39  7.42 10.53 
 945  7.43  6.72 10.53 
 946  6.65  4.24 10.53 
 947  7.61  2.42 10.53 
 948  8.21  0.02 10.53 
 949 10.34  2.30 10.53 
 950  8.09  2.58 10.53 
 951  9.34  6.33 10.53 
 952  9.00  2.65 10.53 
 953  7.16  3.38 10.53 
 954  8.37  8.05 10.53 
 955  8.19  5.67 10.53 
 956  9.73  2.98 10.53 
 957  8.66  3.02 10.53 
 958  8.07  2.16 10.53 
 959  8.19  7.07 10.53 
 960  8.40  5.89 10.53 
 961  6.01  2.68 10.53 
 962  7.09  0.20 10.53 
 963  9.28  5.97 10.53 
 964  7.00  2.09 10.53 
 965  7.61  2.58 10.53 
 966  8.80  4.88 10.53 
 967  8.40  5.39 10.53 
 968  7.46  4.36 10.53 
 969  5.02  4.93 10.53 
 970  5.81  7.78 10.53 
 971  8.62  2.70 10.53 
 972  7.84  6.33 10.53 
 973  9.31  3.99 10.53 
 974  8.49  7.89 10.53 
 975  5.47  7.84 10.53 
 976  7.42  6.51 10.53 
 977  7.55  6.40 10.53 
 978  5.98  3.97 10.53 
 979  6.22  4.27 10.53 
 980  5.99  5.58 10.53 
 981 10.52  3.82 10.53 
 982  8.05  4.91 10.53 
 983  8.03  5.45 10.53 
 984  9.26  6.67 10.53 
 985  8.62  3.53 10.53 
 986  7.09  7.97 10.53 
 987  8.23  4.63 10.53 
 988  8.76  6.80 10.53 
 989  9.85  4.71 10.53 
 990 10.16  6.04 10.53 
 991  8.25  4.67 10.53 
 992  8.28  6.17 10.53 
 993  7.59  7.81 10.53 
 994  8.96 11.95 10.53 
 995  7.07 10.87 10.53 
 996  7.91  5.55 10.53 
 997  8.89  9.95 10.53 
 998  6.70  6.85 10.53 
 999  8.08  6.84 10.53 
1000  7.66  9.04 10.53 
1001  7.38  5.56 10.53 
1002  9.08  5.13 10.53 
1003  9.23  4.47 10.53 
1004  8.47  6.48 10.53 
1005  7.65  6.80 10.53 
1006  8.13  4.74 10.53 
1007  6.24  8.03 10.53 
1008  8.48  5.01 10.53 
1009  7.08  4.67 10.53 
1010  7.24  2.81 10.53 
1011  9.59  6.05 10.53 
1012 10.07  6.52 10.53 
1013 10.18  4.42 10.53 
1014  7.78  8.03 10.53 
1015  8.89  5.22 10.53 
1016  9.60 11.22 10.53 
1017  9.45  6.69 10.53 
1018  8.07  8.01 10.53 
1019  7.70 10.15 10.53 
1020 10.06  9.26 10.53 
1021  8.38  8.32 10.53 
1022 10.01  9.84 10.53 
1023  6.53  7.81 10.53 
1024  8.42  5.97 10.53 
1025  8.09  9.79 10.53 
1026  8.85  7.18 10.53 
1027  8.12 10.06 10.53 
1028  8.84  8.48 10.53 
1029  8.22  6.24 10.53 
1030  9.67  7.41 10.53 
1031  9.72  9.01 10.53 
1032  8.11  7.51 10.53 
1033  8.65  9.38 10.53 
1034  8.30  7.16 10.53 
1035  9.10  7.94 10.53 
1036  8.49 12.29 10.53 
1037  8.44  9.30 10.53 
1038  8.00 10.11 10.53 
1039  8.15  6.83 10.53 
1040  9.95  6.23 10.53 
1041 11.04  4.54 10.53 
1042  8.61 11.63 11.04 
1043  9.78  8.14 11.04 
1044 10.11 11.66 11.04 
1045  9.71  9.59 11.04 
1046  8.77  7.39 11.04 
1047  9.88  8.83 11.04 
1048  8.12 10.61 11.04 
1049  9.22  9.51 11.04 
1050  7.48  5.26 11.04 
1051  5.63 11.52 11.04 
1052 11.30  7.36 11.04 
1053  7.70  6.54 11.30 
1054  6.10  5.56 11.30 
1055  8.06  6.42 11.30 
1056 10.67  6.69 11.30 
1057  5.00  9.27 11.30 
1058  9.20  6.85 11.30 
1059  6.08  6.37 11.30 
1060  8.20  8.57 11.30 
1061  9.78  9.65 11.30 
1062  9.16  9.76 11.30 
1063  9.28  8.27 11.30 
1064  8.04 11.26 11.30 
1065  8.92  5.99 11.30 
1066 10.35  8.70 11.30 
1067 10.14 11.51 11.30 
1068  8.47 11.71 11.30 
1069  8.69  9.21 11.30 
1070  8.96  8.84 11.30 
1071 10.06  7.85 11.30 
1072  7.95  9.71 11.30 
1073  9.54  9.67 11.30 
1074  7.95  8.97 11.30 
1075  8.55  8.82 11.30 
1076  8.66 11.47 11.30 
1077  8.77 10.20 11.30 
1078  6.24 10.16 11.30 
1079  7.92 10.28 11.30 
1080  8.14  6.47 11.30 
1081  7.91 11.77 11.30 
1082  8.89 10.10 11.30 
1083  6.02 10.64 11.30 
1084  8.61  9.50 11.30 
1085  8.67  7.72 11.30 
1086  8.04  6.09 11.30 
1087  7.72  9.43 11.30 
1088  7.56  8.87 11.30 
1089  8.95  6.64 11.30 
1090  7.79  9.16 11.30 
1091  8.87  3.35 11.30 
1092  6.77  6.58 11.30 
1093 10.34  4.62 11.30 
1094 10.89 10.87 11.30 
1095  7.82  6.25 11.30 
1096 10.06  5.30 11.30 
1097  8.68  7.69 11.30 
1098  8.00  6.67 11.30 
1099  7.69  7.36 11.30 
1100  5.42  7.29 11.30 
1101  8.88  6.14 11.30 
1102  7.28  6.66 11.30 
1103  7.15  4.73 11.30 
1104 10.56  4.07 11.30 
1105  9.54 10.11 11.30 
1106 10.17  7.59 11.30 
1107  6.85  3.15 11.30 
1108  6.67  6.27 11.30 
1109  8.98  6.45 11.30 
1110  7.42  9.90 11.30 
1111  7.99  6.63 11.30 
1112  9.99  3.44 11.30 
1113  9.30  7.64 11.30 
1114  8.68  6.26 11.30 
1115 10.03 10.57 11.30 
1116  9.46  6.41 11.30 
1117  9.59 10.27 11.30 
1118  9.50  8.90 11.30 
1119  8.29  7.21 11.30 
1120  7.66  6.22 11.30 
1121  8.58  6.61 11.30 
1122  8.37  6.89 11.30 
1123  9.58 10.15 11.30 
1124  8.45  5.34 11.30 
1125  8.54  5.47 11.30 
1126  8.23  7.81 11.30 
1127  7.48 11.04 11.30 
1128  9.50  7.84 11.30 
1129  9.39  6.00 11.30 
1130  8.11  6.66 11.30 
1131  8.35  6.05 11.30 
1132  7.97  6.86 11.30 
1133  9.73  9.55 11.30 
1134  7.23  4.93 11.30 
1135  6.48  7.57 11.30 
1136  9.04  3.35 11.30 
1137  8.63  7.66 11.30 
1138  9.91  8.30 11.30 
1139  7.68  5.76 11.30 
1140  9.36  6.69 11.30 
1141  9.04  6.93 11.30 
1142  7.32  3.33 11.30 
1143  9.92  5.56 11.30 
1144  7.67  7.81 11.30 
1145  9.45  4.13 11.30 
1146  7.94  6.86 11.30 
1147  8.08  8.82 11.30 
1148 10.76  6.08 11.30 
1149  9.06  7.46 11.30 
1150  8.54 10.25 11.30 
1151 10.03  8.10 11.30 
1152  7.08  6.57 11.30 
1153  9.48  5.59 11.30 
1154  9.46  6.30 11.30 
1155  6.80 10.17 11.30 
1156  8.70  7.36 11.30 
1157  9.46  9.85 11.30 
1158  7.26  6.80 11.30 
1159  9.46  9.64 11.30 
1160  9.94  5.35 11.30 
1161  7.94 10.15 11.30 
1162  9.06  7.68 11.30 
1163 10.10  8.34 11.30 
1164 10.34 10.58 11.30 
1165 10.66 11.52 11.30 
1166  7.34  9.19 11.30 
1167  7.98 11.03 11.30 
1168  9.84  8.15 11.30 
1169 10.36  9.87 11.30 
1170 10.32  9.48 11.30 
1171 10.22 12.32 11.30 
1172  8.95 12.30 11.30 
1173  7.24  9.94 11.30 
1174  8.06  7.05 11.30 
1175  6.62 11.38 11.30 
1176  9.60 13.02 11.30 
1177  7.89 11.89 11.30 
1178  7.48 12.45 11.30 
1179  6.91 10.83 11.30 
1180  7.72  7.84 11.30 
1181  9.64 12.42 11.30 
1182  7.99 11.66 11.30 
1183  6.10  5.84 11.30 
1184  9.85  4.52 11.30 
1185  8.24  9.18 11.30 
1186  6.70  7.81 11.30 
1187  7.30  6.41 11.30 
1188  7.77  7.15 11.30 
1189  9.14  7.01 11.30 
1190  9.84  8.00 11.30 
1191 11.27  9.92 11.30 
1192  8.45  8.65 11.30 
1193 10.24  6.17 11.30 
1194  9.31  5.44 11.30 
1195 10.25  7.82 11.30 
1196  5.75  7.08 11.30 
1197  9.50  5.66 11.30 
1198  7.55  4.06 11.30 
1199  6.71  5.78 11.30 
1200  8.15  8.66 11.30 
1201 10.49  7.82 11.30 
1202  9.84  5.98 11.30 
1203 10.06  4.88 11.30 
1204  8.26  6.67 11.30 
1205  8.79 11.35 11.30 
1206  7.84  6.53 11.30 
1207  7.91  9.78 11.30 
1208  9.28  5.81 11.30 
1209  8.96  7.68 11.30 
1210  8.79 12.06 11.30 
1211  9.34  6.21 11.30 
1212  8.89  9.24 11.30 
1213  7.89  5.70 11.30 
1214 10.80  6.74 11.30 
1215  7.61  7.41 11.30 
1216  7.38  6.14 11.30 
1217  8.39  7.67 11.30 
1218  7.72  7.12 11.30 
1219  9.72  7.81 11.30 
1220 10.51 10.70 11.30 
1221  8.01  4.85 11.30 
1222 10.21  8.45 11.30 
1223 10.74  7.91 11.30 
1224  9.85  5.86 11.30 
1225  6.27 10.71 11.30 
1226  9.34  7.86 11.30 
1227  9.11  5.28 11.30 
1228  6.63  8.60 11.30 
1229  9.87  6.58 11.30 
1230  8.71  9.32 11.30 
1231  8.85  6.76 11.30 
1232  7.44  6.60 11.30 
1233  9.55  6.62 11.30 
1234  9.55  7.91 11.30 
1235 10.42  7.08 11.30 
1236 10.35  6.80 11.30 
1237  9.27 11.00 11.30 
1238  8.98  6.50 11.30 
1239  5.41  6.65 11.30 
1240  8.90  6.20 11.30 
1241  6.99  6.62 11.30 
1242  9.37 10.37 11.30 
1243  9.37  7.44 11.30 
1244  8.60  6.49 11.30 
1245  7.54  6.18 11.30 
1246  6.32  5.83 11.30 
1247  9.79 11.17 11.30 
1248  9.55  4.60 11.30 
1249 10.87 10.51 11.30 
1250  9.81  9.01 11.30 
1251  9.42  6.66 11.30 
1252  9.93  7.00 11.30 
1253  9.98 12.37 11.30 
1254  8.60 10.56 11.30 
1255  8.76  9.17 11.30 
1256  9.09 12.28 11.30 
1257  8.81 11.83 11.30 
1258  9.70  6.38 11.30 
1259  8.98 12.55 11.30 
1260  8.28  9.46 11.30 
1261  6.03  8.67 11.30 
1262  7.34  5.73 11.30 
1263  7.17  6.43 11.30 
1264 11.06  8.64 11.30 
1265  8.63  9.72 11.30 
1266  8.78 11.41 11.30 
1267  8.38  6.25 11.30 
1268  8.82  8.35 11.30 
1269  7.44  6.74 11.30 
1270  7.44  5.63 11.30 
1271 10.39 12.52 11.30 
1272 11.74  4.84 11.30 
1273  7.54  5.83 11.74 
1274  9.59 10.65 11.74 
1275 10.17 13.26 11.74 
1276 10.39 11.81 11.74 
1277  7.72  8.42 11.74 
1278 11.36  6.03 11.74 
1279  8.37 11.31 11.74 
1280 10.91  8.48 11.74 
1281  7.89  7.80 11.74 
1282  8.97 10.75 11.74 
1283  7.98 11.94 11.74 
1284  9.97  7.36 11.74 
1285  9.18  6.62 11.74 
1286  7.64  9.11 11.74 
1287  8.40  8.45 11.74 
1288  9.55  6.85 11.74 
1289 10.56  8.08 11.74 
1290  8.32  7.68 11.74 
1291  7.74  7.20 11.74 
1292  9.58  8.29 11.74 
1293  9.05  8.07 11.74 
1294  8.19  9.15 11.74 
1295 10.80 12.60 11.74 
1296  8.08  9.42 11.74 
1297  8.02 10.03 11.74 
1298  8.63  8.77 11.74 
1299  9.06  8.64 11.74 
1300  8.65 11.53 11.74 
1301 10.60  9.73 11.74 
1302  9.49  8.40 11.74 
1303 10.62  8.01 11.74 
1304  9.88  7.33 11.74 
1305 10.31  9.15 11.74 
1306  8.05  8.60 11.74 
1307  8.11  6.52 11.74 
1308  7.91  8.83 11.74 
1309 10.08  6.88 11.74 
1310  7.58  8.19 11.74 
1311  9.85  7.94 11.74 
1312  7.28 11.93 11.74 
1313  9.67 10.33 11.74 
1314 11.12  7.74 11.74 
1315  8.86  8.25 11.74 
1316  9.57 10.94 11.74 
1317  9.48  8.75 11.74 
1318  9.44  8.35 11.74 
1319  7.82  7.26 11.74 
1320 11.51  6.17 11.74 
1321  8.93  7.63 11.74 
1322  9.75  9.34 11.74 
1323  9.62  7.19 11.74 
1324  8.52  8.21 11.74 
1325  8.13  9.22 11.74 
1326 10.57  8.95 11.74 
1327  9.66  9.94 11.74 
1328  9.27  8.84 11.74 
1329 10.59  9.42 11.74 
1330  9.89 11.71 11.74 
1331  9.24  6.70 11.74 
1332  8.46  7.66 11.74 
1333  7.74 11.21 11.74 
1334  8.92  9.44 11.74 
1335 10.25  7.96 11.74 
1336  8.54 11.29 11.74 
1337  9.34 10.46 11.74 
1338  9.38  7.65 11.74 
1339  8.24  9.96 11.74 
1340 10.62  8.94 11.74 
1341 10.80 11.72 11.74 
1342 10.86 11.94 11.74 
1343  9.75  7.44 11.74 
1344  7.51  7.33 11.74 
1345 10.09 10.36 11.74 
1346  8.81  9.10 11.74 
1347 11.24 11.46 11.74 
1348  8.62  8.02 11.74 
1349  9.00 10.34 11.74 
1350 10.44 11.26 11.74 
1351  7.84 11.99 11.74 
1352  8.38  7.23 11.74 
1353  8.05 12.64 11.74 
1354  9.65  8.08 11.74 
1355  9.11  6.72 11.74 
1356  8.34  9.55 11.74 
1357  9.36  7.07 11.74 
1358  9.78  9.95 11.74 
1359  9.48  6.48 11.74 
1360  8.45  8.47 11.74 
1361 10.62  7.49 11.74 
1362  7.20  9.10 11.74 
1363 10.01  6.94 11.74 
1364  8.84  7.11 11.74 
1365  7.04  7.83 11.74 
1366  8.54 11.92 11.74 
1367 11.36  7.37 11.74 
1368  9.93  6.32 11.74 
1369 10.84  7.54 11.74 
1370  7.02  4.96 11.74 
1371  8.26  6.58 11.74 
1372  8.32  5.46 11.74 
1373  7.81  5.60 11.74 
1374 10.96  4.88 11.74 
1375 10.41  5.83 11.74 
1376  8.77  5.93 11.74 
1377  8.82  8.55 11.74 
1378  9.56 11.26 11.74 
1379  9.69  9.93 11.74 
1380  8.31  9.62 11.74 
1381  8.70 10.54 11.74 
1382 10.53  9.05 11.74 
1383 10.94  9.17 11.74 
1384  9.13 12.82 11.74 
1385  8.80 10.65 11.74 
1386  9.09 11.61 11.74 
1387  9.24 10.36 11.74 
1388  9.34  9.65 11.74 
1389 10.15 11.96 11.74 
1390 10.39  9.88 11.74 
1391  7.88  8.69 11.74 
1392  8.74  9.66 11.74 
1393  9.10  7.86 11.74 
1394  8.16  7.41 11.74 
1395  8.29 10.68 11.74 
1396  9.78  8.56 11.74 
1397  9.02 10.40 11.74 
1398  9.03  9.33 11.74 
1399  6.31  9.86 11.74 
1400 10.50  9.10 11.74 
1401  9.28 12.22 11.74 
1402  8.91  8.37 11.74 
1403  9.49 12.10 11.74 
1404  6.27  9.56 11.74 
1405 10.74 11.63 11.74 
1406  9.95  8.63 11.74 
1407  8.37 10.94 11.74 
1408 11.23 10.94 11.74 
1409  6.06  8.93 11.74 
1410  8.60  9.96 11.74 
1411  7.95  6.48 11.74 
1412 10.30  8.36 11.74 
1413  6.66  9.28 11.74 
1414 10.91 12.79 11.74 
1415  9.23 10.84 11.74 
1416  9.32 12.25 11.74 
1417  9.25  8.22 11.74 
1418  9.74  9.99 11.74 
1419  7.72  8.84 11.74 
1420  9.55 10.81 11.74 
1421  9.96  8.42 11.74 
1422  8.32  8.07 11.74 
1423 10.04  8.22 11.74 
1424  7.84  9.64 11.74 
1425  8.54 11.01 11.74 
1426  8.11 10.31 11.74 
1427 10.71  8.02 11.74 
1428  9.91 10.29 11.74 
1429  9.83 10.57 11.74 
1430  9.16  7.44 11.74 
1431  8.78  9.16 11.74 
1432 11.09  9.99 11.74 
1433  8.61  9.12 11.74 
1434  9.54 11.07 11.74 
1435  9.70  8.57 11.74 
1436 10.04 10.72 11.74 
1437  9.05  7.70 11.74 
1438  9.90 10.11 11.74 
1439 11.14 10.55 11.74 
1440 10.09  8.61 11.74 
1441  6.92  6.92 11.74 
1442  9.85 10.62 11.74 
1443  9.90  7.97 11.74 
1444  7.38 10.75 11.74 
1445  9.39  8.77 11.74 
1446  8.83  7.78 11.74 
1447  8.56  8.67 11.74 
1448  7.65  9.12 11.74 
1449  9.55  7.13 11.74 
1450  9.33  6.47 11.74 
1451  7.55  5.98 11.74 
1452  7.87  7.02 11.74 
1453 10.20  7.97 11.74 
1454  9.13  8.21 11.74 
1455  9.51  6.82 11.74 
1456  8.84  6.51 11.74 
1457  7.37  3.17 11.74 
1458  9.33  6.87 11.74 
1459  7.81  6.01 11.74 
1460 10.19  8.18 11.74 
1461  9.80  6.12 11.74 
1462 10.12  6.39 11.74 
1463  9.80  8.78 11.74 
1464  9.04  8.00 11.74 
1465 10.22  6.70 11.74 
1466 10.87 10.10 11.74 
1467 10.61  6.15 11.74 
1468  9.64  8.31 11.74 
1469  8.02  7.41 11.74 
1470  8.99  7.70 11.74 
1471  8.19  6.24 11.74 
1472  9.89  7.65 11.74 
1473  8.49 10.18 11.74 
1474  8.73  8.32 11.74 
1475 10.16 10.12 11.74 
1476  9.86  8.77 11.74 
1477 10.32  7.81 11.74 
1478  8.48  9.38 11.74 
1479  8.86  8.61 11.74 
1480 10.32  8.06 11.74 
1481  9.35 12.41 11.74 
1482  8.04  9.32 11.74 
1483  9.46  9.42 11.74 
1484 10.05  8.04 11.74 
1485 10.14  9.40 11.74 
1486 10.81  9.73 11.74 
1487 10.55  6.27 11.74 
1488  9.18 11.56 11.74 
1489  8.19  9.31 11.74 
1490  9.81  8.65 11.74 
1491  7.27  8.68 11.74 
1492  8.50 10.72 11.74 
1493 10.13  6.87 11.74 
1494  7.09  9.74 11.74 
1495  9.77  9.13 11.74 
1496  9.02  7.41 11.74 
1497  9.69  8.45 11.74 
1498  9.72 11.87 11.74 
1499  7.96  8.62 11.74 
1500 10.58  8.26 11.74 
1501  8.58 10.21 11.74 
1502  9.24  9.85 11.74 
1503  9.30  7.74 11.74 
1504  7.91  7.14 11.74 
1505  8.58  6.43 11.74 
1506  8.78  8.55 11.74 
1507  7.64  9.01 11.74 
1508 10.19  2.31 11.74 
1509 11.11  9.26 11.74 
1510  7.82 10.20 11.74 
1511  9.79  7.74 11.74 
1512  8.93  6.24 11.74 
1513 11.73  6.79 11.74 
1514  8.35  6.85 11.74 
1515  8.97  5.34 11.74 
1516 10.25  6.60 11.74 
1517  8.89  6.86 11.74 
1518  9.50 11.31 11.74 
1519 10.18 12.96 11.74 
1520 10.81 10.84 11.74 
1521  8.85 11.60 11.74 
1522  9.56  9.06 11.74 
1523  9.30  8.77 11.74 
1524  8.96  9.59 11.74 
1525  9.53  8.59 11.74 
1526 10.18  8.11 11.74 
1527  9.40 10.52 11.74 
1528 10.11  4.88 11.74 
1529  7.57 11.59 11.74 
1530 10.22  6.39 11.74 
1531  8.39  8.44 11.74 
1532  4.90  7.06 11.74 
1533 10.74  8.59 11.74 
1534 10.16  7.41 11.74 
1535  8.91  8.26 11.74 
1536 10.28  9.02 11.74 
1537  7.32  8.48 11.74 
1538 10.44 12.31 11.74 
1539  8.13 11.20 11.74 
1540 11.10  7.56 11.74 
1541 11.75 10.39 11.74 
1542  8.61  9.45 11.75 
1543  9.69  7.48 11.75 
1544 10.29  6.52 11.75 
1545 10.22  6.84 11.75 
1546  9.61 10.02 11.75 
1547  8.86  7.91 11.75 
1548  9.77  4.73 11.75 
1549  9.50  6.11 11.75 
1550  8.17 11.55 11.75 
1551  9.57  6.04 11.75 
1552 11.00  7.63 11.75 
1553  9.48  8.94 11.75 
1554 10.52 10.59 11.75 
1555 11.10  3.82 11.75 
1556 10.31  6.14 11.75 
1557 10.95  6.95 11.75 
1558 10.57  6.26 11.75 
1559  8.15 10.88 11.75 
1560  9.21 12.94 11.75 
1561 10.28  7.99 11.75 
1562  8.84  9.95 11.75 
1563 10.91  1.69 11.75 
1564 10.61  7.60 11.75 
1565 10.07  8.88 11.75 
1566 10.33 11.80 11.75 
1567  9.74 10.54 11.75 
1568  6.99  9.75 11.75 
1569 10.81 12.39 11.75 
1570 10.59  7.71 11.75 
1571 10.72  8.04 11.75 
1572  9.33 10.42 11.75 
1573  9.90  9.12 11.75 
1574 10.84  7.12 11.75 
1575  5.21  7.63 11.75 
1576 10.62  7.58 11.75 
1577  8.41 11.28 11.75 
1578  7.62 12.47 11.75 
1579  9.09 10.51 11.75 
1580  8.73  8.91 11.75 
1581  9.17  8.07 11.75 
1582  6.55 11.49 11.75 
1583 10.24 10.11 11.75 
1584  9.92  8.64 11.75 
1585  9.09  8.07 11.75 
1586 10.55  8.79 11.75 
1587  8.03  6.18 11.75 
1588  9.46 11.76 11.75 
1589  8.88  6.64 11.75 
1590  9.15  7.76 11.75 
1591 10.70  4.77 11.75 
1592  8.65 11.09 11.75 
1593  9.47  7.15 11.75 
1594 11.38  8.72 11.75 
1595  9.74  9.28 11.75 
1596  8.00 11.08 11.75 
1597  8.70 10.05 11.75 
1598  8.23  9.60 11.75 
1599  8.97  8.53 11.75 
1600  9.37 12.51 11.75 
1601  8.81 10.82 11.75 
1602 10.45 11.65 11.75 
1603 10.54 12.51 11.75 
1604  9.81 11.38 11.75 
1605  8.93 10.95 11.75 
1606 10.98  9.57 11.75 
1607  8.43  9.16 11.75 
1608  9.56  9.65 11.75 
1609  9.49 10.27 11.75 
1610  8.68  8.57 11.75 
1611 11.44  9.87 11.75 
1612  9.44 11.15 11.75 
1613 10.56  8.32 11.75 
1614 10.84  8.42 11.75 
1615 10.08 10.79 11.75 
1616  7.59  8.97 11.75 
1617 10.80  7.67 11.75 
1618  9.38 12.52 11.75 
1619  9.25 12.84 11.75 
1620  8.43 12.88 11.75 
1621  9.10  7.46 11.75 
1622  9.14  8.12 11.75 
1623  9.22 12.51 11.75 
1624  7.34 10.52 11.75 
1625 10.43  8.02 11.75 
1626 10.99 12.85 11.75 
1627 10.06 11.25 11.75 
1628  9.25  6.45 11.75 
1629  9.56 11.45 11.75 
1630  8.82 11.75 11.75 
1631 11.97  9.10 11.75 
1632  9.84  9.97 11.97 
1633 10.65  7.34 11.97 
1634  9.53 12.00 11.97 
1635 11.75 12.17 11.97 
1636 11.38 10.68 11.97 
1637  7.83 12.88 11.97 
1638  8.90 11.87 11.97 
1639 10.67 10.42 11.97 
1640 10.24  9.66 11.97 
1641  9.80  9.59 11.97 
1642 10.47  7.16 11.97 
1643  9.79 12.47 11.97 
1644 10.45  8.11 11.97 
1645  9.32 11.28 11.97 
1646 10.54  9.20 11.97 
1647  9.47 10.08 11.97 
1648  9.45 11.38 11.97 
1649  8.50 10.92 11.97 
1650  9.64 12.09 11.97 
1651 10.11 10.20 11.97 
1652  8.10  4.85 11.97 
1653  9.26 11.18 11.97 
1654 10.26 10.34 11.97 
1655  9.35 10.41 11.97 
1656 10.71 11.88 11.97 
1657  9.19 12.66 11.97 
1658  9.39  9.35 11.97 
1659 11.86  9.64 11.97 
1660  8.73  9.96 11.97 
1661  7.03 12.30 11.97 
1662 10.66 11.16 11.97 
1663  8.17 11.50 11.97 
1664 10.56 11.79 11.97 
1665  9.50 11.13 11.97 
1666  9.54  9.85 11.97 
1667 10.24  7.21 11.97 
1668  9.33 10.95 11.97 
1669  9.21  8.43 11.97 
1670  7.60  8.87 11.97 
1671 10.62  6.29 11.97 
1672  9.87  7.51 11.97 
1673  7.34  6.22 11.97 
1674  9.55  8.97 11.97 
1675  5.58 10.07 11.97 
1676  7.87 10.49 11.97 
1677  9.97  7.31 11.97 
1678  9.68  9.14 11.97 
1679  7.94 10.41 11.97 
1680 11.36  9.94 11.97 
1681 10.16  3.65 11.97 
1682  8.90  6.61 11.97 
1683  8.90  7.66 11.97 
1684  9.82  6.94 11.97 
1685 11.23  8.58 11.97 
1686  9.99  5.66 11.97 
1687 10.28  6.44 11.97 
1688  8.88  5.23 11.97 
1689  9.17  9.81 11.97 
1690  9.44  6.38 11.97 
1691  9.83  9.80 11.97 
1692  9.12  8.67 11.97 
1693  8.86  7.43 11.97 
1694  8.08  8.76 11.97 
1695  8.69  7.37 11.97 
1696  8.38  8.19 11.97 
1697 10.50 11.89 11.97 
1698 10.38  8.94 11.97 
1699  7.86 10.06 11.97 
1700  9.69  6.26 11.97 
1701 10.16 11.93 11.97 
1702  9.59  8.99 11.97 
1703 10.48  9.03 11.97 
1704  9.21  4.90 11.97 
1705 10.04 11.43 11.97 
1706  8.49 11.76 11.97 
1707 11.13 10.57 11.97 
1708  9.90 11.00 11.97 
1709 11.87 12.19 11.97 
1710 10.79 10.32 11.97 
1711 11.26 12.27 11.97 
1712  9.98 11.86 11.97 
1713 10.67 12.06 11.97 
1714  8.95 11.49 11.97 
1715  9.81  9.70 11.97 
1716  8.60 11.44 11.97 
1717  8.93 10.40 11.97 
1718 11.20  5.64 11.97 
1719 10.03 11.66 11.97 
1720 10.08 10.78 11.97 
1721 11.07 12.31 11.97 
1722 10.25 11.28 11.97 
1723 10.12  7.19 11.97 
1724 10.20 12.16 11.97 
1725 11.85  9.73 11.97 
1726 11.06  7.76 11.97 
1727  9.44  6.99 11.97 
1728  9.31 11.83 11.97 
1729  8.86  8.64 11.97 
1730 11.08 11.96 11.97 
1731 11.13 11.58 11.97 
1732  9.12 12.44 11.97 
1733 10.75 10.00 11.97 
1734  9.71 11.38 11.97 
1735 11.57 11.44 11.97 
1736  9.00 10.96 11.97 
1737 10.85 11.32 11.97 
1738 10.22 11.07 11.97 
1739 10.80 12.97 11.97 
1740  9.89 10.74 11.97 
1741 12.20 12.72 11.97 
1742 10.61  7.03 12.20 
1743  9.96 12.92 12.20 
1744  8.37 12.82 12.20 
1745 11.20 10.52 12.20 
1746 10.17 12.15 12.20 
1747 10.52 12.63 12.20 
1748  8.85 12.77 12.20 
1749 10.43 11.30 12.20 
1750  9.25 12.92 12.20 
1751 10.89 12.40 12.20 
1752 11.42  6.69 12.20 
1753 10.86 10.45 12.20 
1754 11.61  9.27 12.20 
1755  9.83  9.96 12.20 
1756 10.73  9.89 12.20 
1757 10.90  8.96 12.20 
1758 11.46 10.41 12.20 
1759  9.47 10.60 12.20 
1760 12.27 12.46 12.20 
1761 11.23 12.34 12.27 
1762 10.29  8.13 12.27 
1763  9.31 12.17 12.27 
1764 11.09  6.35 12.27 
1765 11.99 12.06 12.27 
1766  8.48 12.23 12.27 
1767 10.80 11.84 12.27 
1768 11.05 13.07 12.27 
1769  9.63 12.85 12.27 
1770 11.50 12.93 12.27 
1771  9.51  9.89 12.27 
1772  9.67 13.34 12.27 
1773 10.16 12.13 12.27 
1774  7.94 10.77 12.27 
1775  9.73 12.46 12.27 
1776  9.21 12.37 12.27 
1777 10.64 10.00 12.27 
1778 10.59 12.06 12.27 
1779 10.40 12.95 12.27 
1780 11.55 12.70 12.27 
1781 10.80 10.68 12.27 
1782 10.97 12.81 12.27 
1783 10.82 11.29 12.27 
1784 11.09 11.92 12.27 
1785  9.98 11.56 12.27 
1786  9.87 11.67 12.27 
1787  9.99 12.47 12.27 
1788  9.46 11.98 12.27 
1789 10.84 10.80 12.27 
1790 10.13  9.44 12.27 
1791  8.99 12.61 12.27 
1792  8.34 10.27 12.27 
1793 10.66 11.98 12.27 
1794  9.88 12.03 12.27 
1795 12.25 12.70 12.27 
1796  9.56 11.39 12.27 
1797 11.29 12.53 12.27 
1798  9.52 11.01 12.27 
1799 10.73 12.79 12.27 
1800 12.19 11.02 12.27 
1801  9.79  9.97 12.27 
1802 10.45 12.35 12.27 
1803 10.99 10.95 12.27 
1804  9.84 12.41 12.27 
1805 10.44 13.11 12.27 
1806  9.45  9.27 12.27 
1807  9.93 10.56 12.27 
1808 10.36 11.56 12.27 
1809 11.52 10.06 12.27 
1810 10.98 10.69 12.27 
1811 10.46 10.19 12.27 
1812  9.70 11.97 12.27 
1813 10.65 12.11 12.27 
1814 10.21 10.19 12.27 
1815 11.53 12.25 12.27 
1816  8.58 13.38 12.27 
1817  9.81 11.30 12.27 
1818 10.99 11.77 12.27 
1819 10.28  7.18 12.27 
1820  9.58 12.18 12.27 
1821  9.93 11.11 12.27 
1822 10.15  9.71 12.27 
1823  7.61 12.76 12.27 
1824 10.32  8.87 12.27 
1825  9.39  9.01 12.27 
1826 11.66  9.66 12.27 
1827  9.10 11.16 12.27 
1828  9.95 10.97 12.27 
1829 10.38  7.88 12.27 
1830 11.16 11.62 12.27 
1831 10.01 11.62 12.27 
1832 10.46 12.95 12.27 
1833 10.33 12.73 12.27 
1834 10.39 11.16 12.27 
1835 10.38 10.59 12.27 
1836  9.41 13.09 12.27 
1837 11.95 11.75 12.27 
1838  9.45 12.78 12.27 
1839 11.02 10.58 12.27 
1840 10.63 12.65 12.27 
1841 11.48 13.29 12.27 
1842 10.52 12.55 12.27 
1843 11.20 11.70 12.27 
1844 10.75 12.77 12.27 
1845 11.84 11.13 12.27 
1846  9.37 11.31 12.27 
1847 11.26 11.47 12.27 
1848 11.51 12.57 12.27 
1849 11.55 11.76 12.27 
1850 12.21  9.00 12.27 
1851 11.94 13.12 12.27 
1852 11.14 11.72 12.27 
1853  9.19 12.12 12.27 
1854  8.92  9.90 12.27 
1855  9.35 10.09 12.27 
1856 10.96 10.29 12.27 
1857  8.73 12.80 12.27 
1858 11.84 11.56 12.27 
1859 12.11 10.94 12.27 
1860 10.92 10.99 12.27 
1861 10.89 10.50 12.27 
1862 10.39 12.61 12.27 
1863 10.98 10.95 12.27 
1864 12.23 12.64 12.27 
1865 10.74  9.54 12.27 
1866 11.02 10.17 12.27 
1867 11.15 13.45 12.27 
1868 11.72 11.19 12.27 
1869  8.96 13.29 12.27 
1870 10.47 12.68 12.27 
1871 10.93 13.03 12.27 
1872 10.12 11.57 12.27 
1873 10.13 12.64 12.27 
1874 11.74 12.59 12.27 
1875 11.23 13.65 12.27 
1876 11.81 10.74 12.27 
1877 11.14  9.03 12.27 
1878  9.80 11.43 12.27 
1879  9.16 11.12 12.27 
1880  8.82 13.37 12.27 
1881 10.94 12.51 12.27 
1882 10.19 13.00 12.27 
1883 10.12 11.72 12.27 
1884 10.97 11.70 12.27 
1885 11.73 10.80 12.27 
1886 11.21 12.97 12.27 
1887 10.78 10.44 12.27 
1888 10.79 12.86 12.27 
1889 11.34 11.89 12.27 
1890 11.89 12.89 12.27 
1891 10.38 10.74 12.27 
1892 10.98 13.18 12.27 
1893 11.04  8.39 12.27 
1894 10.93 12.48 12.27 
1895 11.86 10.84 12.27 
1896 11.93 12.60 12.27 
1897 11.65 13.01 12.27 
1898 11.13 11.60 12.27 
1899 11.22 12.17 12.27 
1900 10.31 10.87 12.27 
1901 11.85 10.21 12.27 
1902 10.49 12.75 12.27 
1903  7.54 11.97 12.27 
1904 10.46  8.52 12.27 
1905 11.38 10.16 12.27 
1906  8.51 12.21 12.27 
1907  9.79 12.12 12.27 
1908 11.77 11.50 12.27 
1909 10.49 13.03 12.27 
1910 10.60 11.33 12.27 
1911 10.92 12.01 12.27 
1912 11.44  9.93 12.27 
1913 11.32 11.27 12.27 
1914  9.88 12.55 12.27 
1915 10.94 12.32 12.27 
1916 11.64 12.44 12.27 
1917 11.52 12.12 12.27 
1918 10.83 11.87 12.27 
1919 10.52 12.62 12.27 
1920 11.77 12.68 12.27 
1921 10.05 11.43 12.27 
1922 11.20 12.60 12.27 
1923 11.92 11.72 12.27 
1924 11.14 10.39 12.27 
1925 11.24 11.38 12.27 
1926 10.55 11.96 12.27 
1927  9.80 12.41 12.27 
1928 11.05 11.83 12.27 
1929 10.91 12.08 12.27 
1930 10.93 12.66 12.27 
1931 10.67 12.22 12.27 
1932 10.71  9.88 12.27 
1933 11.01 12.21 12.27 
1934 11.06 12.97 12.27 
1935  9.90 11.92 12.27 
1936 11.12 11.58 12.27 
1937  9.04 12.90 12.27 
1938 11.26  7.74 12.27 
1939 11.79 10.89 12.27 
1940 12.00 12.88 12.27 
1941  8.18 10.39 12.27 
1942  8.86  8.63 12.27 
1943  9.00 11.75 12.27 
1944 10.91 11.32 12.27 
1945  9.93 11.40 12.27 
1946 10.24 10.69 12.27 
1947  9.47 12.95 12.27 
1948 10.90 10.95 12.27 
1949 10.23 11.05 12.27 
1950 11.35  9.39 12.27 
1951 11.07 10.40 12.27 
1952 11.12  8.77 12.27 
1953 10.85 11.58 12.27 
1954  9.80  9.40 12.27 
1955 10.93 13.15 12.27 
1956  9.64 10.07 12.27 
1957  9.98 11.98 12.27 
1958 10.94 11.56 12.27 
1959  9.59 10.97 12.27 
1960 10.12 12.54 12.27 
1961  8.75 12.28 12.27 
1962 10.91 11.23 12.27 
1963 10.95 11.76 12.27 
1964 12.09 12.44 12.27 
1965  9.59  8.53 12.27 
1966 10.55 12.10 12.27 
1967 10.89 10.46 12.27 
1968  9.45  9.49 12.27 
1969 10.80 11.18 12.27 
1970 10.95 12.70 12.27 
1971 11.50 11.58 12.27 
1972 10.04 12.62 12.27 
1973 11.92 11.74 12.27 
1974 10.02 11.26 12.27 
1975 10.54  9.89 12.27 
1976 10.52 10.48 12.27 
1977 11.07 12.57 12.27 
1978 11.23 12.24 12.27 
1979 10.76 12.96 12.27 
1980 11.79 12.13 12.27 
1981 11.24 10.86 12.27 
1982 11.68 11.61 12.27 
1983 12.04 12.69 12.27 
1984 10.93 11.47 12.27 
1985  8.55 12.55 12.27 
1986  8.93 13.01 12.27 
1987 11.03 10.95 12.27 
1988 10.85 12.67 12.27 
1989 12.07 12.62 12.27 
1990 10.47 11.73 12.27 
1991 11.53 12.27 12.27 
1992  8.25 12.04 12.27 
1993 11.10 12.36 12.27 
1994 11.57 13.34 12.27 
1995 10.39 12.18 12.27 
1996  9.71 13.15 12.27 
1997 11.16 12.77 12.27 
1998 11.47 12.97 12.27 
1999 10.54 11.70 12.27 
2000 11.38 11.82 12.27 
2001 10.40 10.99 12.27 
2002  9.41 12.84 12.27 
2003 10.54 12.19 12.27 
2004 11.21 12.66 12.27 
2005 11.66 12.96 12.27 
2006 11.34 12.40 12.27 
2007 11.31 12.16 12.27 
2008 11.59 12.43 12.27 
2009 10.91 13.04 12.27 
2010 10.68 11.24 12.27 
2011 12.28 12.82 12.27 
2012 11.03 13.08 12.28 
2013 11.55 12.66 12.28 
2014 10.80 12.08 12.28 
2015 10.00 12.41 12.28 
2016 11.21 12.19 12.28 
2017 12.08 11.60 12.28 
2018 12.10 10.60 12.28 
2019 11.15 11.86 12.28 
2020 10.81 12.17 12.28 
2021 10.69 11.07 12.28 
2022 10.86 12.69 12.28 
2023 10.04 12.50 12.28 
2024 11.42 13.01 12.28 
2025 10.32 11.59 12.28 
2026  9.31 12.37 12.28 
2027 12.23 12.41 12.28 
2028 10.77 11.96 12.28 
2029 12.15 13.01 12.28 
2030 12.13 10.76 12.28 
2031 11.57 11.57 12.28 
2032  8.95 10.05 12.28 
2033 10.16  8.83 12.28 
2034 10.84 13.58 12.28 
2035 11.37 11.65 12.28 
2036 11.05 12.74 12.28 
2037 11.35 12.11 12.28 
2038 10.60  9.94 12.28 
2039 11.25 12.85 12.28 
2040 11.25 12.81 12.28 
2041 10.32  9.93 12.28 
2042 11.80 12.88 12.28 
2043 11.98 10.68 12.28 
2044  9.82  8.03 12.28 
2045 10.06 11.63 12.28 
2046  9.40 10.58 12.28 
2047 10.94 10.23 12.28 
2048  9.21 10.55 12.28 
2049 11.95 12.87 12.28 
2050 11.32 12.50 12.28 
2051 10.44 13.18 12.28 
2052 11.74 12.20 12.28 
2053 10.89 13.25 12.28 
2054 11.85 12.68 12.28 
2055  9.95 11.88 12.28 
2056  9.88 10.86 12.28 
2057 10.83 10.80 12.28 
2058  9.94 10.73 12.28 
2059 11.93 11.76 12.28 
2060 10.17 12.70 12.28 
2061 10.19 12.78 12.28 
2062 12.15 12.31 12.28 
2063 11.66 10.75 12.28 
2064 11.66 12.46 12.28 
2065  9.21 10.89 12.28 
2066 11.42 12.47 12.28 
2067 11.33 12.41 12.28 
2068 11.17 11.27 12.28 
2069 11.88  9.97 12.28 
2070 11.15 11.15 12.28 
2071 11.00 12.95 12.28 
2072  9.98 12.55 12.28 
2073 10.56 12.54 12.28 
2074  9.37 12.67 12.28 
2075  9.48 12.64 12.28 
2076 11.78 12.18 12.28 
2077 11.98 13.31 12.28 
2078  9.28  7.12 12.28 
2079 11.22  8.03 12.28 
2080 11.66 10.00 12.28 
2081 10.99 10.58 12.28 
2082 10.56 11.39 12.28 
2083 10.77 11.77 12.28 
2084 10.89 12.18 12.28 
2085 10.24 11.53 12.28 
2086 11.77 11.39 12.28 
2087 11.41 12.81 12.28 
2088 11.96 12.12 12.28 
2089 12.26 11.41 12.28 
2090  9.80 12.56 12.28 
2091 11.26 13.04 12.28 
2092 12.22 11.69 12.28 
2093  9.31 11.27 12.28 
2094 11.75 10.02 12.28 
2095  8.77 10.36 12.28 
2096 11.41 12.81 12.28 
2097 10.36 13.22 12.28 
2098 11.74 10.94 12.28 
2099  9.69 10.71 12.28 
2100 12.30 10.45 12.28 
2101 11.86 12.91 12.30 
2102 10.49 11.83 12.30 
2103 11.40 13.29 12.30 
2104 11.04 10.32 12.30 
2105  9.30 10.80 12.30 
2106 10.97 12.43 12.30 
2107 11.80 13.12 12.30 
2108 11.55 12.77 12.30 
2109 11.95 12.38 12.30 
2110 11.96 12.70 12.30 
2111 11.38 12.03 12.30 
2112 10.93 12.57 12.30 
2113 11.13 10.68 12.30 
2114 11.44 13.03 12.30 
2115 11.34 13.01 12.30 
2116 10.79 10.97 12.30 
2117 10.65 11.44 12.30 
2118 11.41 11.72 12.30 
2119 11.10 13.16 12.30 
2120 11.54 12.52 12.30 
2121 11.98 11.78 12.30 
2122 11.02 11.84 12.30 
2123  9.41 12.69 12.30 
2124 10.54 13.17 12.30 
2125 10.44 12.49 12.30 
2126 11.18 12.17 12.30 
2127 10.50 12.84 12.30 
2128 11.44 12.69 12.30 
2129 11.34 12.17 12.30 
2130 11.50 11.92 12.30 
2131 11.44  9.70 12.30 
2132  9.42 13.27 12.30 
2133 11.49 10.54 12.30 
2134 10.51 12.92 12.30 
2135 10.43  9.47 12.30 
2136  9.67  7.99 12.30 
2137  9.63 11.15 12.30 
2138 10.76  9.84 12.30 
2139 12.36 11.72 12.30 
2140 11.98 11.30 12.36 
2141 11.59 12.92 12.36 
2142 11.86 11.50 12.36 
2143 10.54 12.20 12.36 
2144 11.07 12.55 12.36 
2145  9.77  9.24 12.36 
2146 10.91 12.22 12.36 
2147 11.59 11.99 12.36 
2148 10.54 12.69 12.36 
2149  9.39 11.14 12.36 
2150  8.74 12.41 12.36 
2151 11.50 11.65 12.36 
2152 11.11 11.47 12.36 
2153 11.85 12.25 12.36 
2154  9.76 12.63 12.36 
2155 12.03  9.92 12.36 
2156 10.80  7.69 12.36 
2157 12.04 12.96 12.36 
2158 10.95 12.83 12.36 
2159 11.15  6.80 12.36 
2160 11.97 11.27 12.36 
2161  9.45 11.19 12.36 
2162  9.61 12.15 12.36 
2163 10.99 12.06 12.36 
2164 11.40 12.68 12.36 
2165 10.50 11.75 12.36 
2166 12.01 12.08 12.36 
2167  9.41 12.03 12.36 
2168 10.86 10.77 12.36 
2169 10.16 12.76 12.36 
2170  9.13 10.89 12.36 
2171 11.87  9.74 12.36 
2172 11.12 12.51 12.36 
2173 10.59 12.70 12.36 
2174 11.37 12.80 12.36 
2175 11.47 11.82 12.36 
2176  9.29 12.82 12.36 
2177 12.60 13.13 12.36 
2178 10.50  9.36 12.60 
2179 10.79 11.44 12.60 
2180 10.99 11.46 12.60 
2181 11.18 11.50 12.60 
2182  9.15 12.91 12.60 
2183 11.50 10.52 12.60 
2184 11.94 11.16 12.60 
2185 10.95  6.08 12.60 
2186 11.80 11.93 12.60 
2187 10.77 10.31 12.60 
2188 11.41 12.40 12.60 
2189 11.25  8.62 12.60 
2190 11.48 13.20 12.60 
2191 10.30 12.53 12.60 
2192 11.11 12.14 12.60 
2193 10.33 11.33 12.60 
2194 10.01 12.81 12.60 
2195 11.16 11.98 12.60 
2196 10.98 10.37 12.60 
2197 11.59 12.63 12.60 
2198 10.89 12.15 12.60 
2199 10.89 11.73 12.60 
2200 11.86 11.40 12.60 
2201  9.82 12.51 12.60 
2202 11.52 12.35 12.60 
2203 11.41 12.02 12.60 
2204 12.03 12.86 12.60 
2205 11.15 11.40 12.60 
2206 10.34 10.48 12.60 
2207  9.74 11.33 12.60 
2208 10.39 10.64 12.60 
2209 11.15 10.51 12.60 
2210 12.32 10.27 12.60 
2211 11.84 11.27 12.60 
2212 10.14 11.67 12.60 
2213 11.82 12.74 12.60 
2214 11.63 12.89 12.60 
2215 10.94 12.76 12.60 
2216 10.66 12.36 12.60 
2217 10.48 11.50 12.60 
2218 12.53  9.19 12.60 
2219 11.77 11.50 12.60 
2220 10.78 11.21 12.60 
2221 10.48  8.76 12.60 
2222 11.26 12.59 12.60 
2223 11.61  9.73 12.60 
2224 10.91 10.88 12.60 
2225 11.56 12.59 12.60 
2226 10.23 12.62 12.60 
2227  8.34 11.83 12.60 
2228 11.76  9.63 12.60 
2229 12.14 10.33 12.60 
2230 10.10  9.37 12.60 
2231 11.11 11.89 12.60 
2232 11.41  8.96 12.60 
2233 11.59 13.25 12.60 
2234 11.18 11.73 12.60 
2235 11.33 11.77 12.60 
2236 10.20 11.43 12.60 
2237 10.64 12.75 12.60 
2238 10.82 13.28 12.60 
2239 10.90  8.64 12.60 
2240  8.08 12.91 12.60 
2241 11.08  7.63 12.60 
2242 12.05  8.15 12.60 
2243 10.68  8.47 12.60 
2244 11.26 12.25 12.60 
2245  9.61 11.88 12.60 
2246 10.52 11.30 12.60 
2247 11.51 10.33 12.60 
2248 10.68 11.38 12.60 
2249  9.39  6.26 12.60 
2250 12.19 12.65 12.60 
2251 12.39 10.59 12.60 
2252 11.71 10.41 12.60 
2253 11.15 10.86 12.60 
2254 10.07 12.37 12.60 
2255 11.12 13.10 12.60 
2256 11.17 12.60 12.60 
2257  9.87 10.16 12.60 
2258 10.02 11.39 12.60 
2259 12.05 11.15 12.60 
2260 11.96  9.98 12.60 
2261 11.23 11.95 12.60 
2262 11.14 12.76 12.60 
2263 12.10 13.12 12.60 
2264  9.11 10.34 12.60 
2265 10.49 11.92 12.60 
2266 11.05 12.92 12.60 
2267 11.07 12.89 12.60 
2268 11.30  7.31 12.60 
2269 10.31  8.89 12.60 
2270 11.57 11.81 12.60 
2271 11.66 12.65 12.60 
2272 11.65 12.62 12.60 
2273  8.33 11.06 12.60 
2274 11.35 10.57 12.60 
2275 10.12 10.85 12.60 
2276  8.62 11.72 12.60 
2277  9.96  7.99 12.60 
2278 11.14 11.14 12.60 
2279 10.39  7.99 12.60 
2280 11.52  8.40 12.60 
2281 11.22 12.06 12.60 
2282 11.70 12.50 12.60 
2283 11.45 11.80 12.60 
2284 11.93 11.35 12.60 
2285 12.44  7.71 12.60 
2286  8.00 12.95 12.60 
2287 11.84  9.71 12.60 
2288 12.34 10.04 12.60 
2289 11.19 12.26 12.60 
2290 11.17 10.88 12.60 
2291  8.99 12.49 12.60 
2292  9.98 11.18 12.60 
2293 11.30 12.66 12.60 
2294  8.53 12.23 12.60 
2295 11.64  8.28 12.60 
2296 11.65 12.73 12.60 
2297 11.82 12.77 12.60 
2298 11.04 12.12 12.60 
2299 10.39 12.44 12.60 
2300 11.46 13.19 12.60 
2301 11.38 12.82 12.60 
2302 10.19 12.96 12.60 
2303 12.21 11.43 12.60 
2304 10.28 12.58 12.60 
2305 12.52 12.89 12.60 
2306  9.80 13.51 12.60 
2307 10.60 12.68 12.60 
2308 11.90 12.29 12.60 
2309 10.16  7.50 12.60 
2310 10.42  9.91 12.60 
2311 11.66 12.59 12.60 
2312 11.41 12.75 12.60 
2313  9.39 12.27 12.60 
2314  9.50 11.84 12.60 
2315 11.40 11.52 12.60 
2316  8.88 12.42 12.60 
2317 10.89 11.28 12.60 
2318 10.02 12.21 12.60 
2319 10.31 12.89 12.60 
2320 11.54 13.10 12.60 
2321 12.28 11.13 12.60 
2322 10.07 10.53 12.60 
2323  9.43 11.08 12.60 
2324 10.62 12.88 12.60 
2325 10.19 11.51 12.60 
2326 11.72 13.01 12.60 
2327 10.98  9.06 12.60 
2328 11.80 12.75 12.60 
2329 10.07 11.75 12.60 
2330 10.86  9.59 12.60 
2331 11.57 11.54 12.60 
2332 11.73 12.26 12.60 
2333  9.80 12.93 12.60 
2334 10.62 11.32 12.60 
2335 11.49  9.02 12.60 
2336  9.88  6.76 12.60 
2337 10.39 13.54 12.60 
2338 11.57 13.11 12.60 
2339 12.25 11.81 12.60 
2340 12.14 12.90 12.60 
2341 11.06 12.08 12.60 
2342 10.99 13.28 12.60 
2343  9.03 13.46 12.60 
2344 10.61 12.55 12.60 
2345 11.68 13.41 12.60 
2346 11.68 11.79 12.60 
2347 10.91 12.87 12.60 
2348 11.24 12.23 12.60 
2349 12.55 12.14 12.60 
2350  9.82  9.31 12.60 
2351  9.85 12.99 12.60 
2352 12.39 12.67 12.60 
2353  8.36 12.96 12.60 
2354 11.15 12.62 12.60 
2355 11.18 12.84 12.60 
2356 11.23 12.95 12.60 
2357 11.35 12.65 12.60 
2358 10.94 12.09 12.60 
2359 12.23 13.60 12.60 
2360 10.99 11.88 12.60 
2361 11.84  8.57 12.60 
2362  9.77 12.90 12.60 
2363 10.55 12.52 12.60 
2364 11.68  9.65 12.60 
2365 11.14 12.02 12.60 
2366 11.06  6.10 12.60 
2367 11.86 12.22 12.60 
2368 11.41  9.04 12.60 
2369 12.23 11.60 12.60 
2370 11.01 12.50 12.60 
2371 10.13 12.74 12.60 
2372 10.05 12.02 12.60 
2373 11.55 12.73 12.60 
2374 10.75 10.40 12.60 
2375 11.40 10.38 12.60 
2376 11.74  9.87 12.60 
2377 11.19 12.10 12.60 
2378 10.98 12.89 12.60 
2379 11.30 11.79 12.60 
2380 11.89 12.79 12.60 
2381  9.59 13.15 12.60 
2382  9.43 12.67 12.60 
2383  8.49 12.45 12.60 
2384 11.03 12.06 12.60 
2385  8.93 10.92 12.60 
2386  8.64 13.11 12.60 
2387  8.82 12.86 12.60 
2388  9.92  8.13 12.60 
2389 11.80 13.68 12.60 
2390  9.90 12.06 12.60 
2391 12.64 11.07 12.60 
2392  9.31 11.45 12.64 
2393  9.22 11.09 12.64 
2394 10.89 11.22 12.64 
2395 10.60 11.48 12.64 
2396 11.56  9.59 12.64 
2397 11.88 11.74 12.64 
2398 11.94 10.40 12.64 
2399 12.06  9.97 12.64 
2400 10.81 12.71 12.64 
2401 12.42 11.28 12.64 
2402  8.73 12.04 12.64 
2403 11.13  9.76 12.64 
2404 11.79 13.35 12.64 
2405  9.98 10.94 12.64 
2406  7.63 12.28 12.64 
2407  8.24 13.18 12.64 
2408 10.65 12.11 12.64 
2409 11.34 11.72 12.64 
2410  9.16 12.30 12.64 
2411 11.92 10.42 12.64 
2412  9.84 11.26 12.64 
2413 10.06 11.82 12.64 
2414 10.46  9.86 12.64 
2415 10.26 12.49 12.64 
2416 10.93 10.04 12.64 
2417 10.37 10.30 12.64 
2418  9.80 11.67 12.64 
2419 11.06 12.34 12.64 
2420 11.90 12.04 12.64 
2421  9.49 10.98 12.64 
2422  9.92 11.27 12.64 
2423 10.33 13.61 12.64 
2424 11.10 13.01 12.64 
2425 12.42 11.62 12.64 
2426 10.32 13.07 12.64 
2427 11.73 10.69 12.64 
2428  9.94 13.42 12.64 
2429 12.00 11.75 12.64 
2430  8.90 13.40 12.64 
2431 10.42  9.84 12.64 
2432 10.65 10.53 12.64 
2433 11.21 11.42 12.64 
2434  8.79 10.32 12.64 
2435 10.08 12.61 12.64 
2436  9.54 10.94 12.64 
2437 10.66 13.06 12.64 
2438 11.82 11.47 12.64 
2439 11.01 13.04 12.64 
2440 10.27 10.64 12.64 
2441 11.88  7.04 12.64 
2442  9.75  8.61 12.64 
2443 10.98 12.00 12.64 
2444 12.17  8.90 12.64 
2445 10.53 10.38 12.64 
2446 11.43  9.50 12.64 
2447  9.20 10.00 12.64 
2448  8.79 12.58 12.64 
2449 11.16 11.69 12.64 
2450 10.97 12.40 12.64 
2451 10.88 11.16 12.64 
2452 12.32  9.83 12.64 
2453 10.66 12.31 12.64 
2454  8.34 12.47 12.64 
2455 10.64 11.06 12.64 
2456 10.14 10.83 12.64 
2457 11.73 11.84 12.64 
2458 10.21 11.83 12.64 
2459 12.07 11.07 12.64 
2460 10.52 13.21 12.64 
2461 11.06 12.63 12.64 
2462  9.55 12.08 12.64 
2463 11.99 12.13 12.64 
2464  9.93 12.79 12.64 
2465 11.03 10.86 12.64 
2466 11.18 11.50 12.64 
2467 11.39 12.69 12.64 
2468 10.20 11.54 12.64 
2469 11.32 12.08 12.64 
2470 10.76 10.42 12.64 
2471 11.37 11.70 12.64 
2472 11.22 11.21 12.64 
2473 11.02 12.34 12.64 
2474  8.97 11.51 12.64 
2475  8.95 10.65 12.64 
2476 10.73 10.71 12.64 
2477 10.45 12.57 12.64 
2478  8.42 11.35 12.64 
2479 10.04 11.59 12.64 
2480 11.68 10.62 12.64 
2481 12.17 12.05 12.64 
2482 11.59 12.30 12.64 
2483  9.46 12.29 12.64 
2484 10.81 11.03 12.64 
2485 10.42 11.95 12.64 
2486 10.63 12.33 12.64 
2487 10.02  9.80 12.64 
2488 11.55 11.02 12.64 
2489 10.95 11.03 12.64 
2490 11.33 10.73 12.64 
2491  9.99  9.71 12.64 
2492  9.83 12.99 12.64 
2493 11.34 12.09 12.64 
2494 10.27 10.16 12.64 
2495 10.96 13.29 12.64 
2496  9.93 10.88 12.64 
2497 10.25 12.30 12.64 
2498  8.83 10.46 12.64 
2499 13.09 12.32 12.64 
2500  9.56 13.31 13.09 
2501 12.49 11.30 13.09 
2502 11.13 11.15 13.09 
2503 11.29 10.47 13.09 
2504 10.02 11.58 13.09 
2505 12.19 12.00 13.09 
2506 11.54  8.06 13.09 
2507 11.13 11.59 13.09 
2508  9.98 11.85 13.09 
2509 10.02 10.95 13.09 
2510  8.69 12.16 13.09 
2511 11.87 11.37 13.09 
2512 11.33 11.92 13.09 
2513 11.68 13.30 13.09 
2514 11.00 11.47 13.09 
2515 11.76 11.55 13.09 
2516 10.00 12.46 13.09 
2517 10.88 12.58 13.09 
2518 11.82 10.48 13.09 
2519 11.27 11.22 13.09 
2520 11.44 12.41 13.09 
2521 11.50  9.04 13.09 
2522 11.32 11.53 13.09 
2523 10.15 11.80 13.09 
2524 11.07 12.44 13.09 
2525 10.41 11.64 13.09 
2526 11.95 11.46 13.09 
2527 11.47 11.12 13.09 
2528 12.12 11.74 13.09 
2529 11.59 11.56 13.09 
2530 10.26 11.93 13.09 
2531 11.24 11.61 13.09 
2532 11.18 11.73 13.09 
2533 10.69 12.00 13.09 
2534  9.31 10.16 13.09 
2535  9.86 12.25 13.09 
2536 11.77 12.79 13.09 
2537 11.52 11.84 13.09 
2538 12.04 12.29 13.09 
2539 11.40  9.56 13.09 
2540 12.33 11.39 13.09 
2541 11.59 11.71 13.09 
2542 11.79 11.04 13.09 
2543 11.59 12.82 13.09 
2544 10.22 12.40 13.09 
2545 10.57 11.97 13.09 
2546 11.54 12.93 13.09 
2547 11.84 12.39 13.09 
2548 11.26 11.64 13.09 
2549  9.10 13.24 13.09 
2550 10.65 10.82 13.09 
2551 12.32  8.49 13.09 
2552  9.62 11.53 13.09 
2553 12.18 13.48 13.09 
2554 11.44 13.12 13.09 
2555 11.47 11.96 13.09 
2556 12.12 10.56 13.09 
2557 10.69 10.92 13.09 
2558 10.38 11.89 13.09 
2559 10.31 10.81 13.09 
2560 11.37 10.29 13.09 
2561 11.66 10.08 13.09 
2562 12.03  7.36 13.09 
2563 10.61 10.84 13.09 
2564 11.10 11.26 13.09 
2565 11.22 12.63 13.09 
2566 10.98 12.82 13.09 
2567 11.96 13.08 13.09 
2568 11.93 11.21 13.09 
2569 10.13 11.88 13.09 
2570 12.22 12.42 13.09 
2571 10.66  9.35 13.09 
2572 11.61 12.67 13.09 
2573 10.49 13.53 13.09 
2574 10.70 11.93 13.09 
2575 10.39 11.52 13.09 
2576 11.13 13.27 13.09 
2577 10.36  9.92 13.09 
2578 11.90 11.40 13.09 
2579  8.56 10.98 13.09 
2580  9.64 11.95 13.09 
2581 11.39 12.37 13.09 
2582 11.85 13.24 13.09 
2583 10.61 11.53 13.09 
2584 10.17 12.00 13.09 
2585 10.29 11.49 13.09 
2586 11.71 12.03 13.09 
2587 10.53 11.57 13.09 
2588 11.72 13.56 13.09 
2589 11.06 12.97 13.09 
2590  9.60 11.35 13.09 
2591 11.43 12.88 13.09 
2592 11.77 10.58 13.09 
2593 12.11 12.67 13.09 
2594 12.36 12.67 13.09 
2595 10.87 12.50 13.09 
2596 11.30 12.06 13.09 
2597 12.24 12.47 13.09 
2598 11.08 10.87 13.09 
2599 11.94 11.93 13.09 
2600  9.65 11.69 13.09 
2601 11.59 10.98 13.09 
2602 10.32 11.65 13.09 
2603 10.81 13.25 13.09 
2604 11.37 10.54 13.09 
2605 11.03 11.61 13.09 
2606 11.18  9.91 13.09 
2607 10.92 13.12 13.09 
2608 11.82 11.35 13.09 
2609 12.54 12.67 13.09 
2610 11.57 11.80 13.09 
2611 10.44 10.12 13.09 
2612 11.15 11.99 13.09 
2613 11.47 12.30 13.09 
2614 11.59 12.73 13.09 
2615 11.19 11.62 13.09 
2616 12.74 11.21 13.09 
2617 10.56 10.77 13.09 
2618 11.34 12.40 13.09 
2619 12.13 12.27 13.09 
2620 11.34 12.59 13.09 
2621 12.01 11.08 13.09 
2622  9.91 12.43 13.09 
2623 10.89  9.97 13.09 
2624 11.99 12.24 13.09 
2625 11.30 11.91 13.09 
2626 11.29 11.31 13.09 
2627  8.81 11.62 13.09 
2628 10.12 11.98 13.09 
2629 10.50 11.75 13.09 
2630 12.11 12.33 13.09 
2631  8.57 13.07 13.09 
2632 10.42 10.14 13.09 
2633 10.20 13.07 13.09 
2634 12.14 12.53 13.09 
2635  9.93 13.36 13.09 
2636 10.75  6.48 13.09 
2637  8.78 13.47 13.09 
2638 10.30 11.93 13.09 
2639  9.49 10.36 13.09 
2640 11.15 12.20 13.09 
2641 11.61 12.11 13.09 
2642 11.06 12.32 13.09 
2643 11.19 12.21 13.09 
2644 10.72 12.36 13.09 
2645  9.29 11.52 13.09 
2646  9.25 12.70 13.09 
2647 12.07 12.11 13.09 
2648 12.33 11.26 13.09 
2649 12.43  8.89 13.09 
2650 10.26 10.24 13.09 
2651 12.25 11.35 13.09 
2652 11.78 10.38 13.09 
2653 11.64 12.58 13.09 
2654 11.95 11.01 13.09 
2655 11.10 10.72 13.09 
2656 11.43 11.74 13.09 
2657  9.81 12.80 13.09 
2658 10.98 10.22 13.09 
2659 10.31 12.70 13.09 
2660 11.33 12.58 13.09 
2661 11.96 10.72 13.09 
2662  9.84 10.47 13.09 
2663 10.65 12.00 13.09 
2664 11.34 10.74 13.09 
2665 11.40 12.37 13.09 
2666 11.70 11.63 13.09 
2667 12.13  9.98 13.09 
2668  9.77 12.56 13.09 
2669 12.45  8.71 13.09 
2670 10.45 12.73 13.09 
2671  9.00 10.50 13.09 
2672 10.86 13.38 13.09 
2673  8.95 10.07 13.09 
2674 10.58 12.86 13.09 
2675 11.11 13.02 13.09 
2676 11.66 11.10 13.09 
2677 11.34 10.49 13.09 
2678 10.42 12.34 13.09 
2679 11.09 10.84 13.09 
2680 11.37 11.11 13.09 
2681 10.81 12.09 13.09 
2682 10.61 10.48 13.09 
2683 11.39  9.82 13.09 
2684 11.69 11.78 13.09 
2685 10.29 11.23 13.09 
2686 10.17 12.60 13.09 
2687 11.86 13.38 13.09 
2688 10.68 12.27 13.09 
2689 11.36 10.40 13.09 
2690  9.36 11.28 13.09 
2691 10.66 10.37 13.09 
2692 11.84 12.46 13.09 
2693  9.92 12.02 13.09 
2694 11.69 12.12 13.09 
2695  9.84 10.24 13.09 
2696 10.56 11.55 13.09 
2697 10.03 10.19 13.09 
2698 10.81 11.68 13.09 
2699 11.75 11.53 13.09 
2700 11.39 11.33 13.09 
2701 11.14  9.62 13.09 
2702  8.65 12.27 13.09 
2703 10.53 10.90 13.09 
2704 11.57 11.86 13.09 
2705  9.06 11.19 13.09 
2706 10.29 12.01 13.09 
2707 11.91  9.50 13.09 
2708 11.03 12.34 13.09 
2709 11.32 12.50 13.09 
2710 10.26 10.71 13.09 
2711 10.71 10.61 13.09 
2712 10.82 12.44 13.09 
2713 11.51 10.46 13.09 
2714 11.28 12.03 13.09 
2715 10.59 10.48 13.09 
2716 10.18 11.89 13.09 
2717 10.42 12.57 13.09 
2718 11.77  6.27 13.09 
2719  6.99  7.80 13.09 
2720 11.55 10.32 13.09 
2721 11.55 10.72 13.09 
2722 10.57  9.79 13.09 
2723  9.91  9.66 13.09 
2724  9.28 11.32 13.09 
2725 11.09 12.50 13.09 
2726  9.27 11.53 13.09 
2727  9.77 12.19 13.09 
2728 10.61  9.84 13.09 
2729 11.01 12.26 13.09 
2730  7.75 12.26 13.09 
2731 10.53 10.35 13.09 
2732 10.03 11.04 13.09 
2733 11.77  9.78 13.09 
2734 10.01 12.36 13.09 
2735  9.78 11.64 13.09 
2736  9.65 11.36 13.09 
2737 10.47 11.90 13.09 
2738 10.51 11.22 13.09 
2739 10.67 11.45 13.09 
2740 11.07 13.25 13.09 
2741 10.68 10.09 13.09 
2742  7.66 10.05 13.09 
2743  8.88 11.56 13.09 
2744 11.80 12.98 13.09 
2745 11.58 11.76 13.09 
2746  9.84 11.70 13.09 
2747 11.43 10.76 13.09 
2748 10.68 13.14 13.09 
2749 11.04 11.14 13.09 
2750 10.56 12.66 13.09 
2751  9.47  9.65 13.09 
2752 10.50 11.61 13.09 
2753  9.36  9.80 13.09 
2754  9.73  9.34 13.09 
2755  9.52 11.85 13.09 
2756 11.20  9.94 13.09 
2757 11.64  9.18 13.09 
2758  9.77  9.46 13.09 
2759 10.74 10.22 13.09 
2760 11.25  8.71 13.09 
2761  9.67 12.68 13.09 
2762 10.58 10.61 13.09 
2763 11.29 10.75 13.09 
2764 11.07 11.49 13.09 
2765 11.22 12.17 13.09 
2766 10.38  9.86 13.09 
2767 11.50 11.80 13.09 
2768 11.24 13.16 13.09 
2769 12.24 11.73 13.09 
2770  6.92  9.28 13.09 
2771 10.62 12.63 13.09 
2772 10.17 10.07 13.09 
2773 11.67 11.18 13.09 
2774 10.73 12.19 13.09 
2775 10.26 10.12 13.09 
2776 10.88 12.34 13.09 
2777 10.37 11.56 13.09 
2778  8.91 13.41 13.09 
2779 11.89  9.79 13.09 
2780  9.98 12.31 13.09 
2781  9.10 10.81 13.09 
2782 10.78  9.38 13.09 
2783 10.20 12.77 13.09 
2784 11.18 12.89 13.09 
2785 11.62 12.00 13.09 
2786 12.31 11.88 13.09 
2787 10.70 11.11 13.09 
2788 10.04 13.37 13.09 
2789 10.17 10.65 13.09 
2790 10.98 11.61 13.09 
2791 11.10 12.63 13.09 
2792  9.54 13.03 13.09 
2793 11.08 12.82 13.09 
2794 10.80 12.03 13.09 
2795 11.33 13.46 13.09 
2796 11.00 10.89 13.09 
2797 11.75 12.38 13.09 
2798 11.16 12.39 13.09 
2799 11.17 11.95 13.09 
2800  9.60 13.35 13.09 
2801 11.50 11.05 13.09 
2802 11.63 12.77 13.09 
2803 10.95 12.72 13.09 
2804 11.66 10.99 13.09 
2805 12.23 11.08 13.09 
2806 11.96 10.10 13.09 
2807 10.84 13.27 13.09 
2808 10.99 12.65 13.09 
2809 11.24 12.48 13.09 
2810 12.23 12.71 13.09 
2811 11.46 12.57 13.09 
2812 12.13 12.66 13.09 
2813 10.96 10.96 13.09 
2814  8.98 12.44 13.09 
2815 11.16 11.61 13.09 
2816  9.82 10.24 13.09 
2817 11.57 13.44 13.09 
2818  9.85  9.84 13.09 
2819 12.24 12.85 13.09 
2820 12.77 13.32 13.09 
2821 11.18 12.25 13.09 
2822 11.17  9.39 13.09 
2823 12.28 12.72 13.09 
2824 11.63 12.31 13.09 
2825 10.79 11.20 13.09 
2826 10.80 10.51 13.09 
2827 10.93 13.34 13.09 
2828 12.74 12.58 13.09 
2829 10.99 12.74 13.09 
2830 11.69 12.86 13.09 
2831  9.04 11.00 13.09 
2832  9.45 13.37 13.09 
2833 11.19 10.40 13.09 
2834  9.14 11.43 13.09 
2835 12.08 12.80 13.09 
2836 10.29 12.33 13.09 
2837 10.57 11.60 13.09 
2838 11.75 13.10 13.09 
2839 11.59 12.52 13.09 
2840 11.17 11.14 13.09 
2841 11.87 11.91 13.09 
2842 11.45 11.93 13.09 
2843 10.90 12.66 13.09 
2844  9.65 11.79 13.09 
2845 10.43 12.69 13.09 
2846 11.61 12.17 13.09 
2847 11.56 11.61 13.09 
2848 12.42 12.58 13.09 
2849  9.97 12.18 13.09 
2850 10.77 12.44 13.09 
2851 11.50 12.49 13.09 
2852 11.00 11.80 13.09 
2853 11.77 12.08 13.09 
2854 10.36 12.46 13.09 
2855  7.51 12.23 13.09 
2856 11.63 12.68 13.09 
2857 10.35 11.97 13.09 
2858 11.95 11.73 13.09 
2859 11.65 11.97 13.09 
2860 11.65 11.70 13.09 
2861 11.99 11.88 13.09 
2862 11.30 12.83 13.09 
2863 12.37 12.97 13.09 
2864 11.68 12.48 13.09 
2865  8.67 10.90 13.09 
2866 12.01 12.92 13.09 
2867 11.92 13.00 13.09 
2868 10.32 11.67 13.09 
2869 11.91 11.16 13.09 
2870 11.15 11.58 13.09 
2871 12.26 11.87 13.09 
2872  9.21 11.75 13.09 
2873 11.76 12.40 13.09 
2874 12.76 11.87 13.09 
2875 12.04 12.17 13.09 
2876 12.02 12.44 13.09 
2877 10.93 12.53 13.09 
2878 12.20 12.19 13.09 
2879 12.44 12.90 13.09 
2880 11.61 13.03 13.09 
2881 12.34 12.36 13.09 
2882 10.85 11.41 13.09 
2883 10.63 13.01 13.09 
2884 10.51 12.75 13.09 
2885 11.15 12.46 13.09 
2886 12.14 12.45 13.09 
2887 12.55 11.97 13.09 
2888 12.42 12.47 13.09 
2889 11.75 12.22 13.09 
2890 11.84 12.81 13.09 
2891 12.54 12.62 13.09 
2892  9.15 12.39 13.09 
2893  9.09 11.99 13.09 
2894 10.10 12.06 13.09 
2895 11.02 12.78 13.09 
2896 11.65 12.11 13.09 
2897 11.29 10.64 13.09 
2898 12.27 12.23 13.09 
2899 11.50 11.12 13.09 
2900 11.57  9.75 13.09 
2901 11.15 12.63 13.09 
2902 12.16 11.72 13.09 
2903 10.37 12.19 13.09 
2904 10.77 11.83 13.09 
2905 11.72 12.99 13.09 
2906 11.83 10.47 13.09 
2907 11.16 12.89 13.09 
2908 11.75 12.51 13.09 
2909 10.66 11.76 13.09 
2910  9.09 10.90 13.09 
2911  9.91 12.86 13.09 
2912 12.93 12.69 13.09 
2913 12.38 12.95 13.09 
2914  9.80 11.11 13.09 
2915 11.37 11.97 13.09 
2916 12.52 11.12 13.09 
2917 11.56 12.84 13.09 
2918 10.07 10.98 13.09 
2919 10.23 11.65 13.09 
2920 12.57 12.36 13.09 
2921 11.66 13.29 13.09 
2922 11.96 12.41 13.09 
2923 11.87 12.31 13.09 
2924 11.66 12.80 13.09 
2925 10.27 12.43 13.09 
2926 11.31 11.78 13.09 
2927 11.02 12.66 13.09 
2928 12.11 12.79 13.09 
2929 11.68 11.93 13.09 
2930 11.98 13.14 13.09 
2931 11.46 13.52 13.09 
2932  9.96 10.60 13.09 
2933 12.20 12.33 13.09 
2934 12.44 12.69 13.09 
2935 12.27 12.90 13.09 
2936 12.28 12.88 13.09 
2937 11.12 12.64 13.09 
2938 11.40 12.02 13.09 
2939 10.79 12.72 13.09 
2940 10.63 11.99 13.09 
2941  9.18 12.81 13.09 
2942  9.99 12.97 13.09 
2943  9.48 11.76 13.09 
2944 11.15 13.63 13.09 
2945 12.57 13.39 13.09 
2946 11.30 12.97 13.09 
2947 11.67 13.53 13.09 
2948 10.89 13.12 13.09 
2949 11.79 13.45 13.09 
2950 11.93 10.80 13.09 
2951 11.47 12.54 13.09 
2952 11.77 13.04 13.09 
2953  9.51 12.44 13.09 
2954 12.08 12.73 13.09 
2955 11.75 13.00 13.09 
2956 11.51 13.30 13.09 
2957  9.63 11.83 13.09 
2958 11.70 12.04 13.09 
2959 11.74 12.56 13.09 
2960 11.88 12.67 13.09 
2961 10.47 13.62 13.09 
2962 12.42 13.28 13.09 
2963 11.57 11.20 13.09 
2964 11.77 12.48 13.09 
2965 11.26 12.77 13.09 
2966 10.29 11.93 13.09 
2967 11.24 13.56 13.09 
2968 11.49 12.92 13.09 
2969 10.31 11.89 13.09 
2970 11.02 13.29 13.09 
2971 12.31 12.53 13.09 
2972 11.49 12.47 13.09 
2973 11.05 12.54 13.09 
2974 11.84 11.95 13.09 
2975 10.17 12.50 13.09 
2976 10.94 12.93 13.09 
2977 10.30 12.58 13.09 
2978 12.18 12.71 13.09 
2979 10.36 12.92 13.09 
2980 11.94 12.75 13.09 
2981 11.27 11.54 13.09 
2982 11.43 13.57 13.09 
2983 12.40 12.61 13.09 
2984 11.72 12.80 13.09 
2985 12.58 13.38 13.09 
2986 11.21 12.75 13.09 
2987 10.47 12.65 13.09 
2988 11.74 12.88 13.09 
2989 11.43 12.78 13.09 
2990  9.41 12.71 13.09 
2991 11.55 12.81 13.09 
2992 11.39 13.14 13.09 
2993 11.63 13.63 13.09 
2994 11.43 12.59 13.09 
2995 11.67 13.09 13.09 
2996 12.67 13.02 13.09 
2997 11.32 11.04 13.09 
2998 11.07 12.99 13.09 
2999 11.48 11.63 13.09 
3000 10.30 13.33 13.09 
3001 10.78 13.28 13.09 
3002 11.50 12.65 13.09 
3003 11.72 13.38 13.09 
3004 11.15 12.16 13.09 
3005 11.39 11.50 13.09 
3006 12.38 12.84 13.09 
3007 12.02 12.51 13.09 
3008 11.84 12.45 13.09 
3009 12.22 12.27 13.09 
3010 11.79 13.13 13.09 
3011 11.20 13.39 13.09 
3012 12.14 13.23 13.09 
3013 11.06 13.17 13.09 
3014 13.07 13.07 13.09 
3015 10.74 12.53 13.09 
3016 11.74 12.52 13.09 
3017 11.39 12.06 13.09 
3018 11.57 12.67 13.09 
3019 12.16 12.48 13.09 
3020 12.61 12.94 13.09 
3021 11.75 12.80 13.09 
3022 11.24 12.48 13.09 
3023 11.97 12.61 13.09 
3024 12.39 13.43 13.09 
3025 12.37 11.94 13.09 
3026  7.66 12.64 13.09 
3027 11.60 12.16 13.09 
3028 11.93 13.37 13.09 
3029 12.18 11.81 13.09 
3030 12.56 12.49 13.09 
3031 11.67 12.00 13.09 
3032 10.39 11.54 13.09 
3033 11.89 12.84 13.09 
3034 11.90 12.97 13.09 
3035 10.97 12.82 13.09 
3036 11.18 12.00 13.09 
3037 12.38 11.64 13.09 
3038 12.54 12.39 13.09 
3039 12.24 11.97 13.09 
3040 10.94 11.93 13.09 
3041 12.19 12.69 13.09 
3042 10.69 12.58 13.09 
3043 10.39 12.35 13.09 
3044 11.18 11.13 13.09 
3045 12.10 12.27 13.09 
3046 10.92 12.46 13.09 
3047 12.36 13.03 13.09 
3048 11.07 13.00 13.09 
3049 11.59 12.99 13.09 
3050 11.97 12.98 13.09 
3051 12.02 12.67 13.09 
3052 11.55 11.92 13.09 
3053 11.41 12.67 13.09 
3054 11.82 13.46 13.09 
3055 12.06 12.55 13.09 
3056 11.07 12.04 13.09 
3057 12.90 12.38 13.09 
3058 10.68 13.34 13.09 
3059 10.65 12.95 13.09 
3060 12.06 12.45 13.09 
3061 10.46 12.87 13.09 
3062 11.83 12.74 13.09 
3063 12.23 13.24 13.09 
3064  9.31 11.97 13.09 
3065 10.29 13.51 13.09 
3066 11.46 12.38 13.09 
3067 11.81 12.48 13.09 
3068 13.01 12.59 13.09 
3069 10.28 11.68 13.09 
3070 11.54 10.94 13.09 
3071 12.61  8.13 13.09 
3072 10.49 12.35 13.09 
3073 12.25 11.76 13.09 
3074 12.17 12.99 13.09 
3075 11.85 12.42 13.09 
3076 11.78 12.64 13.09 
3077 10.84 12.79 13.09 
3078 11.07 13.26 13.09 
3079 11.65 12.64 13.09 
3080 10.94 12.84 13.09 
3081 11.98  8.98 13.09 
3082 12.25 12.77 13.09 
3083 10.65 12.26 13.09 
3084 11.18 12.25 13.09 
3085 11.19 12.45 13.09 
3086 11.27 12.37 13.09 
3087 11.25 11.92 13.09 
3088 10.88 13.12 13.09 
3089 11.78 12.13 13.09 
3090 11.29 12.79 13.09 
3091 12.75 11.71 13.09 
3092  8.66 12.98 13.09 
3093 10.16 10.81 13.09 
3094 11.77 11.75 13.09 
3095 11.97 11.36 13.09 
3096 12.46 12.74 13.09 
3097 11.00 12.19 13.09 
3098 11.88 12.49 13.09 
3099 10.73 12.48 13.09 
3100 11.27 12.54 13.09 
3101 12.43 11.79 13.09 
3102 11.83 11.95 13.09 
3103  9.41 12.55 13.09 
3104 10.03 13.01 13.09 
3105 12.15 12.82 13.09 
3106 12.40 11.84 13.09 
3107 12.26 13.19 13.09 
3108 10.93 12.54 13.09 
3109 11.94 12.90 13.09 
3110 10.87 12.75 13.09 
3111 11.41 12.85 13.09 
3112 12.63 13.26 13.09 
3113 11.95 13.23 13.09 
3114 11.19 12.72 13.09 
3115 12.44 13.07 13.09 
3116 12.02 12.04 13.09 
3117 10.56 13.00 13.09 
3118 11.48 12.98 13.09 
3119 12.36 12.97 13.09 
3120  9.16 10.99 13.09 
3121 12.41 12.97 13.09 
3122 12.65 12.74 13.09 
3123 12.97 13.22 13.09 
3124 12.25 13.10 13.09 
3125 11.96 11.99 13.09 
3126 12.87 13.07 13.09 
3127 11.76 12.13 13.09 
3128 12.47 12.58 13.09 
3129 11.58 13.91 13.09 
3130 12.54 12.91 13.09 
3131 12.40 13.17 13.09 
3132 11.72 12.97 13.09 
3133 12.01 12.52 13.09 
3134 12.24 12.03 13.09 
3135 11.52 12.45 13.09 
3136 11.87 11.06 13.09 
3137 11.66 12.27 13.09 
3138 12.59 12.64 13.09 
3139 12.31 12.99 13.09 
3140 12.20 13.05 13.09 
3141 12.46 12.03 13.09 
3142 12.38 13.03 13.09 
3143 12.64 13.27 13.09 
3144 10.20 13.01 13.09 
3145 12.13 13.21 13.09 
3146 12.74 13.04 13.09 
3147 12.01 12.88 13.09 
3148 12.47 13.00 13.09 
3149 12.47 12.37 13.09 
3150 11.29 13.32 13.09 
3151 12.06 12.62 13.09 
3152 11.46 12.63 13.09 
3153 12.28 12.77 13.09 
3154 11.98 13.16 13.09 
3155 11.49 12.93 13.09 
3156 11.35 12.80 13.09 
3157 12.28 13.31 13.09 
3158 11.17 12.09 13.09 
3159 12.46 13.15 13.09 
3160 11.51 12.68 13.09 
3161 12.20 13.24 13.09 
3162 11.82 12.47 13.09 
3163 12.39 12.13 13.09 
3164  8.95 12.79 13.09 
3165 12.28 13.59 13.09 
3166 12.04 12.75 13.09 
3167 12.87 11.75 13.09 
3168 12.15 12.92 13.09 
3169 12.79 13.68 13.09 
3170 11.07 11.30 13.09 
3171 11.88 13.17 13.09 
3172 11.14 12.94 13.09 
3173 12.42 12.69 13.09 
3174  9.67 12.53 13.09 
3175 11.75 10.70 13.09 
3176 10.87 13.48 13.09 
3177 11.82 13.26 13.09 
3178 11.26 12.20 13.09 
3179 12.69 12.98 13.09 
3180 10.56 12.28 13.09 
3181 12.42 11.73 13.09 
3182 10.76 13.06 13.09 
3183 11.37 12.47 13.09 
3184 11.76 11.77 13.09 
3185 11.51 13.61 13.09 
3186 12.53 13.10 13.09 
3187 12.73 12.56 13.09 
3188 11.51 12.72 13.09 
3189 11.19 13.50 13.09 
3190 12.96 12.73 13.09 
3191 11.64 12.79 13.09 
3192 12.84 11.84 13.09 
3193 11.23 12.85 13.09 
3194 12.07 12.53 13.09 
3195 12.31 12.71 13.09 
3196 11.66 13.15 13.09 
3197 11.69 12.51 13.09 
3198 12.26 12.94 13.09 
3199 11.34 12.94 13.09 
3200 12.35 13.01 13.09 
3201 12.25 13.19 13.09 
3202  9.84 13.26 13.09 
3203 12.93 13.14 13.09 
3204 12.44 12.86 13.09 
3205 12.48 12.58 13.09 
3206 12.65 12.88 13.09 
3207 12.05 12.65 13.09 
3208 12.36 13.07 13.09 
3209 12.15 12.78 13.09 
3210 11.42 12.53 13.09 
3211 11.87 13.97 13.09 
3212 10.63 13.10 13.09 
3213  9.94 12.77 13.09 
3214 11.98 12.70 13.09 
3215 11.77 12.71 13.09 
3216 12.12 12.59 13.09 
3217 11.84 12.22 13.09 
3218 11.81 12.42 13.09 
3219 12.15 12.82 13.09 
3220 11.96 12.37 13.09 
3221 11.12 12.56 13.09 
3222 10.16 13.76 13.09 
3223 10.52 10.88 13.09 
3224 12.00 12.25 13.09 
3225 11.70 11.61 13.09 
3226 12.63 11.81 13.09 
3227 11.47 12.77 13.09 
3228 12.40 13.00 13.09 
3229 12.58 12.04 13.09 
3230 12.16 13.18 13.09 
3231 12.03 13.06 13.09 
3232 11.02 12.89 13.09 
3233 12.63 12.34 13.09 
3234 12.33 12.05 13.09 
3235 12.30 13.11 13.09 
3236 12.35 12.84 13.09 
3237 11.72 12.76 13.09 
3238 11.45 13.46 13.09 
3239 12.66 10.59 13.09 
3240 12.67 13.21 13.09 
3241 12.55  7.09 13.09 
3242 11.19 12.83 13.09 
3243 11.83 13.27 13.09 
3244 10.74 13.02 13.09 
3245 12.42 13.52 13.09 
3246 12.22 12.87 13.09 
3247 12.68 12.83 13.09 
3248 11.57 12.87 13.09 
3249 11.67 13.04 13.09 
3250 12.45 13.53 13.09 
3251 12.68 13.23 13.09 
3252 12.69 12.53 13.09 
3253 12.16 12.97 13.09 
3254 11.63 13.20 13.09 
3255 10.38 12.85 13.09 
3256 10.89 13.36 13.09 
3257 12.56 13.44 13.09 
3258 13.06 13.08 13.09 
3259 12.49 13.12 13.09 
3260 11.76 13.20 13.09 
3261 10.83 12.53 13.09 
3262 11.40 11.81 13.09 
3263 10.68 13.10 13.09 
3264 12.56 12.75 13.09 
3265 12.44 13.48 13.09 
3266 12.83 12.67 13.09 
3267 11.90 13.16 13.09 
3268 12.52 13.12 13.09 
3269 12.55 13.04 13.09 
3270 12.59 12.41 13.09 
3271 12.17 12.18 13.09 
3272 12.56 12.70 13.09 
3273 11.26 13.14 13.09 
3274 12.15 13.11 13.09 
3275 12.54 12.73 13.09 
3276 12.64 12.95 13.09 
3277 12.39 13.66 13.09 
3278 12.09 13.42 13.09 
3279 12.57 13.87 13.09 
3280 12.32 12.25 13.09 
3281 11.43 13.04 13.09 
3282  9.16 13.12 13.09 
3283 12.09 12.64 13.09 
3284 11.75 12.66 13.09 
3285 12.22  9.80 13.09 
3286 12.22 13.17 13.09 
3287 10.72 11.74 13.09 
3288 12.19 13.25 13.09 
3289 12.20 13.12 13.09 
3290 11.43 12.61 13.09 
3291 11.75 13.22 13.09 
3292 11.90 13.43 13.09 
3293 13.19 13.12 13.09 
3294 12.66 13.21 13.19 
3295 12.66 13.35 13.19 
3296 11.82 12.73 13.19 
3297 12.14 13.29 13.19 
3298 10.75 13.26 13.19 
3299 11.04 12.40 13.19 
3300 11.32 13.68 13.19 
3301 12.58 12.76 13.19 
3302 12.69 12.87 13.19 
3303 12.26 12.88 13.19 
3304 12.79 12.04 13.19 
3305 12.38 13.24 13.19 
3306 11.71 13.07 13.19 
3307 11.68 11.90 13.19 
3308 12.13 13.26 13.19 
3309 10.86 13.07 13.19 
3310 12.69 13.21 13.19 
3311 11.49 12.24 13.19 
3312 11.98 12.99 13.19 
3313 12.58 12.98 13.19 
3314 11.65 12.29 13.19 
3315 12.64 12.86 13.19 
3316 10.26 13.10 13.19 
3317 12.85 12.92 13.19 
3318 11.83 12.83 13.19 
3319 11.75  9.41 13.19 
3320 11.75 12.19 13.19 
3321 11.27 13.17 13.19 
3322 12.22 12.27 13.19 
3323 11.96 11.44 13.19 
3324 12.32 13.52 13.19 
3325 12.56 12.75 13.19 
3326 11.12 13.19 13.19 
3327 12.24 13.78 13.19 
3328 13.27 13.43 13.19 
3329 12.44 13.42 13.27 
3330 11.91 12.44 13.27 
3331 12.51 13.10 13.27 
3332 12.59 13.35 13.27 
3333 12.25 13.61 13.27 
3334 11.53 13.01 13.27 
3335 11.39 13.55 13.27 
3336 13.02 13.42 13.27 
3337 11.66 12.68 13.27 
3338 10.49 12.22 13.27 
3339 12.78 13.42 13.27 
3340 11.61 12.58 13.27 
3341 10.59 12.95 13.27 
3342 12.48 13.25 13.27 
3343 11.99 13.12 13.27 
3344 12.52 12.61 13.27 
3345 11.84 13.60 13.27 
3346 12.48 12.63 13.27 
3347 11.82 13.40 13.27 
3348 12.50 12.28 13.27 
3349 11.70 13.05 13.27 
3350 11.98 12.52 13.27 
3351 11.19 11.57 13.27 
3352 10.33 14.06 13.27 
3353 12.26 12.33 13.27 
3354 12.33 12.62 13.27 
3355 12.54 10.50 13.27 
3356 10.91 13.55 13.27 
3357 11.10 13.14 13.27 
3358 12.43 12.82 13.27 
3359 11.22 12.47 13.27 
3360 12.68 12.74 13.27 
3361 12.98 13.02 13.27 
3362  9.47 13.60 13.27 
3363 12.32 13.05 13.27 
3364  9.86 13.70 13.27 
3365 10.87 13.55 13.27 
3366 11.29 12.20 13.27 
3367 12.47 13.64 13.27 
3368 12.07 13.45 13.27 
3369 12.69 12.53 13.27 
3370 11.87 12.97 13.27 
3371 12.08 12.15 13.27 
3372 12.88 12.97 13.27 
3373 11.80 13.64 13.27 
3374 12.85 12.87 13.27 
3375 12.39 13.52 13.27 
3376 12.18 12.67 13.27 
3377 11.52 13.58 13.27 
3378 12.61 13.27 13.27 
3379 12.52 13.74 13.27 
3380 10.26 10.62 13.27 
3381 11.30 13.41 13.27 
3382 12.53 13.03 13.27 
3383 12.48 12.47 13.27 
3384 12.23 13.52 13.27 
3385 12.37 13.58 13.27 
3386 10.25 13.06 13.27 
3387 12.68 12.39 13.27 
3388 12.01 14.16 13.27 
3389 13.03  8.47 13.27 
3390 12.39 13.18 13.27 
3391 12.69 13.41 13.27 
3392 12.30 13.51 13.27 
3393 12.91 13.55 13.27 
3394 12.68 13.20 13.27 
3395 12.02 14.03 13.27 
3396 12.88 13.71 13.27 
3397 11.01 13.73 13.27 
3398 11.93 11.35 13.27 
3399 11.49 13.25 13.27 
3400 12.46 13.58 13.27 
3401 12.59 13.36 13.27 
3402 12.95 13.14 13.27 
3403 11.77 13.84 13.27 
3404 12.16 11.79 13.27 
3405 12.58 13.19 13.27 
3406 11.81 12.32 13.27 
3407 12.10 13.44 13.27 
3408 12.25 13.27 13.27 
3409 12.72 12.58 13.27 
3410 11.93 13.02 13.27 
3411 12.24 13.48 13.27 
3412 11.55 13.36 13.27 
3413 12.86 13.02 13.27 
3414 12.11 10.84 13.27 
3415 11.81 13.77 13.27 
3416 12.69 12.95 13.27 
3417 12.84 13.94 13.27 
3418 10.72 13.57 13.27 
3419 12.64 11.73 13.27 
3420 12.77 11.90 13.27 
3421 12.93 13.76 13.27 
3422 12.64 13.27 13.27 
3423 11.50 13.38 13.27 
3424 12.40 13.16 13.27 
3425 12.95 13.38 13.27 
3426 11.14 12.88 13.27 
3427 12.61 13.71 13.27 
3428 11.58 12.83 13.27 
3429 12.28 13.11 13.27 
3430 12.39 11.98 13.27 
3431 10.90 13.42 13.27 
3432 12.52 13.08 13.27 
3433 12.34 12.63 13.27 
3434 12.16 12.09 13.27 
3435 11.52 13.19 13.27 
3436 11.34 13.22 13.27 
3437 11.82 13.58 13.27 
3438 13.16 13.33 13.27 
3439 12.92 13.17 13.27 
3440 12.38 12.19 13.27 
3441 12.40 13.55 13.27 
3442 12.44 13.15 13.27 
3443 12.40 12.50 13.27 
3444 12.37 13.53 13.27 
3445 11.56 12.68 13.27 
3446 13.09 12.66 13.27 
3447 11.51 13.87 13.27 
3448 12.38 13.13 13.27 
3449 12.28 13.54 13.27 
3450 12.68 13.25 13.27 
3451 10.95 12.51 13.27 
3452 13.47 11.91 13.27 
3453 12.05 12.24 13.47 
3454 10.87 12.55 13.47 
3455 12.32 13.02 13.47 
3456 11.60 13.45 13.47 
3457 12.53 11.97 13.47 
3458 12.60 12.19 13.47 
3459 11.41 13.03 13.47 
3460 12.29 12.26 13.47 
3461 12.06 11.32 13.47 
3462 10.55 12.62 13.47 
3463 12.48 13.30 13.47 
3464 11.21 13.31 13.47 
3465 12.90 12.57 13.47 
3466 12.33 13.36 13.47 
3467 10.45 12.70 13.47 
3468 11.96 11.98 13.47 
3469 13.57 13.86 13.47 
3470 12.53 13.15 13.57 
3471 12.31 12.51 13.57 
3472 13.09 10.38 13.57 
3473 12.69 13.50 13.57 
3474 12.96 13.65 13.57 
3475 11.74 12.53 13.57 
3476 10.65 12.65 13.57 
3477 12.92 12.55 13.57 
3478 12.01 12.84 13.57 
3479 11.95 13.18 13.57 
3480 12.80 12.93 13.57 
3481 10.73 12.47 13.57 
3482 10.80 13.41 13.57 
3483 12.42 12.52 13.57 
3484 12.81 13.00 13.57 
3485 12.90 12.46 13.57 
3486 11.65 13.28 13.57 
3487 11.63 12.41 13.57 
3488 12.92 12.67 13.57 
3489 12.08  8.75 13.57 
3490 12.34 12.69 13.57 
3491 11.94 13.68 13.57 
3492 12.59 14.23 13.57 
3493 12.77 13.62 13.57 
3494 10.32 13.70 13.57 
3495 10.47 13.80 13.57 
3496 12.14 13.99 13.57 
3497 12.94 12.27 13.57 
3498 12.45 12.78 13.57 
3499 11.67 13.53 13.57 
3500 12.50 13.97 13.57 
3501 12.11 12.69 13.57 
3502 12.48 13.02 13.57 
3503 11.91 12.71 13.57 
3504  9.62 13.35 13.57 
3505 10.87 12.72 13.57 
3506 12.64 13.23 13.57 
3507 11.35 13.29 13.57 
3508 11.94 13.11 13.57 
3509  6.68 13.46 13.57 
3510 12.22 13.80 13.57 
3511 12.79 13.32 13.57 
3512 13.09 12.95 13.57 
3513 12.57 13.63 13.57 
3514 12.85 12.85 13.57 
3515 12.69 13.30 13.57 
3516 10.37 14.01 13.57 
3517 13.15 13.64 13.57 
3518 12.54 13.03 13.57 
3519 11.76 12.04 13.57 
3520 11.09 13.93 13.57 
3521 11.88 12.39 13.57 
3522 12.21 13.10 13.57 
3523 11.99 12.83 13.57 
3524 12.80 13.86 13.57 
3525 11.65 13.08 13.57 
3526 11.95 13.78 13.57 
3527 12.48 13.77 13.57 
3528 13.04 13.86 13.57 
3529 12.65 12.65 13.57 
3530 12.18 13.70 13.57 
3531 12.49 11.90 13.57 
3532 11.49 13.63 13.57 
3533 12.00 12.85 13.57 
3534 12.67 13.96 13.57 
3535 12.39 12.89 13.57 
3536 12.96 12.98 13.57 
3537 12.06 13.36 13.57 
3538 12.85 13.87 13.57 
3539 12.74 14.11 13.57 
3540 13.14 12.76 13.57 
3541 12.59 13.09 13.57 
3542 12.82 13.61 13.57 
3543 11.16 13.99 13.57 
3544 10.62 12.29 13.57 
3545 12.31 13.28 13.57 
3546 10.91 13.25 13.57 
3547 10.58 13.61 13.57 
3548 11.62 13.60 13.57 
3549 12.01 13.15 13.57 
3550 12.48 12.72 13.57 
3551 11.84 12.69 13.57 
3552 11.95 13.76 13.57 
3553 11.78 13.91 13.57 
3554 13.07 13.14 13.57 
3555 12.36 12.87 13.57 
3556 10.70 13.45 13.57 
3557 12.83 13.74 13.57 
3558 12.34 13.52 13.57 
3559 11.73 13.72 13.57 
3560 11.08 13.41 13.57 
3561 11.44 14.00 13.57 
3562 10.26 10.63 13.57 
3563 12.49 13.39 13.57 
3564 12.72 13.67 13.57 
3565 11.30  6.89 13.57 
3566 13.11 13.31 13.57 
3567 12.22 11.41 13.57 
3568 11.46 13.78 13.57 
3569 11.51 13.96 13.57 
3570 12.54 13.49 13.57 
3571 12.34 13.46 13.57 
3572 12.17 13.63 13.57 
3573 11.92 12.66 13.57 
3574 10.92 12.34 13.57 
3575 12.51 13.39 13.57 
3576 11.98 10.93 13.57 
3577 10.53 13.40 13.57 
3578 12.04 11.75 13.57 
3579 12.32 12.37 13.57 
3580 12.57 12.61 13.57 
3581 12.11 10.65 13.57 
3582 12.64 12.61 13.57 
3583 11.90 13.82 13.57 
3584 12.84 12.75 13.57 
3585 10.48 10.17 13.57 
3586 12.30 11.02 13.57 
3587 11.37 13.68 13.57 
3588 12.97 11.60 13.57 
3589 10.40 12.78 13.57 
3590 13.09  9.98 13.57 
3591  9.33 12.43 13.57 
3592 11.73  7.63 13.57 
3593 12.35 12.34 13.57 
3594 11.84 12.81 13.57 
3595 11.64 13.59 13.57 
3596 11.31 12.79 13.57 
3597 12.19 10.49 13.57 
3598 12.07 11.41 13.57 
3599 12.11 13.26 13.57 
3600 11.72 12.63 13.57 
3601 13.12 12.05 13.57 
3602 12.70 13.43 13.57 
3603 12.82 12.77 13.57 
3604 10.50 12.35 13.57 
3605 12.93 12.19 13.57 
3606 13.13 10.49 13.57 
3607 12.41 11.18 13.57 
3608 11.50  6.49 13.57 
3609 10.95 12.79 13.57 
3610  9.84 11.24 13.57 
3611  7.87 13.12 13.57 
3612  9.90 10.97 13.57 
3613 11.95  9.79 13.57 
3614 12.88 13.68 13.57 
3615 11.19 14.05 13.57 
3616 11.88  8.33 13.57 
3617 12.81 12.79 13.57 
3618 11.79 14.02 13.57 
3619 10.85  9.99 13.57 
3620 12.43  9.99 13.57 
3621 12.31 14.03 13.57 
3622 12.26 12.97 13.57 
3623 13.33 14.09 13.57 
3624 11.06 14.07 13.57 
3625 10.65 12.42 13.57 
3626 12.56 13.88 13.57 
3627 10.42 13.62 13.57 
3628 11.33 13.70 13.57 
3629 12.33 11.19 13.57 
3630 11.02 11.52 13.57 
3631 12.01 13.88 13.57 
3632 12.70 12.68 13.57 
3633 10.72 13.66 13.57 
3634 10.99 12.71 13.57 
3635 11.04 10.43 13.57 
3636 11.10 11.99 13.57 
3637 12.27 13.68 13.57 
3638 12.20 11.19 13.57 
3639 11.59 13.30 13.57 
3640 12.48 13.41 13.57 
3641 11.97  7.23 13.57 
3642 11.86  9.56 13.57 
3643 10.58 13.38 13.57 
3644  9.76 13.84 13.57 
3645 11.54 12.77 13.57 
3646 12.96 12.79 13.57 
3647 12.13 12.51 13.57 
3648 12.12 12.43 13.57 
3649 11.60 13.10 13.57 
3650 12.90 11.79 13.57 
3651 13.00 12.13 13.57 
3652 11.47 13.87 13.57 
3653 11.90 10.66 13.57 
3654 12.71 11.77 13.57 
3655 11.77 11.65 13.57 
3656 11.13 14.13 13.57 
3657 12.62 11.78 13.57 
3658 10.39 13.58 13.57 
3659  9.95 13.65 13.57 
3660 12.35 13.36 13.57 
3661 11.55 13.61 13.57 
3662 12.68 13.04 13.57 
3663 10.61 13.18 13.57 
3664 10.94 13.13 13.57 
3665 12.24 10.84 13.57 
3666 11.45 12.75 13.57 
3667 11.32 13.31 13.57 
3668 10.32 14.22 13.57 
3669 10.87 14.04 13.57 
3670 11.93 12.68 13.57 
3671 12.16 13.68 13.57 
3672 12.38 13.54 13.57 
3673 11.12 13.48 13.57 
3674 10.18 14.08 13.57 
3675 11.65 14.06 13.57 
3676 10.36 14.38 13.57 
3677 12.44 13.73 13.57 
3678 12.04 14.16 13.57 
3679 11.75 13.73 13.57 
3680 12.85 13.91 13.57 
3681 12.64 12.50 13.57 
3682 12.02 12.78 13.57 
3683 12.24 13.47 13.57 
3684 11.83 13.21 13.57 
3685 12.85 14.50 13.57 
3686 12.69 13.41 13.57 
3687 10.99 13.24 13.57 
3688 12.02 13.57 13.57 
3689 12.71 13.22 13.57 
3690 11.77 13.11 13.57 
3691 12.90 13.69 13.57 
3692 12.43 13.19 13.57 
3693 10.76 13.92 13.57 
3694 12.88 11.02 13.57 
3695 13.06 13.25 13.57 
3696 11.80  9.40 13.57 
3697 11.75  8.18 13.57 
3698 12.35 14.16 13.57 
3699 10.67 14.01 13.57 
3700 11.23 13.92 13.57 
3701 12.14 10.38 13.57 
3702 10.19 12.04 13.57 
3703 10.28 13.19 13.57 
3704 12.45 12.79 13.57 
3705 11.77 12.65 13.57 
3706 12.96 12.05 13.57 
3707 11.20  9.73 13.57 
3708 10.61 13.85 13.57 
3709 11.05 13.74 13.57 
3710 12.81 13.08 13.57 
3711 11.99 14.40 13.57 
3712 11.87 12.73 13.57 
3713  9.81 13.52 13.57 
3714 12.82  8.25 13.57 
3715 10.30 10.80 13.57 
3716 13.20 13.34 13.57 
3717 13.31 12.10 13.57 
3718 11.97 13.30 13.57 
3719 12.06 13.77 13.57 
3720 11.79 14.00 13.57 
3721 10.89 13.50 13.57 
3722 10.99 13.85 13.57 
3723 12.17 13.74 13.57 
3724 11.50 12.82 13.57 
3725 12.32 11.47 13.57 
3726 12.83 13.08 13.57 
3727 12.83 12.52 13.57 
3728 12.07 11.80 13.57 
3729 13.55 12.89 13.57 
3730 12.80 13.31 13.57 
3731 12.64 14.08 13.57 
3732 12.69 12.79 13.57 
3733 12.28 12.11 13.57 
3734 11.87 13.52 13.57 
3735 12.56 13.99 13.57 
3736 11.18 11.57 13.57 
3737 12.62 13.10 13.57 
3738 11.93 14.08 13.57 
3739 11.72 13.75 13.57 
3740 10.88 13.98 13.57 
3741 12.12 13.90 13.57 
3742  9.89 12.85 13.57 
3743 12.11 14.16 13.57 
3744 11.96 14.08 13.57 
3745 10.97 14.06 13.57 
3746 12.20 13.28 13.57 
3747 12.91 14.09 13.57 
3748 12.30 10.38 13.57 
3749 10.89 14.23 13.57 
3750 12.01 13.73 13.57 
3751 13.50 11.81 13.57 
3752 10.96 13.98 13.57 
3753 11.42 12.67 13.57 
3754 12.54 14.10 13.57 
3755 13.46 13.70 13.57 
3756 10.02 10.16 13.57 
3757 12.25 12.84 13.57 
3758 12.67 13.44 13.57 
3759 12.25 14.14 13.57 
3760 12.10 14.18 13.57 
3761 11.42  8.80 13.57 
3762 12.36 13.85 13.57 
3763 11.83 11.19 13.57 
3764 12.94 13.27 13.57 
3765 13.05 13.46 13.57 
3766 11.51 14.32 13.57 
3767  8.65 14.15 13.57 
3768 12.31 10.55 13.57 
3769 11.51 13.86 13.57 
3770 12.66 13.76 13.57 
3771 11.25 13.36 13.57 
3772 10.30 14.04 13.57 
3773 13.30 13.05 13.57 
3774 12.13 13.28 13.57 
3775 10.90 13.77 13.57 
3776 12.16 14.14 13.57 
3777 12.69 14.12 13.57 
3778 11.49 13.96 13.57 
3779 12.97 13.85 13.57 
3780 10.20 12.30 13.57 
3781 12.10 11.41 13.57 
3782 13.01 14.19 13.57 
3783 12.00 14.01 13.57 
3784 11.24 11.11 13.57 
3785 11.16 13.38 13.57 
3786 13.31 13.47 13.57 
3787 12.98 14.15 13.57 
3788 12.11 14.14 13.57 
3789 12.58 14.44 13.57 
3790 12.98 14.40 13.57 
3791 12.60 13.15 13.57 
3792 12.20 13.96 13.57 
3793 13.41 13.87 13.57 
3794 10.62  8.82 13.57 
3795 10.15 13.75 13.57 
3796 12.07  8.86 13.57 
3797 12.82  6.16 13.57 
3798 13.48  9.83 13.57 
3799 12.37 14.27 13.57 
3800 13.34 12.69 13.57 
3801 11.82 13.29 13.57 
3802 12.17 14.20 13.57 
3803 11.44 13.68 13.57 
3804 11.83 13.75 13.57 
3805 11.32 14.03 13.57 
3806 12.89 14.14 13.57 
3807 12.37 12.45 13.57 
3808 11.11 11.35 13.57 
3809 12.43 13.43 13.57 
3810 12.19 10.59 13.57 
3811 12.77 13.70 13.57 
3812 13.13 12.79 13.57 
3813 12.77 12.18 13.57 
3814 11.13 13.98 13.57 
3815 12.72 14.15 13.57 
3816 12.76 13.57 13.57 
3817 11.99 10.04 13.57 
3818 12.59 14.00 13.57 
3819 10.84 12.20 13.57 
3820 12.18 13.85 13.57 
3821 12.43 10.59 13.57 
3822 12.46 13.80 13.57 
3823 11.25 14.36 13.57 
3824 13.08 13.32 13.57 
3825 12.78 14.10 13.57 
3826 10.46 13.52 13.57 
3827 11.85 13.64 13.57 
3828 11.48 12.16 13.57 
3829 11.43 13.61 13.57 
3830 12.01 14.17 13.57 
3831 12.99 14.05 13.57 
3832 11.32 13.13 13.57 
3833 11.18 13.01 13.57 
3834 10.60 13.29 13.57 
3835 11.59 13.02 13.57 
3836 13.47 13.90 13.57 
3837 13.04 12.94 13.57 
3838 11.41 13.29 13.57 
3839 12.39 13.59 13.57 
3840 10.01 13.51 13.57 
3841 12.53 13.59 13.57 
3842 12.40 13.21 13.57 
3843 12.19 11.52 13.57 
3844 12.94 12.60 13.57 
3845 12.04 12.49 13.57 
3846 12.55 11.46 13.57 
3847 12.71 12.21 13.57 
3848 11.83 12.67 13.57 
3849 12.58 10.88 13.57 
3850 11.83 13.87 13.57 
3851 11.89  5.88 13.57 
3852  8.88 12.13 13.57 
3853 12.64 10.89 13.57 
3854 12.38 12.53 13.57 
3855 12.92  7.95 13.57 
3856 11.19  6.23 13.57 
3857 11.29 11.29 13.57 
3858 12.61  6.28 13.57 
3859 12.81 12.43 13.57 
3860 12.45 13.26 13.57 
3861 11.95 13.75 13.57 
3862 11.19  8.23 13.57 
3863 12.57 13.53 13.57 
3864 12.58  6.92 13.57 
3865 10.51 12.09 13.57 
3866 11.02 14.07 13.57 
3867 12.01 13.38 13.57 
3868 11.29  7.71 13.57 
3869 10.54 13.00 13.57 
3870 12.71 10.15 13.57 
3871 11.56  7.43 13.57 
3872 12.09 12.76 13.57 
3873 12.81  7.10 13.57 
3874 12.48 10.11 13.57 
3875 10.23 13.76 13.57 
3876 13.01  9.26 13.57 
3877 11.27 12.96 13.57 
3878 11.16 12.56 13.57 
3879 12.41 12.49 13.57 
3880 12.51  9.32 13.57 
3881 10.99  7.37 13.57 
3882 11.46  4.67 13.57 
3883 12.09 11.73 13.57 
3884 12.68 12.94 13.57 
3885 12.99 11.83 13.57 
3886  9.87 11.51 13.57 
3887 12.22  7.43 13.57 
3888 12.65 11.90 13.57 
3889 12.60 10.27 13.57 
3890 12.42 13.04 13.57 
3891 12.40  6.99 13.57 
3892 12.38 12.88 13.57 
3893 12.24 13.24 13.57 
3894 11.07 13.28 13.57 
3895  9.73 12.75 13.57 
3896 11.36 12.85 13.57 
3897 10.88 13.16 13.57 
3898 12.03 12.97 13.57 
3899 12.48 13.67 13.57 
3900 11.36  9.65 13.57 
3901 12.49 13.19 13.57 
3902 12.24 13.61 13.57 
3903 12.30 13.67 13.57 
3904 12.07 13.04 13.57 
3905  9.72  9.40 13.57 
3906 12.71 11.79 13.57 
3907  9.08 13.20 13.57 
3908 11.88  8.97 13.57 
3909 11.85 12.75 13.57 
3910 12.54 11.49 13.57 
3911 10.89  8.10 13.57 
3912 11.69  9.70 13.57 
3913 11.96 10.23 13.57 
3914 12.25 10.47 13.57 
3915 12.90 11.45 13.57 
3916 11.76  8.56 13.57 
3917 12.72  9.48 13.57 
3918 12.88 13.09 13.57 
3919 11.27 13.40 13.57 
3920 12.74 13.39 13.57 
3921 11.40 12.02 13.57 
3922 12.71 13.49 13.57 
3923 12.46  5.84 13.57 
3924 10.69  8.00 13.57 
3925 12.40  6.35 13.57 
3926  7.81 12.75 13.57 
3927 12.61 13.25 13.57 
3928 12.01 13.74 13.57 
3929 11.70 13.25 13.57 
3930 10.79 11.64 13.57 
3931 12.58 11.74 13.57 
3932 12.12 13.59 13.57 
3933 12.06 12.39 13.57 
3934 12.40 12.57 13.57 
3935 12.05 11.78 13.57 
3936 12.65 13.74 13.57 
3937 11.89 13.68 13.57 
3938 11.69 14.00 13.57 
3939 11.74 14.04 13.57 
3940 12.40 14.17 13.57 
3941 10.78 13.03 13.57 
3942 12.51 13.61 13.57 
3943 11.48 13.74 13.57 
3944 10.96 14.22 13.57 
3945 10.84 13.45 13.57 
3946 11.48 12.53 13.57 
3947 12.64 14.02 13.57 
3948 12.95 13.31 13.57 
3949 12.32 13.58 13.57 
3950 13.20  9.49 13.57 
3951 12.28 13.39 13.57 
3952 12.45 13.46 13.57 
3953 10.98 13.52 13.57 
3954 11.13 13.24 13.57 
3955 11.66 10.86 13.57 
3956 11.60 13.75 13.57 
3957 10.99 13.84 13.57 
3958 12.88 13.01 13.57 
3959 12.40 13.94 13.57 
3960 13.09 13.91 13.57 
3961 12.69 13.43 13.57 
3962 11.30 13.99 13.57 
3963 11.90 12.36 13.57 
3964 11.91 13.38 13.57 
3965 11.80 13.23 13.57 
3966 10.66 12.81 13.57 
3967 13.17 13.87 13.57 
3968 11.84 13.58 13.57 
3969 12.32 13.41 13.57 
3970 11.99 13.21 13.57 
3971 12.51 13.73 13.57 
3972 12.72 13.48 13.57 
3973 12.38 13.65 13.57 
3974 12.49 13.89 13.57 
3975 11.15  8.90 13.57 
3976 11.34 13.65 13.57 
3977 12.26 13.39 13.57 
3978 12.02 12.77 13.57 
3979 12.27 13.41 13.57 
3980  9.95 13.97 13.57 
3981 11.23 13.35 13.57 
3982 12.52 10.85 13.57 
3983 11.46 12.49 13.57 
3984 12.71  9.35 13.57 
3985 13.08 14.00 13.57 
3986 11.89  8.38 13.57 
3987 10.97 14.03 13.57 
3988 10.90 13.11 13.57 
3989 11.29 13.89 13.57 
3990 11.69 13.06 13.57 
3991 12.24 12.86 13.57 
3992 10.81 13.86 13.57 
3993 13.08 12.60 13.57 
3994 11.68 13.00 13.57 
3995 12.57 14.12 13.57 
3996 11.81 12.32 13.57 
3997 12.72 10.63 13.57 
3998 12.24 13.28 13.57 
3999 12.35 13.52 13.57 
4000 12.57 12.62 13.57 
4001 11.41 12.00 13.57 
4002 13.01 13.78 13.57 
4003 10.84 13.58 13.57 
4004 11.61 13.59 13.57 
4005 11.81 13.47 13.57 
4006 12.39 12.57 13.57 
4007  9.90 12.58 13.57 
4008 12.84 12.44 13.57 
4009 12.80 12.64 13.57 
4010 12.21 13.79 13.57 
4011 13.12 12.25 13.57 
4012 12.03 13.28 13.57 
4013 12.54 13.20 13.57 
4014 11.84 12.78 13.57 
4015 12.59  9.35 13.57 
4016 11.32 13.24 13.57 
4017 12.47 13.63 13.57 
4018 12.16 12.75 13.57 
4019 11.17 13.93 13.57 
4020 11.85 13.41 13.57 
4021 12.72 14.01 13.57 
4022 12.44 13.49 13.57 
4023 12.18 13.63 13.57 
4024 11.59 13.77 13.57 
4025 10.60 13.68 13.57 
4026 13.16 13.57 13.57 
4027 12.07 13.63 13.57 
4028 11.50 14.02 13.57 
4029 12.12 14.07 13.57 
4030 12.91 13.88 13.57 
4031 11.08 13.64 13.57 
4032 10.99 13.73 13.57 
4033 11.30 12.77 13.57 
4034 12.58 14.03 13.57 
4035 12.04 14.02 13.57 
4036 11.88 12.64 13.57 
4037 12.07 13.80 13.57 
4038 11.96 13.26 13.57 
4039 11.91 13.40 13.57 
4040 11.21 13.35 13.57 
4041 10.54 12.92 13.57 
4042 12.39 13.42 13.57 
4043 12.25 12.95 13.57 
4044 10.64 13.70 13.57 
4045 11.58 13.44 13.57 
4046 11.64 13.41 13.57 
4047  9.26 14.07 13.57 
4048 12.59 13.36 13.57 
4049 11.80 13.70 13.57 
4050 12.52 13.50 13.57 
4051 12.20 12.91 13.57 
4052 11.76 13.91 13.57 
4053  8.64 13.06 13.57 
4054 11.81 13.85 13.57 
4055 10.81 13.01 13.57 
4056 12.83 13.64 13.57 
4057 10.46 13.63 13.57 
4058 11.49 12.46 13.57 
4059 10.78 14.01 13.57 
4060 11.21 13.08 13.57 
4061 12.39 13.72 13.57 
4062 11.97 14.14 13.57 
4063 12.83 13.75 13.57 
4064 12.83 13.89 13.57 
4065 12.55 13.66 13.57 
4066 12.75 12.39 13.57 
4067 11.85 13.06 13.57 
4068 11.37 12.14 13.57 
4069 10.54 13.12 13.57 
4070 11.78 13.66 13.57 
4071 11.05 13.02 13.57 
4072 10.66 12.82 13.57 
4073  8.45 12.33 13.57 
4074 12.20 13.29 13.57 
4075 11.90 12.86 13.57 
4076 11.91 13.77 13.57 
4077 13.29 13.11 13.57 
4078 11.88 13.28 13.57 
4079  8.70 13.21 13.57 
4080 11.99 13.69 13.57 
4081 12.01 13.70 13.57 
4082 12.53 13.31 13.57 
4083 12.66 13.43 13.57 
4084 11.27 13.95 13.57 
4085 11.99 13.66 13.57 
4086  9.95 13.79 13.57 
4087 12.58 13.70 13.57 
4088 11.84 13.91 13.57 
4089 12.88 12.73 13.57 
4090 11.96 14.06 13.57 
4091 10.74 13.15 13.57 
4092 11.56 13.53 13.57 
4093 11.89 13.09 13.57 
4094 12.06 13.58 13.57 
4095 12.51 11.66 13.57 
4096 10.38 13.36 13.57 
4097 11.57 13.70 13.57 
4098 12.32 13.29 13.57 
4099 11.65 14.10 13.57 
4100 13.17 13.09 13.57 
4101 10.00 13.29 13.57 
4102 11.47 12.53 13.57 
4103 11.68 13.45 13.57 
4104 11.97 13.02 13.57 
4105 11.26 13.31 13.57 
4106 12.01 12.86 13.57 
4107 12.34 13.18 13.57 
4108 11.97 14.26 13.57 
4109 11.95 13.38 13.57 
4110 12.22 13.92 13.57 
4111 11.84 10.17 13.57 
4112 10.23 13.08 13.57 
4113 13.00 12.88 13.57 
4114 12.29 13.08 13.57 
4115 12.00 12.84 13.57 
4116 12.49 12.83 13.57 
4117 11.19 13.68 13.57 
4118 10.95 14.26 13.57 
4119 12.48 13.70 13.57 
4120 12.83 13.39 13.57 
4121 10.68 12.61 13.57 
4122 11.25 11.74 13.57 
4123 12.36 13.18 13.57 
4124 11.39 13.67 13.57 
4125 10.96 14.06 13.57 
4126 12.83 13.46 13.57 
4127 11.76 12.93 13.57 
4128 10.63 12.33 13.57 
4129 12.85 13.07 13.57 
4130 10.41 13.55 13.57 
4131 11.06 13.02 13.57 
4132 11.08 13.79 13.57 
4133  8.47 12.89 13.57 
4134 12.19 13.09 13.57 
4135 12.81 12.76 13.57 
4136 12.33 12.98 13.57 
4137 10.74 13.29 13.57 
4138 10.70 13.59 13.57 
4139 10.46 12.93 13.57 
4140 10.39 13.40 13.57 
4141 12.21 13.32 13.57 
4142 10.85 13.98 13.57 
4143 11.87 12.80 13.57 
4144 12.73 13.51 13.57 
4145  9.42 12.92 13.57 
4146 12.00 11.51 13.57 
4147 11.94 12.37 13.57 
4148 12.04 14.20 13.57 
4149  9.41 12.83 13.57 
4150 11.23 13.49 13.57 
4151 11.84 13.24 13.57 
4152  8.75 13.26 13.57 
4153 11.90 12.35 13.57 
4154 11.86 13.63 13.57 
4155 11.88 13.08 13.57 
4156 10.97 12.45 13.57 
4157 11.88 12.10 13.57 
4158 10.53 12.88 13.57 
4159 10.41 13.34 13.57 
4160 12.43 13.26 13.57 
4161 11.20 14.29 13.57 
4162 10.24 13.54 13.57 
4163 11.70 13.59 13.57 
4164  9.90 12.48 13.57 
4165 11.96 13.31 13.57 
4166 10.49 13.20 13.57 
4167 12.18 12.12 13.57 
4168 13.10 12.72 13.57 
4169 11.71 13.76 13.57 
4170 11.54 11.90 13.57 
4171 11.63 12.53 13.57 
4172  8.80 13.60 13.57 
4173 11.84 13.28 13.57 
4174 11.76 13.02 13.57 
4175 12.03 13.68 13.57 
4176 12.81 11.76 13.57 
4177 10.95 13.54 13.57 
4178 11.38 10.86 13.57 
4179 12.71 13.87 13.57 
4180 10.56 12.09 13.57 
4181 11.39 13.61 13.57 
4182  9.54 12.97 13.57 
4183 10.43 13.97 13.57 
4184 11.00 12.66 13.57 
4185 11.40 12.73 13.57 
4186 11.41 12.24 13.57 
4187 12.53 13.78 13.57 
4188 10.17 13.67 13.57 
4189 12.61 13.33 13.57 
4190 11.75 11.41 13.57 
4191 12.40 12.55 13.57 
4192 11.57 12.57 13.57 
4193 11.97 13.01 13.57 
4194 10.35 12.38 13.57 
4195 11.85 12.68 13.57 
4196 12.20 12.48 13.57 
4197  9.78 12.65 13.57 
4198 12.77 12.67 13.57 
4199 12.27 13.14 13.57 
4200 11.88 13.45 13.57 
4201 11.09 13.19 13.57 
4202 11.91 13.19 13.57 
4203 11.71 14.09 13.57 
4204 13.08 12.00 13.57 
4205 12.65 11.51 13.57 
4206 12.43 11.95 13.57 
4207 11.54 13.53 13.57 
4208 10.41 12.43 13.57 
4209 11.11 13.28 13.57 
4210 12.86 13.37 13.57 
4211 12.15 12.87 13.57 
4212 11.99 13.33 13.57 
4213 12.04 13.60 13.57 
4214 13.26 13.85 13.57 
4215 10.46 10.89 13.57 
4216 12.50 13.30 13.57 
4217 11.85 13.52 13.57 
4218 10.74 13.64 13.57 
4219 11.77 13.41 13.57 
4220 11.48 14.03 13.57 
4221 12.23 12.03 13.57 
4222 10.39 13.72 13.57 
4223 11.81 12.94 13.57 
4224  9.88 12.26 13.57 
4225 11.91 13.46 13.57 
4226 11.89 13.18 13.57 
4227 12.96 13.84 13.57 
4228 11.88 13.71 13.57 
4229 10.46 13.63 13.57 
4230  9.93 13.50 13.57 
4231 10.27 11.18 13.57 
4232 10.48 14.28 13.57 
4233 12.89 13.16 13.57 
4234  9.55 12.97 13.57 
4235 10.71 13.86 13.57 
4236  9.42 12.44 13.57 
4237  9.73 13.28 13.57 
4238 12.89 12.82 13.57 
4239 12.05 12.40 13.57 
4240  9.85 12.43 13.57 
4241 12.41 13.10 13.57 
4242 12.15  9.69 13.57 
4243 10.98 12.68 13.57 
4244 10.87 13.11 13.57 
4245 10.86 12.92 13.57 
4246 12.04 13.21 13.57 
4247 11.02 13.83 13.57 
4248 12.27  9.94 13.57 
4249 12.10 14.35 13.57 
4250 12.35 14.12 13.57 
4251 11.40 12.13 13.57 
4252 12.04 13.95 13.57 
4253 12.10 13.25 13.57 
4254 10.51 10.60 13.57 
4255 10.61 13.45 13.57 
4256 10.83 12.56 13.57 
4257 11.42 11.01 13.57 
4258 12.70 13.12 13.57 
4259 11.47 13.17 13.57 
4260 12.43 13.32 13.57 
4261 12.01 12.34 13.57 
4262 12.52 13.44 13.57 
4263 11.49 13.73 13.57 
4264 12.26 13.74 13.57 
4265 12.24 13.48 13.57 
4266 12.32 13.68 13.57 
4267 10.06 13.76 13.57 
4268 11.16 10.29 13.57 
4269 11.19 13.93 13.57 
4270 11.36 13.75 13.57 
4271 12.69 13.69 13.57 
4272 11.12 13.83 13.57 
4273 11.47 13.66 13.57 
4274 12.95 13.77 13.57 
4275 10.14 13.95 13.57 
4276 10.67 13.52 13.57 
4277 11.42 13.69 13.57 
4278 11.62 13.55 13.57 
4279 12.18 13.52 13.57 
4280 11.97  9.19 13.57 
4281  8.65 12.82 13.57 
4282 12.58 13.66 13.57 
4283 12.80 13.22 13.57 
4284 12.25 12.16 13.57 
4285 12.40 11.94 13.57 
4286 11.14 12.05 13.57 
4287 10.21 12.59 13.57 
4288 12.38 13.53 13.57 
4289 12.34 12.77 13.57 
4290 12.33 12.48 13.57 
4291 12.97 11.38 13.57 
4292 12.28 12.96 13.57 
4293 12.08 14.09 13.57 
4294 10.75 12.91 13.57 
4295 11.55 12.58 13.57 
4296 11.27 11.27 13.57 
4297 11.30 11.76 13.57 
4298 11.29 13.86 13.57 
4299 11.52 12.50 13.57 
4300 13.22 12.14 13.57 
4301 11.78 13.12 13.57 
4302 12.39 10.55 13.57 
4303 12.05 14.13 13.57 
4304 11.33 13.44 13.57 
4305 11.06 13.49 13.57 
4306 11.80 12.93 13.57 
4307 10.14 13.55 13.57 
4308 12.56  9.01 13.57 
4309 11.56 12.93 13.57 
4310  9.97 13.12 13.57 
4311 13.12 13.81 13.57 
4312 12.61 14.09 13.57 
4313 12.59 11.17 13.57 
4314  9.57  8.09 13.57 
4315 13.00  8.97 13.57 
4316 11.56  8.19 13.57 
4317 12.80 11.73 13.57 
4318 10.73 11.83 13.57 
4319 12.55 11.36 13.57 
4320 12.23 13.54 13.57 
4321 12.23 13.55 13.57 
4322 10.47 12.22 13.57 
4323 11.33 11.74 13.57 
4324 13.21 13.66 13.57 
4325 11.89 13.74 13.57 
4326 10.53 12.82 13.57 
4327 11.05 12.03 13.57 
4328 11.53 10.52 13.57 
4329 11.51 13.26 13.57 
4330 12.59 13.41 13.57 
4331 12.82 12.60 13.57 
4332 11.20 12.13 13.57 
4333 12.80 13.55 13.57 
4334 12.86 12.22 13.57 
4335 10.79 11.73 13.57 
4336 10.98 13.92 13.57 
4337 10.04 13.91 13.57 
4338 12.71 12.87 13.57 
4339 12.04 12.40 13.57 
4340 12.76 13.94 13.57 
4341 13.02 13.72 13.57 
4342 12.99 12.65 13.57 
4343 12.08 13.18 13.57 
4344 10.19 12.80 13.57 
4345 10.84  9.37 13.57 
4346 10.16 13.17 13.57 
4347 12.39 11.31 13.57 
4348 12.30 13.54 13.57 
4349 12.97 10.98 13.57 
4350 10.89 13.19 13.57 
4351 12.06 13.43 13.57 
4352 12.72 13.64 13.57 
4353 11.65 13.59 13.57 
4354 12.38 13.28 13.57 
4355 11.20 14.06 13.57 
4356 12.79 13.87 13.57 
4357 12.15  9.24 13.57 
4358 12.37 13.96 13.57 
4359 13.01 13.71 13.57 
4360 12.51 12.81 13.57 
4361 12.95 13.27 13.57 
4362  9.38 13.51 13.57 
4363 12.31 13.69 13.57 
4364 10.85 12.75 13.57 
4365 11.73 13.69 13.57 
4366 11.91 13.73 13.57 
4367 12.47 11.78 13.57 
4368 12.21 13.76 13.57 
4369 13.24 14.04 13.57 
4370 12.58 14.23 13.57 
4371 12.91 11.94 13.57 
4372 12.68 12.88 13.57 
4373 11.18 12.89 13.57 
4374 12.95 13.21 13.57 
4375 11.35 12.24 13.57 
4376 12.67 12.70 13.57 
4377 12.12 14.03 13.57 
4378 12.56 10.68 13.57 
4379 11.85 13.37 13.57 
4380 12.60 14.13 13.57 
4381 12.05 13.32 13.57 
4382 12.35 13.34 13.57 
4383 10.51 12.73 13.57 
4384 12.16 14.17 13.57 
4385 12.06 13.47 13.57 
4386 12.57 13.07 13.57 
4387 10.87 13.63 13.57 
4388 10.95 13.18 13.57 
4389 11.57 13.25 13.57 
4390 10.64 13.08 13.57 
4391  9.93 12.93 13.57 
4392 11.10 13.45 13.57 
4393 12.21 13.56 13.57 
4394 10.36 14.04 13.57 
4395 12.05 13.02 13.57 
4396 12.19 12.72 13.57 
4397 12.04  9.16 13.57 
4398 10.82 11.98 13.57 
4399 12.29 12.90 13.57 
4400 12.94 11.06 13.57 
4401 12.19 14.20 13.57 
4402 12.44 12.91 13.57 
4403 11.84 13.52 13.57 
4404 11.09 13.41 13.57 
4405 10.39 13.26 13.57 
4406 12.30 13.32 13.57 
4407 12.96 11.34 13.57 
4408 10.44 13.15 13.57 
4409 12.54 13.21 13.57 
4410 12.83 13.37 13.57 
4411 11.29 11.93 13.57 
4412 12.45 12.29 13.57 
4413  8.89 14.17 13.57 
4414 12.53 12.91 13.57 
4415 12.38 10.72 13.57 
4416 11.05 13.69 13.57 
4417 12.43 13.82 13.57 
4418 11.49 11.81 13.57 
4419 11.52 12.84 13.57 
4420 10.96 13.17 13.57 
4421 11.36 14.22 13.57 
4422 10.51 13.96 13.57 
4423 12.65 13.64 13.57 
4424 12.10 11.54 13.57 
4425 12.70 13.41 13.57 
4426 12.63 13.82 13.57 
4427 12.01 13.93 13.57 
4428 12.45 13.64 13.57 
4429 12.81 12.45 13.57 
4430 11.50 13.97 13.57 
4431 12.29 13.77 13.57 
4432 12.50 11.28 13.57 
4433 11.16 12.08 13.57 
4434 12.46 13.85 13.57 
4435 12.45 13.26 13.57 
4436 10.71 12.63 13.57 
4437 11.99 14.10 13.57 
4438 10.91 13.69 13.57 
4439 11.53 12.66 13.57 
4440  9.43 13.66 13.57 
4441 11.57 12.57 13.57 
4442 12.18 13.67 13.57 
4443  8.84 11.89 13.57 
4444 11.55 14.08 13.57 
4445 11.46 13.82 13.57 
4446 13.17 12.07 13.57 
4447 11.62 12.03 13.57 
4448 12.86 13.75 13.57 
4449 10.97 14.15 13.57 
4450 10.81 13.23 13.57 
4451 11.03 14.11 13.57 
4452 11.85 10.96 13.57 
4453 10.47 13.34 13.57 
4454 11.50 13.83 13.57 
4455 12.40 13.18 13.57 
4456 11.52  8.37 13.57 
4457 13.21 13.31 13.57 
4458 12.66 13.82 13.57 
4459 12.97 13.40 13.57 
4460 12.62 13.60 13.57 
4461 10.45 12.82 13.57 
4462 12.79 12.86 13.57 
4463 10.80 11.32 13.57 
4464 11.42 11.87 13.57 
4465  9.59 14.14 13.57 
4466 10.15 11.92 13.57 
4467 12.54 13.88 13.57 
4468 13.26 13.48 13.57 
4469 12.56 14.19 13.57 
4470 12.42 11.69 13.57 
4471 11.41 13.03 13.57 
4472 12.11  8.38 13.57 
4473 10.39 13.14 13.57 
4474 12.06 14.07 13.57 
4475 12.35 13.76 13.57 
4476 12.61 13.91 13.57 
4477 12.81 12.39 13.57 
4478 12.23 10.07 13.57 
4479 10.68 12.79 13.57 
4480 11.78 13.97 13.57 
4481 13.35 12.72 13.57 
4482 12.70 13.62 13.57 
4483 12.62 13.22 13.57 
4484 12.24 12.56 13.57 
4485 11.07 13.98 13.57 
4486 10.57 13.98 13.57 
4487 13.02 13.78 13.57 
4488 11.23  9.95 13.57 
4489 13.05 10.54 13.57 
4490  8.84 13.81 13.57 
4491 12.67 11.89 13.57 
4492  9.41 13.98 13.57 
4493 11.63  5.97 13.57 
4494 10.53 13.88 13.57 
4495 12.42 13.48 13.57 
4496 12.78 13.98 13.57 
4497 11.13 13.67 13.57 
4498 11.65 12.67 13.57 
4499 12.52 13.48 13.57 
4500 11.59 13.93 13.57 
4501 13.12 13.66 13.57 
4502 10.18 13.55 13.57 
4503 12.68 12.88 13.57 
4504 13.20 12.49 13.57 
4505 13.09 11.59 13.57 
4506 10.81 13.45 13.57 
4507 11.01 13.28 13.57 
4508 13.47 13.26 13.57 
4509 12.47 13.68 13.57 
4510 11.84 10.98 13.57 
4511 12.49 12.89 13.57 
4512  9.97 13.45 13.57 
4513 12.41 12.54 13.57 
4514 13.24 13.49 13.57 
4515 11.34 11.45 13.57 
4516 11.48 14.20 13.57 
4517 12.72 13.82 13.57 
4518 11.72 13.27 13.57 
4519 11.81  8.89 13.57 
4520 11.52 13.67 13.57 
4521 12.00  9.54 13.57 
4522 11.83 11.42 13.57 
4523  9.16 13.66 13.57 
4524 12.83 13.14 13.57 
4525 12.31 10.40 13.57 
4526 11.46 12.72 13.57 
4527 10.67  6.88 13.57 
4528 11.84  6.68 13.57 
4529 11.36  8.69 13.57 
4530 10.81 11.70 13.57 
4531 12.23 13.19 13.57 
4532 13.00  8.46 13.57 
4533 10.50 13.58 13.57 
4534 12.25 13.45 13.57 
4535 10.99 13.12 13.57 
4536 12.69 12.76 13.57 
4537 13.02  9.26 13.57 
4538 13.13  9.64 13.57 
4539  9.10 12.03 13.57 
4540 12.89 13.91 13.57 
4541 12.58 13.01 13.57 
4542 12.62 12.68 13.57 
4543 10.82 14.21 13.57 
4544 12.16 13.39 13.57 
4545 12.35 14.24 13.57 
4546 12.60 12.20 13.57 
4547 12.90 14.19 13.57 
4548 13.15 13.62 13.57 
4549 10.81 13.24 13.57 
4550 12.97 13.44 13.57 
4551 12.05 13.05 13.57 
4552 12.95 12.46 13.57 
4553 12.12  9.11 13.57 
4554 11.70 11.89 13.57 
4555 12.44 13.52 13.57 
4556 11.65  7.15 13.57 
4557 12.56 13.97 13.57 
4558 12.66  8.30 13.57 
4559 10.95 13.43 13.57 
4560 12.88 12.95 13.57 
4561 12.94 12.47 13.57 
4562 12.27  7.60 13.57 
4563 10.05 13.82 13.57 
4564 11.81  8.67 13.57 
4565 11.41 11.59 13.57 
4566 13.01 13.62 13.57 
4567 12.67 12.49 13.57 
4568 10.99  9.49 13.57 
4569 11.01 13.47 13.57 
4570 13.79 14.35 13.57 
4571 11.10 12.26 13.79 
4572 11.56 12.48 13.79 
4573 12.79 14.06 13.79 
4574 12.28 13.09 13.79 
4575 10.46 12.82 13.79 
4576 12.97 13.23 13.79 
4577 12.46 13.46 13.79 
4578 13.22  7.12 13.79 
4579 12.61  8.98 13.79 
4580 11.57 10.88 13.79 
4581 12.42  7.34 13.79 
4582 10.66 12.49 13.79 
4583 11.20  9.69 13.79 
4584 11.49 14.16 13.79 
4585 12.07 13.53 13.79 
4586 13.18  7.38 13.79 
4587 12.83  9.45 13.79 
4588 13.11  8.25 13.79 
4589 10.84 13.34 13.79 
4590 11.63 13.27 13.79 
4591 11.98 13.61 13.79 
4592 10.67 13.12 13.79 
4593 13.06 11.43 13.79 
4594 11.73  8.05 13.79 
4595 10.95 13.26 13.79 
4596 11.60 10.99 13.79 
4597 12.96  5.39 13.79 
4598  9.27 13.79 13.79 
4599  8.99 13.89 13.79 
4600 12.57 13.99 13.79 
4601 11.02 14.13 13.79 
4602 13.40 12.82 13.79 
4603 12.32  6.27 13.79 
4604 13.38  9.68 13.79 
4605 10.54  8.07 13.79 
4606  9.55 13.66 13.79 
4607 11.51 12.60 13.79 
4608 11.14 13.86 13.79 
4609 12.57 13.51 13.79 
4610 13.02  8.96 13.79 
4611 11.06 13.81 13.79 
4612 12.53 13.17 13.79 
4613 11.99  8.37 13.79 
4614 12.54 12.60 13.79 
4615 11.75  7.69 13.79 
4616  9.16 12.49 13.79 
4617 12.52 12.20 13.79 
4618 11.11 12.82 13.79 
4619 12.33 13.94 13.79 
4620 12.38 12.99 13.79 
4621 12.69  9.88 13.79 
4622 11.44 11.14 13.79 
4623 12.75  6.90 13.79 
4624 13.38 11.89 13.79 
4625 12.91 11.04 13.79 
4626 11.62 13.54 13.79 
4627 11.25  8.86 13.79 
4628 12.67 11.66 13.79 
4629 10.64 13.91 13.79 
4630 12.79 13.80 13.79 
4631 11.14 13.55 13.79 
4632 11.78 13.36 13.79 
4633 10.69  9.78 13.79 
4634 12.97 13.30 13.79 
4635 12.05 13.45 13.79 
4636  9.87 11.20 13.79 
4637 11.68 12.26 13.79 
4638 10.42 13.45 13.79 
4639 12.70  9.15 13.79 
4640 11.39 11.65 13.79 
4641 11.71  8.68 13.79 
4642 11.81 13.82 13.79 
4643 12.81 11.77 13.79 
4644 10.36  9.85 13.79 
4645 11.27 10.01 13.79 
4646 12.39  8.99 13.79 
4647 11.61 11.10 13.79 
4648 11.49 13.96 13.79 
4649 10.75 13.71 13.79 
4650 12.13 12.40 13.79 
4651 12.22 14.03 13.79 
4652 12.80 13.97 13.79 
4653 11.14  6.67 13.79 
4654 13.26 12.29 13.79 
4655 12.95  6.84 13.79 
4656 12.98  8.17 13.79 
4657 10.70 13.39 13.79 
4658 11.18 13.33 13.79 
4659 10.85 13.27 13.79 
4660 11.42 13.38 13.79 
4661 12.20 13.24 13.79 
4662 12.66 10.97 13.79 
4663 12.01 11.43 13.79 
4664 11.69 11.42 13.79 
4665 10.83 13.82 13.79 
4666 12.08 11.64 13.79 
4667 12.39 13.05 13.79 
4668 11.91 14.07 13.79 
4669 13.04 14.13 13.79 
4670 12.12 13.24 13.79 
4671 11.74 13.08 13.79 
4672  9.01 12.90 13.79 
4673 12.39 13.07 13.79 
4674 12.16 14.19 13.79 
4675 11.91 13.62 13.79 
4676 12.20 12.67 13.79 
4677 12.36 13.33 13.79 
4678 12.68 11.11 13.79 
4679 11.69 11.24 13.79 
4680 11.72 10.62 13.79 
4681 10.52 13.58 13.79 
4682 12.69 13.72 13.79 
4683 12.73 13.66 13.79 
4684 12.73 12.20 13.79 
4685 12.41 14.01 13.79 
4686 10.36 14.50 13.79 
4687 12.28 13.09 13.79 
4688 12.55 13.76 13.79 
4689 10.54 13.84 13.79 
4690 13.48 11.84 13.79 
4691 12.73 14.06 13.79 
4692 11.83 13.74 13.79 
4693 13.02 10.58 13.79 
4694 12.38 13.45 13.79 
4695 10.92 13.20 13.79 
4696 12.71 10.10 13.79 
4697 12.50 13.14 13.79 
4698 11.99 13.61 13.79 
4699 11.20 13.77 13.79 
4700 11.82 13.79 13.79 
4701 12.02 10.40 13.79 
4702 11.36 10.09 13.79 
4703 11.14 12.01 13.79 
4704 12.32 12.94 13.79 
4705 12.76 10.35 13.79 
4706 11.05  9.37 13.79 
4707 10.73  6.45 13.79 
4708 11.06  9.93 13.79 
4709 12.42 13.08 13.79 
4710 11.44 13.29 13.79 
4711 12.20 12.92 13.79 
4712 12.48 13.94 13.79 
4713 12.79 12.82 13.79 
4714 12.13 13.93 13.79 
4715 12.81 12.52 13.79 
4716 12.43 13.00 13.79 
4717 11.92 13.57 13.79 
4718 10.61 14.07 13.79 
4719 10.74 13.62 13.79 
4720 10.82 13.87 13.79 
4721 12.41 12.87 13.79 
4722 10.37 12.05 13.79 
4723 10.87 13.97 13.79 
4724 12.05 13.79 13.79 
4725 12.32 13.62 13.79 
4726 11.07 11.73 13.79 
4727 11.55 12.54 13.79 
4728 12.39 12.71 13.79 
4729 12.29 11.83 13.79 
4730 13.54 13.71 13.79 
4731 10.19 13.26 13.79 
4732 12.07 10.74 13.79 
4733 13.03 11.19 13.79 
4734  8.36 14.24 13.79 
4735 12.58 12.88 13.79 
4736 11.03 12.94 13.79 
4737 11.99 13.30 13.79 
4738 10.47 13.44 13.79 
4739 12.83 14.44 13.79 
4740 11.17 13.78 13.79 
4741 11.45 12.55 13.79 
4742  9.88 11.53 13.79 
4743 12.76 14.03 13.79 
4744 12.88 12.16 13.79 
4745 11.91 13.54 13.79 
4746 11.14 13.12 13.79 
4747 12.78 11.27 13.79 
4748 12.36 14.37 13.79 
4749 11.73 14.59 13.79 
4750 12.32 13.83 13.79 
4751 11.77 13.44 13.79 
4752 12.51 11.75 13.79 
4753 11.86 11.66 13.79 
4754 12.57 13.78 13.79 
4755 11.28 12.67 13.79 
4756 13.01 12.32 13.79 
4757 12.16 14.41 13.79 
4758 10.87 13.14 13.79 
4759 13.25 14.11 13.79 
4760 12.84 10.57 13.79 
4761 10.47 12.37 13.79 
4762 12.56 12.13 13.79 
4763 12.60 12.91 13.79 
4764 13.23 13.99 13.79 
4765 12.89 14.54 13.79 
4766 13.10 13.87 13.79 
4767 11.50 13.97 13.79 
4768 12.39 13.69 13.79 
4769 10.96 13.80 13.79 
4770 10.91 14.15 13.79 
4771 12.30 13.08 13.79 
4772 11.38 12.23 13.79 
4773 12.72 14.56 13.79 
4774 12.87 11.16 13.79 
4775 12.70 13.42 13.79 
4776 12.41 13.47 13.79 
4777 12.00 11.31 13.79 
4778 12.24 14.14 13.79 
4779 12.16 14.21 13.79 
4780 12.24 13.00 13.79 
4781 11.88 12.76 13.79 
4782 12.77 13.14 13.79 
4783 12.26 12.87 13.79 
4784 11.56 13.51 13.79 
4785 12.92 13.95 13.79 
4786 12.10 12.71 13.79 
4787 11.88 13.50 13.79 
4788 11.63 13.82 13.79 
4789  9.60 11.87 13.79 
4790 12.40 12.70 13.79 
4791 12.63 11.25 13.79 
4792 11.83 13.28 13.79 
4793 11.92 10.21 13.79 
4794 10.23 11.42 13.79 
4795 12.69 13.65 13.79 
4796  9.05 13.48 13.79 
4797 12.23 11.86 13.79 
4798 13.20 13.88 13.79 
4799 12.75  9.79 13.79 
4800 12.74  6.71 13.79 
4801  9.64 12.86 13.79 
4802 11.29 13.44 13.79 
4803 10.74 13.28 13.79 
4804 10.56 11.55 13.79 
4805 13.64  9.15 13.79 
4806 11.05 13.73 13.79 
4807 11.86  9.11 13.79 
4808 11.21 14.06 13.79 
4809 12.78  7.23 13.79 
4810 12.84 14.18 13.79 
4811 12.97 12.69 13.79 
4812 12.23 10.14 13.79 
4813 11.99 12.43 13.79 
4814 12.88 14.35 13.79 
4815 13.11 11.89 13.79 
4816 10.93 13.72 13.79 
4817 12.37  7.97 13.79 
4818 12.71  7.66 13.79 
4819 11.88 13.80 13.79 
4820 13.01 12.30 13.79 
4821 10.87 12.57 13.79 
4822 13.54 10.34 13.79 
4823 12.40 13.88 13.79 
4824 12.34 14.23 13.79 
4825 11.13 13.78 13.79 
4826  9.50 14.27 13.79 
4827 12.67 12.86 13.79 
4828 13.04 12.41 13.79 
4829 13.14 13.32 13.79 
4830 12.10 13.65 13.79 
4831 11.06 13.67 13.79 
4832 12.99 14.12 13.79 
4833 12.06 13.74 13.79 
4834 10.46 13.94 13.79 
4835 10.69 12.79 13.79 
4836 12.06  9.79 13.79 
4837 12.74 13.39 13.79 
4838 11.83 12.81 13.79 
4839 11.64 11.45 13.79 
4840 11.05  7.46 13.79 
4841 12.86 11.91 13.79 
4842 12.61  9.93 13.79 
4843 13.09 11.14 13.79 
4844 13.00 13.51 13.79 
4845 11.70 11.36 13.79 
4846 12.41  6.68 13.79 
4847 11.97  7.87 13.79 
4848 12.35  8.73 13.79 
4849 11.59  6.04 13.79 
4850 11.87  6.83 13.79 
4851 12.83 10.43 13.79 
4852 12.05  9.04 13.79 
4853 12.14  7.33 13.79 
4854 12.66 13.43 13.79 
4855 12.11 10.28 13.79 
4856 12.59 13.96 13.79 
4857 12.60  8.45 13.79 
4858 10.61 14.09 13.79 
4859 12.59 13.88 13.79 
4860 12.34 12.17 13.79 
4861 12.40  9.02 13.79 
4862 12.63 10.15 13.79 
4863  9.93 10.37 13.79 
4864 12.81 13.14 13.79 
4865 12.90  8.49 13.79 
4866 12.41  9.63 13.79 
4867 11.15 13.81 13.79 
4868 11.34 11.28 13.79 
4869 12.08 14.11 13.79 
4870 11.42 11.83 13.79 
4871 10.27 12.54 13.79 
4872 13.00  9.97 13.79 
4873 12.46  8.77 13.79 
4874 12.72 14.17 13.79 
4875 12.40 12.47 13.79 
4876 11.89 11.74 13.79 
4877 12.33 10.55 13.79 
4878 12.19 11.29 13.79 
4879 10.47 12.23 13.79 
4880 12.11 13.77 13.79 
4881 11.26 13.45 13.79 
4882 12.41 13.95 13.79 
4883 12.32 14.29 13.79 
4884 12.94 12.88 13.79 
4885 12.98 14.06 13.79 
4886 12.15 13.84 13.79 
4887 11.43  8.86 13.79 
4888 12.39 10.84 13.79 
4889 12.99 13.60 13.79 
4890 11.11 14.02 13.79 
4891 12.47 14.10 13.79 
4892 12.61 12.81 13.79 
4893 12.80 12.11 13.79 
4894 11.88 11.15 13.79 
4895 10.14 13.10 13.79 
4896 13.33  9.18 13.79 
4897 13.21 13.45 13.79 
4898 11.35 13.40 13.79 
4899 11.57 11.36 13.79 
4900 11.47 13.58 13.79 
4901 12.46 13.12 13.79 
4902 12.19 13.33 13.79 
4903 11.85  9.16 13.79 
4904 10.94 13.25 13.79 
4905 11.14 11.86 13.79 
4906 10.89 12.11 13.79 
4907 11.48 12.87 13.79 
4908 12.24 11.71 13.79 
4909 12.72 13.64 13.79 
4910 10.05 12.07 13.79 
4911 11.01 11.44 13.79 
4912  9.75 12.91 13.79 
4913 10.79 10.59 13.79 
4914 10.53 11.45 13.79 
4915 10.83 13.99 13.79 
4916 11.37 12.62 13.79 
4917 11.47 14.26 13.79 
4918 12.36 13.83 13.79 
4919 12.06 14.18 13.79 
4920 12.81 13.49 13.79 
4921 12.27 13.23 13.79 
4922 11.24 13.37 13.79 
4923  9.79  9.61 13.79 
4924 12.08 13.81 13.79 
4925 11.67 11.34 13.79 
4926 10.88 12.27 13.79 
4927  9.90 11.79 13.79 
4928 11.38 11.57 13.79 
4929 10.70 10.04 13.79 
4930 13.41  8.73 13.79 
4931 11.85 13.89 13.79 
4932 12.69 11.00 13.79 
4933 12.16  9.04 13.79 
4934 11.16 11.48 13.79 
4935 11.36  6.54 13.79 
4936 11.20 13.20 13.79 
4937 11.66 11.06 13.79 
4938 10.73 12.75 13.79 
4939 11.24 12.64 13.79 
4940 11.60 13.79 13.79 
4941 10.08 13.68 13.79 
4942 11.16  9.88 13.79 
4943 10.84 13.02 13.79 
4944 12.40 12.10 13.79 
4945 11.36 12.36 13.79 
4946 12.48 11.18 13.79 
4947 10.20 11.44 13.79 
4948 11.53  7.76 13.79 
4949 12.65 12.74 13.79 
4950 11.46 12.75 13.79 
4951 13.18  9.68 13.79 
4952 13.03 13.29 13.79 
4953 11.85  8.94 13.79 
4954 11.93  9.67 13.79 
4955 11.30 13.58 13.79 
4956 12.76  8.92 13.79 
4957 12.76 12.79 13.79 
4958 12.24 13.64 13.79 
4959 12.36 13.09 13.79 
4960 11.35 13.38 13.79 
4961 12.78 12.08 13.79 
4962 13.09  8.48 13.79 
4963 12.17 13.87 13.79 
4964 12.97 13.19 13.79 
4965 11.18 10.12 13.79 
4966 12.12 13.08 13.79 
4967 10.93 13.58 13.79 
4968 12.13 13.63 13.79 
4969 12.21  9.97 13.79 
4970 11.50 13.43 13.79 
4971 12.34 13.82 13.79 
4972 10.26 13.37 13.79 
4973 12.69 13.45 13.79 
4974 12.28 12.89 13.79 
4975 12.30 11.20 13.79 
4976 12.77 13.13 13.79 
4977 12.42  9.91 13.79 
4978 12.48 13.67 13.79 
4979 12.09 10.56 13.79 
4980 10.99 13.45 13.79 
4981 12.25 11.92 13.79 
4982 12.97 13.14 13.79 
4983 12.71 13.80 13.79 
4984 10.96 14.03 13.79 
4985 12.31 13.39 13.79 
4986 12.81 13.77 13.79 
4987  9.49 12.93 13.79 
4988 12.92 11.16 13.79 
4989 11.00 13.56 13.79 
4990 11.89 13.19 13.79 
4991 10.81 13.10 13.79 
4992 12.37 13.56 13.79 
4993  9.71 11.34 13.79 
4994 10.05 11.68 13.79 
4995 12.10 12.76 13.79 
4996 12.54 13.69 13.79 
