Iter | Sampling Pol | Evaluation Pol | Best (Sampled) 
   0 -307.38 -310.72 -100000000.00 
   1 -330.03 -294.72 -307.38 
   2 -321.32 -305.08 -307.38 
   3 -329.28 -309.39 -307.38 
   4 -326.08 -296.19 -307.38 
   5 -323.15 -301.28 -307.38 
   6 -322.76 -298.46 -307.38 
   7 -336.75 -257.59 -307.38 
   8 -320.67 -264.57 -307.38 
   9 -310.08 -306.89 -307.38 
  10 -333.10 -297.55 -307.38 
  11 -331.70 -289.13 -307.38 
  12 -320.26 -283.68 -307.38 
  13 -325.89 -263.37 -307.38 
  14 -307.21 -277.54 -307.38 
  15 -319.11 -273.88 -307.21 
  16 -325.85 -268.58 -307.21 
  17 -311.99 -264.55 -307.21 
  18 -299.50 -254.45 -307.21 
  19 -320.73 -261.90 -299.50 
  20 -322.03 -261.10 -299.50 
  21 -296.85 -267.76 -299.50 
  22 -325.98 -263.21 -296.85 
  23 -309.30 -263.43 -296.85 
  24 -303.80 -272.67 -296.85 
  25 -316.40 -274.65 -296.85 
  26 -302.63 -270.38 -296.85 
  27 -292.72 -286.19 -296.85 
  28 -320.74 -281.47 -292.72 
  29 -300.43 -284.54 -292.72 
  30 -309.00 -287.11 -292.72 
  31 -304.14 -301.14 -292.72 
  32 -304.32 -317.51 -292.72 
  33 -300.09 -321.33 -292.72 
  34 -317.38 -306.18 -292.72 
  35 -306.74 -317.37 -292.72 
  36 -311.86 -315.02 -292.72 
  37 -314.74 -307.08 -292.72 
  38 -316.41 -311.95 -292.72 
  39 -317.09 -315.70 -292.72 
  40 -300.47 -310.21 -292.72 
  41 -322.87 -306.10 -292.72 
  42 -309.98 -303.76 -292.72 
  43 -311.69 -300.59 -292.72 
  44 -318.14 -301.78 -292.72 
  45 -304.90 -295.73 -292.72 
  46 -312.33 -296.26 -292.72 
  47 -303.82 -302.80 -292.72 
  48 -307.68 -301.66 -292.72 
  49 -307.47 -299.32 -292.72 
  50 -301.17 -298.16 -292.72 
  51 -299.11 -296.55 -292.72 
  52 -296.91 -294.37 -292.72 
  53 -306.50 -300.19 -292.72 
  54 -305.73 -303.99 -292.72 
  55 -303.46 -299.53 -292.72 
  56 -307.92 -299.05 -292.72 
  57 -293.30 -299.57 -292.72 
  58 -299.02 -296.75 -292.72 
  59 -306.92 -300.04 -292.72 
  60 -299.96 -296.18 -292.72 
  61 -306.57 -294.50 -292.72 
  62 -296.22 -297.96 -292.72 
  63 -306.83 -301.35 -292.72 
  64 -302.02 -298.53 -292.72 
  65 -303.81 -300.08 -292.72 
  66 -297.66 -297.05 -292.72 
  67 -297.15 -296.48 -292.72 
  68 -295.06 -296.63 -292.72 
  69 -293.85 -295.91 -292.72 
  70 -304.70 -295.78 -292.72 
  71 -292.15 -296.22 -292.72 
  72 -291.66 -291.86 -292.15 
  73 -287.15 -289.93 -291.66 
  74 -301.13 -289.71 -287.15 
  75 -295.90 -288.26 -287.15 
  76 -304.02 -289.27 -287.15 
  77 -295.52 -289.61 -287.15 
  78 -303.65 -288.70 -287.15 
  79 -295.66 -290.93 -287.15 
  80 -294.34 -291.72 -287.15 
  81 -293.70 -292.35 -287.15 
  82 -291.86 -295.05 -287.15 
  83 -294.40 -293.21 -287.15 
  84 -305.72 -291.18 -287.15 
  85 -309.57 -294.57 -287.15 
  86 -295.79 -303.69 -287.15 
  87 -298.77 -302.52 -287.15 
  88 -285.76 -297.24 -287.15 
  89 -299.26 -294.00 -285.76 
  90 -296.91 -294.76 -285.76 
  91 -309.92 -292.30 -285.76 
  92 -299.99 -292.99 -285.76 
  93 -291.82 -295.03 -285.76 
  94 -298.93 -299.73 -285.76 
  95 -300.59 -301.78 -285.76 
  96 -304.21 -300.34 -285.76 
  97 -308.19 -302.31 -285.76 
  98 -306.77 -302.98 -285.76 
  99 -308.86 -302.00 -285.76 
 100 -293.81 -300.31 -285.76 
 101 -298.95 -301.36 -285.76 
 102 -299.30 -300.29 -285.76 
 103 -296.52 -300.60 -285.76 
 104 -305.06 -300.04 -285.76 
 105 -303.60 -299.82 -285.76 
 106 -304.39 -300.84 -285.76 
 107 -295.60 -300.66 -285.76 
 108 -293.90 -303.24 -285.76 
 109 -306.66 -303.17 -285.76 
 110 -282.67 -299.65 -285.76 
 111 -291.93 -301.14 -282.67 
 112 -289.64 -296.50 -282.67 
 113 -297.90 -298.58 -282.67 
 114 -288.31 -302.99 -282.67 
 115 -298.23 -307.71 -282.67 
 116 -289.73 -280.73 -282.67 
 117 -285.68 -279.81 -282.67 
 118 -296.37 -281.21 -282.67 
 119 -315.39 -301.00 -282.67 
 120 -303.62 -280.71 -282.67 
 121 -297.17 -277.97 -282.67 
 122 -309.83 -275.27 -282.67 
 123 -320.00 -276.21 -282.67 
 124 -304.40 -285.22 -282.67 
 125 -296.07 -289.94 -282.67 
 126 -314.08 -285.25 -282.67 
 127 -312.75 -276.94 -282.67 
 128 -318.67 -277.95 -282.67 
 129 -290.27 -271.92 -282.67 
 130 -315.77 -308.15 -282.67 
 131 -304.98 -304.34 -282.67 
 132 -308.51 -300.40 -282.67 
 133 -306.63 -301.06 -282.67 
 134 -313.19 -298.97 -282.67 
 135 -285.11 -270.85 -282.67 
 136 -292.66 -263.02 -282.67 
 137 -301.84 -282.51 -282.67 
 138 -288.48 -298.18 -282.67 
 139 -308.67 -299.03 -282.67 
 140 -301.44 -301.17 -282.67 
 141 -294.86 -301.37 -282.67 
 142 -303.27 -299.33 -282.67 
 143 -300.02 -258.11 -282.67 
 144 -302.25 -261.46 -282.67 
 145 -292.63 -262.10 -282.67 
 146 -298.33 -267.47 -282.67 
 147 -313.22 -271.13 -282.67 
 148 -303.62 -271.70 -282.67 
 149 -307.51 -277.04 -282.67 
 150 -311.48 -282.52 -282.67 
 151 -308.83 -309.20 -282.67 
 152 -314.48 -312.78 -282.67 
 153 -303.10 -311.10 -282.67 
 154 -302.78 -286.80 -282.67 
 155 -307.44 -300.43 -282.67 
 156 -323.37 -277.40 -282.67 
 157 -301.23 -299.39 -282.67 
 158 -300.10 -306.88 -282.67 
 159 -298.23 -297.48 -282.67 
 160 -305.26 -312.98 -282.67 
 161 -291.67 -313.78 -282.67 
 162 -323.53 -311.11 -282.67 
 163 -311.08 -317.67 -282.67 
 164 -313.75 -314.24 -282.67 
 165 -309.86 -310.30 -282.67 
 166 -297.74 -298.76 -282.67 
 167 -307.05 -306.49 -282.67 
 168 -307.73 -307.71 -282.67 
 169 -300.61 -295.61 -282.67 
 170 -303.03 -294.74 -282.67 
 171 -304.26 -297.11 -282.67 
 172 -313.34 -280.57 -282.67 
 173 -308.20 -298.47 -282.67 
 174 -312.13 -297.20 -282.67 
 175 -300.21 -294.14 -282.67 
 176 -302.60 -290.44 -282.67 
 177 -306.72 -275.85 -282.67 
 178 -312.39 -316.75 -282.67 
 179 -308.01 -313.08 -282.67 
 180 -312.92 -309.30 -282.67 
 181 -312.93 -311.10 -282.67 
 182 -309.96 -310.71 -282.67 
 183 -310.51 -287.76 -282.67 
 184 -303.49 -294.48 -282.67 
 185 -303.88 -290.28 -282.67 
 186 -304.69 -286.64 -282.67 
 187 -293.58 -295.30 -282.67 
 188 -296.82 -287.89 -282.67 
 189 -314.15 -293.62 -282.67 
 190 -292.35 -296.24 -282.67 
 191 -302.63 -313.46 -282.67 
 192 -288.70 -310.45 -282.67 
 193 -295.91 -307.36 -282.67 
 194 -303.97 -294.64 -282.67 
 195 -285.90 -293.30 -282.67 
 196 -307.13 -296.11 -282.67 
 197 -296.63 -303.87 -282.67 
 198 -291.64 -292.48 -282.67 
 199 -293.64 -295.49 -282.67 
 200 -291.26 -296.63 -282.67 
 201 -287.65 -298.89 -282.67 
 202 -301.06 -312.55 -282.67 
 203 -293.50 -300.23 -282.67 
 204 -312.93 -309.46 -282.67 
 205 -298.13 -293.65 -282.67 
 206 -293.31 -298.16 -282.67 
 207 -295.43 -302.86 -282.67 
 208 -292.43 -306.09 -282.67 
 209 -304.39 -303.49 -282.67 
 210 -294.74 -298.67 -282.67 
 211 -289.03 -297.56 -282.67 
 212 -293.54 -304.21 -282.67 
 213 -302.35 -297.14 -282.67 
 214 -299.32 -301.04 -282.67 
 215 -298.87 -291.78 -282.67 
 216 -304.11 -292.95 -282.67 
 217 -289.06 -301.32 -282.67 
 218 -293.37 -301.64 -282.67 
 219 -281.38 -294.32 -282.67 
 220 -289.10 -303.07 -281.38 
 221 -279.68 -298.64 -281.38 
 222 -295.32 -284.04 -279.68 
 223 -282.74 -284.68 -279.68 
 224 -294.43 -285.54 -279.68 
 225 -284.67 -292.30 -279.68 
 226 -291.14 -297.68 -279.68 
 227 -284.14 -294.20 -279.68 
 228 -279.31 -281.96 -279.68 
 229 -290.91 -291.29 -279.31 
 230 -278.46 -287.31 -279.31 
 231 -283.44 -280.67 -278.46 
 232 -292.23 -287.19 -278.46 
 233 -276.47 -286.92 -278.46 
 234 -275.23 -278.65 -276.47 
 235 -282.05 -281.94 -275.23 
 236 -280.20 -278.66 -275.23 
 237 -277.77 -281.40 -275.23 
 238 -287.89 -279.57 -275.23 
 239 -280.30 -297.75 -275.23 
 240 -272.37 -300.16 -275.23 
 241 -267.49 -302.87 -272.37 
 242 -274.35 -303.71 -267.49 
 243 -261.22 -309.35 -267.49 
 244 -275.32 -314.87 -261.22 
 245 -269.68 -308.66 -261.22 
 246 -268.08 -252.90 -261.22 
 247 -273.20 -251.02 -261.22 
 248 -265.96 -251.67 -261.22 
 249 -278.87 -296.15 -261.22 
 250 -268.39 -289.02 -261.22 
 251 -269.13 -304.16 -261.22 
 252 -265.61 -290.48 -261.22 
 253 -268.02 -287.65 -261.22 
 254 -265.91 -285.19 -261.22 
 255 -263.81 -293.18 -261.22 
 256 -264.12 -285.53 -261.22 
 257 -267.80 -281.30 -261.22 
 258 -277.28 -278.97 -261.22 
 259 -259.97 -253.47 -261.22 
 260 -269.11 -247.95 -259.97 
 261 -273.67 -238.52 -259.97 
 262 -266.99 -247.54 -259.97 
 263 -261.59 -237.35 -259.97 
 264 -268.93 -241.19 -259.97 
 265 -264.39 -240.12 -259.97 
 266 -264.31 -233.34 -259.97 
 267 -266.01 -262.26 -259.97 
 268 -263.10 -251.97 -259.97 
 269 -267.86 -244.17 -259.97 
 270 -264.33 -251.32 -259.97 
 271 -271.34 -251.60 -259.97 
 272 -266.91 -236.55 -259.97 
 273 -262.97 -275.37 -259.97 
 274 -261.31 -245.58 -259.97 
 275 -260.63 -277.61 -259.97 
 276 -263.86 -286.53 -259.97 
 277 -269.88 -291.36 -259.97 
 278 -264.56 -291.18 -259.97 
 279 -261.80 -290.70 -259.97 
 280 -272.18 -292.54 -259.97 
 281 -267.37 -270.49 -259.97 
 282 -267.40 -270.98 -259.97 
 283 -265.56 -273.32 -259.97 
 284 -267.34 -274.64 -259.97 
 285 -264.40 -270.98 -259.97 
 286 -267.46 -282.45 -259.97 
 287 -264.45 -282.10 -259.97 
 288 -260.72 -281.43 -259.97 
 289 -259.59 -295.04 -259.97 
 290 -266.38 -290.49 -259.59 
 291 -265.46 -297.43 -259.59 
 292 -264.62 -291.48 -259.59 
 293 -262.49 -293.24 -259.59 
 294 -256.40 -277.84 -259.59 
 295 -266.62 -283.80 -256.40 
 296 -260.38 -290.52 -256.40 
 297 -267.12 -285.37 -256.40 
 298 -256.62 -283.63 -256.40 
 299 -258.35 -263.57 -256.40 
 300 -258.64 -272.00 -256.40 
 301 -255.64 -281.78 -256.40 
 302 -258.18 -270.96 -255.64 
 303 -261.47 -253.98 -255.64 
 304 -256.38 -257.87 -255.64 
 305 -262.61 -266.62 -255.64 
 306 -253.22 -254.72 -255.64 
 307 -256.74 -265.01 -253.22 
 308 -265.48 -272.44 -253.22 
 309 -265.90 -273.44 -253.22 
 310 -264.04 -268.08 -253.22 
 311 -265.38 -238.45 -253.22 
 312 -261.25 -268.49 -253.22 
 313 -264.44 -242.75 -253.22 
 314 -257.50 -246.48 -253.22 
 315 -256.56 -220.47 -253.22 
 316 -270.53 -227.86 -253.22 
 317 -261.19 -225.78 -253.22 
 318 -261.51 -217.89 -253.22 
 319 -257.24 -229.21 -253.22 
 320 -247.89 -245.85 -253.22 
 321 -259.25 -227.95 -247.89 
 322 -252.73 -219.76 -247.89 
 323 -260.99 -220.61 -247.89 
 324 -263.04 -247.48 -247.89 
 325 -254.76 -230.15 -247.89 
 326 -251.56 -224.00 -247.89 
 327 -259.21 -222.97 -247.89 
 328 -248.20 -224.87 -247.89 
 329 -250.63 -228.53 -247.89 
 330 -253.15 -228.52 -247.89 
 331 -257.59 -229.32 -247.89 
 332 -246.54 -229.53 -247.89 
 333 -256.13 -226.38 -246.54 
 334 -247.76 -231.09 -246.54 
 335 -250.90 -227.61 -246.54 
 336 -257.30 -230.61 -246.54 
 337 -251.49 -232.86 -246.54 
 338 -251.87 -229.45 -246.54 
 339 -248.84 -231.75 -246.54 
 340 -247.39 -224.99 -246.54 
 341 -249.02 -227.90 -246.54 
 342 -240.86 -229.16 -246.54 
 343 -254.28 -222.14 -240.86 
 344 -248.62 -213.71 -240.86 
 345 -257.34 -218.19 -240.86 
 346 -243.80 -224.06 -240.86 
 347 -244.43 -232.94 -240.86 
 348 -255.24 -236.13 -240.86 
 349 -256.52 -233.68 -240.86 
 350 -258.75 -234.01 -240.86 
 351 -246.54 -227.12 -240.86 
 352 -254.81 -229.60 -240.86 
 353 -251.21 -224.33 -240.86 
 354 -240.35 -222.59 -240.86 
 355 -258.88 -227.74 -240.35 
 356 -238.56 -220.81 -240.35 
 357 -235.90 -216.61 -238.56 
 358 -237.60 -217.67 -235.90 
 359 -249.33 -218.25 -235.90 
 360 -251.74 -229.65 -235.90 
 361 -244.61 -219.59 -235.90 
 362 -235.64 -234.43 -235.90 
 363 -238.33 -241.19 -235.64 
 364 -249.76 -249.39 -235.64 
 365 -231.49 -218.78 -235.64 
 366 -236.07 -238.96 -231.49 
 367 -252.83 -220.38 -231.49 
 368 -246.25 -230.17 -231.49 
 369 -241.10 -209.36 -231.49 
 370 -234.87 -208.45 -231.49 
 371 -247.29 -208.36 -231.49 
 372 -239.40 -215.29 -231.49 
 373 -234.99 -211.76 -231.49 
 374 -239.94 -213.69 -231.49 
 375 -228.77 -211.40 -231.49 
 376 -238.79 -211.89 -228.77 
 377 -230.09 -217.80 -228.77 
 378 -233.68 -215.14 -228.77 
 379 -221.28 -215.52 -228.77 
 380 -226.85 -206.43 -221.28 
 381 -230.50 -195.78 -221.28 
 382 -228.22 -182.50 -221.28 
 383 -229.90 -182.45 -221.28 
 384 -208.20 -205.09 -221.28 
 385 -211.78 -207.88 -208.20 
 386 -204.05 -175.24 -208.20 
 387 -199.11 -168.65 -204.05 
 388 -199.11 -165.22 -199.11 
 389 -208.28 -167.42 -199.11 
 390 -199.34 -188.88 -199.11 
 391 -195.53 -165.28 -199.11 
 392 -201.93 -157.94 -195.53 
 393 -190.43 -166.73 -195.53 
 394 -208.84 -163.58 -190.43 
 395 -194.26 -166.65 -190.43 
 396 -194.69 -164.11 -190.43 
 397 -192.75 -163.17 -190.43 
 398 -189.06 -165.97 -190.43 
 399 -186.21 -167.74 -189.06 
 400 -187.00 -168.03 -186.21 
 401 -188.96 -167.92 -186.21 
 402 -184.33 -168.36 -186.21 
 403 -183.16 -172.99 -184.33 
 404 -183.10 -165.09 -183.16 
 405 -191.25 -162.01 -183.10 
 406 -207.50 -161.98 -183.10 
 407 -179.64 -157.19 -183.10 
 408 -186.22 -157.56 -179.64 
 409 -183.84 -155.37 -179.64 
 410 -197.76 -153.57 -179.64 
 411 -183.61 -153.25 -179.64 
 412 -183.91 -156.72 -179.64 
 413 -179.41 -158.34 -179.64 
 414 -182.40 -156.12 -179.41 
 415 -184.56 -157.99 -179.41 
 416 -179.90 -164.85 -179.41 
 417 -186.56 -162.32 -179.41 
 418 -182.61 -165.75 -179.41 
 419 -182.66 -160.86 -179.41 
 420 -184.96 -171.46 -179.41 
 421 -179.97 -172.96 -179.41 
 422 -179.77 -166.99 -179.41 
 423 -179.15 -171.14 -179.41 
 424 -184.13 -174.54 -179.15 
 425 -175.31 -172.86 -179.15 
 426 -177.23 -172.31 -175.31 
 427 -177.71 -169.45 -175.31 
 428 -176.50 -169.99 -175.31 
 429 -177.17 -171.41 -175.31 
 430 -174.65 -167.50 -175.31 
 431 -175.26 -168.43 -174.65 
 432 -173.59 -167.39 -174.65 
 433 -174.05 -165.80 -173.59 
 434 -176.92 -164.09 -173.59 
 435 -197.72 -165.89 -173.59 
 436 -172.96 -164.60 -173.59 
 437 -174.59 -159.93 -172.96 
 438 -174.00 -165.32 -172.96 
 439 -173.41 -165.62 -172.96 
 440 -168.52 -167.67 -172.96 
 441 -169.15 -167.82 -168.52 
 442 -175.03 -170.55 -168.52 
 443 -172.25 -166.51 -168.52 
 444 -173.65 -171.09 -168.52 
 445 -185.41 -173.10 -168.52 
 446 -175.10 -173.66 -168.52 
 447 -174.62 -178.02 -168.52 
 448 -173.81 -178.24 -168.52 
 449 -173.89 -169.58 -168.52 
 450 -170.93 -173.73 -168.52 
 451 -171.30 -171.93 -168.52 
 452 -169.98 -170.50 -168.52 
 453 -169.86 -172.46 -168.52 
 454 -167.57 -175.01 -168.52 
 455 -167.42 -176.78 -167.57 
 456 -166.39 -173.98 -167.42 
 457 -168.83 -173.61 -166.39 
 458 -166.60 -175.77 -166.39 
 459 -170.99 -178.40 -166.39 
 460 -166.00 -178.41 -166.39 
 461 -170.36 -181.89 -166.00 
 462 -176.58 -181.51 -166.00 
 463 -165.42 -182.52 -166.00 
 464 -166.73 -183.34 -165.42 
 465 -167.81 -183.81 -165.42 
 466 -179.26 -182.85 -165.42 
 467 -164.73 -183.55 -165.42 
 468 -170.12 -184.17 -164.73 
 469 -164.80 -181.81 -164.73 
 470 -166.18 -182.27 -164.73 
 471 -165.40 -180.76 -164.73 
 472 -168.04 -180.81 -164.73 
 473 -164.15 -180.49 -164.73 
 474 -165.86 -176.52 -164.15 
 475 -160.62 -175.67 -164.15 
 476 -163.63 -174.67 -160.62 
 477 -161.65 -175.39 -160.62 
 478 -169.87 -175.65 -160.62 
 479 -160.10 -174.23 -160.62 
 480 -165.79 -175.72 -160.10 
 481 -161.64 -176.48 -160.10 
 482 -173.85 -177.65 -160.10 
 483 -163.31 -177.04 -160.10 
 484 -165.05 -177.59 -160.10 
 485 -165.57 -177.63 -160.10 
 486 -165.25 -175.31 -160.10 
 487 -163.72 -176.04 -160.10 
 488 -161.82 -177.72 -160.10 
 489 -161.33 -177.04 -160.10 
 490 -159.54 -176.97 -160.10 
 491 -159.99 -176.27 -159.54 
 492 -159.34 -175.41 -159.54 
 493 -160.21 -176.66 -159.34 
 494 -160.39 -175.93 -159.34 
 495 -166.49 -175.41 -159.34 
 496 -160.36 -174.51 -159.34 
 497 -156.77 -175.49 -159.34 
 498 -159.32 -176.79 -156.77 
 499 -155.77 -174.73 -156.77 
