iteration,time_sampling,stoc_pol_mean,stoc_pol_std,stoc_pol_max,stoc_pol_min,rollout_success,alpha,delta,time_vpg,time_npg,kl_dist,surr_improvement,running_score,rwd_sparse,rwd_dense,success_percentage,num_samples,time_VF,VF_error_before,VF_error_after,env_samples,eval_score,eval_success
0,1.310642957687378,64.53214157682862,17.368498077307745,74.56473994712246,34.449021705834326,0.0,0.16061900342104185,0.1,0.08343005180358887,0.05957603454589844,0.050053194,0.59449404,64.53214157682862,0.0,0.8504516910350441,0.0,300,0.021996498107910156,1.0052676562623508,0.9989147759629884,300,74.56001552505288,0.0
1,1.2584865093231201,68.99880407434733,3.61021420539766,74.55881891865145,64.44794566408207,0.0,0.16835246323914138,0.1,0.019194364547729492,0.06006646156311035,0.055373657,0.61615634,64.97880782658049,0.0,0.9167334876094153,0.0,300,0.03245186805725098,0.9989473425206806,0.9905153395153654,600,74.56510200006359,0.0
2,1.2930915355682373,66.52129653949069,13.90234083370907,74.5786760302419,42.441758273438126,0.0,0.17329568350459454,0.1,0.003174304962158203,0.06081986427307129,0.051599666,0.6520784,65.13305669787151,0.0,0.8769471572682781,0.0,300,0.020434856414794922,0.9908375756120412,0.9770901986903431,900,74.56000873337952,0.0
3,1.3672819137573242,65.33804910056435,16.00980484008196,74.59968387914184,37.6082676549729,0.0,0.16344390489404642,0.1,0.003145933151245117,0.060875654220581055,0.048269466,0.53871715,65.1535559381408,0.0,0.8611668022728179,0.0,300,0.02957606315612793,0.9773112789213291,0.9536264908280871,1200,74.56424073765457,0.0
4,1.355330228805542,31.27853170791006,9.1135438371285,42.49935266762828,18.39643613680056,0.0,0.15980625579699284,0.1,0.0038831233978271484,0.06267523765563965,0.049598858,1.2453947,61.766053515117726,0.0,0.41715616760030394,0.0,300,0.04763388633728027,0.9170482509197816,0.8659692423074759,1500,74.5753700990791,0.0
5,1.3550536632537842,72.59755636726221,3.522777020824935,74.81415491628665,66.49904435612358,0.0,0.16981782980385796,0.1,0.0031218528747558594,0.0650336742401123,0.051363867,0.5294706,62.84920380033218,0.0,0.9578822760444798,0.0,300,0.03730440139770508,0.923348129236818,0.8756373117996842,1800,74.56626926035403,0.0
6,1.3468163013458252,65.04019255525034,16.4990655503738,74.60443011691642,36.463002407227236,0.0,0.16860296849210607,0.1,0.005112409591674805,0.060596466064453125,0.04971803,0.68952006,63.068302675824,0.0,0.8571833563080634,0.0,300,0.03964996337890625,0.8739060576915814,0.8000621553781592,2100,74.55966313066551,0.0
7,1.3672511577606201,55.23969887452005,19.349882443819226,74.56615549479372,33.485748773608734,0.0,0.16909194445320705,0.1,0.013071060180664062,0.06147050857543945,0.050522294,0.68805265,62.285442295693606,0.0,0.7299386942790711,0.0,300,0.04410743713378906,0.7897801000496304,0.6948080646603955,2400,74.55487560885243,0.0
8,1.3808529376983643,54.08938552084786,21.229199400529573,74.54139001094048,25.566770175963168,0.0,0.16292335206025363,0.1,0.003307819366455078,0.06012320518493652,0.048141282,0.6920213,61.46583661820903,0.0,0.7145624600758309,0.0,300,0.03984689712524414,0.6978080441046265,0.5935569633091592,2700,74.55509428286733,0.0
9,1.3877792358398438,74.55568721082258,0.027505703578565233,74.60110748220141,74.52744037479188,0.0,0.1818633215331741,0.1,0.0032110214233398438,0.059427499771118164,0.05361217,0.68807393,62.774821677470385,0.0,0.9807026253843799,0.0,300,0.034249305725097656,0.5953851881261353,0.458090592861721,3000,74.54815285729488,0.0
10,1.383554220199585,67.0579437402107,12.947714640836908,74.54046909438834,44.63184615534989,0.0,0.16494589957131733,0.1,0.003170490264892578,0.0622406005859375,0.050728325,0.69216996,63.203133883744414,0.0,0.8841351434671935,0.0,300,0.040196895599365234,0.45387622087918517,0.3299479085147831,3300,74.53988326514946,0.0
11,1.3913331031799316,54.24805581836563,11.720788458648867,74.51188160619485,46.514501606732466,0.0,0.15636446361885845,0.1,0.0030717849731445312,0.09952902793884277,0.051449843,0.7735766,62.30762607720654,0.0,0.7200827022483227,0.0,300,0.026835918426513672,0.3642577839414342,0.34204564468595017,3600,74.5381491446806,0.0
12,1.3683526515960693,60.06044580550114,15.370074239855544,74.62500382560347,38.53556830682168,0.0,0.16027429750788838,0.1,0.0035991668701171875,0.061031341552734375,0.050131816,0.7192067,62.082908050035996,0.0,0.7941438327557958,0.0,300,0.026262521743774414,0.2937302138954952,0.26645955095751445,3900,74.54623595852502,0.0
13,1.473479986190796,55.53855780189339,18.500443242307767,74.54453137192684,31.502207185342858,0.0,0.15777783993621333,0.1,0.0033392906188964844,0.059592247009277344,0.049693108,0.8071056,61.428473025221734,0.0,0.7372145438094146,0.0,300,0.023721694946289062,0.3625104223696556,0.3416801864473897,4200,74.55422941525191,0.0
14,1.3921372890472412,63.344063830720145,14.656124575650953,74.55057496112158,38.77938548645697,0.0,0.16163631663235634,0.1,0.0032091140747070312,0.05946469306945801,0.051575523,0.75016695,61.62003210577158,0.0,0.8379501516314622,0.0,300,0.044083595275878906,0.24707562180721102,0.22890089508711228,4500,74.55239358263736,0.0
15,1.3785619735717773,69.2691004349605,5.586286652581747,74.59198631922342,61.48177228183875,0.0,0.16075324495957435,0.1,0.003283977508544922,0.06224822998046875,0.04722385,0.9281661,62.384938938690475,0.0,0.916974134829262,0.0,300,0.027080059051513672,0.19288646653338584,0.17382925026714724,4800,74.55759353935487,0.0
16,1.4635238647460938,55.314855449058584,13.9097871626171,74.54271958323235,41.42816334950373,0.0,0.16603211112845706,0.1,0.0030956268310546875,0.0629723072052002,0.05070125,1.2171946,61.67793058972728,0.0,0.7342463543356068,0.0,300,0.023671388626098633,0.2966780889150146,0.2664052501179839,5100,74.55732842380952,0.0
17,1.3927264213562012,59.769729396780996,14.792293646827217,74.56358670083732,44.53067768275488,0.0,0.15932780483537246,0.1,0.0032644271850585938,0.06353950500488281,0.05010916,1.3325123,61.487110470432654,0.0,0.7902991803359369,0.0,300,0.03238368034362793,0.17821413419724125,0.16456355729157768,5400,74.55344778357292,0.0
18,1.3921616077423096,55.51700781877882,19.353146735190467,74.5544867096536,31.530253198592284,0.0,0.1645183666431559,0.1,0.0032668113708496094,0.06093597412109375,0.049951714,1.0669274,60.890100205267274,0.0,0.7335500071432175,0.0,300,0.027353763580322266,0.258022124972445,0.24411594267912792,5700,74.55272287106924,0.0
19,1.4760003089904785,68.56917952621767,10.37394208997336,74.58976472742026,50.60101871515511,0.0,0.17161771619213295,0.1,0.004640817642211914,0.06053566932678223,0.049957354,1.036302,61.658008137362316,0.0,0.9042715980537899,0.0,300,0.028963088989257812,0.16024998796022133,0.14916208451160778,6000,74.57242296316677,0.0
20,1.4412102699279785,57.509680253160624,17.031405453371054,74.54974928302553,40.46601253697037,0.0,0.17836289405088304,0.1,0.0029993057250976562,0.060430288314819336,0.051553562,2.2825906,61.243175348942145,0.0,0.7601399768887835,0.0,300,0.02545332908630371,0.2160298537269353,0.21241960435978186,6300,74.5599160414615,0.0
21,1.456251621246338,43.11157880269995,18.80141397979435,74.53551144397757,28.488350611040786,0.0,0.1640814166629058,0.1,0.08216166496276855,0.0794820785522461,0.04938787,1.4718516,59.43001569431793,0.0,0.5715459877208606,0.0,300,0.030957698822021484,0.5134326518381747,0.4266477238219443,6600,74.55594842326911,0.0
22,1.4725990295410156,65.04966666434694,16.448486811501752,74.56671221773401,36.560062809637806,0.0,0.17793366324537083,0.1,0.004107236862182617,0.061071157455444336,0.049720332,0.95070016,59.991980791320834,0.0,0.8573309129286522,0.0,300,0.04383039474487305,0.1951447771101473,0.20466558305333596,6900,74.54283919345444,0.0
23,1.5282609462738037,63.911045299612255,18.45783650281815,74.6280681521503,31.94120075054872,0.0,0.16999134221297493,0.1,0.003000020980834961,0.05876326560974121,0.05161053,0.65269226,60.383887242149974,0.0,0.8421449356728646,0.0,300,0.03212857246398926,0.1877776428402448,0.16253952629622492,7200,74.53521193356845,0.0
24,1.4423158168792725,70.52462128628147,6.941730356428646,74.54922005395316,58.50120744385215,0.0,0.16810398298854973,0.1,0.003129243850708008,0.07609915733337402,0.05023993,6.4073563,61.39796064656313,0.0,0.9303516066383024,0.0,300,0.0480799674987793,0.13954882619060094,0.11328481582468075,7500,74.53231534940834,0.0
25,1.4533653259277344,74.55625877085657,0.0347503697323391,74.61534543275705,74.52575084253371,0.0,0.17898081754527884,0.1,0.0031867027282714844,0.06319475173950195,0.050433196,1.2749,62.71379045899248,0.0,0.9806927578996468,0.0,300,0.018021106719970703,0.09102927891809649,0.07336479208790396,7800,74.54034434568202,0.0
26,1.4518868923187256,69.78229939032086,8.260157584453152,74.5622569776281,55.4752917744719,0.0,0.16748732610518713,0.1,0.0031812191009521484,0.061248064041137695,0.04981506,1.2101784,63.420641352125315,0.0,0.9203936002825014,0.0,300,0.024096965789794922,0.11106429895426363,0.1157502995522193,8100,74.53691323087504,0.0
27,1.5353238582611084,74.55064446475504,0.012829315459344435,74.56667793582417,74.53587082283163,0.0,0.1811940530661102,0.1,0.0031523704528808594,0.12148237228393555,0.050391715,1.049161,64.5336416633883,0.0,0.9806120883265329,0.0,300,0.04203653335571289,0.07351423914375443,0.07046141613386168,8400,74.53502296660916,0.0
28,1.4685673713684082,74.54851918698846,0.009637064274841942,74.56413372438539,74.53809542654396,0.0,0.16007372768688136,0.1,0.003284454345703125,0.0611722469329834,0.048684802,5.339146,65.53512941574832,0.0,0.9805589000620465,0.0,300,0.03670215606689453,0.06665053368102586,0.06478896495295113,8700,74.53812453814544,0.0
29,1.4850928783416748,74.53078324310788,0.005098214668314441,74.53741600878466,74.52474239813272,0.0,0.17181766735260323,0.1,0.005087852478027344,0.18170404434204102,0.050526686,1.3722908,66.43469479848427,0.0,0.9804048596662098,0.0,300,0.04570817947387695,0.0750458780100317,0.07306747618327628,9000,74.53654312089114,0.0
30,1.488135576248169,68.54495530276537,10.44197596356917,74.61752334482013,50.45898239111781,0.0,0.15621674668654628,0.1,0.0031862258911132812,0.060808658599853516,0.05026489,3.7286146,66.64572084891239,0.0,0.9039171935879791,0.0,300,0.04863405227661133,0.12416449135705006,0.11734466962368714,9300,74.53568269960805,0.0
31,1.3847675323486328,74.57031061618645,0.024453362474589777,74.60876083302894,74.54074961449525,0.0,0.18563449699541898,0.1,0.0033752918243408203,0.06035017967224121,0.050804015,0.77131337,67.43817982563979,0.0,0.9809230398787546,0.0,300,0.047110557556152344,0.07313017334873077,0.07140869551295234,9600,74.5419159289606,0.0
32,1.4458322525024414,74.55654559988064,0.012545685335103668,74.57147175726716,74.5368075697091,0.0,0.18185702621882002,0.1,0.0035505294799804688,0.06458854675292969,0.05001295,1.8270307,68.15001640306389,0.0,0.9806875948615308,0.0,300,0.021175861358642578,0.07255951799235376,0.06822036601064477,9900,74.53453020400569,0.0
33,1.4202697277069092,74.57728098748066,0.05799574624654572,74.6699036313392,74.52655722333658,0.0,0.15434331985995023,0.1,0.0032694339752197266,0.0616610050201416,0.05040072,4.541634,68.79274286150557,0.0,0.9809431555518122,0.0,300,0.02142810821533203,0.06382778534984583,0.06085086685475408,10200,74.53045992966904,0.0
34,1.4177072048187256,61.99750235227842,19.98788828529299,74.5340336795781,27.444793704641093,0.0,0.1545046572908914,0.1,0.004645347595214844,0.0596928596496582,0.049712308,1.4505234,68.11321881058286,0.0,0.8199922095658831,0.0,300,0.03186607360839844,0.3000035696396409,0.2507038793465549,10500,74.53188381373708,0.0
35,1.434887170791626,71.56578702790992,5.220882099854219,74.62993496677836,62.52313195771368,0.0,0.16185819005522578,0.1,0.003214597702026367,0.06269717216491699,0.051379196,1.4389298,68.45847563231557,0.0,0.9441862852058795,0.0,300,0.03281259536743164,0.0869936971739146,0.0944679975235249,10800,74.53202691296205,0.0
36,1.4872915744781494,61.82063787916549,22.1714734675592,74.758329617541,23.418810319167545,0.0,0.16585614123678566,0.1,0.0036559104919433594,0.06203746795654297,0.050154246,0.93286985,67.79469185700056,0.0,0.8142263645051551,0.0,300,0.07578372955322266,0.25196458715469633,0.24432202402474437,11100,74.53517979202408,0.0
37,1.4796416759490967,74.57254221830033,0.04399621121443293,74.62539309938924,74.51099487818303,0.0,0.16435243191680693,0.1,0.0031998157501220703,0.06205916404724121,0.049979437,1.9373348,68.47247689313053,0.0,0.9809293578594869,0.0,300,0.03610038757324219,0.09142870639237857,0.074254226027776,11400,74.53278965241653,0.0
38,1.47525954246521,67.30116157882402,12.577654434801131,74.5876659250548,45.516046693401336,0.0,0.16882652632697598,0.1,0.003049612045288086,0.06251645088195801,0.050036024,1.7798822,68.35534536169989,0.0,0.887347849314585,0.0,300,0.0395965576171875,0.10470452395313405,0.1022384638396761,11700,74.53087139463058,0.0
39,1.4737358093261719,62.01126095746672,14.760933359675617,74.57872351634613,38.466125231715964,0.0,0.15781094400104223,0.1,0.0031151771545410156,0.059076786041259766,0.0502901,1.4890759,67.72093692127658,0.0,0.8201691666038875,0.0,300,0.03235459327697754,0.25079558780263617,0.22452005751436077,12000,74.5362231391705,0.0
40,1.4724903106689453,74.02993127029569,0.8761293144187943,74.54405392536043,72.51246173550162,0.0,0.15665532912992122,0.1,0.004993438720703125,0.07335352897644043,0.05042851,1.9283199,68.3518363561785,0.0,0.9770595482949902,0.0,300,0.038143157958984375,0.0705519734183904,0.06962416420935436,12300,74.53905095001731,0.0
41,1.5157647132873535,69.27450686683015,7.4850161058823526,74.5541473620471,56.487776789169146,0.0,0.15847781181626433,0.1,0.014707803726196289,0.06184720993041992,0.04960897,2.3612926,68.44410340724366,0.0,0.9170319634438212,0.0,300,0.02174973487854004,0.0744883163495915,0.07012858843024718,12600,74.53370402189127,0.0
42,1.5436029434204102,74.54363650934026,0.007096651152425561,74.5539272712074,74.5355326807115,0.0,0.1588463340118461,0.1,0.0030601024627685547,0.061598777770996094,0.04952163,3.507703,69.05405671745332,0.0,0.9805294997917228,0.0,300,0.02227497100830078,0.07215512592987969,0.06462155207993171,12900,74.53208088410405,0.0
43,1.51027250289917,74.54947145727513,0.010489515568563711,74.56106974511155,74.53338361907069,0.0,0.14636952736852687,0.1,0.003180980682373047,0.07112669944763184,0.05014784,12.603924,69.60359819143551,0.0,0.9806334193695614,0.0,300,0.04455876350402832,0.04483497478719967,0.04275989593884547,13200,74.53206116899155,0.0
44,1.5229690074920654,68.59295196589923,10.467164397781591,74.81472445459302,50.46428460858643,0.0,0.15752094879227987,0.1,0.0032906532287597656,0.06977963447570801,0.049575508,2.8842597,69.50253356888189,0.0,0.9044026467429876,0.0,300,0.038881540298461914,0.11686848333857845,0.10068782144252568,13500,74.53358769579997,0.0
45,1.5603485107421875,53.756766835471964,21.04259833963728,74.57453352763758,28.45336981565474,0.0,0.16149117618610812,0.1,0.0031311511993408203,0.06113457679748535,0.05023639,1.4933857,67.92795689554089,0.0,0.7101288184560035,0.0,300,0.04008054733276367,0.428661983165589,0.292387688537625,13800,74.53105173655062,0.0
46,1.5093340873718262,74.55145310116062,0.01837875738588647,74.57498793853541,74.52722767645295,0.0,0.15703523122461802,0.1,0.0031652450561523438,0.0685262680053711,0.051023137,6.1108875,68.59030651610286,0.0,0.9806413409714989,0.0,300,0.04191088676452637,0.08741867255733145,0.10332012910258291,14100,74.53372046451567,0.0
47,1.5726864337921143,70.24894771248681,5.809091741494496,74.55057963903339,60.41996722607821,0.0,0.15519363263741728,0.1,0.004987239837646484,0.06299591064453125,0.04925166,9.926792,68.75617063574126,0.0,0.9300124992457115,0.0,300,0.02692723274230957,0.08983453965863736,0.06409956911578019,14400,74.53498936483412,0.0
48,1.5079796314239502,74.54041822605032,0.015179680537127727,74.56394469242936,74.52478880502315,0.0,0.1438164516520239,0.1,0.003242015838623047,0.06216573715209961,0.049197968,17.429798,69.33459539477217,0.0,0.980515054759779,0.0,300,0.05175161361694336,0.0667253963070054,0.04228324063093194,14700,74.53371093443523,0.0
49,1.5733063220977783,73.56066176905836,1.774017048343763,74.62617389759806,70.48829640688926,0.0,0.15320154019078758,0.1,0.0032291412353515625,0.061057329177856445,0.051065497,8.28518,69.7572020322008,0.0,0.9707851572759876,0.0,300,0.021532773971557617,0.04760619376840711,0.052587239062711594,15000,74.53727580129953,0.0
50,1.4654862880706787,74.55681762122148,0.029698440627852478,74.60666437140718,74.52936489631249,0.0,0.1748266755522289,0.1,0.003493785858154297,0.06269717216491699,0.050089397,1.7363644,70.23716359110287,0.0,0.980693158013804,0.0,300,0.04766702651977539,0.04128645247402351,0.03927270804698211,15300,74.5383023696209,0.0
51,1.4415335655212402,52.23886740497336,22.31757393196495,74.53427773875045,28.474074004716623,0.0,0.16757349482228892,0.1,0.0032448768615722656,0.0596613883972168,0.050113343,1.3502765,68.43733397248992,0.0,0.6899460882003914,0.0,300,0.03205537796020508,0.5730746816311835,0.37160355833328723,15600,74.53784248049432,0.0
52,1.5157325267791748,74.57478072581856,0.06421470453033223,74.68285028198754,74.51807608262952,0.0,0.14897726865228067,0.1,0.0030515193939208984,0.059515953063964844,0.050170854,5.965314,69.05107864782279,0.0,0.980974255847945,0.0,300,0.03649115562438965,0.060073943375039886,0.09383034202534433,15900,74.5410512811295,0.0
53,1.545996904373169,65.78567536898005,15.186293012869626,74.56767666998786,39.48224958964679,0.0,0.161618745248681,0.1,0.0034220218658447266,0.06090140342712402,0.05049303,2.9745505,68.72453831993852,0.0,0.8671001347902292,0.0,300,0.02611398696899414,0.12448929733226527,0.11908446838648612,16200,74.54177754859852,0.0
54,1.4689576625823975,74.53770198011829,0.0062076764813864625,74.54636359405124,74.53064015395661,0.0,0.1770400868363334,0.1,0.003248453140258789,0.06213569641113281,0.05027641,2.0093436,69.30585468595649,0.0,0.980465274762143,0.0,300,0.029914140701293945,0.07934301230198745,0.05007740924923139,16500,74.53799912475446,0.0
55,1.4940862655639648,74.54354107863334,0.010980307932143172,74.55634894378018,74.53166526735265,0.0,0.1576675872581537,0.1,0.0032706260681152344,0.4443082809448242,0.050554357,11.490204,69.82962332522418,0.0,0.9805427755523838,0.0,300,0.031781911849975586,0.05202336408894643,0.04015684217206079,16800,74.54261133572571,0.0
56,1.550804853439331,66.55802701369386,13.89107499024367,74.65529966297692,42.498120568824746,0.0,0.14566737549051204,0.1,0.009908199310302734,0.06124401092529297,0.04988091,14.128657,69.50246369407114,0.0,0.8774090142848047,0.0,300,0.037444353103637695,0.11573660692704547,0.1200790205323005,17100,74.54551529281572,0.0
57,1.507875919342041,64.27471625872816,17.794194757145767,74.58052675121935,33.45428690064606,0.0,0.1620151965006855,0.1,0.0034151077270507812,0.061824798583984375,0.05013735,12.583604,68.97968895053684,0.0,0.8469930094057021,0.0,300,0.030303239822387695,0.14233179244663183,0.11848709598330578,17400,74.5576847729287,0.0
58,1.4954586029052734,74.52764505221376,0.009000475873871353,74.53786369290289,74.51356156777022,0.0,0.13789138086488922,0.1,0.0031800270080566406,0.05949139595031738,0.04987448,21.489338,69.53448456070454,0.0,0.9803479854371039,0.0,300,0.04604601860046387,0.0380681309102924,0.042006934564810236,17700,74.53760914700034,0.0
59,1.5109527111053467,74.5311893172573,0.006730625013950589,74.54192406551365,74.52356629944221,0.0,0.1596223229163127,0.1,0.0032579898834228516,0.06927084922790527,0.048686508,6.5514374,70.03415503635982,0.0,0.9803795762487529,0.0,300,0.04748940467834473,0.03874643985536056,0.03315786642906935,18000,74.53334575285056,0.0
60,1.5048637390136719,63.267631780322546,19.510708725230664,74.54059073125474,29.47409479632695,0.0,0.15417104041275573,0.1,0.003421783447265625,0.061583757400512695,0.049959436,13.111668,69.3575027107561,0.0,0.8335458923863415,0.0,300,0.05591106414794922,0.2263961050425062,0.2062550826221433,18300,74.5343039152102,0.0
61,1.5101134777069092,74.5352957098321,0.009031225600079476,74.54971051825463,74.52568958643673,0.0,0.15857229826639638,0.1,0.0030548572540283203,0.059403419494628906,0.049916673,4.563148,69.8752820106637,0.0,0.9804354291877422,0.0,300,0.04051661491394043,0.0416082831628788,0.04375668848966905,18600,74.52626473242772,0.0
62,1.5507144927978516,74.55573143319408,0.022579823932036242,74.58361525603858,74.53058081427555,0.0,0.1438366821677721,0.1,0.0030057430267333984,0.059044837951660156,0.04957943,11.943323,70.34332695291674,0.0,0.9806708385927285,0.0,300,0.027797460556030273,0.04040121035724216,0.029734671068933707,18900,74.52711561330747,0.0
63,1.5337283611297607,72.97733881037304,3.1862855852905447,75.34425032468201,67.4880310795996,0.0,0.15233049694209574,0.1,0.01954054832458496,0.06077885627746582,0.04899067,6.776565,70.60672813866238,0.0,0.9627907962156499,0.0,300,0.03128242492675781,0.040579079885076606,0.039622533797233475,19200,74.5242889772587,0.0
64,1.5936696529388428,74.53357324285201,0.008371392744100523,74.54541553482778,74.52184147283319,0.0,0.16878284985482012,0.1,0.0031800270080566406,0.05903959274291992,0.049977746,3.9150574,70.99941264908135,0.0,0.9804062856998552,0.0,300,0.022359371185302734,0.03656828566026208,0.036116414877495694,19500,74.52616883136908,0.0
65,1.504507064819336,68.2891867583279,10.822091516853593,74.5426459973498,49.544775741864186,0.0,0.1431021388880899,0.1,0.003040790557861328,0.05951714515686035,0.049933854,30.154919,70.728390060006,0.0,0.9005109928494808,0.0,300,0.032553911209106445,0.08242167274421275,0.06733523772155095,19800,74.52595766573477,0.0
66,1.5609025955200195,74.54721369455328,0.03001240964972679,74.59826877378886,74.52209858695885,0.0,0.16173889961726637,0.1,0.002901792526245117,0.0585787296295166,0.049805257,6.368575,71.11027242346074,0.0,0.9805933595934379,0.0,300,0.03254508972167969,0.027931697598752303,0.030426703695848233,20100,74.5241633761539,0.0
67,1.585587501525879,74.53785826462368,0.011175069943779498,74.55121383793166,74.5262700181685,0.0,0.15046205171547897,0.1,0.003108978271484375,0.06095004081726074,0.05135494,11.891319,71.45303100757704,0.0,0.9804419432888002,0.0,300,0.05287528038024902,0.02913251463741716,0.026583865396177204,20400,74.52590325989637,0.0
68,1.578547477722168,74.54387004864209,0.016857539348260123,74.56694130634655,74.52012183860693,0.0,0.13495882116433075,0.1,0.0033502578735351562,0.06000852584838867,0.049495302,36.43318,71.76211491168354,0.0,0.9805090131669716,0.0,300,0.02621603012084961,0.03083125814934973,0.025690181716365803,20700,74.52611263494575,0.0
69,1.4871389865875244,74.55042005346317,0.027706650332011935,74.58209014214005,74.52002396245788,0.0,0.1391923686808911,0.1,0.003237485885620117,0.059805870056152344,0.04919068,4.6502194,72.04094542586151,0.0,0.9806686702356403,0.0,300,0.036034584045410156,0.02655516423622727,0.025829474683716522,21000,74.52673008119608,0.0
70,1.4804465770721436,74.53632787802627,0.009433455866439297,74.55171684746837,74.52751898648343,0.0,0.1581103207351565,0.1,0.005499124526977539,0.06453633308410645,0.04937747,3.2549639,72.290483671078,0.0,0.9804445784972824,0.0,300,0.05298209190368652,0.029891645646415884,0.028385791175371926,21300,74.52363083180282,0.0
71,1.4887568950653076,74.56129345269717,0.037991533770743185,74.62698031395483,74.53575520952819,0.0,0.1689457381446807,0.1,0.003118276596069336,0.05948162078857422,0.050005384,3.1017044,72.51756464923992,0.0,0.9807924117545056,0.0,300,0.021138429641723633,0.02785888445319956,0.02629142969611671,21600,74.52427028030733,0.0
72,1.515488624572754,62.52299663973811,11.012508675221865,74.54048379163508,44.597975226087286,0.0,0.14267715295338115,0.1,0.0035486221313476562,0.061420440673828125,0.050023116,8.757676,71.51810784828974,0.0,0.83038964919092,0.0,300,0.02919483184814453,0.10690326527541172,0.07210778801785125,21900,74.52418686641572,0.0
73,1.5841970443725586,74.53038418762858,0.004916957268635395,74.537744802314,74.52538451970717,0.0,0.15441741995603914,0.1,0.003353595733642578,0.05977582931518555,0.04960006,7.935152,71.81933548222364,0.0,0.9803691023845158,0.0,300,0.029320240020751953,0.03008005332252651,0.03670463211589134,22200,74.52498473541166,0.0
74,1.498173475265503,74.55628496357934,0.028646510387293767,74.60010386752532,74.51982347233643,0.0,0.16121044946353896,0.1,0.0031652450561523438,0.059252262115478516,0.04992973,4.662602,72.0930304303592,0.0,0.9807260894763495,0.0,300,0.038555145263671875,0.04786840509849818,0.03166975635227952,22500,74.52590274132935,0.0
75,1.5106348991394043,74.53878281587265,0.013428277784924421,74.5605989744694,74.5272575482357,0.0,0.1678727549481558,0.1,0.003761768341064453,0.05999898910522461,0.04931549,3.1661456,72.33760566891056,0.0,0.9804866896587803,0.0,300,0.050417423248291016,0.026138542668779515,0.02455671283136505,22800,74.52788747685335,0.0
76,1.5395777225494385,64.51872033314264,17.31309718895132,74.55498337230158,34.53160314201096,0.0,0.167879359346746,0.1,0.003075122833251953,0.05912065505981445,0.04952565,1.6698462,71.55571713533377,0.0,0.8502997810621643,0.0,300,0.024471282958984375,0.1287123432577737,0.11382748052273904,23100,74.52579883161265,0.0
77,1.503227949142456,74.53883596404364,0.009132086033103875,74.55111191354692,74.52828338091072,0.0,0.14855815435712807,0.1,0.0032415390014648438,0.06096982955932617,0.050447974,31.822523,71.85402901820476,0.0,0.9804825380501417,0.0,300,0.046755313873291016,0.02418556623089906,0.026853207254239547,23400,74.52691706167583,0.0
78,1.6002616882324219,64.27593290982958,17.806763223831346,74.56509859353055,33.43371561276681,0.0,0.17590105701815162,0.1,0.003335714340209961,0.060700416564941406,0.050354492,1.1127968,71.09621940736724,0.0,0.847016384515324,0.0,300,0.042249441146850586,0.19460277972305143,0.17284464112756162,23700,74.52559411102119,0.0
79,1.5778543949127197,74.53557483206404,0.012198539856724727,74.55507162256191,74.52519347379355,0.0,0.16868633378582418,0.1,0.0031523704528808594,0.05949139595031738,0.050636914,11.192841,71.44015494983692,0.0,0.9804398068198512,0.0,300,0.047841787338256836,0.03655644146925176,0.03611325709797235,24000,74.52546872960575,0.0
80,1.5593786239624023,62.52365873577645,18.043261426523518,74.54554159561923,31.47124664636238,0.0,0.1552721867161397,0.1,0.005220890045166016,0.06114816665649414,0.050215896,1.4574566,70.54850532843088,0.0,0.8270248740326437,0.0,300,0.031495094299316406,0.1087651624586097,0.10787677515310963,24300,74.52469039316274,0.0
81,1.5277676582336426,74.53794406929785,0.01934485922373152,74.5609356449486,74.50815452726002,0.0,0.16077830348798103,0.1,0.007250547409057617,0.06548666954040527,0.049882293,2.1284895,70.94744920251757,0.0,0.9804907655885008,0.0,300,0.059026479721069336,0.029354765472443877,0.024573132631000687,24600,74.52498998370206,0.0
82,1.5639817714691162,74.56495688797841,0.049611675365981885,74.64744252338734,74.5239340132158,0.0,0.16089514189099544,0.1,0.005307674407958984,0.06418275833129883,0.05021603,8.592411,71.30919997106366,0.0,0.9807937421438802,0.0,300,0.044216156005859375,0.019844090437329855,0.01677209577646868,24900,74.52406136756672,0.0
83,1.5929176807403564,74.53420107246556,0.006711764434874786,74.54542403884466,74.52865434223543,0.0,0.15505340087934616,0.1,0.0037081241607666016,0.06131553649902344,0.049837936,6.6263785,71.63170008120386,0.0,0.9804212428454839,0.0,300,0.06441330909729004,0.019916814258675575,0.019598783494622626,25200,74.52416595480805,0.0
84,1.5852220058441162,74.53832282767607,0.01156765939258635,74.55574766067043,74.52320833681789,0.0,0.1531790069191625,0.1,0.00413060188293457,0.05918478965759277,0.05051791,25.036566,71.92236235585108,0.0,0.9804762594779504,0.0,300,0.038382768630981445,0.024697785275176264,0.02297428629466943,25500,74.52506294020668,0.0
85,1.5866711139678955,74.55128730140648,0.008486496291747265,74.5640416135465,74.54178369400796,0.0,0.17260101836898747,0.1,0.0030901432037353516,0.06145524978637695,0.04972599,2.942439,72.18525485040662,0.0,0.9806488017380256,0.0,300,0.030091524124145508,0.02170624724406214,0.018558139191087664,25800,74.52593217883575,0.0
86,1.537459135055542,62.760507450032634,20.3937531696064,74.5371621406074,27.437490890934892,0.0,0.18011904877953858,0.1,0.0032660961151123047,0.06279635429382324,0.049808018,0.57054925,71.24278011036922,0.0,0.8268104549809079,0.0,300,0.08594012260437012,0.15925478121374886,0.13655284295712103,26100,74.52710626883889,0.0
87,1.5137128829956055,74.54339455109877,0.023924369908568142,74.58242934629467,74.52282344693829,0.0,0.16211808142720832,0.1,0.0033996105194091797,0.061962127685546875,0.04979375,4.208762,71.57284155444218,0.0,0.9805439830626734,0.0,300,0.03389263153076172,0.027579987688160966,0.029594626229874455,26400,74.5276297495651,0.0
88,1.4809834957122803,63.78027143376313,18.65406097747456,74.57614236061809,31.470501876500947,0.0,0.16410393383262137,0.1,0.005304574966430664,0.06534671783447266,0.05024935,2.9889228,70.79358454237428,0.0,0.8404045275518852,0.0,300,0.043665170669555664,0.11316518750702596,0.11173173917535532,26700,74.52622102671832,0.0
89,1.5215578079223633,74.59601051819509,0.1043628302431228,74.77657621839639,74.53072005089997,0.0,0.17208566305237225,0.1,0.003052949905395508,0.06004667282104492,0.049855184,1.9890007,71.17382713995636,0.0,0.9812474060381289,0.0,300,0.024327754974365234,0.033677075201990946,0.022756558283242342,27000,74.52545153894152,0.0
90,1.5436880588531494,74.53483762750255,0.005135382947630566,74.54370058173697,74.5313147851672,0.0,0.16405082397100898,0.1,0.0032205581665039062,0.06163954734802246,0.049504656,1.88774,71.50992818871097,0.0,0.9804291751716365,0.0,300,0.04058218002319336,0.01883044660906019,0.0162570217414237,27300,74.52530134155076,0.0
91,1.5214924812316895,74.52195122171675,0.0052876612851212685,74.52536573543041,74.51280092898494,0.0,0.15643510674828334,0.1,0.0031316280364990234,0.06555533409118652,0.049597282,15.330299,71.81113049201156,0.0,0.9802887175179883,0.0,300,0.059113502502441406,0.018544019745385547,0.018382175256820062,27600,74.52643762988636,0.0
92,1.536426067352295,64.78755298246921,16.93930926765159,74.59382896919152,35.44782484135727,0.0,0.17202742758550338,0.1,0.0031402111053466797,0.05924201011657715,0.050864153,1.0980752,71.10877274105732,0.0,0.8538582996821656,0.0,300,0.029664278030395508,0.15741449774571947,0.11826736247723975,27900,74.52645858905552,0.0
93,1.5276978015899658,65.80279744845414,15.139765240429677,74.57107241173412,39.579971548793445,0.0,0.1693525384272365,0.1,0.003246307373046875,0.0613255500793457,0.049398713,1.3600227,70.578175211797,0.0,0.8673734124122517,0.0,300,0.03760051727294922,0.1068830594973891,0.09953190362546947,28200,74.52708356412099,0.0
94,1.6252081394195557,74.52892294282931,0.0058096025261908015,74.53841917227128,74.52295828463575,0.0,0.16719240864790733,0.1,0.0031707286834716797,0.06064319610595703,0.04966749,2.93697,70.97324998490024,0.0,0.9803511435420244,0.0,300,0.03306913375854492,0.04376602524065761,0.031307733153295304,28500,74.52446731621367,0.0
95,1.5685622692108154,63.30848123890482,19.460109423060615,74.55832650329721,29.602586587403877,0.0,0.16570637428712015,0.1,0.004753828048706055,0.0605168342590332,0.04910971,4.40941,70.20677311030069,0.0,0.8341171639622664,0.0,300,0.030709028244018555,0.12938924691082399,0.13081268585623845,28800,74.5247189034852,0.0
96,1.5922138690948486,74.56523516146214,0.03488359941775656,74.62395535412705,74.53389598372537,0.0,0.16407571905012833,0.1,0.0033979415893554688,0.06069684028625488,0.04960851,3.57243,70.64261931541684,0.0,0.9807932301961809,0.0,300,0.030798912048339844,0.021276300019474143,0.015484991904423429,29100,74.52516932649037,0.0
97,1.570483684539795,74.55693706501907,0.03974811131993123,74.6256559983109,74.53049475407113,0.0,0.16289860159918326,0.1,0.0031239986419677734,0.06007051467895508,0.050071284,3.8655124,71.03405109037706,0.0,0.9807120842280981,0.0,300,0.043166399002075195,0.018549716271347653,0.016861892631640504,29400,74.52429985476097,0.0
98,1.5702621936798096,74.53893692989166,0.007906596027773768,74.55025260721163,74.52879524049499,0.0,0.15223649899416575,0.1,0.0030655860900878906,0.06264638900756836,0.049349327,12.6731205,71.38453967432852,0.0,0.9804795423878496,0.0,300,0.03068232536315918,0.017331320957146575,0.01721267799296954,29700,74.52577622511316,0.0
99,1.6597402095794678,74.53215137511873,0.0029423631690731786,74.5355585227524,74.52757888752019,0.0,0.1401692924199214,0.1,0.003244638442993164,0.06094074249267578,0.049172048,65.75171,71.69930084440755,0.0,0.9803940610453552,0.0,300,0.0374903678894043,0.013029316735304967,0.012442081098987201,30000,74.526269573032,0.0
100,1.6472599506378174,74.53776092862915,0.014768435194601585,74.56241841446734,74.52488467409212,0.0,0.16764593268388064,0.1,0.0033872127532958984,0.07613182067871094,0.049356297,6.3347807,71.9831468528297,0.0,0.9804637974032455,0.0,300,0.04048299789428711,0.016300526800134454,0.015708187509957824,30300,74.52577685410576,0.0
101,1.6286695003509521,74.52992913717361,0.0014049088550535907,74.53097107742842,74.52754800498809,0.0,0.16937072802657488,0.1,0.0031311511993408203,0.05932116508483887,0.049777776,2.0153525,72.2378250812641,0.0,0.9803642920212486,0.0,300,0.030322790145874023,0.01635000231422501,0.01567025942784953,30600,74.52482784783818,0.0
102,1.6906278133392334,74.53805146675684,0.014998732975588106,74.56370544069745,74.52624130827334,0.0,0.17886373520372303,0.1,0.0034525394439697266,0.060735464096069336,0.05041931,1.8345685,72.46784771981339,0.0,0.980472954226356,0.0,300,0.040482521057128906,0.01462571095126897,0.013643344838792244,30900,74.52541087980612,0.0
103,1.616758108139038,74.5425434041529,0.019118809635822555,74.57497414301206,74.5260647022528,0.0,0.1651075285272557,0.1,0.0031871795654296875,0.06048774719238281,0.05000183,4.5348625,72.67531728824734,0.0,0.9805305014905992,0.0,300,0.03664708137512207,0.011771557792423264,0.011530171902994392,31200,74.5260275770007,0.0
104,1.6401212215423584,74.5263023584592,0.004425548949374359,74.53100313628016,74.5213884204281,0.0,0.15510092688705113,0.1,0.0031366348266601562,0.05987071990966797,0.050291386,8.897171,72.86041579526852,0.0,0.9803145595086794,0.0,300,0.039914608001708984,0.012324870733524814,0.011039072519456516,31500,74.52718878274689,0.0
105,1.6855175495147705,74.53912367869157,0.010112507948302341,74.55274155844192,74.52420773447365,0.0,0.15884696470512993,0.1,0.003086090087890625,0.06702375411987305,0.04980444,11.248816,73.02828658361082,0.0,0.9804871450743605,0.0,300,0.06011080741882324,0.012977277578995666,0.012435711812734227,31800,74.52721538390254,0.0
106,1.5342433452606201,74.54068984668046,0.011558866674899049,74.55440546920573,74.52287837105696,0.0,0.1693431650515678,0.1,0.0032303333282470703,0.0778961181640625,0.050036136,3.870885,73.17952690991778,0.0,0.9805271049227987,0.0,300,0.04587864875793457,0.015082481539393252,0.014428438429902438,32100,74.52733926445066,0.0
107,1.6200308799743652,74.53366201517221,0.008130895710136851,74.54699349229192,74.52667439220225,0.0,0.16056311516104138,0.1,0.0055694580078125,0.06294679641723633,0.049544454,5.8495774,73.31494042044324,0.0,0.9804138763503042,0.0,300,0.04645061492919922,0.010266041419633215,0.009992460164610585,32400,74.52854244207715,0.0
108,1.5564775466918945,74.53443499194856,0.006797140404252052,74.54065306094994,74.52323596844121,0.0,0.1566346091176487,0.1,0.003134012222290039,0.06169414520263672,0.049716536,3.882945,73.43688987759377,0.0,0.9804219477903524,0.0,300,0.028188467025756836,0.01073532310375333,0.010457033392739543,32700,74.52927639583801,0.0
109,1.5436854362487793,52.492644101810434,22.080666593332214,74.52954759038823,28.47226322506751,0.0,0.18309508461721077,0.1,0.003050088882446289,0.05955839157104492,0.050914608,0.7581405,71.34246530001543,0.0,0.6932708943078753,0.0,300,0.03735160827636719,0.6805735221574974,0.39537000721499166,33000,74.52701239997405,0.0
110,1.5893537998199463,74.5419159186967,0.02116162094832459,74.5783071225657,74.5261076329722,0.0,0.1801748103430376,0.1,0.0031228065490722656,0.05984067916870117,0.05061338,0.7889887,71.66241036188356,0.0,0.9805217600832083,0.0,300,0.028585195541381836,0.07085379761970297,0.1053015944102229,33300,74.52794605850866,0.0
111,1.5768427848815918,74.54713085240257,0.024943817137640423,74.58997505714706,74.52922355124373,0.0,0.18015817611642487,0.1,0.0030670166015625,0.06346440315246582,0.049944326,0.55692005,71.95088241093546,0.0,0.9805932704731776,0.0,300,0.028066396713256836,0.12306127227823707,0.037223217652380444,33600,74.52640704313953,0.0
112,1.5833752155303955,74.528890133811,0.008825983458456527,74.54408799944069,74.52231112332726,0.0,0.16922161437469882,0.1,0.0033049583435058594,0.060800790786743164,0.049279016,13.895272,72.20868318322302,0.0,0.9803506197764291,0.0,300,0.019832849502563477,0.023607372801390303,0.023607370589634462,33900,74.52611481757586,0.0
113,1.5628089904785156,74.53353235603254,0.007339667962534698,74.5433930791825,74.52444447258834,0.0,0.17130746058408453,0.1,0.005174398422241211,0.06489109992980957,0.05009907,1.7307255,72.44116810050397,0.0,0.9804127138156653,0.0,300,0.05779290199279785,0.022830822006898878,0.026513211939777386,34200,74.52715315899741,0.0
114,1.6199374198913574,74.53771001107152,0.009606719293981677,74.54751331606872,74.52433766776788,0.0,0.16150993143149758,0.1,0.0033469200134277344,0.0608675479888916,0.04932183,5.5475955,72.65082229156073,0.0,0.98047890417804,0.0,300,0.02191758155822754,0.024040653775022038,0.0162688615278108,34500,74.52862599249093,0.0
115,1.6193389892578125,74.53349621578946,0.01482841094513943,74.5590603805108,74.52327743387075,0.0,0.16964282226527871,0.1,0.002969980239868164,0.059569358825683594,0.049937923,3.9530952,72.83908968398362,0.0,0.9804100409449708,0.0,300,0.026873111724853516,0.010614352956773742,0.011181816888742199,34800,74.5289408357563,0.0
116,1.6447203159332275,74.53191911427356,0.005238756095334061,74.54004805438588,74.52541003175381,0.0,0.16545932310609057,0.1,0.0032203197479248047,0.0716085433959961,0.050033614,8.544751,73.0083726270126,0.0,0.9803900361037348,0.0,300,0.05484175682067871,0.014760524699448144,0.014567591219923641,35100,74.52987539935204,0.0
117,1.5903081893920898,74.52709159837235,0.0010729140209247614,74.52866944562722,74.52594580610624,0.0,0.18281205749621818,0.1,0.003194093704223633,0.062480926513671875,0.05045542,1.2329813,73.16024452414858,0.0,0.9803270823768926,0.0,300,0.07127523422241211,0.012210715196955222,0.011336824920659828,35400,74.5322975344085,0.0
118,1.6696889400482178,74.56317210365445,0.030574313782496674,74.59609403770467,74.5282571514626,0.0,0.15749009434544547,0.1,0.0030448436737060547,0.0596926212310791,0.049727757,13.489952,73.30053728209917,0.0,0.9808063561028869,0.0,300,0.053014516830444336,0.012175644681531778,0.011302525366565196,35700,74.53625520277184,0.0
119,1.6439001560211182,74.54029760332679,0.016709387432159335,74.56914927142002,74.52853208552027,0.0,0.16330404552450006,0.1,0.004392147064208984,0.0591120719909668,0.049503304,3.1234899,73.42451331422193,0.0,0.980501726640465,0.0,300,0.026461362838745117,0.014429174005116029,0.01276863161122858,36000,74.53486097823371,0.0
120,1.5874624252319336,74.53217196599132,0.003661452071232921,74.53673434933638,74.52828843495688,0.0,0.16156847876198804,0.1,0.021333694458007812,0.06090950965881348,0.04971665,7.3012753,73.53527917939886,0.0,0.9803932644913878,0.0,300,0.057604312896728516,0.010586267821422989,0.010765224222316743,36300,74.5380717602297,0.0
121,1.6240854263305664,74.53209848443893,0.011775994853531287,74.5520759978244,74.52235329420041,0.0,0.17682680417246374,0.1,0.0029981136322021484,0.05939173698425293,0.05031316,5.854941,73.63496110990286,0.0,0.9803871681807911,0.0,300,0.04637885093688965,0.010801912805601537,0.009933291964612286,36600,74.53794669605325,0.0
122,1.6637523174285889,65.7594668507976,15.207203572168625,74.54886796781021,39.41981968189008,0.0,0.18545224191665677,0.1,0.0031213760375976562,0.059102773666381836,0.049610063,0.569589,72.84741168399233,0.0,0.8667947986385949,0.0,300,0.0902400016784668,0.16030857621324207,0.12139665926721789,36900,74.53875075752079,0.0
123,1.7060298919677734,63.52409568451412,19.083928738651093,74.55553047963457,30.469768023635144,0.0,0.17081698057172953,0.1,0.003110170364379883,0.06347274780273438,0.04902791,0.5731558,71.9150800840445,0.0,0.8370099069303986,0.0,300,0.04196643829345703,0.11159064984416354,0.10892710112501844,37200,74.53694331509074,0.0
124,1.5858933925628662,74.54216386140554,0.008659325078283014,74.55320096321239,74.53048321268675,0.0,0.1848125571731102,0.1,0.0035250186920166016,0.061968088150024414,0.04968138,0.79291105,72.17778846178061,0.0,0.9805245366671564,0.0,300,0.12999415397644043,0.04984167486581837,0.03428015624356508,37500,74.53325261679616,0.0
125,1.5839741230010986,74.54917068264099,0.02125137740296884,74.57481554992317,74.52583910875686,0.0,0.16427913071158107,0.1,0.003130197525024414,0.06080460548400879,0.04883372,1.5350834,72.41492668386664,0.0,0.9806206668328672,0.0,300,0.029169082641601562,0.030355474162064425,0.009855707646754206,37800,74.53115161449328,0.0
126,1.6414794921875,74.53206834967341,0.008503218930859415,74.54549763936429,74.52455678749342,0.0,0.16839519726391164,0.1,0.003379344940185547,0.062345027923583984,0.049710438,1.6430997,72.62664085044733,0.0,0.9803790464032331,0.0,300,0.03576016426086426,0.009471806512246736,0.015445741621814975,38100,74.52933758493946,0.0
127,1.5549120903015137,65.5089406734086,15.62548401483957,74.53289717753341,38.44480901072171,0.0,0.1818632569993005,0.1,0.0033063888549804688,0.061237335205078125,0.049249683,0.7634199,71.91487083274346,0.0,0.8634575146072831,0.0,300,0.03815412521362305,0.1366153121705365,0.10145844588447976,38400,74.5278123221665,0.0
128,1.5629830360412598,74.53757168930863,0.009634505420737781,74.54983118445774,74.52659680525586,0.0,0.17166159296729636,0.1,0.0031855106353759766,0.07299232482910156,0.049051125,1.0614086,72.17714091839999,0.0,0.9804648790990573,0.0,300,0.04169034957885742,0.011648005085509465,0.017506411283788312,38700,74.52657725197388,0.0
129,1.7017061710357666,63.755635780984704,18.671598168992787,74.55577232849018,31.415486224210763,0.0,0.17197558702042529,0.1,0.003155946731567383,0.07172417640686035,0.05012461,0.5192034,71.33499040465846,0.0,0.8400788671091829,0.0,300,0.026941537857055664,0.18994836104536414,0.174114206866004,39000,74.52775747857753,0.0
130,1.6240594387054443,74.52984312902547,0.0012561012556534116,74.53122091047132,74.52783742777292,0.0,0.16769764241638171,0.1,0.0031299591064453125,0.06106734275817871,0.049820974,2.9762626,71.65447567709515,0.0,0.9803631975882735,0.0,300,0.07593607902526855,0.029304915416203194,0.026270715637615474,39300,74.52811084553606,0.0
131,1.6156811714172363,74.53920680140043,0.009456319429560727,74.54979617518455,74.52389640540571,0.0,0.1867192086221073,0.1,0.003416776657104492,0.061199188232421875,0.049391933,0.62586915,71.94294878952569,0.0,0.9804852114687699,0.0,300,0.20492863655090332,0.028860930107633503,0.010032794527527278,39600,74.5290123924059,0.0
132,1.6172709465026855,73.77036355748992,1.3138142764621796,74.54288472022589,71.49481897647624,0.0,0.17514525617777796,0.1,0.003107786178588867,0.06136035919189453,0.04905659,1.0851947,72.12569026632212,0.0,0.9736003183187595,0.0,300,0.09355664253234863,0.011884319017372963,0.014383045216429774,39900,74.52818355201158,0.0
133,1.6511311531066895,74.53839813831277,0.01496872996098694,74.56431913298645,74.52940853974847,0.0,0.17322825413991705,0.1,0.0031468868255615234,0.06099700927734375,0.050240267,1.6241549,72.3669610535212,0.0,0.9804775464469659,0.0,300,0.0357666015625,0.019265826688735048,0.01782189238698624,40200,74.5284629733193,0.0
134,1.6727302074432373,74.55481400458252,0.048806351254377274,74.63931519699676,74.52529914137602,0.0,0.16586456117292217,0.1,0.003191232681274414,0.05937075614929199,0.049916223,1.8375146,72.58574634862732,0.0,0.9806882591864133,0.0,300,0.09357190132141113,0.018213688035735618,0.013007683329695636,40500,74.52878922259302,0.0
135,1.6432976722717285,64.26571489950877,17.779659644967488,74.53330426093825,33.47044128288314,0.0,0.1788754351460933,0.1,0.0031359195709228516,0.06113600730895996,0.050172344,0.46699107,71.75374320371547,0.0,0.8468577016113087,0.0,300,0.021749496459960938,0.1331106054655353,0.11005046539316078,40800,74.52809604912181,0.0
136,1.7571227550506592,74.52672089166893,0.0030981554948273644,74.53205177469007,74.52441586550663,0.0,0.17934917490427105,0.1,0.0031960010528564453,0.06052041053771973,0.05001331,0.8885543,72.03104097251082,0.0,0.9803216164005294,0.0,300,0.030028581619262695,0.01706751497136273,0.020259325061910288,41100,74.5281916333465,0.0
137,1.6694135665893555,74.53491887682823,0.011934157557606044,74.55480245669449,74.52296482746993,0.0,0.1871261803929422,0.1,0.007845878601074219,0.06915974617004395,0.050192673,0.7706564,72.28142876294257,0.0,0.9804307096050412,0.0,300,0.045557498931884766,0.020551382159443216,0.010770027406837383,41400,74.52740832185967,0.0
138,1.6035351753234863,74.53239401535814,0.004512292825503939,74.537102773307,74.5251365903501,0.0,0.19522445473868877,0.1,0.003310680389404297,0.07620787620544434,0.04903793,0.78039044,72.50652528818412,0.0,0.9803913132535734,0.0,300,0.024991512298583984,0.014538505745946624,0.010673192844730745,41700,74.52586307550733,0.0
139,1.6441361904144287,74.53779751213236,0.01199219157063258,74.55098219941429,74.52298940495037,0.0,0.16681245532313996,0.1,0.08439135551452637,0.22385454177856445,0.049597435,3.3126593,72.70965251057895,0.0,0.9804595723747274,0.0,300,0.01945185661315918,0.014627591693590403,0.014768006934105706,42000,74.5261586289315,0.0
140,1.625927448272705,74.53115782808369,0.01394300121447832,74.55514966171229,74.52076286677186,0.0,0.16333964036123186,0.1,0.003264904022216797,0.05987358093261719,0.049816165,2.3240988,72.89180304232943,0.0,0.9803644666295614,0.0,300,0.03193235397338867,0.009912941104500984,0.008521804850497906,42300,74.52496885331222,0.0
141,1.631753921508789,74.52514636076064,0.0037519057449893274,74.53164090593701,74.52286380799256,0.0,0.18095587824987905,0.1,0.0030601024627685547,0.06028604507446289,0.05023581,1.9817258,73.05513737417255,0.0,0.9802999081600082,0.0,300,0.02351069450378418,0.016988773617297327,0.012702449432001118,42600,74.52560131447227,0.0
142,1.608607530593872,74.52897629934799,0.00351206729432166,74.53430523031491,74.524595861661,0.0,0.1809557369773652,0.1,0.0032346248626708984,0.05977988243103027,0.049611412,0.8353984,73.20252126669008,0.0,0.9803480117572236,0.0,300,0.02136683464050293,0.013268383784559322,0.013847733385696568,42900,74.52373757690692,0.0
143,1.8079407215118408,74.53155512515563,0.007194193350369566,74.54279896013767,74.52468957826305,0.0,0.18004201844483217,0.1,0.0052869319915771484,0.06266427040100098,0.050361082,0.7836799,73.33542465253664,0.0,0.9803759224406267,0.0,300,0.03661918640136719,0.01236654301534542,0.009667143760636073,43200,74.52434782039539,0.0
144,1.8038256168365479,74.52727190029859,0.0019272189956735621,74.52979407720723,74.52447582731789,0.0,0.182972003176113,0.1,0.003088235855102539,0.06128811836242676,0.050045833,0.960172,73.45460937731285,0.0,0.980329076271569,0.0,300,0.056418657302856445,0.008258872770526931,0.008624760956015783,43500,74.52464326248186,0.0
145,1.655707597732544,74.55235659351985,0.05176967279904069,74.64201592327906,74.52131724242234,0.0,0.18464948901836326,0.1,0.003151416778564453,0.061228036880493164,0.04988353,0.82115793,73.56438409893354,0.0,0.9806418620075579,0.0,300,0.039435625076293945,0.011895152000243598,0.011668221472206834,43800,74.52467847347201,0.0
146,1.648925542831421,74.52509681577565,0.004851832713797627,74.53338052060616,74.52101637350465,0.0,0.17022084043500663,0.1,0.0033826828002929688,0.06109118461608887,0.04968464,1.4345478,73.66045537061775,0.0,0.9802998748567258,0.0,300,0.047389984130859375,0.009978239157472923,0.009488851123847399,44100,74.52439557556609,0.0
147,1.707838535308838,74.5450394340557,0.021572460138082762,74.58138430961064,74.52479184047074,0.0,0.17912056253192352,0.1,0.0031280517578125,0.06318473815917969,0.049816627,0.8197351,73.74891377696154,0.0,0.9805604986771,0.0,300,0.024300575256347656,0.011664605050489493,0.011220200054177527,44400,74.52396720678028,0.0
148,1.6694245338439941,65.57132078093694,15.543240414065949,74.57770045311604,38.64966073400577,0.0,0.17438060947748374,0.1,0.003069639205932617,0.05957984924316406,0.04870865,0.5384607,72.93115447735909,0.0,0.86428168981538,0.0,300,0.030009984970092773,0.0923218110808828,0.07977784858767901,44700,74.5235443067058,0.0
149,1.6704754829406738,74.53018596067565,0.009173331486501462,74.54532333201507,74.52081876251297,0.0,0.16440105730500298,0.1,0.0035545825958251953,0.059668779373168945,0.05006818,1.7918195,73.09105762569075,0.0,0.9803674558812339,0.0,300,0.028732776641845703,0.009414817090051614,0.012127634728000271,45000,74.52384966464707,0.0
150,1.7311601638793945,74.0208345987665,0.8745838230144689,74.5271989752985,72.5060130156437,0.0,0.16862163203276115,0.1,0.0031054019927978516,0.06127595901489258,0.049590345,1.6391718,73.18403532299833,0.0,0.9769450023250646,0.0,300,0.12246108055114746,0.013494253126420998,0.008605722296703953,45300,74.52377319839754,0.0
151,1.7254209518432617,74.54033814845945,0.019831879124150995,74.57320004903053,74.52440212256236,0.0,0.1726066947635002,0.1,0.0031092166900634766,0.060791730880737305,0.049283262,1.6015602,73.31966560554444,0.0,0.9804894663237925,0.0,300,0.08120989799499512,0.010281633571277505,0.009072538998015803,45600,74.52455651867537,0.0
152,1.739412546157837,74.52995359093453,0.0043513885439244344,74.53746200646026,74.52683643513103,0.0,0.18016281176426846,0.1,0.005429267883300781,0.0680849552154541,0.04968058,1.4077564,73.44069440408344,0.0,0.9803577055017254,0.0,300,0.036028146743774414,0.01247224420078486,0.011790905678584127,45900,74.52441838246605,0.0
153,1.7979037761688232,74.53153846162769,0.007589646643345122,74.54459766725861,74.5261427916239,0.0,0.17708725686864982,0.1,0.0031168460845947266,0.058875083923339844,0.0505531,1.1804161,73.54977880983786,0.0,0.9803859750384989,0.0,300,0.029836177825927734,0.007830519581241983,0.006794670939434644,46200,74.52393655398477,0.0
154,1.7720067501068115,74.54685630159578,0.023358841420368672,74.58526312881574,74.52709638215627,0.0,0.1654952277689671,0.1,0.08189773559570312,0.08756804466247559,0.049907535,0.957736,73.64948655901365,0.0,0.9805570003652516,0.0,300,0.034934282302856445,0.01086632929460365,0.011016442792136313,46500,74.52467709740299,0.0
155,1.7877917289733887,74.52972707178914,0.005212698681681804,74.53776761598075,74.52329508948951,0.0,0.17443196723003856,0.1,0.0032122135162353516,0.060777902603149414,0.049851086,1.3729506,73.73751061029121,0.0,0.9803590230695806,0.0,300,0.05253195762634277,0.007292207054130881,0.006603614982704621,46800,74.52504295818083,0.0
156,2.7649295330047607,74.53512000155283,0.011352791489214378,74.55469531481974,74.5275162710315,0.0,0.1648574268504043,0.1,0.0031042098999023438,0.07273602485656738,0.049146954,4.3882875,73.81727154941737,0.0,0.9804150045564918,0.0,300,0.04426765441894531,0.0074346913203468595,0.006963613840176642,47100,74.5251487766734,0.0
157,1.7682268619537354,74.52674831843478,0.0029258361715263164,74.53122252145373,74.52356867432852,0.0,0.17518746622154763,0.1,0.003179788589477539,0.06019425392150879,0.050286185,1.023991,73.88821922631912,0.0,0.9803214121551989,0.0,300,0.027332305908203125,0.008366148776874027,0.008102379667402633,47400,74.52474974295477,0.0
158,1.7014665603637695,63.83371511089177,18.52018076797686,74.52730396783042,31.755821101400706,0.0,0.17532813651687748,0.1,0.003609895706176758,0.06270503997802734,0.0496613,0.5610762,72.8827688147764,0.0,0.8410515697241501,0.0,300,0.04766559600830078,0.14665355158784707,0.11196107487770957,47700,74.52382206043136,0.0
159,1.634676456451416,74.52914449384366,0.004449914762097047,74.53621611512334,74.52518178902643,0.0,0.1752783905841002,0.1,0.0032629966735839844,0.062215328216552734,0.049899194,0.73776054,73.04740638268312,0.0,0.9803516011029487,0.0,300,0.035837411880493164,0.019630165733210192,0.023793839487461395,48000,74.52335102846975,0.0
160,1.6763436794281006,74.52851797108801,0.00446052531884165,74.53384901516267,74.52257213880212,0.0,0.18972368523314992,0.1,0.0032868385314941406,0.06143975257873535,0.049933866,0.69509417,73.19551754152361,0.0,0.9803443998028647,0.0,300,0.05708456039428711,0.02191672719766583,0.011544335214978389,48300,74.52388784109904,0.0
161,1.7303187847137451,74.52921580789372,0.00227711818560146,74.53283481629617,74.52675833529818,0.0,0.18201590658748415,0.1,0.0031464099884033203,0.0594639778137207,0.050381016,0.765457,73.32888736816062,0.0,0.9803530980221933,0.0,300,0.04583477973937988,0.012472036594260775,0.008200565158360191,48600,74.52353356132924,0.0
162,1.7265911102294922,64.49890167115382,17.3704586870224,74.5371549894231,34.41238635340592,0.0,0.18318589172765948,0.1,0.0035102367401123047,0.05969882011413574,0.050227154,0.58780766,72.44588879845995,0.0,0.849987736234241,0.0,300,0.07750678062438965,0.20031263521508763,0.15846986664870974,48900,74.523551757326,0.0
163,1.7264251708984375,74.54194933825356,0.01502938584213002,74.56768088947034,74.53102766333427,0.0,0.1774155969533784,0.1,0.0035402774810791016,0.05939173698425293,0.049721103,0.9558847,72.65549485243932,0.0,0.9805014088693464,0.0,300,0.022690534591674805,0.008880102257740581,0.019460695490021884,49200,74.52356074667556,0.0
164,1.7091984748840332,74.52859309006406,0.004195476627183427,74.53547147706215,74.52430999333295,0.0,0.1719268586444945,0.1,0.003076791763305664,0.06109786033630371,0.04955752,1.7919133,72.84280467620181,0.0,0.9803441349214896,0.0,300,0.04363512992858887,0.013340676890265454,0.008741850223003911,49500,74.52330913593836,0.0
165,1.6770098209381104,74.53785246048474,0.015181910844953303,74.56290946972328,74.5233867669593,0.0,0.19211376916566011,0.1,0.003349781036376953,0.07117724418640137,0.050286934,0.9929119,73.0123094546301,0.0,0.9804607373045833,0.0,300,0.052399396896362305,0.0159775692710057,0.007161596761087349,49800,74.5233878229964,0.0
166,1.6584374904632568,74.52774057919046,0.0030638156295617197,74.53118290020174,74.52279006039896,0.0,0.17839885724309745,0.1,0.0030786991119384766,0.0592036247253418,0.049215782,1.1280364,73.16385256708614,0.0,0.9803325137651235,0.0,300,0.04037332534790039,0.013509084551357518,0.014593089986064324,50100,74.52354228345187,0.0
167,1.7672672271728516,74.52529732612868,0.006866778616820622,74.53708217142199,74.52045925099907,0.0,0.16868653977912382,0.1,0.0034644603729248047,0.0593724250793457,0.050304085,4.1340847,73.2999970429904,0.0,0.9803027861950604,0.0,300,0.028092622756958008,0.00899037936472571,0.005267400067693972,50400,74.52403525705243,0.0
168,1.7429509162902832,63.249398281429,19.529670697965624,74.52979767908302,29.42301678312032,0.0,0.16668709273843643,0.1,0.005341291427612305,0.06203198432922363,0.04887413,0.44414133,72.29493716683426,0.0,0.8333274220474559,0.0,300,0.03304409980773926,0.31005844970981195,0.2353826513740529,50700,74.52386700112048,0.0
169,1.695979118347168,74.54336307956905,0.016374719987206333,74.57062812345066,74.52704800734459,0.0,0.18134186588432277,0.1,0.003086090087890625,0.05935811996459961,0.049798097,0.6369062,72.51977975810775,0.0,0.9805419896525568,0.0,300,0.037397146224975586,0.03751837417489469,0.04125114582118672,51000,74.52426396150192,0.0
170,1.7628800868988037,74.52376139607821,0.0024318550922468743,74.52782550887167,74.52160456417789,0.0,0.1842498396878193,0.1,0.003189563751220703,0.06238412857055664,0.050164077,0.48153296,72.72017792190479,0.0,0.9802821688384588,0.0,300,0.03969597816467285,0.05527406907998806,0.0128189008216053,51300,74.52425214301454,0.0
171,1.8210670948028564,63.25733354974567,19.522404145852917,74.53293979067502,29.443538001218386,0.0,0.17505504393335145,0.1,0.0034332275390625,0.05885171890258789,0.050189335,0.48264888,71.77389348468887,0.0,0.8334153401809745,0.0,300,0.02481245994567871,0.19056958093872517,0.19269525820872002,51600,74.52415123212857,0.0
172,1.6937732696533203,74.53308854237815,0.009329271900214,74.54903226571851,74.52638533813489,0.0,0.18040665545740925,0.1,0.003368377685546875,0.062348127365112305,0.049579546,0.959666,72.04981299045781,0.0,0.9803722722226411,0.0,300,0.032607316970825195,0.014010728931339122,0.016843993196038957,51900,74.52356876910473,0.0
173,1.6457712650299072,74.5270621678668,0.0034786227140166156,74.53253542104699,74.523186387934,0.0,0.16541391804153424,0.1,0.0031702518463134766,0.05975222587585449,0.05003325,1.402935,72.2975379081987,0.0,0.9803245394898591,0.0,300,0.04424095153808594,0.010621778835747836,0.009239892426552805,52200,74.52319975539238,0.0
174,1.669062614440918,74.53023474065384,0.00313420760865632,74.5352599956741,74.52715969497679,0.0,0.1837755020802768,0.1,0.00368499755859375,0.0632176399230957,0.050423346,0.76017624,72.52080759144422,0.0,0.9803598668511633,0.0,300,0.02925872802734375,0.01448558018937994,0.01041680267757915,52500,74.52331645755102,0.0
175,1.7189321517944336,74.52992141658459,0.005728646395068738,74.53953846956585,74.52531100137332,0.0,0.17395001772933918,0.1,0.003018617630004883,0.06014752388000488,0.049667254,1.0381557,72.72171897395826,0.0,0.9803637485239445,0.0,300,0.0364534854888916,0.007236917570606678,0.00786447094976442,52800,74.52334416578378,0.0
176,1.7986745834350586,74.524680027613,0.0017311877730162462,74.52684330376792,74.52289404551824,0.0,0.16276356465133004,0.1,0.0032830238342285156,0.06226611137390137,0.049269233,1.9820787,72.90201507932375,0.0,0.9802933984496358,0.0,300,0.06394529342651367,0.010541775064206614,0.007276650488580624,53100,74.52335233307794,0.0
177,1.7339253425598145,74.52684761013244,0.004092800824828142,74.5321113983817,74.52086414917312,0.0,0.16280805606771337,0.1,0.0033159255981445312,0.06087827682495117,0.050854187,1.0738748,73.06449833240463,0.0,0.9803233969874362,0.0,300,0.026985883712768555,0.009284082215364491,0.007464505035627395,53400,74.52265403386458,0.0
178,1.7186181545257568,67.00725307387803,13.031495232041449,74.53270220570016,44.43604142063211,0.0,0.17597536001910805,0.1,0.003178119659423828,0.05974411964416504,0.050491907,0.47809312,72.45877380655196,0.0,0.8834284443872065,0.0,300,0.028502941131591797,0.09895852378598673,0.08666875297324081,53700,74.52255722375767,0.0
179,1.7875237464904785,74.52574013555005,0.0022096430190208954,74.52912342468291,74.52366074524795,0.0,0.173185759850257,0.1,0.0030210018157958984,0.059833526611328125,0.049552973,0.8785681,72.66547043945178,0.0,0.9803076359504032,0.0,300,0.04062700271606445,0.01659678980887309,0.014513508749714426,54000,74.52223929220291,0.0
180,1.759159803390503,66.00358414384569,14.763677620183495,74.53130540675478,40.43214514705939,0.0,0.17585775217967853,0.1,0.0030868053436279297,0.061933040618896484,0.049737655,0.3712846,71.99928180989117,0.0,0.8700451707653875,0.0,300,0.03598904609680176,0.11478418645847771,0.10786202449293326,54300,74.52245729707703,0.0
181,1.8009257316589355,74.52340462637127,0.0026762730733848558,74.52643904583512,74.52020593593754,0.0,0.17275860204515853,0.1,0.0032341480255126953,0.05943155288696289,0.049879037,0.92521197,72.25169409153918,0.0,0.9802775997845391,0.0,300,0.053954362869262695,0.01569164148487443,0.011311268094188694,54600,74.52263278323686,0.0
182,1.7509229183197021,74.52605250307512,0.0014054990072527903,74.52804413250591,74.52417621160195,0.0,0.17560792727653993,0.1,0.003077268600463867,0.05898261070251465,0.0504623,1.6260535,72.47912993269277,0.0,0.9803133148883109,0.0,300,0.01908135414123535,0.011971352081966117,0.009413891549047333,54900,74.52304333813913,0.0
183,1.767286777496338,74.52556905754673,0.0020245060161724394,74.52897062037432,74.52375980024979,0.0,0.16784427641624114,0.1,0.003031492233276367,0.0596010684967041,0.050083745,1.3952513,72.68377384517817,0.0,0.980305322001401,0.0,300,0.04170536994934082,0.008621827838415141,0.008519228675397018,55200,74.52356137698665,0.0
184,1.7505297660827637,74.53147989869137,0.007373170927787617,74.54167715930048,74.52370899735206,0.0,0.1862138004553539,0.1,0.0032930374145507812,0.060423851013183594,0.050073143,1.3141999,72.86854445052948,0.0,0.9803774846218769,0.0,300,0.020713329315185547,0.010783430006366779,0.008602564467973294,55500,74.52358880207161,0.0
185,1.7583098411560059,74.52390160134182,0.0034970315878376317,74.52958911417107,74.52005473693357,0.0,0.17922524663431502,0.1,0.003125905990600586,0.06278252601623535,0.05024453,0.75753236,73.03408016561072,0.0,0.9802823270307494,0.0,300,0.026827335357666016,0.007921120275276089,0.007707990601727639,55800,74.52347083663862,0.0
186,1.7111363410949707,74.52906078583497,0.004242021585318552,74.53498628361835,74.52327380503425,0.0,0.16949168344174612,0.1,0.016121864318847656,0.060577392578125,0.049745735,0.67111987,73.18357822763315,0.0,0.9803511388138864,0.0,300,0.040570735931396484,0.011853540938456867,0.011795607673897372,56100,74.5233924269464,0.0
187,1.7466180324554443,74.53013600998483,0.00786182122878443,74.54325474086579,74.52232611652357,0.0,0.184961943124649,0.1,0.003426790237426758,0.06285405158996582,0.049827266,0.5841383,73.31823400586832,0.0,0.9803671974027433,0.0,300,0.027312517166137695,0.008362045433795501,0.007715356622412446,56400,74.52365808290347,0.0
188,1.6996114253997803,74.5323831428228,0.004566297982167592,74.53995268795435,74.52774567681341,0.0,0.17970316218078833,0.1,0.0697021484375,0.06290936470031738,0.049650878,0.6280933,73.43964891956377,0.0,0.9803945456981733,0.0,300,0.0669407844543457,0.010425772901021075,0.009810680790660765,56700,74.52363869270744,0.0
189,1.7438421249389648,74.52501786447061,0.003784318974596874,74.52940491358675,74.52048895348112,0.0,0.1551931959647198,0.1,0.0031561851501464844,0.06141066551208496,0.05068341,2.1939669,73.54818581405445,0.0,0.9802964311048977,0.0,300,0.03279829025268555,0.009389852829801178,0.00940212106814718,57000,74.52383459838234,0.0
190,1.752915620803833,74.53005485840447,0.009802014927331286,74.54672712416222,74.52189389559216,0.0,0.1554434240856918,0.1,0.0033617019653320312,0.06689763069152832,0.049578894,4.624012,73.64637271848946,0.0,0.9803654808842128,0.0,300,0.024419546127319336,0.008588612021629553,0.007361758441401103,57300,74.52388394079148,0.0
191,1.8137648105621338,74.52544692412772,0.0034249200554309503,74.5300233271046,74.52049496041263,0.0,0.18039447054152283,0.1,0.0031890869140625,0.06135296821594238,0.04984131,1.306524,73.73428013905328,0.0,0.9803044466569701,0.0,300,0.03392910957336426,0.006398248245649652,0.006001632060257893,57600,74.52345079291091,0.0
192,1.7484540939331055,74.5285703402152,0.004560683371946812,74.53305097199879,74.52094338220122,0.0,0.17845458731537445,0.1,0.003147125244140625,0.06140327453613281,0.05062162,1.0470635,73.81370915916948,0.0,0.9803462191426299,0.0,300,0.046048879623413086,0.006601893026055778,0.006694206538229893,57900,74.52351532987316,0.0
193,1.7665319442749023,74.52724993825083,0.004344882326167991,74.53350083364758,74.52281110874289,0.0,0.16927228119180984,0.1,0.003237485885620117,0.059752464294433594,0.050282422,0.80812854,73.88506323707762,0.0,0.9803288531914172,0.0,300,0.0395052433013916,0.012125871278663094,0.011245778527475103,58200,74.52349990395727,0.0
194,1.7208788394927979,74.52472467320533,0.001611309781990724,74.52645440163943,74.52219557280313,0.0,0.1748637665903568,0.1,0.003205537796020508,0.061315059661865234,0.050095286,0.75065196,73.94902938069039,0.0,0.9802942468003202,0.0,300,0.033339738845825195,0.0085343001349375,0.008501661054054019,58500,74.52349521567758,0.0
195,1.8101708889007568,74.52658400138223,0.0016969460326451784,74.52886315474282,74.52467630437656,0.0,0.17709299025244224,0.1,0.003992795944213867,0.07222175598144531,0.049773134,0.9434806,74.00678484275957,0.0,0.98031941578357,0.0,300,0.04940938949584961,0.009842681071254055,0.009339510968444034,58800,74.52348364999138,0.0
196,1.821927785873413,74.52308210294498,0.001825786667589851,74.52565240669631,74.52117745915251,0.0,0.1724752516527252,0.1,0.0031342506408691406,0.08111763000488281,0.049521312,0.87915516,74.05841456877812,0.0,0.9802728797294921,0.0,300,0.028943777084350586,0.009444771671389492,0.009320046444695987,59100,74.52340117802142,0.0
197,1.8136887550354004,74.52767217317685,0.0028234156052658254,74.53253111775584,74.5257086084651,0.0,0.17890605688071395,0.1,0.003113985061645508,0.060498714447021484,0.04984932,1.0733787,74.105340329218,0.0,0.9803342270022948,0.0,300,0.04187464714050293,0.00740273038087669,0.0065843982323012425,59400,74.52302060767444,0.0
198,1.8186359405517578,63.0015310872154,19.969650518660117,74.54176231547282,28.413083675246344,0.0,0.1683687165429862,0.1,0.003754138946533203,0.0626366138458252,0.05034448,0.45416927,72.99495940501774,0.0,0.830025216119067,0.0,300,0.028126955032348633,0.265807683322979,0.20419997466695392,59700,74.52325924461755,0.0
199,1.8051438331604004,74.53705924020579,0.015151554208549425,74.5630297467578,74.52485577601742,0.0,0.17180083600197174,0.1,0.003204822540283203,0.06963634490966797,0.05009284,0.78955394,73.14916938853655,0.0,0.980459726741918,0.0,300,0.04080772399902344,0.026964233007897125,0.034984375531833325,60000,74.5234436840443,0.0
200,1.8490705490112305,74.52608126864536,0.004946698846587113,74.53401364707257,74.52124186772399,0.0,0.18232831606530603,0.1,0.0030112266540527344,0.059404611587524414,0.04923118,0.6875751,73.28686057654743,0.0,0.9803073237522617,0.0,300,0.020304203033447266,0.02933079568327405,0.00887657293612931,60300,74.52341502769163,0.0
201,1.817394733428955,74.52894579646181,0.0033644636600797134,74.534413174292,74.52522337781139,0.0,0.18090849282148772,0.1,0.003539562225341797,0.09779882431030273,0.05033716,0.5800387,73.41106909853887,0.0,0.9803510031208745,0.0,300,0.023001670837402344,0.014149319477061488,0.007674301096839744,60600,74.52398356542197,0.0
202,1.805257797241211,63.24861940030253,19.528061982015153,74.52405378728626,29.425023888736273,0.0,0.16759204299075536,0.1,0.0033905506134033203,0.061087846755981445,0.049807798,0.65030026,72.39482412871524,0.0,0.8333144617406703,0.0,300,0.05214047431945801,0.22301712920435965,0.1577340681271615,60900,74.52363719396942,0.0
203,1.8579459190368652,74.52437188171099,0.0016451846657147063,74.52709842154516,74.52283636583378,0.0,0.18325596572536137,0.1,0.0032911300659179688,0.060764312744140625,0.050077513,0.7126341,72.60777890401482,0.0,0.9802906635350574,0.0,300,0.029328107833862305,0.008701187752738565,0.020643134105761747,61200,74.52370913724396,0.0
204,1.7716212272644043,74.52281132102748,0.0014320450933068744,74.52467409205798,74.52098557643527,0.0,0.18460488007535147,0.1,0.004254817962646484,0.06183338165283203,0.04962986,0.8657145,72.79928214571609,0.0,0.980269810678069,0.0,300,0.023084402084350586,0.017761894159404486,0.01215140559166007,61500,74.52347303752235,0.0
205,1.7052922248840332,74.52629457639384,0.004652259840492777,74.53410543526982,74.52226335292279,0.0,0.17354166839480556,0.1,0.0034248828887939453,0.062465667724609375,0.049739532,0.8946704,72.97198338878387,0.0,0.9803152683593183,0.0,300,0.045259714126586914,0.02260689499167313,0.010054354961612475,61800,74.52323405144774,0.0
206,1.8046905994415283,74.52752373494548,0.006118826284110323,74.53805184238814,74.52286898973372,0.0,0.16532190024763158,0.1,0.0033712387084960938,0.30802202224731445,0.04941417,1.1363817,73.12753742340003,0.0,0.9803510442574241,0.0,300,0.028002262115478516,0.006862504572215298,0.010526086205512495,62100,74.52299540055812,0.0
207,1.6977694034576416,74.52559384874431,0.003950035558019098,74.53200528757348,74.52181392740351,0.0,0.17202898728960728,0.1,0.0032389163970947266,0.06001162528991699,0.050218195,1.2440853,73.26734306593445,0.0,0.9803068754950425,0.0,300,0.02385091781616211,0.012026370492239761,0.009229875559048167,62400,74.52256709157727,0.0
208,1.763085126876831,74.52392534505059,0.001677156109996962,74.52662234432857,74.5220382036365,0.0,0.16958707751816485,0.1,0.0034716129302978516,0.059805870056152344,0.050650302,1.0696954,73.39300129384608,0.0,0.9802832840467578,0.0,300,0.037370920181274414,0.008442489215529389,0.006991674772479085,62700,74.52225798374273,0.0
209,1.739962100982666,74.52546894346932,0.0036904006222378935,74.53068077301715,74.52189374653881,0.0,0.16978554350498062,0.1,0.004769325256347656,0.061626434326171875,0.049884576,0.956514,73.50624805880841,0.0,0.9803051808796263,0.0,300,0.057034969329833984,0.006433441327830336,0.006830587836664544,63000,74.52229476360515,0.0
210,1.7512812614440918,74.52368249547324,0.0022229967686359393,74.52591192776626,74.52062808139598,0.0,0.17871879195441412,0.1,0.003172159194946289,0.06226229667663574,0.050043017,0.61470866,73.60799150247489,0.0,0.9802814200449276,0.0,300,0.04065728187561035,0.00998726365739512,0.009405322550196622,63300,74.5223981565929,0.0
211,1.775468349456787,64.75144456066603,16.928218773673105,74.52673210459326,35.430909659229215,0.0,0.17059720983107948,0.1,0.08191394805908203,0.07189202308654785,0.04981015,0.44821554,72.722336808294,0.0,0.853355237621016,0.0,300,0.03868603706359863,0.15161813356568463,0.12106182481577188,63600,74.52224683680822,0.0
212,1.779836893081665,74.52607898523742,0.002223300443295511,74.52908163448775,74.52280809731825,0.0,0.17593765465667047,0.1,0.0055768489837646484,0.07143545150756836,0.049582478,0.67586,72.90271102598834,0.0,0.9803130208332956,0.0,300,0.02909255027770996,0.014339039930674181,0.020490052615574583,63900,74.52214019999408,0.0
213,1.7864303588867188,74.52679033499943,0.003592874105990443,74.53267160009005,74.52348858772966,0.0,0.17216840911835882,0.1,0.0034542083740234375,0.06130528450012207,0.050258953,0.72539973,73.06511895688945,0.0,0.9803224885388855,0.0,300,0.03012394905090332,0.02371241275835883,0.00822890936190985,64200,74.52204709898014,0.0
214,1.7789623737335205,74.52751942086215,0.002237147699958567,74.5303574751158,74.5246484036432,0.0,0.168906788528777,0.1,0.0033152103424072266,0.06330537796020508,0.049816694,0.83486,73.21135900328672,0.0,0.9803312738990305,0.0,300,0.023897171020507812,0.0062011150520013035,0.008067733343838993,64500,74.522042307146,0.0
215,1.8005635738372803,74.52684155450228,0.004636790798605506,74.5343508589975,74.5223158115059,0.0,0.18233098236126905,0.1,0.0032012462615966797,0.0647122859954834,0.05028213,0.59770757,73.34290725840827,0.0,0.9803234375180996,0.0,300,0.021007776260375977,0.008695127760330648,0.008076758772123037,64800,74.52214962204802,0.0
216,1.8036706447601318,74.52590703269664,0.004240580630514003,74.53310520386044,74.52215568088577,0.0,0.1765190561806326,0.1,0.0032281875610351562,0.06010150909423828,0.050072335,2.1155908,73.46120723583711,0.0,0.980311074033797,0.0,300,0.03442263603210449,0.015170232445037278,0.01057725687194254,65100,74.5224012776067,0.0
217,1.8550500869750977,74.52526473027379,0.004072275747807602,74.53150600647695,74.52044855767025,0.0,0.17208556585292772,0.1,0.0031867027282714844,0.06088614463806152,0.049648974,0.8429321,73.56761298528077,0.0,0.9803010062327939,0.0,300,0.029711008071899414,0.008034084756483258,0.008216628415537067,65400,74.52249222173096,0.0
218,1.7888600826263428,74.52692195072561,0.0025294000353170212,74.53123687920993,74.52479652876195,0.0,0.17459282214851404,0.1,0.08292484283447266,0.06118440628051758,0.049665242,0.672562,73.66354388182526,0.0,0.9803240902419866,0.0,300,0.025996923446655273,0.009062268439644774,0.007954678810016795,65700,74.52231472185657,0.0
219,1.7876167297363281,74.52624658228189,0.002603200680540422,74.52922490659007,74.52223655423995,0.0,0.1824319468515731,0.1,0.01370692253112793,0.0611419677734375,0.04959852,0.59970146,73.74981415187092,0.0,0.9803156012365143,0.0,300,0.04734086990356445,0.010190112760156578,0.008162417547616634,66000,74.52237536869293,0.0
220,1.8529224395751953,74.5281272225323,0.006154515183978799,74.53867105565261,74.52318890543488,0.0,0.17216270893899394,0.1,0.003213167190551758,0.05979609489440918,0.049722802,0.7377021,73.82764545893706,0.0,0.9803366196117291,0.0,300,0.030808210372924805,0.008855667248577748,0.00834652620886733,66300,74.52260779802089,0.0
221,1.8623688220977783,74.52352971494204,0.0011247127859263207,74.52484320765375,74.52176037528974,0.0,0.17762254847694448,0.1,0.003010272979736328,0.05921792984008789,0.050257124,0.73525727,73.89723388453756,0.0,0.9802794032286433,0.0,300,0.030109882354736328,0.008031516850697421,0.007230146872599379,66600,74.52266325886839,0.0
222,1.7391166687011719,74.52452969513041,0.0029639264473775625,74.52888343795502,74.52054481129778,0.0,0.17842732519662535,0.1,0.0035796165466308594,0.06248641014099121,0.04964106,0.7388757,73.95996346559684,0.0,0.9802914483259495,0.0,300,0.07107234001159668,0.007028729564180804,0.006519220966649581,66900,74.52278643028309,0.0
223,1.7421300411224365,74.52345860708559,0.002718419450989953,74.52596134172897,74.51886772490633,0.0,0.17673369354793841,0.1,0.0036618709564208984,0.06171989440917969,0.0498643,1.53892,74.01631297974572,0.0,0.9802793136548951,0.0,300,0.02189946174621582,0.009328431106067292,0.007360034978165754,67200,74.52290723912618,0.0
224,1.7091035842895508,74.5246367822823,0.0031752792217055233,74.52996085484713,74.52188260425554,0.0,0.1767931994159017,0.1,0.0031769275665283203,0.06401276588439941,0.049607843,0.6816277,74.06714535999937,0.0,0.9802940394189759,0.0,300,0.04655003547668457,0.007420944831064829,0.007146946182779851,67500,74.52284614951556,0.0
225,1.7717907428741455,74.52571342131836,0.0032553622960388895,74.53082078919219,74.52249192371768,0.0,0.1846745234988221,0.1,0.003429412841796875,0.06007742881774902,0.04984008,0.65999246,74.11300216613127,0.0,0.980307737561483,0.0,300,0.018002986907958984,0.008393949974487133,0.007485415346470747,67800,74.52293295921503,0.0
226,1.7610678672790527,74.52482767107105,0.001433483295230127,74.52661664959876,74.52327334790672,0.0,0.17428947761257166,0.1,0.0829315185546875,0.6596782207489014,0.0500487,0.92485553,74.15418471662524,0.0,0.9802966754219723,0.0,300,0.025826692581176758,0.004940898734203982,0.005440496891074044,68100,74.52296826922087,0.0
227,1.7104086875915527,74.5251376044663,0.0031603513129812018,74.53024280424935,74.52174516639121,0.0,0.1753108754164794,0.1,0.0032286643981933594,0.05943107604980469,0.049642924,0.8179663,74.19128000540935,0.0,0.9803007393095315,0.0,300,0.03129220008850098,0.0072159467800532945,0.006810544010422282,68400,74.52284801528764,0.0
228,1.7319934368133545,65.24869263484757,16.067348437298737,74.5290795989224,37.419229168457534,0.0,0.17688321756261352,0.1,0.003277301788330078,0.06507515907287598,0.05003655,0.43804118,73.29702126835318,0.0,0.8599866864004,0.0,300,0.03169536590576172,0.13248964631365084,0.10363985682797715,68700,74.52320081157507,0.0
229,1.8117806911468506,74.52600925938057,0.002663144684203541,74.53026974697201,74.52300664745422,0.0,0.19208545107465277,0.1,0.04792165756225586,0.06236600875854492,0.05056107,0.5868445,73.41992006745592,0.0,0.9803116832392614,0.0,300,0.03710794448852539,0.01884205143651283,0.019707313794453663,69000,74.52306955781276,0.0
230,1.8295025825500488,74.52515420530143,0.001084664254747604,74.52672915264387,74.52378429544865,0.0,0.182561716031864,0.1,0.003496408462524414,0.07156729698181152,0.050085537,0.6257791,73.53044348124048,0.0,0.9803009939028147,0.0,300,0.05017566680908203,0.012666347615622176,0.006616425763825409,69300,74.52298202832648,0.0
231,1.781151294708252,74.52407679039796,0.0018061962639650826,74.52716779217388,74.52275872096524,0.0,0.18513361678310383,0.1,0.003235340118408203,0.059505462646484375,0.04968973,0.5801355,73.62980681215623,0.0,0.9802866302200891,0.0,300,0.04173541069030762,0.00891199598909056,0.009229612901303062,69600,74.52284395053967,0.0
232,1.8353686332702637,74.52424571665088,0.002324038443613989,74.52695003143643,74.52159082155049,0.0,0.18120038616320513,0.1,0.0033731460571289062,0.05910229682922363,0.049253616,0.72400594,73.7192507026057,0.0,0.9802887703369755,0.0,300,0.04285383224487305,0.007814537219905753,0.007516693347095243,69900,74.52268728972959,0.0
233,1.768462896347046,74.52676746466119,0.0025980972160838892,74.53059992839644,74.52341852190415,0.0,0.17872708768622614,0.1,0.003448009490966797,0.0595698356628418,0.04970504,0.6463925,73.80000237881126,0.0,0.9803224460837983,0.0,300,0.05367875099182129,0.009170336285537293,0.006714893371216634,70200,74.52282455105787,0.0
234,1.823838233947754,74.52196692836024,0.0010606791101527323,74.52290078931638,74.52018712789324,0.0,0.17969411418893566,0.1,0.003452777862548828,0.06046295166015625,0.049528014,0.69599414,73.87219883376616,0.0,0.9802584526519386,0.0,300,0.03170275688171387,0.007272987678189452,0.007636643311114125,70500,74.5227382387624,0.0
235,1.8243510723114014,74.52349064060297,0.0018454866640352484,74.52497047934801,74.52034236773957,0.0,0.17159863646810292,0.1,0.005331754684448242,0.06123924255371094,0.049421865,0.92239755,73.93732801444985,0.0,0.9802787526112697,0.0,300,0.025464773178100586,0.007405036611439722,0.006482555080845353,70800,74.52238178383229,0.0
236,1.852006196975708,65.49732984895769,15.631116893715305,74.52202032198036,38.42344121007184,0.0,0.1799979332326181,0.1,0.0038003921508789062,0.060568809509277344,0.04997509,0.4360699,73.09332819790063,0.0,0.8632995209754898,0.0,300,0.05789494514465332,0.10965839217333291,0.09186047921927154,71100,74.52219669099793,0.0
237,1.8526372909545898,74.52262817941805,0.0010790031895613749,74.52408420362428,74.521083105147,0.0,0.18062437680488538,0.1,0.00312042236328125,0.05898427963256836,0.050303183,0.62991023,73.23625819605238,0.0,0.9802673212846369,0.0,300,0.05328869819641113,0.008700425006504905,0.01274382896550016,71400,74.5220479253246,0.0
238,1.7794575691223145,63.750101089552786,18.66060427253821,74.52542089460168,31.428986468241554,0.0,0.1644069531009548,0.1,0.0063130855560302734,0.0629880428314209,0.049400285,0.5299916,72.28764248540242,0.0,0.8400031844608129,0.0,300,0.03606462478637695,0.11717190848821292,0.107880860406399,71700,74.52195566637067,0.0
239,1.7681176662445068,74.52183926897591,0.001415349374844278,74.52427190701165,74.52078770077152,0.0,0.17869809509148396,0.1,0.003458261489868164,0.06171274185180664,0.049689326,0.63567823,72.51106216375976,0.0,0.9802567749790321,0.0,300,0.06821560859680176,0.029153469602422183,0.019064555100994494,72000,74.52205183792411,0.0
240,1.7816517353057861,74.52190384540309,0.001163736323107381,74.52330663842957,74.52054729031886,0.0,0.18183959920867757,0.1,0.0032308101654052734,0.0636906623840332,0.05021775,0.8391549,72.71214633192409,0.0,0.9802577499311694,0.0,300,0.021812915802001953,0.014450230373000745,0.006432643370787182,72300,74.52219195963924,0.0
241,1.784771203994751,74.52238365516864,0.0013166317320219203,74.52422902531038,74.52053641595909,0.0,0.1577631212217425,0.1,0.005791187286376953,0.061820268630981445,0.049990337,0.9855293,72.89317006424855,0.0,0.9802640888180234,0.0,300,0.03304314613342285,0.0073015109714118865,0.010264916861277097,72600,74.52208580628881,0.0
242,1.7986230850219727,74.52397291028342,0.002550929277140302,74.52834335652261,74.52190618195394,0.0,0.17921936541866137,0.1,0.003263235092163086,0.06212782859802246,0.049878724,1.1409003,73.05625034885205,0.0,0.9802852887407081,0.0,300,0.02022576332092285,0.010975498457477488,0.00835351364876482,72900,74.5217375307624,0.0
243,1.7610974311828613,74.5222545458349,0.0016203967015437817,74.52402038775645,74.52005449848082,0.0,0.1855430548482978,0.1,0.003239154815673828,0.06914305686950684,0.04980895,0.6492039,73.20285076855033,0.0,0.9802624084648555,0.0,300,0.021536827087402344,0.009489855054869791,0.007540869894461636,73200,74.52137326225112,0.0
244,1.8096611499786377,74.52407702800211,0.003877516100686637,74.53079083746854,74.52167741424715,0.0,0.17678831184960875,0.1,0.003126382827758789,0.05960798263549805,0.049719606,0.77153677,73.33497339449552,0.0,0.9802866012870852,0.0,300,0.0392756462097168,0.005809510225386321,0.006103676354577605,73500,74.52120137652564,0.0
245,1.82973051071167,74.52632876923285,0.006608436990639536,74.53689963096902,74.5198905094157,0.0,0.1668115091122558,0.1,0.009399652481079102,0.06042599678039551,0.049383815,0.6369674,73.45410893196926,0.0,0.9803167597517131,0.0,300,0.05377626419067383,0.006605043058967518,0.005563008123068064,73800,74.52141610917896,0.0
246,1.7684416770935059,74.52307792434411,0.0018808452366308873,74.52572791534571,74.52070084310526,0.0,0.17609908237219857,0.1,0.003287792205810547,0.059482574462890625,0.049759693,0.6697514,73.56100583120674,0.0,0.9802733794552388,0.0,300,0.040181875228881836,0.006016883553195623,0.005760179844727082,74100,74.5216951894654,0.0
247,1.8322336673736572,74.52662783208214,0.007365960467361655,74.53932704340457,74.52127052616268,0.0,0.16877913573665354,0.1,0.0031518936157226562,0.06072187423706055,0.049836893,0.81295776,73.65756803129428,0.0,0.9803149840040993,0.0,300,0.03553485870361328,0.007060339811624612,0.006876601356822965,74400,74.52216933093133,0.0
248,1.8348147869110107,74.52273782544299,0.0028175502293052287,74.5274575062183,74.52006049950883,0.0,0.18183242483702072,0.1,0.0045413970947265625,0.05948019027709961,0.050251193,0.8136137,73.74408501070914,0.0,0.9802683786819322,0.0,300,0.04552650451660156,0.005651603463124461,0.005234306555405776,74700,74.52217013020127,0.0
249,1.9451797008514404,74.5239644841867,0.002046349117511812,74.52718095895229,74.52211635703995,0.0,0.17452926713754197,0.1,0.012432575225830078,0.06308555603027344,0.049794327,0.80846244,73.82207295805689,0.0,0.9802850908731954,0.0,300,0.03738975524902344,0.00785018998637542,0.00589396986850258,75000,74.52235874814845,0.0
250,1.8259005546569824,74.52498153453493,0.001366888779050411,74.52656044000186,74.52279336322967,0.0,0.1788574393336407,0.1,0.0031626224517822266,0.059300899505615234,0.0497265,0.6089758,73.8923638157047,0.0,0.9802987870813737,0.0,300,0.03636598587036133,0.006854306448236894,0.00706755385782077,75300,74.52258259692597,0.0
251,1.8504831790924072,74.52358152305487,0.0022709986138782423,74.52724719299957,74.52111414505643,0.0,0.18221907690387362,0.1,0.003335714340209961,0.08681821823120117,0.050311346,0.62029994,73.95548558643972,0.0,0.9802800705174222,0.0,300,0.051357269287109375,0.005543111965066916,0.005281864841722255,75600,74.5227238558149,0.0
252,1.8497531414031982,74.52844461067602,0.005712287487555492,74.53784838400591,74.52256203607813,0.0,0.17848037082445406,0.1,0.0032265186309814453,0.06248116493225098,0.049375802,0.6134832,74.01278148886335,0.0,0.9803449714449889,0.0,300,0.05079913139343262,0.005005726135585463,0.004781958212653245,75900,74.5229936656092,0.0
253,1.9452424049377441,74.52250208277815,0.001471889680132854,74.52416659364235,74.5205320034219,0.0,0.17567523420900094,0.1,0.003197193145751953,0.06670475006103516,0.04970331,0.56385326,74.06375354825484,0.0,0.9802656591711449,0.0,300,0.042676687240600586,0.005727682583091444,0.0053735176786703425,76200,74.52296872748194,0.0
254,1.881986379623413,74.52336356383759,0.002662609936559336,74.527640006948,74.52058559070647,0.0,0.17367107673720594,0.1,0.003141641616821289,0.058487892150878906,0.04996184,0.978645,74.1097145498131,0.0,0.9802732144390527,0.0,300,0.03296208381652832,0.007538185943023172,0.007233969077418834,76500,74.52284501112909,0.0
255,1.7527189254760742,74.52360044011314,0.0020537735980264344,74.52587977165906,74.52028575465371,0.0,0.17432462994967687,0.1,0.0033140182495117188,0.06065487861633301,0.049790163,0.7895283,74.15110313884311,0.0,0.9802803527033722,0.0,300,0.051331281661987305,0.004811911453175248,0.0047288011570689,76800,74.52281142317806,0.0
256,1.8097681999206543,74.52793995090029,0.002434998848193599,74.53161339195377,74.52569552727067,0.0,0.18018400088154707,0.1,0.003390073776245117,0.06043648719787598,0.050115548,0.58278716,74.18878682004883,0.0,0.9803381802391624,0.0,300,0.03133034706115723,0.0059089352933447805,0.0059028605244925555,77100,74.52276568095785,0.0
257,1.7504956722259521,74.52540719343715,0.0012986290841856289,74.52749923092209,74.52415429636437,0.0,0.17800110599175326,0.1,0.0075299739837646484,0.06576848030090332,0.050040174,0.647984,74.22244885738766,0.0,0.9803043092184719,0.0,300,0.029558420181274414,0.005498384667161353,0.005251122386489284,77400,74.52288154347616,0.0
258,1.768937587738037,74.52431347976159,0.0013876443439375908,74.52625710606333,74.52236878288025,0.0,0.1775234071229231,0.1,0.0033004283905029297,0.0616917610168457,0.049874842,0.6311967,74.25263531962506,0.0,0.9802898397281659,0.0,300,0.026211977005004883,0.005613318657919758,0.005212941962077107,77700,74.52311175205496,0.0
259,1.8394417762756348,74.52538822703815,0.00251075298432298,74.52896904513727,74.5218801534359,0.0,0.18076987620824395,0.1,0.0032389163970947266,0.059813737869262695,0.049897205,0.53332746,74.27991061036637,0.0,0.9803037092689006,0.0,300,0.03200387954711914,0.006977824816199108,0.006227948140985101,78000,74.5234000605788,0.0
260,1.761847734451294,74.52536561674656,0.0014791833118843543,74.52684401909488,74.52290578522577,0.0,0.18502410046921963,0.1,0.0031855106353759766,0.05943727493286133,0.05035077,0.59858096,74.30445611100438,0.0,0.9803038269620902,0.0,300,0.032834529876708984,0.0063735736467621295,0.0061824591942927195,78300,74.52322981211832,0.0
261,1.8535535335540771,74.52360464108763,0.0018368636626378057,74.5258859160253,74.52109581310013,0.0,0.17503290258443907,0.1,0.004864215850830078,0.05981588363647461,0.049617693,0.69165856,74.32637096401271,0.0,0.980279301791593,0.0,300,0.02402019500732422,0.006325601991687656,0.0058867428986499335,78600,74.52331877206869,0.0
262,1.8106815814971924,74.5233078905622,0.0013809338353444512,74.525470397719,74.5217511624284,0.0,0.17600620603624426,0.1,0.004863739013671875,0.059578657150268555,0.050161548,0.69668907,74.34606465666766,0.0,0.9802764328029695,0.0,300,0.04483652114868164,0.010262933612926814,0.008280341835980436,78900,74.52321158933172,0.0
263,1.8165817260742188,74.52317736501807,0.0022008871316033167,74.52678400220198,74.52138749150642,0.0,0.18202824330341177,0.1,0.002975940704345703,0.06081724166870117,0.049700636,0.6770509,74.36377592750272,0.0,0.9802747455146705,0.0,300,0.023702621459960938,0.005775449713847287,0.005995845457502815,79200,74.52317557547222,0.0
264,1.8167636394500732,74.52496469837837,0.0037749674638828654,74.5311825456725,74.5209945553517,0.0,0.18421244957549934,0.1,0.003277301788330078,0.059037208557128906,0.05008526,0.6070717,74.37989480459028,0.0,0.9802985668460669,0.0,300,0.04254746437072754,0.005712421847063144,0.005243814229254488,79500,74.52319390813628,0.0
265,1.9171595573425293,74.52507693790828,0.0018636939018927563,74.52828714932606,74.52376179751025,0.0,0.18749830041761792,0.1,0.0033380985260009766,0.06053447723388672,0.050329868,0.5560513,74.39441301792209,0.0,0.9803000166506249,0.0,300,0.054872751235961914,0.005271681945273652,0.005111136086766772,79800,74.52350855013465,0.0
266,1.8130934238433838,74.52386378723826,0.0006811749565429115,74.52498916197524,74.52326016920408,0.0,0.18423245373375322,0.1,0.005044698715209961,0.06695127487182617,0.05010383,0.6251011,74.40735809485372,0.0,0.9802838937396465,0.0,300,0.10896730422973633,0.0092935307790493,0.008175318390657882,80100,74.52332828709982,0.0
267,1.8642783164978027,74.52290507419599,0.0007728436525293471,74.52391226976725,74.52174446357026,0.0,0.1838926142982153,0.1,0.0032460689544677734,0.06165122985839844,0.04986439,0.6608983,74.41891279278795,0.0,0.9802711577561263,0.0,300,0.05600142478942871,0.004178311739079652,0.004353090130423857,80400,74.52359284306122,0.0
268,1.8756859302520752,74.52495582774978,0.0028194284828765475,74.52878111390136,74.52088660734876,0.0,0.17315717124161228,0.1,0.0032482147216796875,0.06339073181152344,0.04992673,1.0228833,74.42951709628413,0.0,0.9802984302005506,0.0,300,0.029743194580078125,0.00689126783698625,0.006659252041194715,80700,74.52345840446591,0.0
269,1.7626087665557861,74.52567383644794,0.0016383551805839718,74.52796562071136,74.52334859413554,0.0,0.17704404930959053,0.1,0.006699323654174805,0.06220412254333496,0.049748503,0.67420757,74.4391327703005,0.0,0.9803079680956616,0.0,300,0.04156851768493652,0.005852329348364432,0.005668670437733941,81000,74.52370561372523,0.0
270,1.8004894256591797,74.52835096211624,0.006531850470282042,74.53965308614401,74.52411998638576,0.0,0.16488604155585457,0.1,0.0034551620483398438,0.06109261512756348,0.049983356,0.7529451,74.44805458948208,0.0,0.980343579275827,0.0,300,0.09571194648742676,0.00476511806678131,0.004454098667871409,81300,74.52354605104769,0.0
271,1.8007774353027344,74.52401308150024,0.0025911331763129215,74.52776484554545,74.52131550915715,0.0,0.18743804427757482,0.1,0.003323078155517578,0.062314748764038086,0.049715854,0.5827188,74.4556504386839,0.0,0.9802858622198147,0.0,300,0.039777517318725586,0.005878160273584521,0.005838661720105195,81600,74.52341441189378,0.0
272,1.8545575141906738,74.52483830105177,0.0019265737603712538,74.52737933300376,74.52276227628614,0.0,0.17192887604981297,0.1,0.0033521652221679688,0.06240677833557129,0.050239142,0.6733463,74.4625692249207,0.0,0.9802968648559612,0.0,300,0.04416918754577637,0.004329921239443827,0.004175649364317308,81900,74.52356080917171,0.0
273,1.8173918724060059,74.52518271671197,0.002551449667253336,74.52824833789302,74.52249700723202,0.0,0.17488201172962073,0.1,0.0033986568450927734,0.07353830337524414,0.04977694,0.66079074,74.46883057409983,0.0,0.9803013779976706,0.0,300,0.05426764488220215,0.00473481456862553,0.004583061959311895,82200,74.52388458524605,0.0
274,1.8578896522521973,74.52492628277362,0.0011930132102801608,74.52614722365821,74.52349298529633,0.0,0.1859815884439148,0.1,0.0032787322998046875,0.06200122833251953,0.049888745,0.6404167,74.47444014496722,0.0,0.9802980463090574,0.0,300,0.025257110595703125,0.005089333794992265,0.004810041403681692,82500,74.52383818739135,0.0
275,1.8606204986572266,74.52523810061459,0.0011285045825590416,74.52648046810428,74.52340150399752,0.0,0.1738001303932248,0.1,0.003268003463745117,0.061898231506347656,0.050059948,0.6602124,74.47951994053196,0.0,0.9803019155855268,0.0,300,0.028435945510864258,0.004695640122166359,0.0045091141807620415,82800,74.52378787266507,0.0
276,1.8670048713684082,74.53133143787561,0.007977040532666556,74.54424268419305,74.52238989607585,0.0,0.17897483734335237,0.1,0.0033354759216308594,0.061373233795166016,0.05007021,0.61477435,74.48470109026633,0.0,0.9803833583309386,0.0,300,0.03883647918701172,0.0077957982664935786,0.007595619085815751,83100,74.52356621285081,0.0
277,1.7947862148284912,74.52374345544314,0.0028581924619661358,74.52772118910714,74.52035389964352,0.0,0.1789478211379056,0.1,0.003328561782836914,0.06112527847290039,0.050234843,0.6611864,74.48860532678401,0.0,0.9802822587922333,0.0,300,0.03549838066101074,0.004513231077123139,0.004347102899730656,83400,74.52354407621371,0.0
278,1.888214111328125,74.526720161494,0.0051629003499304845,74.53502129416466,74.52144220262333,0.0,0.18034528706517994,0.1,0.005225658416748047,0.061289310455322266,0.049362376,0.5118767,74.49241681025501,0.0,0.9803219786993006,0.0,300,0.061714887619018555,0.005303750785304915,0.004663226412466023,83700,74.52353911748973,0.0
279,1.8585033416748047,74.52336400440007,0.002606392517668021,74.52779353285239,74.52106632277776,0.0,0.16656145600471411,0.1,0.0033864974975585938,0.06034684181213379,0.05038202,0.60269386,74.49551152966951,0.0,0.9802770743138334,0.0,300,0.09883499145507812,0.006816417654070759,0.006318265053282773,84000,74.52350933718752,0.0
280,1.8438622951507568,74.52289022818245,0.0012088847628854522,74.52463052738632,74.52126413293995,0.0,0.1830488067525114,0.1,0.0032198429107666016,0.06136369705200195,0.050274517,0.6927651,74.49824939952082,0.0,0.980270693553641,0.0,300,0.044557809829711914,0.004796509920029915,0.004954603884167896,84300,74.52331615903846,0.0
281,1.8845760822296143,74.5271466156669,0.002972054283584583,74.53202141526722,74.52433802496094,0.0,0.1578900415368478,0.1,0.0031909942626953125,0.061574459075927734,0.050145447,0.64265656,74.50113912113542,0.0,0.9803276695599439,0.0,300,0.026968717575073242,0.0052951339921237526,0.004890873476848167,84600,74.52337248675299,0.0
282,1.8423614501953125,74.52372201279027,0.001863944164109236,74.52573791228497,74.52179538150222,0.0,0.1766937362928054,0.1,0.003342151641845703,0.0616304874420166,0.04956786,0.61533356,74.50339741030092,0.0,0.9802819687792919,0.0,300,0.022532224655151367,0.0052037149010797324,0.005183988453423028,84900,74.52416131924267,0.0
283,1.914283037185669,74.52818444666372,0.0049210776113645625,74.53510415768626,74.52179444533563,0.0,0.17721468112577055,0.1,0.003108501434326172,0.06503438949584961,0.049791235,0.5810412,74.5058761139372,0.0,0.9803414971757821,0.0,300,0.03790473937988281,0.004866546392987425,0.004476403675291417,85200,74.52387714578735,0.0
284,1.8406884670257568,74.52801268280656,0.003512563095159571,74.53338142496821,74.52424889069475,0.0,0.17446776930576569,0.1,0.0041959285736083984,0.06021571159362793,0.049823944,0.6465425,74.50808977082414,0.0,0.9803392178635307,0.0,300,0.03477191925048828,0.0038873851319112932,0.00391197280135067,85500,74.52378377682471,0.0
285,1.9291276931762695,74.52458149148498,0.0026988397281636624,74.52769380748819,74.52030029985545,0.0,0.17758838126027066,0.1,0.0036077499389648438,0.060952186584472656,0.050423697,0.64701575,74.50973894289022,0.0,0.9802934204870064,0.0,300,0.03535771369934082,0.0051251294608517075,0.0048955547680628805,85800,74.52433065427707,0.0
286,1.9312903881072998,74.53002790309243,0.008675306651113018,74.5446033539992,74.52229875702758,0.0,0.18333236364520256,0.1,0.0032401084899902344,0.06097555160522461,0.050005917,0.66150683,74.51176783891044,0.0,0.9803660513020178,0.0,300,0.05124783515930176,0.00791790816170519,0.006316731003413897,86100,74.52411596723682,0.0
287,1.928196668624878,74.52520254252292,0.000553451227520683,74.52605194193299,74.52455059597203,0.0,0.18536487249747505,0.1,0.003332376480102539,0.0625600814819336,0.05009928,0.6602711,74.5131113092717,0.0,0.9803015792408208,0.0,300,0.05845522880554199,0.005607705410717967,0.005553826268175968,86400,74.52473602700161,0.0
288,1.9764976501464844,74.52339605614128,0.000684940328013895,74.52399819241178,74.52224266300804,0.0,0.18105044963095437,0.1,0.003378152847290039,0.059934377670288086,0.050182942,0.625528,74.51413978395865,0.0,0.9802775823764354,0.0,300,0.048641204833984375,0.00545728408049008,0.004226244054340461,86700,74.52473484935045,0.0
289,1.8688397407531738,74.52599194351562,0.0012462656124189167,74.52765910043007,74.52462611062414,0.0,0.1779071090149172,0.1,0.0031332969665527344,0.06100177764892578,0.05008419,0.6308769,74.51532499991436,0.0,0.9803122734847778,0.0,300,0.0413665771484375,0.004610081820383003,0.004762858230710772,87000,74.52421395880945,0.0
290,1.8871381282806396,74.52565846417946,0.0021840436121333216,74.52857296975975,74.52254987640642,0.0,0.1936221522299532,0.1,0.003071308135986328,0.06087779998779297,0.050821524,0.5347702,74.51635834634087,0.0,0.9803078062952523,0.0,300,0.028881311416625977,0.005931774650409878,0.004417081506391903,87300,74.52404660842774,0.0
291,1.8196070194244385,74.52704016179528,0.0034446002722741047,74.53061303740206,74.5221493913493,0.0,0.17482551624040418,0.1,0.0034112930297851562,0.0659644603729248,0.050416365,0.579849,74.5174265278863,0.0,0.9803277479059621,0.0,300,0.03557634353637695,0.004168562952848064,0.004290314722392232,87600,74.5236373651194,0.0
292,1.8809850215911865,74.52800761775046,0.0023225458398250464,74.53049906533923,74.52500099749052,0.0,0.17090116984930898,0.1,0.003278017044067383,0.0601651668548584,0.049693182,0.7505009,74.51848463687273,0.0,0.9803390416429856,0.0,300,0.03509402275085449,0.004731818792357806,0.004105503584333816,87900,74.52384872123606,0.0
293,1.8810625076293945,74.52464386522766,0.0028654866147956102,74.52863688227754,74.52161592382059,0.0,0.18540093283899922,0.1,0.003356456756591797,0.06237196922302246,0.04967059,0.5874392,74.51910055970822,0.0,0.9802942640991439,0.0,300,0.04634499549865723,0.004058073035263992,0.0039712216247438014,88200,74.52324887715484,0.0
294,1.8351166248321533,74.52480633794892,0.002477803838275163,74.52834802034052,74.52171446984138,0.0,0.1767929029886093,0.1,0.003349781036376953,0.05994534492492676,0.050369672,0.60715336,74.5196711375323,0.0,0.9802964515407158,0.0,300,0.052802085876464844,0.005932729480070924,0.005671949433063722,88500,74.52328863517322,0.0
295,1.7921876907348633,74.52644799418809,0.004006251105823061,74.53312089929477,74.52245088254587,0.0,0.18084043482908768,0.1,0.003231525421142578,0.05956673622131348,0.04947807,0.68169904,74.52034882319788,0.0,0.9803182579884813,0.0,300,0.048197269439697266,0.00492217660275215,0.004675269555510496,88800,74.5230589004134,0.0
296,1.8431851863861084,74.52579770897802,0.0022231961338349125,74.5285025721576,74.52322900571642,0.0,0.1685461759823263,0.1,0.003263235092163086,0.06237483024597168,0.050255362,0.8899431,74.5208937117759,0.0,0.9803096798910444,0.0,300,0.028233051300048828,0.005965067863030182,0.005052289667251439,89100,74.52311975766234,0.0
297,1.8247053623199463,74.52460267661397,0.002943279686725329,74.52916619834646,74.52164440718937,0.0,0.17011900303154892,0.1,0.08284282684326172,0.06119847297668457,0.04985143,0.5850811,74.5212646082597,0.0,0.9802936624641291,0.0,300,0.0385441780090332,0.003902930433006199,0.0038848367744964076,89400,74.52289795238333,0.0
298,1.9019684791564941,74.52424523868535,0.001949719774883147,74.52696646438852,74.52163179353735,0.0,0.1764067882051902,0.1,0.00347900390625,0.06186652183532715,0.049464658,0.65561116,74.52156267130226,0.0,0.980288721916915,0.0,300,0.04621481895446777,0.0037214957936780617,0.0032045243817775144,89700,74.522839304556,0.0
299,1.852593183517456,74.52686494086248,0.004907194865169643,74.53357091306853,74.52186564639679,0.0,0.18417294485991934,0.1,0.003360271453857422,0.06153440475463867,0.04979695,0.58667845,74.5220928982583,0.0,0.9803232468487125,0.0,300,0.052800893783569336,0.006014532929179847,0.005492019818667725,90000,74.52247903951915,0.0
300,1.8794102668762207,74.52342514423955,0.002166788104516733,74.52714614927814,74.52172386014087,0.0,0.17368575924672044,0.1,0.0031974315643310547,0.062047719955444336,0.05032486,0.7251124,74.52222612285642,0.0,0.9802780466755048,0.0,300,0.1358809471130371,0.004509231667326617,0.004279608183547125,90300,74.52216312114892,0.0
301,1.9074161052703857,74.52636998841741,0.004165367680439474,74.53311921762032,74.52171985818785,0.0,0.17684974547902155,0.1,0.003240346908569336,0.061556100845336914,0.050246842,0.70097643,74.52264050941253,0.0,0.9803168452790954,0.0,300,0.040468454360961914,0.006861380726463966,0.0055716320367447105,90600,74.52224546456729,0.0
302,1.9341611862182617,74.52739195326653,0.005002089442671299,74.53547844057907,74.5221120681818,0.0,0.18210562062578553,0.1,0.0030748844146728516,0.05904364585876465,0.049447764,0.73595583,74.52311565379793,0.0,0.9803307720812631,0.0,300,0.04706120491027832,0.005328051541178861,0.005366059381127493,90900,74.52250092720588,0.0
303,1.9476842880249023,74.52720680759516,0.0022610288757332606,74.53097888661303,74.52498176678141,0.0,0.17767072728893213,0.1,0.0032198429107666016,0.060993194580078125,0.04996094,0.58958226,74.52352476917766,0.0,0.9803284793372301,0.0,300,0.05793881416320801,0.005196710339308112,0.00424179386392965,91200,74.52227033758432,0.0
304,1.9391899108886719,74.5237758196198,0.001979302901888951,74.52632890484709,74.52128473384384,0.0,0.17242431912972628,0.1,0.0031969547271728516,0.06619668006896973,0.049557824,0.70246565,74.52354987422187,0.0,0.9802827520848826,0.0,300,0.05126476287841797,0.004149348835356497,0.003908046678869381,91500,74.52231712906465,0.0
305,2.0203099250793457,74.52360178862578,0.0005461417090158063,74.52425226371378,74.5228334975499,0.0,0.1660737954453384,0.1,0.0032455921173095703,0.0590972900390625,0.050423466,0.70627123,74.52355506566226,0.0,0.9802803949546768,0.0,300,0.04454541206359863,0.005793327695408977,0.005430743560095973,91800,74.52225830234569,0.0
306,1.8557674884796143,74.52596342809922,0.004772545434194316,74.5341644145275,74.52253784834289,0.0,0.1757331594086469,0.1,0.005594015121459961,0.0656585693359375,0.04952783,0.6373082,74.52379590190597,0.0,0.9803118884394549,0.0,300,0.06340384483337402,0.004968175581997523,0.004887408625914559,92100,74.52207257511894,0.0
307,1.8301310539245605,74.52894601962781,0.00453628845257599,74.53619561407106,74.52393666941572,0.0,0.1811234127964641,0.1,0.0033216476440429688,0.0652167797088623,0.049948744,0.60474163,74.52431091367816,0.0,0.9803516327425829,0.0,300,0.028865575790405273,0.003932194322007406,0.003685393152956704,92400,74.52226748696562,0.0
308,1.837049961090088,74.52674395678177,0.004182910315181077,74.53268621184789,74.52245010149885,0.0,0.17554454094550898,0.1,0.003305196762084961,0.06256747245788574,0.049945924,0.701674,74.52455421798852,0.0,0.9803221832243136,0.0,300,0.03036952018737793,0.0043221444106161366,0.004320706688118627,92700,74.52241921604957,0.0
309,1.8340654373168945,74.52323531809044,0.0016447064281616339,74.5258638922192,74.5213623969152,0.0,0.16813015767588932,0.1,0.0036857128143310547,0.06685543060302734,0.049386088,0.6987636,74.52442232799872,0.0,0.9802755069636567,0.0,300,0.03176379203796387,0.004778601122192437,0.004590315246495845,93000,74.52280121300318,0.0
310,1.870335578918457,74.52496423880629,0.0013434383549453105,74.52673329388031,74.52332449330603,0.0,0.1813993760521085,0.1,0.0034525394439697266,0.0627439022064209,0.050477684,0.6676318,74.52447651907949,0.0,0.9802985628040547,0.0,300,0.030348777770996094,0.006614128743130454,0.00489992626724593,93300,74.52283270974429,0.0
311,1.9308767318725586,74.52396518717637,0.0007642935961000699,74.52476964555699,74.52289940594572,0.0,0.17694976305292623,0.1,0.0032377243041992188,0.06277942657470703,0.049734775,0.6573967,74.52442538588917,0.0,0.9802852806194005,0.0,300,0.0612185001373291,0.004057668861514858,0.003996399675652303,93600,74.52250165078121,0.0
312,1.9660327434539795,74.52619607039838,0.0017008659539324707,74.52809202798129,74.52390157273224,0.0,0.1759929741170191,0.1,0.0031058788299560547,0.06107497215270996,0.04968599,0.70729184,74.5246024543401,0.0,0.9803149531239392,0.0,300,0.024628639221191406,0.008558987140158172,0.004982004158028326,93900,74.5223116443117,0.0
313,1.905970811843872,74.5252101056943,0.002281765023277806,74.52779820315942,74.52177199191826,0.0,0.17111182155438043,0.1,0.003322601318359375,0.06565546989440918,0.049199346,0.6721973,74.52466321947551,0.0,0.9803017834357879,0.0,300,0.027422428131103516,0.0052099404721246525,0.005903304274405843,94200,74.5223491229176,0.0
314,1.881150484085083,74.52473579383089,0.002779820207217748,74.5293340486867,74.52187693070786,0.0,0.17740132583963358,0.1,0.003141164779663086,0.06189608573913574,0.049941972,0.5832792,74.52467047691104,0.0,0.9802955168195612,0.0,300,0.041756391525268555,0.00463433485282806,0.0037125115776777953,94500,74.52242626008716,0.0
315,1.890321969985962,74.52305493828192,0.0018969811918834285,74.52600033739228,74.5213513278068,0.0,0.177430843691939,0.1,0.004984617233276367,0.06059980392456055,0.050531004,0.61969614,74.52450892304813,0.0,0.9802730505589926,0.0,300,0.04661703109741211,0.004911533056032685,0.004738215980633991,94800,74.52235629450102,0.0
316,1.9134759902954102,74.52445060127246,0.0004938127068512849,74.52508267284176,74.52384907514771,0.0,0.17948925438255672,0.1,0.003269195556640625,0.06216311454772949,0.049620595,0.705122,74.52450309087057,0.0,0.9802915409544657,0.0,300,0.06324648857116699,0.004896421072014717,0.004740260888465596,95100,74.52247998688233,0.0
317,1.9311904907226562,74.52400005795994,0.0011823403254678894,74.52530128462294,74.52216901600141,0.0,0.18236741900618653,0.1,0.003939628601074219,0.06123995780944824,0.050041184,0.69882554,74.5244527875795,0.0,0.980285717356641,0.0,300,0.041300296783447266,0.005014426240038505,0.004235236136086602,95400,74.52254529840695,0.0
318,1.9588513374328613,74.52819940678796,0.003538630213563413,74.53376078569963,74.5242956549133,0.0,0.167921954157775,0.1,0.0034193992614746094,0.061432838439941406,0.049515758,0.7863019,74.52482744950035,0.0,0.980341708623166,0.0,300,0.029975175857543945,0.0036550439072925273,0.0037348556782396056,95700,74.52245081068399,0.0
319,1.9015653133392334,74.5247714273355,0.0026191819979281914,74.52907957726828,74.52266400511387,0.0,0.17891749885341435,0.1,0.0032880306243896484,0.07777905464172363,0.04982174,0.59898746,74.52482184728387,0.0,0.9802959730839798,0.0,300,0.058483123779296875,0.003214736165132361,0.0030677697509942214,96000,74.52246396870781,0.0
320,1.9988741874694824,74.52411139824166,0.002610470437545603,74.52763262984084,74.52052875912257,0.0,0.18509623045186463,0.1,0.0032563209533691406,0.06062722206115723,0.04989256,0.7441091,74.52475080237966,0.0,0.9802872003667942,0.0,300,0.05670166015625,0.00669505146892469,0.006374091787310897,96300,74.52209153467435,0.0
321,1.9095823764801025,74.52686055792671,8.128503697931923e-05,74.52697510379835,74.52677006833876,0.0,0.1635908615333119,0.1,0.003210783004760742,0.060491085052490234,0.05033129,0.8076056,74.52496177793437,0.0,0.9803238273880768,0.0,300,0.05102729797363281,0.003921204265472225,0.0037540868651675685,96600,74.5217216051718,0.0
322,1.9158403873443604,74.52469562608404,0.0019930498482344664,74.5279950395839,74.5226387565142,0.0,0.18348902558931474,0.1,0.0032491683959960938,0.061403512954711914,0.049751725,0.6041973,74.52493516274933,0.0,0.9802949627981892,0.0,300,0.04851198196411133,0.004381320900130515,0.004015896591690256,96900,74.5219329472271,0.0
323,2.0289173126220703,74.5254728783121,0.0021588181710884323,74.528753526609,74.52274737786587,0.0,0.18635886619808764,0.1,0.0031576156616210938,0.060179710388183594,0.049784273,0.6484277,74.52498893430561,0.0,0.9803053439076705,0.0,300,0.027788400650024414,0.004337165729355186,0.004462962314706484,97200,74.52230425596726,0.0
324,1.9484202861785889,74.52281618029326,0.0016548984660856327,74.5250686640859,74.52110655293495,0.0,0.18826148966727757,0.1,0.003330230712890625,0.06090545654296875,0.05000276,0.60596085,74.52477165890438,0.0,0.9802699022980281,0.0,300,0.05894827842712402,0.005062878721277305,0.004432433281243242,97500,74.52216129402927,0.0
325,1.970083236694336,74.52565958928292,0.0019641169894531432,74.52758687813457,74.52268680510626,0.0,0.1812244480566514,0.1,0.003513813018798828,0.0641627311706543,0.048786163,0.5428968,74.52486045194223,0.0,0.9803078515680942,0.0,300,0.04292130470275879,0.004561182695948736,0.004247172513191746,97800,74.52203181743467,0.0
326,1.8543496131896973,74.5266262201801,0.00316207934568583,74.53136442887592,74.52264806332083,0.0,0.17331539704609453,0.1,0.0031766891479492188,0.06066131591796875,0.049964823,0.52434963,74.52503702876602,0.0,0.9803207021489623,0.0,300,0.036635398864746094,0.004415027980339203,0.004339492450786581,98100,74.52199193943545,0.0
327,1.864626407623291,74.52187642572171,0.0009594053490852521,74.52286298450359,74.52041605008914,0.0,0.18069929460817166,0.1,0.003325223922729492,0.061434030532836914,0.050114203,0.5898609,74.5247209684616,0.0,0.9802573981407915,0.0,300,0.030263185501098633,0.003929951520974496,0.003855339758955549,98400,74.52220593280516,0.0
328,1.8758625984191895,74.52810548447894,0.0032259540342169076,74.53263517931607,74.52369276565132,0.0,0.17142876027308046,0.1,0.004187583923339844,0.06803727149963379,0.04967617,0.9792296,74.52505942006334,0.0,0.9803404535825493,0.0,300,0.0504605770111084,0.004269750244168297,0.004176420120377985,98700,74.52189437883189,0.0
329,1.8655316829681396,74.52331115922273,0.002501502431646439,74.52605943924864,74.52062214656068,0.0,0.17910978706829675,0.1,0.0032651424407958984,0.06211400032043457,0.050180875,0.5661727,74.5248845939793,0.0,0.980276531977148,0.0,300,0.04327130317687988,0.00374248933338544,0.003632722739833905,99000,74.52187920772282,0.0
330,1.9035303592681885,74.52462657525597,0.000751499185140014,74.52583542711002,74.52378077322251,0.0,0.18578973190483997,0.1,0.004762411117553711,0.06167864799499512,0.0500183,0.66289574,74.52485879210697,0.0,0.9802940706492328,0.0,300,0.04830670356750488,0.0033964928456946945,0.003195169514583706,99300,74.52174766463976,0.0
331,1.9126121997833252,63.24910634410128,19.528290774827965,74.52570231508616,29.42511464872172,0.0,0.1780313144453901,0.1,0.0038254261016845703,0.06189298629760742,0.04920977,0.4503423,73.3972835473064,0.0,0.8333246114744234,0.0,300,0.04802227020263672,0.12914823593930744,0.1028224285731864,99600,74.52177877460709,0.0
332,1.8728291988372803,74.52418024621599,0.0014142062325071779,74.52615162225464,74.52219994703776,0.0,0.18083767829380906,0.1,0.0034325122833251953,0.06061601638793945,0.050026994,0.6119671,73.50997321719736,0.0,0.9802881487986983,0.0,300,0.06772065162658691,0.011514765459844355,0.012567076112519476,99900,74.52171913257794,0.0
333,1.8839354515075684,74.5232622244288,0.0012740322809912403,74.52529207990487,74.52206398981261,0.0,0.18528489793191488,0.1,0.006803750991821289,0.061495304107666016,0.049802076,0.72048795,73.6113021179205,0.0,0.980275875633728,0.0,300,0.027999162673950195,0.011757970531262072,0.005830136423809238,100200,74.52180282060041,0.0
334,1.9142940044403076,74.52524156071394,0.0024568877346282975,74.52879991765089,74.52204127099455,0.0,0.17377817397684334,0.1,0.0032215118408203125,0.06148386001586914,0.050333396,0.83608675,73.70269606219985,0.0,0.9803022624270337,0.0,300,0.036685943603515625,0.007396875178723239,0.005741099587619498,100500,74.52140474721601,0.0
335,1.8609585762023926,74.52333224063241,0.0010538389671526673,74.52409325061075,74.52153410028254,0.0,0.189431944974421,0.1,0.0031638145446777344,0.062073469161987305,0.049496055,0.52577645,73.78475968004311,0.0,0.9802767947675929,0.0,300,0.054962873458862305,0.006784838442490907,0.005739909486336738,100800,74.52118392454013,0.0
336,1.9598746299743652,74.52365377615583,0.0014671602848329278,74.5256624025192,74.52181063951544,0.0,0.17418714060148746,0.1,0.004953622817993164,0.05929136276245117,0.04988969,0.69965637,73.85864908965438,0.0,0.9802811281335071,0.0,300,0.042940616607666016,0.005211514314097009,0.005110450479697608,101100,74.52117035168557,0.0
337,1.9362554550170898,74.5256146285246,0.004570797712732521,74.53186826948883,74.52087817665245,0.0,0.171231748233933,0.1,0.0031774044036865234,0.060442209243774414,0.04942494,0.67128533,73.9253456435414,0.0,0.9803072107403482,0.0,300,0.05598330497741699,0.005108146258033828,0.005067514811547035,101400,74.52101412843147,0.0
338,1.8992578983306885,74.5232765684678,0.0020277892292901896,74.52610755303647,74.52049365280223,0.0,0.1792259809691096,0.1,0.0031402111053466797,0.061956167221069336,0.049939834,0.5616512,73.98513873603405,0.0,0.9802760419841328,0.0,300,0.04012012481689453,0.003961710194538685,0.003840911143215865,101700,74.5209755032398,0.0
339,1.9333422183990479,74.52207757312003,0.0006103373402122046,74.52304427411414,74.52144590930483,0.0,0.17316193090010418,0.1,0.006231784820556641,0.060767173767089844,0.04926051,0.5824327,74.03883261974264,0.0,0.9802600845157532,0.0,300,0.03545951843261719,0.004414367501453475,0.0042230891797461504,102000,74.52079803931315,0.0
340,1.9935386180877686,74.52418796088897,0.0018424124407410184,74.52665253787585,74.52176926567965,0.0,0.18150635550320754,0.1,0.003145456314086914,0.058702707290649414,0.05024086,0.6364205,74.08736815385727,0.0,0.9802881931276235,0.0,300,0.0523068904876709,0.0037456614094591653,0.00356983404553849,102300,74.5209223215371,0.0
341,1.9712412357330322,74.52449557853186,0.002467623561174821,74.52834155211274,74.52232775397555,0.0,0.17031336087139298,0.1,0.009305238723754883,0.06427741050720215,0.05025841,0.5825207,74.13108089632473,0.0,0.9802922647290965,0.0,300,0.08746051788330078,0.004481885504494524,0.0034947126622036015,102600,74.52070695979388,0.0
342,1.9869804382324219,74.52203210176327,0.0011504721581484531,74.52322341998753,74.52047524245225,0.0,0.17588836772877126,0.1,0.005298137664794922,0.05915951728820801,0.04970728,0.6679516,74.17017601686858,0.0,0.9802595027103065,0.0,300,0.04398298263549805,0.004357786961847779,0.004456368889813874,102900,74.52066675286812,0.0
343,1.9000558853149414,74.522711012924,0.0014854328440258603,74.5245526221487,74.5206133366159,0.0,0.1830741905006137,0.1,0.0034897327423095703,0.06424856185913086,0.049952865,0.56299305,74.20542951647413,0.0,0.9802684967039305,0.0,300,0.04971647262573242,0.004813816234158841,0.004487178194000229,103200,74.52068392989814,0.0
344,1.8488585948944092,74.52168372745814,0.0002622152854263914,74.52194315621416,74.52124962302518,0.0,0.17798512701733607,0.1,0.031290292739868164,0.06130695343017578,0.049904376,0.5981839,74.23705493757254,0.0,0.9802548292874225,0.0,300,0.05952930450439453,0.0031356503677704203,0.0030888751412792804,103500,74.52075017474156,0.0
345,1.8941700458526611,74.52490507374739,0.0022684204260029033,74.5283608201901,74.52280360395149,0.0,0.18662547305380897,0.1,0.014306306838989258,0.06218433380126953,0.04969722,0.48459676,74.26583995119002,0.0,0.9802976715611742,0.0,300,0.06019330024719238,0.004876676867172778,0.00455910538733306,103800,74.52063341696359,0.0
346,1.9276893138885498,74.52419728191181,0.0026542266289792966,74.52822237889879,74.52077909977578,0.0,0.1797950406765285,0.1,0.0033769607543945312,0.06513500213623047,0.04965719,0.5491795,74.2916756842622,0.0,0.9802883460674701,0.0,300,0.05296683311462402,0.004059677112121118,0.0038043003700018473,104100,74.52067034723825,0.0
347,1.9161224365234375,74.5246887070964,0.0021061812548131267,74.52712938560111,74.52145840885493,0.0,0.17906101013093476,0.1,0.0035202503204345703,0.06217503547668457,0.049125794,0.7458901,74.31497698654562,0.0,0.9802948993804129,0.0,300,0.038970947265625,0.0045182172516445955,0.003453479902495876,104400,74.52062583013914,0.0
348,1.9224207401275635,74.52340861611026,0.0028862719831277963,74.528011252407,74.5208265977445,0.0,0.17795419637118035,0.1,0.0032205581665039062,0.059411048889160156,0.050002854,0.5935261,74.33582014950208,0.0,0.980277850981355,0.0,300,0.06368398666381836,0.0035397973242572538,0.0034622038501173906,104700,74.52064609966737,0.0
349,1.9116594791412354,74.52284436165489,0.0020581249684169913,74.52519834416263,74.52048073198104,0.0,0.16901895215980048,0.1,0.0033125877380371094,0.059419870376586914,0.049597714,0.87988913,74.35452257071736,0.0,0.9802703373037942,0.0,300,0.05930519104003906,0.004294781532076823,0.004206538069680215,105000,74.52065436738073,0.0
350,1.934250831604004,74.52199077743553,0.0010588118901071041,74.52318294924301,74.52049407851106,0.0,0.1767346345870357,0.1,0.004613637924194336,0.0595088005065918,0.050001025,0.650566,74.37126939138919,0.0,0.9802589271438268,0.0,300,0.025404930114746094,0.004335877102935916,0.0041298557303906065,105300,74.52061697012023,0.0
351,1.9502403736114502,74.52243745089204,0.0006960295544875916,74.52339723139148,74.52156685281135,0.0,0.18749183376587322,0.1,0.003062009811401367,0.05913519859313965,0.05014633,0.65301484,74.38638619733948,0.0,0.9802648729000291,0.0,300,0.059211015701293945,0.004950538276940323,0.004788692092017019,105600,74.52058836216348,0.0
352,1.9457828998565674,74.52194086524848,0.0007091716409016064,74.52284841744343,74.52113898893404,0.0,0.17329941844663665,0.1,0.007220745086669922,0.05969500541687012,0.049507916,0.7417476,74.39994166413038,0.0,0.9802582436293124,0.0,300,0.055129051208496094,0.00523434916886992,0.004420085148783315,105900,74.52066480822938,0.0
353,1.907259225845337,74.52206118091661,0.0005568561567409659,74.52265038909208,74.52121610258358,0.0,0.17112319417057123,0.1,0.0032002925872802734,0.05943751335144043,0.049806613,0.5143365,74.41215361580902,0.0,0.9802598360285706,0.0,300,0.04297661781311035,0.004803119480311337,0.004159702095907472,106200,74.52069212592917,0.0
354,1.9463036060333252,74.52362408684053,0.00126866214544087,74.52536830748862,74.52185396022519,0.0,0.17282269055193594,0.1,0.0032684803009033203,0.060855865478515625,0.04982929,0.5086086,74.42330066291217,0.0,0.9802806729844209,0.0,300,0.057111263275146484,0.005511512623525897,0.005542554497971574,106500,74.52087557033715,0.0
355,1.9919404983520508,67.74828748573321,11.737079860471985,74.53030016382523,47.419069727022354,0.0,0.18514723393792457,0.1,0.0031681060791015625,0.06115984916687012,0.04925729,0.4696217,73.75579934519428,0.0,0.8933140435564282,0.0,300,0.03957104682922363,0.05199337353107445,0.04622852748651905,106800,74.5208345615604,0.0
356,1.978754997253418,74.5217393714401,0.0006987538309899426,74.52286360256514,74.52094313148427,0.0,0.1806966781549261,0.1,0.004084348678588867,0.060476064682006836,0.050091453,0.6437728,73.83239334781886,0.0,0.9802555407761835,0.0,300,0.042324066162109375,0.01156712373492905,0.006854089503032121,107100,74.52080194526688,0.0
357,2.7619380950927734,74.52404022202064,0.0022114777992252037,74.52628964515465,74.52131805690286,0.0,0.17841786596055773,0.1,0.0033659934997558594,0.061911582946777344,0.05019707,0.6013013,73.90155803523903,0.0,0.9802862218263434,0.0,300,0.04183387756347656,0.007778967647804159,0.005792490156381514,107400,74.52074391203917,0.0
358,1.9202704429626465,74.52392190113875,0.002352992209690121,74.52724278043948,74.52154937647897,0.0,0.17256905466564265,0.1,0.003407716751098633,0.061464548110961914,0.050421227,0.6781982,73.96379442182901,0.0,0.9802846658801182,0.0,300,0.07999801635742188,0.005134583928469057,0.005684460069195716,107700,74.52068471494343,0.0
359,1.9333157539367676,74.52292211974341,0.0012795105726583094,74.52438401302864,74.52159681101712,0.0,0.18599152783486045,0.1,0.005330562591552734,0.06012988090515137,0.05068254,0.53997475,74.01970719162044,0.0,0.980271311012193,0.0,300,0.049565792083740234,0.006012337346566083,0.004178671883792641,108000,74.52061744467026,0.0
360,1.9348695278167725,74.52177853681053,0.0008468864076575927,74.52255757067195,74.52035104130167,0.0,0.17942725396118966,0.1,0.0034139156341552734,0.06217598915100098,0.04968699,0.6170847,74.06991432613945,0.0,0.9802560954168003,0.0,300,0.10364747047424316,0.005517561178651738,0.005325458233345772,108300,74.52055045724875,0.0
361,1.8769433498382568,74.5226802810907,0.0010557224031287837,74.52388771649017,74.52100252170023,0.0,0.18849685657127566,0.1,0.0033822059631347656,0.06138730049133301,0.050524935,0.5362268,74.11519092163458,0.0,0.9802681485990514,0.0,300,0.04790139198303223,0.0038954497926996377,0.0035519373928362035,108600,74.52065668490971,0.0
362,1.924414873123169,74.52227271661069,0.0016044658393515765,74.52445492205634,74.52014324402789,0.0,0.1778964235372201,0.1,0.003197908401489258,0.059624671936035156,0.050149776,0.5752529,74.15589910113219,0.0,0.9802626835182603,0.0,300,0.034711360931396484,0.0035767732690839323,0.0035872963995185548,108900,74.52078676044651,0.0
363,1.909053087234497,74.52271781919747,0.0016327974751987205,74.52547867524325,74.52129422615641,0.0,0.19640100023961976,0.1,0.07783746719360352,0.06188035011291504,0.049956877,0.514923,74.19258097293873,0.0,0.9802685908300989,0.0,300,0.04155755043029785,0.004463762413676281,0.003921160946838394,109200,74.52085102303322,0.0
364,1.9361233711242676,74.52426635076327,0.0010288211105915974,74.52573228461665,74.5228449377257,0.0,0.17812229491118567,0.1,0.0033354759216308594,0.06657719612121582,0.05011592,0.64149415,74.22574951072117,0.0,0.9802892669417195,0.0,300,0.030538558959960938,0.003147428398471708,0.003209004108635054,109500,74.52079619838125,0.0
365,1.913050651550293,74.52246184852882,0.0012180527984834608,74.52407519346049,74.52072914837734,0.0,0.18252861344941232,0.1,0.003267049789428711,0.06472253799438477,0.05036515,0.5210073,74.25542074450193,0.0,0.9802651494943377,0.0,300,0.046121835708618164,0.004420833592582394,0.004137679093390196,109800,74.52081753326273,0.0
