iteration,time_sampling,stoc_pol_mean,stoc_pol_std,stoc_pol_max,stoc_pol_min,rollout_success,alpha,delta,time_vpg,time_npg,kl_dist,surr_improvement,running_score,rwd_sparse,rwd_dense,success_percentage,num_samples,time_VF,VF_error_before,VF_error_after,env_samples,eval_score,eval_success
0,1.6471269130706787,0.2135439431550086,0.010049460651497753,0.23079249125166407,0.20592640879856414,0.0,0.15667670840912368,0.1,0.03548121452331543,0.06626772880554199,0.05132119,1.9490451,0.2135439431550086,0.0,0.0030535103120406084,0.0,300,0.02162003517150879,7.506973132310823,0.7910476689944825,300,0.21118098472555533,0.0
1,1.439239263534546,0.22414681606502168,0.02248291749173933,0.2630716305658059,0.21015317324699728,0.0,0.1563535541659615,0.1,0.0031363964080810547,0.07201886177062988,0.050689083,1.617103,0.21460423044600993,0.0,0.0032052579633631536,0.0,300,0.021126985549926758,0.7840987494784288,0.9901339804827207,600,0.20689747054661642,0.0
2,1.4842073917388916,0.20309252095496116,0.008219646031791136,0.2142227530549634,0.19496362090363323,0.0,0.1533232320927584,0.1,0.00307464599609375,0.0652310848236084,0.05466399,2.0374768,0.21345305949690505,0.0,0.002922189748420531,0.0,300,0.020562410354614258,1.5047329640172293,0.48952440651128365,900,0.2045601189611691,0.0
3,1.5320210456848145,0.2387674553614259,0.026050227151489833,0.28078162372470694,0.21005830474686507,0.0,0.15850950692046184,0.1,0.0029785633087158203,0.06473493576049805,0.05480716,1.5149738,0.21598449908335715,0.0,0.003398478441422195,0.0,300,0.019477367401123047,0.43548677814141956,0.5094494180404733,1200,0.20563494358656284,0.0
4,1.4730615615844727,0.2363774064263029,0.018201914254265428,0.25216446485315985,0.20714317324301842,0.0,0.14117654363667767,0.1,0.002929210662841797,0.06514835357666016,0.05137633,3.2405665,0.21802378981765175,0.0,0.0033430510279396494,0.0,300,0.020554542541503906,0.4768762059191621,0.30560778091301205,1500,0.21027182565821464,0.0
5,1.562568187713623,0.22136784391401232,0.019566743264511244,0.24187377168637203,0.19814536921828824,0.0,0.14259907141870606,0.1,0.003090381622314453,0.06579017639160156,0.055261854,13.458321,0.2183581952272878,0.0,0.0031664886387126286,0.0,300,0.024085521697998047,0.32963218018828816,0.3255058905236043,1800,0.20889772890747785,0.0
6,1.4588005542755127,0.23506188996716795,0.03370348486277625,0.2909568559198148,0.2048492350852149,0.0,0.14862576899980223,0.1,0.003067493438720703,0.061299800872802734,0.04682631,3.0658484,0.22002856470127582,0.0,0.0032990427223030605,0.0,300,0.019779682159423828,0.2916661912452104,0.26985953768244747,2100,0.2125057070575518,0.0
7,1.5721957683563232,0.22119696668298147,0.011290679073247479,0.2395626935392738,0.20927396868797346,0.0,0.14226782027341456,0.1,0.0031986236572265625,0.06932544708251953,0.048132226,4.3412294,0.2201454048994464,0.0,0.0031529055460483,0.0,300,0.01973247528076172,0.29505478351886155,0.21902467583416607,2400,0.21133792705134438,0.0
8,1.497039794921875,0.2539622004482632,0.04736952658607834,0.3015655582933261,0.19738942179205204,0.0,0.15600911999539993,0.1,0.003118753433227539,0.06636381149291992,0.052051645,1.9624194,0.22352708445432806,0.0,0.0035898676354840166,0.0,300,0.021617412567138672,0.3032998299856807,0.2710675716107817,2700,0.21978075293104748,0.0
9,1.5589046478271484,0.22128722868979417,0.006041027206932189,0.2289470633680522,0.21398569652727206,0.0,0.14827844786904187,0.1,0.0031201839447021484,0.06140255928039551,0.049061634,3.6893144,0.2233030988778747,0.0,0.003167001408000382,0.0,300,0.01920795440673828,0.21509328430313834,0.19752712759399838,3000,0.21952076399267206,0.0
10,1.5675101280212402,0.2342270442513209,0.03581254554837163,0.2946719358789614,0.20669846744739545,0.0,0.14754334072566197,0.1,0.003287792205810547,0.07435345649719238,0.049854502,13.221705,0.2243954934152193,0.0,0.0033302288787289804,0.0,300,0.019580602645874023,0.23372265580836138,0.2282069772786352,3300,0.20151191560162565,0.0
11,1.5029675960540771,1.256317288641933,1.7790457829437858,4.337712018770137,0.22516423240471448,0.0,0.16378918868229125,0.1,0.003029346466064453,0.061779022216796875,0.049147073,5.0898438,0.3275876729378907,0.0,0.013618723245996976,0.0,300,0.018756628036499023,0.9835631105348204,0.8808131818380993,3600,0.19970195317826248,0.0
12,1.7999799251556396,0.24126938739597645,0.030845040435220968,0.2835442804970779,0.20854553917031032,0.0,0.1559470176570786,0.1,0.0031769275665283203,0.06480121612548828,0.0483326,3.0043526,0.3189558443836993,0.0,0.0034196838872977047,0.0,300,0.019580841064453125,7.574186587013985,19.847278999811937,3900,0.21915604544701706,0.0
13,1.4942827224731445,0.224171779540188,0.009816658223632294,0.24064732917129103,0.21553432303316025,0.0,0.16273212076147123,0.1,0.0031287670135498047,0.06481766700744629,0.05072932,0.84988844,0.3094774378993482,0.0,0.0031981570132399305,0.0,300,0.027436494827270508,28.96619430578191,9.50345446007808,4200,0.22140955924921182,0.0
14,1.529792070388794,0.2595579815525403,0.055433783553263484,0.35175613376731885,0.21045088562557562,0.0,0.1595853431146745,0.1,0.003286123275756836,0.06644511222839355,0.050105654,1.6539636,0.30448549226466737,0.0,0.0036588343888747225,0.0,300,0.029610395431518555,4.314560717843807,0.8423110432573346,4500,0.2279476681072232,0.0
15,1.5773766040802002,0.25133922282106924,0.02480324526808098,0.29189102721253246,0.22776687364736364,0.0,0.16010731000920958,0.1,0.0031452178955078125,0.06780409812927246,0.049417734,1.9958113,0.29917086532030757,0.0,0.0035557849517552638,0.0,300,0.019702672958374023,0.9852153330615899,0.3252302814211519,4800,0.236477459626912,0.0
16,1.5848608016967773,0.2504812837479497,0.03537586019497994,0.30333013289489946,0.21152117081742958,0.0,0.15869421738854486,0.1,0.0031898021697998047,0.0710299015045166,0.04997751,2.5003319,0.2943019071630718,0.0,0.003551472566274545,0.0,300,0.02110767364501953,0.388409802381821,0.49783670847779815,5100,0.24987088457456072,0.0
17,1.5147910118103027,0.23635104519306538,0.016370415250222446,0.26250443572821486,0.2173076944664576,0.0,0.15529136173601976,0.1,0.0028586387634277344,0.06399011611938477,0.04954607,2.4354382,0.2885068209660712,0.0,0.003361789270721713,0.0,300,0.02106761932373047,0.4102694938614722,0.4523454815724587,5400,0.23210930495824908,0.0
18,1.5860331058502197,0.24844891961227106,0.03760062426341839,0.29465733762343727,0.19774192047773448,0.0,0.16298322346343305,0.1,0.003216266632080078,0.06332707405090332,0.04961616,1.3615022,0.2845010308306912,0.0,0.0035150000954836903,0.0,300,0.023839473724365234,0.5263495359841349,0.4754187286520068,5700,0.23190631673033202,0.0
19,1.534832239151001,0.2603395287319839,0.02863375770431984,0.3032258480970915,0.2263410198893151,0.0,0.15875583579237212,0.1,0.002980470657348633,0.0740509033203125,0.049377535,1.641604,0.2820848806208205,0.0,0.003686989746402908,0.0,300,0.022780656814575195,0.48590122603437236,0.4100752800599126,6000,0.24256382275601138,0.0
20,1.6269149780273438,0.24618556931970825,0.0276155945010352,0.2898516429574521,0.21398839268407946,0.0,0.1470055008074226,0.1,0.0029664039611816406,0.061987876892089844,0.05062266,4.6277018,0.2784949494907093,0.0,0.003462120311464513,0.0,300,0.020485877990722656,0.3652193641504226,0.31703619405838446,6300,0.22718829849914837,0.0
21,1.639056921005249,0.29378756557399033,0.07840271601347902,0.4098286289814165,0.20140197937177542,0.0,0.14935856954380178,0.1,0.003016233444213867,0.06915163993835449,0.049100112,1.8331012,0.2800242110990374,0.0,0.004121997321087974,0.0,300,0.02535271644592285,0.4890288003176946,0.4382678294854758,6600,0.23567837236904052,0.0
22,1.5287361145019531,0.24042913233643975,0.02805322980007607,0.28166615172544984,0.21305032097941826,0.0,0.16102467701024153,0.1,0.0028564929962158203,0.0595245361328125,0.05028721,1.835236,0.27606470322277765,0.0,0.0034209529832103353,0.0,300,0.01997208595275879,0.38967089287148987,0.3658309880600492,6900,0.2051749450212945,0.0
23,1.610884666442871,0.26679697279865366,0.03673898268928276,0.32115481083978503,0.21763525306933573,0.0,0.1675329022257799,0.1,0.0029175281524658203,0.06057405471801758,0.049807046,1.2281109,0.27513793018036525,0.0,0.003762474354455231,0.0,300,0.01789569854736328,0.3214085335913943,0.2875617202654017,7200,0.20254910470665677,0.0
24,1.6219213008880615,0.26043075600161236,0.020260732087657506,0.2881800768087859,0.2316611793589617,0.0,0.14810153096603174,0.1,0.0030829906463623047,0.06456160545349121,0.04950042,4.986552,0.27366721276248995,0.0,0.0036769259798701756,0.0,300,0.018617868423461914,0.210407400583988,0.1953427593304456,7500,0.21683402189725243,0.0
25,1.5809202194213867,0.23662048833582175,0.016620073553222623,0.2576349702002066,0.2147391227308096,0.0,0.16614925305153044,0.1,0.002871274948120117,0.05887651443481445,0.0501483,4.1755004,0.26996254031982314,0.0,0.003368601815770609,0.0,300,0.01827836036682129,0.23489014983085482,0.20730192711725326,7800,0.20971724859334143,0.0
26,1.6460049152374268,0.2945070858941595,0.1011816221622372,0.464497079620779,0.21071265949275803,0.0,0.15031237396292002,0.1,0.004950523376464844,0.06529736518859863,0.04953412,1.9440755,0.2724169948772568,0.0,0.004131998961469901,0.0,300,0.019006967544555664,0.4813223939533235,0.44585621936439923,8100,0.2150636754643798,0.0
27,1.6705865859985352,0.2538196383362639,0.03798660923337091,0.31928510405889293,0.22580820250197492,0.0,0.1674853938364521,0.1,0.003161191940307617,0.06514596939086914,0.051179837,1.5673069,0.2705572592231575,0.0,0.0035853910512053206,0.0,300,0.02016925811767578,0.23332125926901154,0.23486920508495773,8400,0.22071194934647206,0.0
28,1.5822217464447021,0.2571117438181362,0.018983362149894684,0.2795769531334812,0.22762405987170828,0.0,0.13676087389929012,0.1,0.0028891563415527344,0.05809783935546875,0.04756858,6.884236,0.26921270768265537,0.0,0.0036269190973032923,0.0,300,0.01779770851135254,0.15240079669469173,0.14237836246397312,8700,0.23059466547814755,0.0
29,1.668290615081787,0.27720784111426344,0.08409715510728152,0.40950949937339215,0.201860038474691,0.0,0.15466138567087734,0.1,0.0031900405883789062,0.06239438056945801,0.049499992,1.908052,0.2700122210258162,0.0,0.003910541020267959,0.0,300,0.01950812339782715,0.38306499864489263,0.3768589531295065,9000,0.25420689471989316,0.0
30,1.5464835166931152,0.3109911384002788,0.028141141153189962,0.34158698850189095,0.26693120059973563,0.0,0.1549772104442435,0.1,0.0032978057861328125,0.06420731544494629,0.049530867,2.5333939,0.27411011276326247,0.0,0.004344219467825726,0.0,300,0.019672870635986328,0.2048145456065481,0.16777181390776708,9300,0.22849138564652774,0.0
31,1.5059516429901123,0.2787266017513389,0.03069267606724073,0.3294011548561302,0.24688045653471533,0.0,0.16181949337275317,0.1,0.003119230270385742,0.06427240371704102,0.051224396,3.4178278,0.2745717616620701,0.0,0.003931892222813482,0.0,300,0.02126622200012207,0.18673508903308203,0.18845689178307412,9600,0.24542135030597315,0.0
32,1.556852102279663,0.27304337118038435,0.03172646177062039,0.30926440478860007,0.22251422397658618,0.0,0.16715276594450515,0.1,0.0031290054321289062,0.06353497505187988,0.050533757,1.8786296,0.27441892261390155,0.0,0.0038489515009919933,0.0,300,0.021022319793701172,0.2043105731806186,0.17750624402759493,9900,0.25708716010119786,0.0
33,1.5350189208984375,0.31944717052438587,0.0544824073871173,0.40796788059415995,0.27437134853976197,0.0,0.15759288244197953,0.1,0.0032019615173339844,0.07026052474975586,0.049481772,1.5466248,0.27892174740494996,0.0,0.00446743794925793,0.0,300,0.019525527954101562,0.26024135567968576,0.24001157365744963,10200,0.23730084383491123,0.0
34,1.5889601707458496,0.29869126074319763,0.06222474020665153,0.36680055162872965,0.22404379151396492,0.0,0.1639693007662983,0.1,0.0031461715698242188,0.060175180435180664,0.051210098,3.5723107,0.2808986987387747,0.0,0.004194070194231712,0.0,300,0.018727779388427734,0.2642827988752249,0.25426469873624147,10500,0.2421482994300396,0.0
35,1.5527091026306152,0.37254529939592407,0.11847112876750426,0.5506691101508041,0.2438601127009364,0.0,0.17369269898067202,0.1,0.0030641555786132812,0.06287312507629395,0.04926007,0.996576,0.29006335880448963,0.0,0.005152282741221928,0.0,300,0.018828392028808594,0.40769514111021815,0.3345175700358288,10800,0.24365634308802928,0.0
36,1.5663931369781494,0.2856896119819685,0.05143462503814245,0.33413409081823425,0.20725853920077644,0.0,0.16731183561868473,0.1,0.003622293472290039,0.06541681289672852,0.04975191,2.0765426,0.28962598412223756,0.0,0.004016514279973328,0.0,300,0.018781423568725586,0.37526101076784596,0.34190248900306147,11100,0.27149802107822835,0.0
37,1.5386455059051514,0.2828331673372247,0.029539568910610343,0.32958476599807274,0.2476523483411389,0.0,0.1647717626951092,0.1,0.002964019775390625,0.06051993370056152,0.05002763,2.7781792,0.28894670244373627,0.0,0.003926273427114073,0.0,300,0.01824212074279785,0.2512979274490195,0.13143148778208916,11400,0.3093575043295558,0.0
38,1.662219762802124,0.38470503522327054,0.09408698603178338,0.5076961183282725,0.2441294324323942,0.0,0.1707388368634736,0.1,0.0028116703033447266,0.059899330139160156,0.0504224,1.0234514,0.2985225357216897,0.0,0.005339930984894205,0.0,300,0.01959395408630371,0.31015271058146193,0.30668337565128456,11700,0.28893345614239224,0.0
39,1.6699469089508057,8.32910468115824,13.93272154780036,32.46124964733679,0.2578458527674011,0.0,0.17476946365008,0.1,0.0035173892974853516,0.07791328430175781,0.050236978,1.4950961,1.1015807502653447,0.0,0.107931852828744,0.0,300,0.021088123321533203,0.9933364693792386,0.9631888141884652,12000,0.2890493743878308,0.0
40,1.5968513488769531,0.37559099248467553,0.13760420573968543,0.5889488414851448,0.24954603579783982,0.0,0.1681698706973053,0.1,0.0028998851776123047,0.0579676628112793,0.050543107,1.1136056,1.0289817744872778,0.0,0.00522444082905433,0.0,300,0.0175936222076416,4.3194213709855305,25.0031019128595,12300,0.3320694261505225,0.0
41,1.5865058898925781,0.3558901592167534,0.09718517680424658,0.5226466262812302,0.2786640167642208,0.0,0.16834324355881253,0.1,0.002930164337158203,0.06051301956176758,0.050264522,1.6517936,0.9616726129602253,0.0,0.004956271752278783,0.0,300,0.01851367950439453,37.3683977102183,28.7712098815325,12600,0.43594140731571324,0.0
42,1.6285059452056885,0.3533787110638187,0.11659868138887214,0.5467112029130109,0.24960118181188576,0.0,0.16890235970183617,0.1,0.002928018569946289,0.06204795837402344,0.050686456,2.2383173,0.9008432227705847,0.0,0.004920803440446122,0.0,300,0.02160811424255371,29.167199189561742,11.491118748781473,12900,0.30508895124276897,0.0
43,1.5714693069458008,6.931123438257985,11.16159544709455,26.262632634896207,0.3595890400904706,0.0,0.18747389093665534,0.1,0.003935813903808594,0.06595540046691895,0.049256016,1.2166106,1.503871244319325,0.0,0.08929271103483451,0.0,300,0.019269704818725586,0.9417587878282857,0.9105655862397564,13200,0.3193020917315272,0.0
44,1.7036406993865967,4.050118412795295,6.447882255860733,15.217421871104632,0.2575252340281387,0.0,0.15381035645962413,0.1,0.003017902374267578,0.06609487533569336,0.049275495,2.035573,1.7584959611669222,0.0,0.05421016945880646,0.0,300,0.02203989028930664,0.8681589597382104,0.7872895777321068,13500,0.40106671304989644,0.0
45,1.680077075958252,0.324297902744198,0.07326724875674363,0.43937481136546364,0.2376095659692492,0.0,0.16268323112919184,0.1,0.00350189208984375,0.06484222412109375,0.05093292,1.5273503,1.6150761553246498,0.0,0.00448810308647093,0.0,300,0.021333694458007812,209.72713017830566,212.6667422643695,13800,0.42326139672192126,0.0
46,1.7759692668914795,0.421845374803435,0.14309579498639,0.5919579996681867,0.26636530710104483,0.0,0.1606642554022897,0.1,0.0031533241271972656,0.06673860549926758,0.050083514,1.5035355,1.4957530772725285,0.0,0.005839749123723826,0.0,300,0.019535064697265625,75.67219097761726,26.32553479389633,14100,1.2758786287271122,0.0
47,1.6487922668457031,0.49542975664846156,0.353293414770611,1.1057405014283175,0.2657666455669279,0.0,0.15892677454292417,0.1,0.0031392574310302734,0.06584572792053223,0.049810052,1.628266,1.395720745210122,0.0,0.006808968282460252,0.0,300,0.018884897232055664,10.641585772370046,3.1427712836401565,14400,1.0073425966821943,0.0
48,1.7704806327819824,7.3994135027524095,12.168422235942876,28.475440307064222,0.29734020868717187,0.0,0.1707516545518634,0.1,0.0032110214233398438,0.06751275062561035,0.053986624,1.983534,1.9960900209643508,0.0,0.09553851268634636,0.0,300,0.023760080337524414,0.9376872744950876,0.9264171669805559,14700,1.0019686317815635,0.0
49,1.576474905014038,0.40162188204268656,0.07175819440808091,0.5002713943736767,0.301142086341923,0.0,0.1535537872640039,0.1,0.003187417984008789,0.05947399139404297,0.050431572,2.8038685,1.8366432070721845,0.0,0.005565686533064056,0.0,300,0.01923823356628418,12.195116255018583,21.39469665573402,15000,0.4170091003292125,0.0
50,1.5889978408813477,0.3108431966453825,0.03644002376563067,0.36612816091261435,0.263972154022465,0.0,0.1658795494384777,0.1,0.006769895553588867,0.07087969779968262,0.050665587,0.8106827,1.6840632060295044,0.0,0.004304570118437011,0.0,300,0.020756006240844727,67.7324205061954,63.48522039974163,15300,0.7334328043691555,0.0
51,1.650989294052124,0.3273030006175787,0.07917186154985398,0.46337908254876264,0.2661838491593545,0.0,0.16546119689507624,0.1,0.0032291412353515625,0.07010531425476074,0.050065327,0.98708314,1.5483871854883118,0.0,0.004570141006629292,0.0,300,0.019919157028198242,49.78942595887837,32.317867463470634,15600,0.2572750237509465,0.0
52,1.6700003147125244,0.2919406549067442,0.031309102292018394,0.3460904020979682,0.27187873354236325,0.0,0.16757941879471513,0.1,0.0031576156616210938,0.0665431022644043,0.049990404,0.8867619,1.422742532430155,0.0,0.004057422557616647,0.0,300,0.01916646957397461,46.777223560774274,23.946553085211917,15900,0.3361399045458831,0.0
53,1.6778898239135742,0.3740417311180807,0.06405698038713493,0.43046996118084424,0.27183979669048297,0.0,0.17687759688232785,0.1,0.003140687942504883,0.06595683097839355,0.04939258,0.7774,1.3178724522989476,0.0,0.005152697256383489,0.0,300,0.019716978073120117,9.640583108761318,3.384379115112612,16200,0.46856083085248007,0.0
54,1.5510189533233643,0.3709099128882435,0.08374031486898018,0.4791207203807506,0.27938528186287565,0.0,0.16371935839674182,0.1,0.0030050277709960938,0.057233572006225586,0.049440935,1.1109233,1.2231761983578773,0.0,0.0051447477100027995,0.0,300,0.01842474937438965,3.7007697803970476,0.6571607211848355,16500,0.39656994295363984,0.0
55,1.6379287242889404,0.34131165141675407,0.0754316485560698,0.42243569833741995,0.2347295395849547,0.0,0.16457735734660472,0.1,0.0030515193939208984,0.06331062316894531,0.05017564,0.63577545,1.134989743663765,0.0,0.004730912213907199,0.0,300,0.018817901611328125,0.961795632105598,0.7192253116199724,16800,0.46331992282808376,0.0
56,1.6315791606903076,0.41156587275099565,0.20090651138572002,0.7105693742527397,0.21999831512091908,0.0,0.17702746029493407,0.1,0.0030670166015625,0.05898332595825195,0.049226448,0.98283225,1.062647356572488,0.0,0.005682796699526406,0.0,300,0.018602609634399414,0.8937185795732892,0.8779456689478499,17100,0.35776341472419887,0.0
57,1.6512949466705322,0.6419086895674221,0.5198209468419941,1.5379864532219802,0.2895593335931507,0.0,0.16632893412201097,0.1,0.0031905174255371094,0.06682634353637695,0.050331477,1.2193949,1.0205734898719816,0.0,0.008718386859293232,0.0,300,0.019288301467895508,0.815081289349608,0.6768412109001478,17400,0.40103870178223494,0.0
58,1.6704955101013184,0.3273065081502796,0.08202288246177021,0.46079161661050994,0.2550670969795133,0.0,0.16301515399318964,0.1,0.0030612945556640625,0.06247758865356445,0.049870957,0.9884785,0.9512467916998115,0.0,0.004448594884800672,0.0,300,0.018245458602905273,0.42347357763147464,0.5340553253674758,17700,0.43621551589550833,0.0
59,1.7257425785064697,0.3472747997447696,0.018376061394718608,0.3707075745995423,0.322912455892646,0.0,0.1608247167246606,0.1,0.0029878616333007812,0.06390905380249023,0.049451713,0.6075334,0.8908495925043074,0.0,0.004842102816537433,0.0,300,0.019834280014038086,0.40752846311399754,0.4100668499073209,18000,0.6411970688604062,0.0
60,1.7050831317901611,0.28282917287122195,0.06576204506377407,0.3936752650248789,0.22159853561913134,0.0,0.17325010193234672,0.1,0.0030672550201416016,0.06395626068115234,0.049347024,0.54745644,0.8300475505409989,0.0,0.003982877671622932,0.0,300,0.019200563430786133,1.358761683096534,0.9330546085935366,18300,0.6213512702859026,0.0
61,1.7457101345062256,8.262634784896278,13.501095965291888,31.646173275954908,0.2633351441535144,0.0,0.17001276113179006,0.1,0.003199338912963867,0.06409692764282227,0.052658167,1.254969,1.573306273976527,0.0,0.10704569677341418,0.0,300,0.019975900650024414,0.9839752912116692,0.957311944490688,18600,0.8779237203605645,0.0
62,1.7056376934051514,0.35767900164843863,0.14837518354734364,0.6146418444913622,0.2693072830273574,0.0,0.15818007386415292,0.1,0.0031201839447021484,0.07472681999206543,0.049640745,1.7414687,1.451743546743718,0.0,0.004975988307800476,0.0,300,0.023680448532104492,4.422447394965634,16.99430757041552,18900,0.6441487084239287,0.0
63,1.6477720737457275,0.5088286515189312,0.3163852382264465,1.0548121786776208,0.2828148432964735,0.0,0.16286995834204654,0.1,0.002802133560180664,0.05780315399169922,0.049249552,1.0110981,1.3574520572212394,0.0,0.006994982189384135,0.0,300,0.018254518508911133,3.52435276525406,4.781809047084168,19200,0.46130944028561055,0.0
64,1.6050589084625244,0.39164247803282426,0.16842589547303574,0.6825164290740239,0.2839148524197915,0.0,0.16032435768831768,0.1,0.0032911300659179688,0.06922507286071777,0.049898807,0.93814737,1.2608710993023977,0.0,0.005436653844071994,0.0,300,0.02848196029663086,16.606245217892525,13.683813124378307,19500,0.6327994565373923,0.0
65,1.6558558940887451,0.5078864210951237,0.18878622387005548,0.8324674050051807,0.3626999320848215,0.0,0.1660569421842052,0.1,0.003170013427734375,0.061833858489990234,0.04924557,0.9842169,1.1855726314816704,0.0,0.006986214693902152,0.0,300,0.01951146125793457,6.559504014684273,3.988178627601719,19800,0.691968724533435,0.0
66,1.683100700378418,0.35666344025950447,0.027898507745209543,0.386813700505973,0.3116512640698749,0.0,0.16869508344370862,0.1,0.0031044483184814453,0.06412267684936523,0.049890876,0.8616273,1.1026817123594537,0.0,0.004960111855879812,0.0,300,0.020145177841186523,18.184207009199017,9.29975152314059,20100,0.682924230212742,0.0
67,1.6785154342651367,0.5150321443526727,0.40119630410785334,1.2055917137223908,0.23911604702804165,0.0,0.15884010870771686,0.1,0.0029642581939697266,0.058890342712402344,0.04896822,1.1675245,1.0439167555587756,0.0,0.007077408449459947,0.0,300,0.019011974334716797,1.442140258488657,0.8941296595149725,20400,0.5885455217031579,0.0
68,1.672654628753662,0.35488102919054665,0.0960984846485547,0.4917651945715153,0.24163223061717465,0.0,0.15323477969832466,0.1,0.0030014514923095703,0.0658266544342041,0.05039161,1.0869362,0.9750131829219527,0.0,0.004939531445389254,0.0,300,0.01981329917907715,2.928062114666229,0.9896901129222593,20700,0.4895785568636039,0.0
69,1.7248663902282715,0.44245176269876507,0.12696135987636223,0.6193390422682301,0.3108962968211343,0.0,0.1673069281237646,0.1,0.0030133724212646484,0.06137657165527344,0.049181428,0.8900178,0.9217570408996341,0.0,0.0061125238591740825,0.0,300,0.022025585174560547,0.4489575824852994,0.3157094891414013,21000,0.5296594695980061,0.0
70,1.6309797763824463,0.36385608123276697,0.12848073250532238,0.5635483755529739,0.22280844866094804,0.0,0.15995701439928736,0.1,0.0032668113708496094,0.06684255599975586,0.049513396,1.0894009,0.8659669449329475,0.0,0.00506667768643681,0.0,300,0.019335269927978516,0.4401586977246793,0.3792793668987105,21300,0.3393860086536004,0.0
71,1.6543316841125488,6.172809748783418,9.996938804456997,23.48707735589153,0.2376991744610375,0.0,0.1635246205003794,0.1,0.003053903579711914,0.06796431541442871,0.050405897,1.4256477,1.3966512253179946,0.0,0.07918386467588373,0.0,300,0.019463062286376953,0.9853327470211618,0.9587547307805865,21600,0.612233994182322,0.0
72,1.7312836647033691,0.6619338104038965,0.1648992119220671,0.8225796270295457,0.42936764923965703,0.0,0.15854950652041208,0.1,0.0030536651611328125,0.06745409965515137,0.05041315,0.97409046,1.3231794838265847,0.0,0.009023466363554142,0.0,300,0.019093036651611328,0.35141651213526204,1.2878129147183521,21900,0.4932490490665164,0.0
73,1.6943533420562744,0.5505833146552683,0.2520949232021641,0.9466106474263394,0.27786851895959463,0.0,0.16181455848466883,0.1,0.0030913352966308594,0.06327271461486816,0.04866512,1.7869389,1.245919866909453,0.0,0.007551832124164376,0.0,300,0.019583940505981445,1.7378245230837148,2.511397262210482,22200,0.4948191258752563,0.0
74,1.7310795783996582,0.4654486266229636,0.15149996826983597,0.7152804293697423,0.30738957083605634,0.0,0.16501302121802527,0.1,0.0031003952026367188,0.06797528266906738,0.050737575,1.0480235,1.1678727428808042,0.0,0.00640298053167995,0.0,300,0.019150972366333008,5.627798688579066,5.331121331268618,22500,0.5404045074205889,0.0
75,1.7146360874176025,0.4089186178644533,0.07095579930492786,0.5007505467168467,0.3047229120611781,0.0,0.16626594740175132,0.1,0.003179788589477539,0.06569576263427734,0.05074491,0.7604726,1.091977330379169,0.0,0.005642757167209829,0.0,300,0.019562482833862305,8.43161035299864,6.34618781734475,22800,0.5984260866942982,0.0
76,1.7687828540802002,0.4143088213214006,0.12342646951844756,0.5641534055093486,0.2899737382180327,0.0,0.16554324699696074,0.1,0.0030977725982666016,0.062185049057006836,0.05007017,0.77024996,1.0242104794733922,0.0,0.005740373684661358,0.0,300,0.01908564567565918,5.976558652734204,3.8815176765321406,23100,0.4074117349126853,0.0
77,1.7208962440490723,0.3463104094701446,0.1637836156505751,0.6275336013869579,0.2341472789690906,0.0,0.1728738661628288,0.1,0.0035791397094726562,0.06542348861694336,0.050006878,0.6644628,0.9564204724730674,0.0,0.004834080434933503,0.0,300,0.01828145980834961,6.327312733046459,3.7099942910830466,23400,0.4072315333467753,0.0
78,1.7365045547485352,0.49662604335812754,0.11739406506130991,0.6670692291741657,0.35923860783465644,0.0,0.1581716480441995,0.1,0.0030460357666015625,0.06574201583862305,0.049836084,0.9985907,0.9104410295615734,0.0,0.0068327635949839635,0.0,300,0.018901824951171875,1.0700310192291322,0.4122022346963487,23700,0.4653546852535049,0.0
79,1.5968031883239746,0.46651377006877065,0.14628113802171352,0.6290884539749747,0.27475318467057014,0.0,0.16500746166147348,0.1,0.003950834274291992,0.059183597564697266,0.04991953,0.8611662,0.8660483036122931,0.0,0.00642592605043166,0.0,300,0.020917654037475586,0.4710117333624368,0.2779348853099419,24000,0.4922596814676849,0.0
80,1.6568841934204102,0.5582196031874256,0.18803349261507687,0.7427841231304719,0.2964641893428791,0.0,0.1657875350291537,0.1,0.003149747848510742,0.06201028823852539,0.04977568,0.8952373,0.8352654335698063,0.0,0.007644401831682961,0.0,300,0.018251895904541016,0.3243556044264798,0.3610410142954583,24300,0.3823503568548084,0.0
81,1.6475896835327148,0.46069944055205697,0.09496047019260527,0.5901734773474094,0.3294347762409013,0.0,0.16125143474975204,0.1,0.003057241439819336,0.06330060958862305,0.050057318,0.64504653,0.7978088342680314,0.0,0.006353190264244956,0.0,300,0.019108295440673828,0.22393893543348387,0.18083962524760336,24600,0.5729804269183952,0.0
82,1.6219799518585205,0.7563391783874446,0.4090523595696085,1.3212502325062099,0.30252702161471284,0.0,0.1632538814848706,0.1,0.0033147335052490234,0.07443594932556152,0.05022451,1.0404756,0.7936618686799728,0.0,0.010295800041205476,0.0,300,0.020552396774291992,0.5170192499364095,0.46038653327971857,24900,0.5057822205846713,0.0
83,1.6965382099151611,0.513353268926961,0.17487800875124226,0.7173618398221219,0.2945457989796558,0.0,0.1571768777081507,0.1,0.0029625892639160156,0.05981636047363281,0.05045936,0.91389173,0.7656310087046716,0.0,0.00705490029897712,0.0,300,0.01865673065185547,0.2668347493361577,0.28655999624000766,25200,0.4508686597686557,0.0
84,1.6871283054351807,0.6446282502388301,0.14315944326879232,0.8879165378793189,0.51837706744572,0.0,0.17501383055029268,0.1,0.0029935836791992188,0.0641789436340332,0.050920866,1.006444,0.7535307328580875,0.0,0.008811613508283684,0.0,300,0.01838397979736328,0.18588156228021777,0.17523106492528298,25500,0.4891047803118455,0.0
85,1.658341884613037,0.5567308345310558,0.131910081115069,0.777556626528978,0.4370137675456573,0.0,0.16689627266306106,0.1,0.003136157989501953,0.06461834907531738,0.0498006,0.9674826,0.7338507430253843,0.0,0.00762772077740493,0.0,300,0.02160477638244629,0.22057899114557794,0.2138723433917325,25800,0.6320556940618348,0.0
86,1.6281652450561523,0.45400275824500713,0.07512959633689335,0.5422225039397842,0.34007421607958194,0.0,0.16327257797265082,0.1,0.003094911575317383,0.057923316955566406,0.050092362,0.8314588,0.7058659445473466,0.0,0.006254324210804087,0.0,300,0.0178985595703125,0.3034415630044307,0.24130635773579173,26100,0.4428070653281821,0.0
87,1.7321152687072754,6.638501249793544,10.405486615012585,24.659279565103716,0.4104139283150614,0.0,0.1719440906635156,0.1,0.002971172332763672,0.062230825424194336,0.049705703,1.8435107,1.2991294750719664,0.0,0.08538602149649203,0.0,300,0.019575119018554688,0.9633761955497216,0.9231458652535792,26400,0.708813000364637,0.0
88,1.745147943496704,0.7003591897925291,0.2111769988501721,1.0293219628193253,0.502585359712706,0.0,0.16064355443554942,0.1,0.0034329891204833984,0.06509900093078613,0.05005204,0.98718566,1.239252446544023,0.0,0.009524535506543204,0.0,300,0.019124507904052734,0.7482510852529375,3.59520458231741,26700,0.4298240776243394,0.0
89,1.6632914543151855,0.375616589870998,0.016694458546263134,0.3950771898992668,0.35376468201042793,0.0,0.1645227355260268,0.1,0.003127574920654297,0.062070369720458984,0.049309578,0.7272602,1.1528888608767203,0.0,0.005220152471981085,0.0,300,0.01995563507080078,34.43196074942963,41.01598707681479,27000,1.6829169320473458,0.0
90,1.6094231605529785,7.702671921495584,12.674607557079478,29.654559252776664,0.26103141860099366,0.0,0.1696419318254485,0.1,0.002799510955810547,0.057863473892211914,0.050106112,1.4033307,1.8078671669386068,0.0,0.09957721865811389,0.0,300,0.017231225967407227,0.8914275667542,0.8247571821721671,27300,1.1444321152214627,0.0
91,1.4860141277313232,0.31920631957049267,0.07278556249638805,0.4411177300510444,0.26176084407615674,0.0,0.16705716704142956,0.1,0.002828359603881836,0.0556948184967041,0.049424972,0.71621287,1.6590010822017955,0.0,0.004463559338845327,0.0,300,0.017427921295166016,217.45329565381678,345.28352211585934,27600,12.564875598802658,0.0
92,1.5378632545471191,0.7835523905765603,0.3916282748544283,1.4463726228828575,0.4273041766222857,0.0,0.1667458614887203,0.1,0.0027740001678466797,0.05677533149719238,0.050181724,0.82647127,1.5714562130392722,0.0,0.01066257228350841,0.0,300,0.017296552658081055,18.248273292311108,8.546957823790557,27900,1.2891878928238507,0.0
93,1.5194814205169678,0.41650650639490605,0.08214950125378379,0.526560170999748,0.32178115621774545,0.0,0.165099577420939,0.1,0.002761363983154297,0.06065940856933594,0.04980421,0.77166504,1.4559612423748356,0.0,0.005711396627895032,0.0,300,0.017481327056884766,73.83883154166821,26.722514938551186,28200,1.155223767350362,0.0
94,2.0068345069885254,0.4725221584600586,0.1223621125350486,0.6719525587205692,0.33949940229459746,0.0,0.1626674711669473,0.1,0.0036344528198242188,0.09854435920715332,0.049589302,1.0401336,1.357617333983358,0.0,0.006457916658694901,0.0,300,0.021154403686523438,16.071780756750783,5.5716649413164525,28500,1.284677883021613,0.0
95,1.8657267093658447,0.5321350862829792,0.20059278576738332,0.82788873430349,0.3140022523805191,0.0,0.1503156533564292,0.1,0.0033729076385498047,0.0675053596496582,0.049037676,0.9188723,1.27506910921332,0.0,0.007311363540724837,0.0,300,0.020025253295898438,4.499289895643904,1.6130324240753178,28800,1.106101076873539,0.0
96,1.7907767295837402,0.6104919314143283,0.14417512666401106,0.8404786103337416,0.4848331975511952,0.0,0.14993608270939443,0.1,0.0029706954956054688,0.06432390213012695,0.050861485,0.9252806,1.2086113914334207,0.0,0.008356242723173193,0.0,300,0.019879579544067383,0.86021077677784,0.2967639917608707,29100,0.9715291925309164,0.0
97,1.731642246246338,0.4850720317022723,0.16216640799589815,0.7263793834255767,0.32645144899031087,0.0,0.1604230341398543,0.1,0.0032033920288085938,0.06494832038879395,0.049848028,0.71997464,1.1362574554603058,0.0,0.00668352012949522,0.0,300,0.019884824752807617,0.6213548383456734,0.3600379862467811,29400,1.2778675717032721,0.0
98,1.7525973320007324,0.47121825865366446,0.07079429023329677,0.5731514808496037,0.38297110218308417,0.0,0.16979550406976168,0.1,0.0030965805053710938,0.06287431716918945,0.050447952,0.577074,1.0697535357796417,0.0,0.006479015307864382,0.0,300,0.01959848403930664,0.34839800096128165,0.3340138610218661,29700,0.36495555162579313,0.0
99,1.7320988178253174,0.6748668377583141,0.2245979930012111,0.9478315996866218,0.37212829555835075,0.0,0.1605255813436958,0.1,0.003068685531616211,0.060567617416381836,0.050143953,0.7281047,1.0302648659775089,0.0,0.009208764468008331,0.0,300,0.017861127853393555,0.4021327865050522,0.40147634511522606,30000,1.3140949114483893,0.0
100,1.6601371765136719,3.8726898006455217,5.782594027350521,13.885113203186984,0.3199960149957736,0.0,0.1663175310113383,0.1,0.0030956268310546875,0.06395959854125977,0.050256815,2.8784232,1.3145073594443102,0.0,0.051629598900379506,0.0,300,0.019128084182739258,0.9619539159543806,0.9365317642359179,30300,0.43201223187403154,0.0
101,1.6919748783111572,0.6301809890523821,0.18680367177849921,0.8299072999740115,0.32434753297722946,0.0,0.16133381956833992,0.1,0.0029342174530029297,0.0566258430480957,0.050223216,0.7842232,1.2460747224051174,0.0,0.008617702195339663,0.0,300,0.018195629119873047,0.2647912506816183,0.465993885301503,30600,0.3634659258934065,0.0
102,1.718550682067871,0.8356351026620912,0.43704036166095034,1.5079338665990214,0.4288575490873719,0.0,0.16141172847158206,0.1,0.003020763397216797,0.06723952293395996,0.049973395,1.1552464,1.2050307604308148,0.0,0.011352651086213472,0.0,300,0.03869485855102539,0.380092486801702,0.4154357873430282,30900,0.31658403046113204,0.0
103,1.787738561630249,7.952438757393226,12.442068819904355,29.498631708371647,0.4619889313993057,0.0,0.1602848163193121,0.1,0.003281116485595703,0.07068157196044922,0.051479753,1.6764667,1.8797715601270562,0.0,0.1029157931253372,0.0,300,0.019692659378051758,0.9306525345719965,0.8890962262156187,31200,0.27112651994169334,0.0
104,1.7766978740692139,1.099361923679569,0.5256797809455065,2.005357259208398,0.7391229483101627,0.0,0.14743798403752686,0.1,0.002972126007080078,0.08838486671447754,0.050412845,6.988668,1.8017305964823076,0.0,0.014874807568081358,0.0,300,0.024867534637451172,0.6292631492664524,1.7756237385863982,31500,0.9906164513294873,0.0
105,1.769904613494873,0.3684087282012235,0.11281968662490316,0.5556113276636334,0.2741156907384573,0.0,0.1498346064192104,0.1,0.0029914379119873047,0.0581049919128418,0.05105479,0.9850573,1.6583984096541993,0.0,0.005125110783668432,0.0,300,0.018159866333007812,46.59465612793534,52.59134440900496,31800,1.0254202640568653,0.0
106,1.71561598777771,8.37942572769768,13.5470141128043,31.840793385568908,0.27737825662226445,0.0,0.16317699464148447,0.1,0.0031769275665283203,0.06252145767211914,0.04961965,1.9159129,2.3305011414585475,0.0,0.10859941246634244,0.0,300,0.01881694793701172,0.8405241190848108,0.7751965505409949,32100,0.5080349123786603,0.0
107,1.8466503620147705,0.46715735255946833,0.13032438611385966,0.6039660607354215,0.304255974978369,0.0,0.16353998959385424,0.1,0.003259897232055664,0.06980109214782715,0.049601123,0.65468824,2.1441667625686396,0.0,0.006426180110549243,0.0,300,0.022584915161132812,80.71498410690444,132.900140848617,32400,0.5170251111319599,0.0
108,1.8424336910247803,0.5403896508464049,0.05789575129703015,0.5946223024082818,0.4484435643841915,0.0,0.15472642382688087,0.1,0.002935171127319336,0.0650789737701416,0.050489258,0.72207034,1.983789051396416,0.0,0.007409214921231218,0.0,300,0.01898050308227539,100.604253461959,53.11514660946486,32700,0.2833299872190493,0.0
109,1.7853877544403076,6.298218211651101,10.196150375952207,23.95773815544568,0.2941713380110832,0.0,0.17568812307385653,0.1,0.002987384796142578,0.06398487091064453,0.049918868,1.7213572,2.4152319674218847,0.0,0.08085334110991743,0.0,300,0.020401477813720703,0.7603932614789689,0.7568280062570354,33000,0.3103405424861999,0.0
110,1.8140826225280762,0.9596936796437491,0.7303697031595817,2.178310214176414,0.3360957222813025,0.0,0.1491587704951521,0.1,0.003002643585205078,0.0657036304473877,0.049468722,1.0637482,2.269678138644071,0.0,0.013011793747358183,0.0,300,0.018984556198120117,6.332196811848908,6.088155525924163,33300,0.31783428593553525,0.0
111,1.9557843208312988,0.42862158790927973,0.0924222630781746,0.5833717002266864,0.3404107937585534,0.0,0.14674411467498644,0.1,0.0030317306518554688,0.06674695014953613,0.05024148,0.5530439,2.085572483570592,0.0,0.005920958408089375,0.0,300,0.025393247604370117,84.72390974981268,50.691750290369164,33600,0.32292699775075073,0.0
112,1.648319959640503,9.417141956254314,15.63917996786057,36.50403253039919,0.2502205466056845,0.0,0.1814038448751583,0.1,0.003351449966430664,0.06496071815490723,0.049878508,1.2578208,2.8187294308389643,0.0,0.12239526941800244,0.0,300,0.02004528045654297,0.7926705018807998,0.7466158818917196,33900,0.3467506909377565,0.0
113,1.6799182891845703,0.7951932988271353,0.35085400506339454,1.2132822603885394,0.29877078868032647,0.0,0.16171109050984153,0.1,0.003092527389526367,0.06146812438964844,0.050415773,0.5282614,2.6163758176377816,0.0,0.010817492838047253,0.0,300,0.018594741821289062,15.118352617346968,23.575630434064895,34200,0.2940915349034317,0.0
114,1.7171032428741455,0.4250182988383785,0.10967631227591368,0.5521381315435422,0.25036111884974804,0.0,0.15910553064291869,0.1,0.003095388412475586,0.06186556816101074,0.050373167,0.5266436,2.3972400657578414,0.0,0.005864126014488544,0.0,300,0.03559112548828125,129.90025518919697,82.02115084305893,34500,0.279381202016598,0.0
115,1.7105770111083984,0.31092121579642656,0.06784643946127644,0.41687059751433825,0.2459120766211207,0.0,0.15800040451552289,0.1,0.0030732154846191406,0.06482911109924316,0.048971113,0.4432869,2.1886081807616997,0.0,0.004357238386972388,0.0,300,0.024489164352416992,207.25713057845397,100.23075595551516,34800,0.295975266528036,0.0
116,1.7275161743164062,0.32292307013344,0.0322525244094905,0.36664231141841447,0.2788825938304462,0.0,0.15048671378787704,0.1,0.003118276596069336,0.07227540016174316,0.049897168,0.397976,2.0020396696988736,0.0,0.004517976107087646,0.0,300,0.020366907119750977,129.55029853377025,60.740802250539005,35100,0.2622237843043455,0.0
117,1.687973976135254,0.5561336972023843,0.28371210414371323,0.9880126469860031,0.23710879409114813,0.0,0.1564321952179275,0.1,0.003089427947998047,0.060126543045043945,0.05020845,0.4563173,1.8574490724492245,0.0,0.007620406805988002,0.0,300,0.01825118064880371,7.264126728155098,3.357615817311273,35400,0.38053502371206543,0.0
118,1.8169355392456055,0.4974706527621313,0.19696184283897436,0.8252627542039332,0.3159801636898333,0.0,0.15473006252557348,0.1,0.0031316280364990234,0.06670689582824707,0.04996513,0.45223776,1.7214512304805152,0.0,0.0068108531268887525,0.0,300,0.02101755142211914,5.109322863813471,2.149087746893969,35700,0.3203737849345458,0.0
119,1.7705857753753662,0.5274373098162481,0.19065119130923508,0.8074744892589101,0.2863360343252848,0.0,0.1553980072102255,0.1,0.0032727718353271484,0.06756067276000977,0.05048062,0.49993923,1.6020498384140884,0.0,0.00724252772082005,0.0,300,0.019422292709350586,1.8732414014900058,0.9822414341905347,36000,0.5848024087407735,0.0
120,1.607975959777832,0.41066982638231464,0.15602517971526803,0.6778201434689054,0.30058844800877066,0.0,0.15220014717760014,0.1,0.0028531551361083984,0.05897927284240723,0.0502219,0.38693273,1.4829118372109111,0.0,0.0056782357521100325,0.0,300,0.02116847038269043,1.4928135315380784,1.1730226956913186,36300,0.46020698447742686,0.0
121,1.851647138595581,7.818899575626508,12.709038088594568,29.830088670755725,0.30383964121575063,0.0,0.149613303493642,0.1,0.0028471946716308594,0.062081336975097656,0.05054941,2.914892,2.1165106110524707,0.0,0.10445593044200827,0.0,300,0.01906132698059082,0.8865746855180665,0.8550268185977309,36600,15.563051211909402,0.0
122,1.7586643695831299,0.37654825017723015,0.08733195546876624,0.4767520643759374,0.25379072883805676,0.0,0.16216130837499548,0.1,0.0029692649841308594,0.06237220764160156,0.048575275,0.36113274,1.9425143749649467,0.0,0.005233910284144031,0.0,300,0.019072771072387695,4.751083066256495,15.24159164317862,36900,16.543039064420416,0.0
123,1.8685405254364014,8.337577339249473,13.470158956826863,31.664925287720493,0.32697767446542947,0.0,0.14369547392769222,0.1,0.002893209457397461,0.0657038688659668,0.04903148,5.287779,2.5820206713933995,0.0,0.10802359896632653,0.0,300,0.01837444305419922,0.8351707793361968,0.7969173984635722,37200,0.48104062525954855,0.0
124,1.8234672546386719,0.4305571341847922,0.16127722044671092,0.6687638815876429,0.27252705215577394,0.0,0.16488952591680078,0.1,0.0030841827392578125,0.06395125389099121,0.049242962,0.40502945,2.366874317672539,0.0,0.005945453828608092,0.0,300,0.019223451614379883,22.478869601565147,42.89531369936874,37500,0.40142812208166445,0.0
125,1.8213467597961426,0.40242125077379215,0.11262204130677175,0.5776740615606826,0.2635018530616371,0.0,0.15033239375307386,0.1,0.002936840057373047,0.06356120109558105,0.05007619,0.41209072,2.1704290109826645,0.0,0.005559213968134947,0.0,300,0.01889777183532715,62.0218715376609,60.09585656685497,37800,0.5703516759686027,0.0
126,1.768341302871704,0.40900615670508483,0.119677379556017,0.56541042578459,0.28098944777576385,0.0,0.16997165823911173,0.1,0.0033533573150634766,0.06906270980834961,0.04946949,0.40505067,1.9942867255549066,0.0,0.005657455105489056,0.0,300,0.019295215606689453,61.2892418097654,43.53262295794002,38100,0.9391249729722463,0.0
127,1.7701849937438965,0.6635669717427597,0.2436583947098343,1.0211414496176523,0.3704041632925685,0.0,0.16106629279725518,0.1,0.0033011436462402344,0.06456470489501953,0.048421804,0.39432222,1.861214750173692,0.0,0.009060210747618837,0.0,300,0.019518136978149414,9.981321264440366,5.989235626273013,38400,0.5196626555607918,0.0
128,1.6793041229248047,0.5270347185841631,0.2253349698666752,0.8623375173908935,0.2692841525223998,0.0,0.1589687191819788,0.1,0.0031299591064453125,0.06229352951049805,0.049613047,0.4559791,1.727796747014739,0.0,0.007228280597224618,0.0,300,0.01880359649658203,9.191307507463835,5.593949580096372,38700,0.5846432719392346,0.0
129,1.6813619136810303,0.40936645636758184,0.03398693386728624,0.45960089199456905,0.36839139600958215,0.0,0.15957359541350935,0.1,0.0031447410583496094,0.06150221824645996,0.049514633,0.53289807,1.5959537179500234,0.0,0.005670934292216998,0.0,300,0.01959967613220215,16.196786451783186,10.372180270689357,39000,0.6282164261930953,0.0
130,1.760127067565918,0.7051493397021644,0.20683329535320205,0.8658227648690698,0.3540809641352089,0.0,0.1501018012842539,0.1,0.003060579299926758,0.0656442642211914,0.049013063,0.43633896,1.5068732801252376,0.0,0.009618478949788416,0.0,300,0.019100189208984375,2.0609871731867386,1.2930407893795535,39300,11.466481639510588,0.0
131,1.7870314121246338,0.5213564406925685,0.2674610296067428,0.9803706500638409,0.30954779693872914,0.0,0.15248750840807213,0.1,0.00370025634765625,0.06665468215942383,0.050335333,0.5705728,1.4083215961819706,0.0,0.007155520321172461,0.0,300,0.022454500198364258,1.9401531902676972,1.3457153312782877,39600,0.5171942575661912,0.0
132,1.8079161643981934,14.214526242712646,13.806170509214812,31.018869642220178,0.3754836121030771,0.0,0.17370456904052978,0.1,0.0032014846801757812,0.07058548927307129,0.05043354,1.301392,2.6889420608350383,0.0,0.18306959148907676,0.0,300,0.02049875259399414,0.837865326468714,0.7935482358410102,39900,0.6278661165657999,0.0
133,1.7206807136535645,0.5049835239936808,0.1842292479640596,0.773634916596949,0.29616542534712953,0.0,0.14206217044357136,0.1,0.003108501434326172,0.0715944766998291,0.05005676,0.48648667,2.470546207150903,0.0,0.006928478605470072,0.0,300,0.0207517147064209,10.866505449772198,29.995356180954335,40200,19.45973622086151,0.0
134,1.774766206741333,4.851778199386926,7.606237398537777,18.02608516090604,0.4164201450552782,0.0,0.15172395989233012,0.1,0.0031545162200927734,0.05999326705932617,0.04961359,2.157626,2.708669406374505,0.0,0.06153018144075348,0.0,300,0.018857479095458984,0.7839550293300084,0.7598366321290523,40500,7.659744890509859,0.0
135,1.794313669204712,7.434014134361266,12.292658736345933,28.72526373868918,0.23779992773461242,0.0,0.1538646159976093,0.1,0.003040313720703125,0.06283712387084961,0.050850127,2.3301246,3.1812038791731814,0.0,0.09600210523580359,0.0,300,0.018619298934936523,0.72595995460372,0.6937183051745356,40800,0.8737490670983964,0.0
136,1.8077735900878906,0.8537545021217429,0.32246571884448666,1.3721147742443358,0.4882599500532811,0.0,0.14483313226458083,0.1,0.0030078887939453125,0.05901455879211426,0.048703536,0.4713559,2.9484589414680373,0.0,0.01155456204599068,0.0,300,0.018102645874023438,19.121557953429136,20.135259073568793,41100,1.0043359036297637,0.0
137,1.7697086334228516,0.44104543944404606,0.12424921382027981,0.5669617083947642,0.2696989350504774,0.0,0.16777840455486914,0.1,0.008435249328613281,0.06894898414611816,0.04990754,0.57661164,2.697717591265638,0.0,0.006085451568052858,0.0,300,0.019419431686401367,130.65368266118026,82.17138782037084,41400,0.46371172935261207,0.0
138,1.8845205307006836,0.5734191436912988,0.31072160217631023,1.0806084352455618,0.31001680074324817,0.0,0.17276139263184917,0.1,0.003153085708618164,0.06979131698608398,0.0496611,0.56184965,2.485287746508204,0.0,0.007838742051934888,0.0,300,0.019882678985595703,25.052752025341796,13.897080828419337,41700,16.45309342539593,0.0
139,1.8313639163970947,0.6322303513731806,0.20733942332639774,0.9451122027030122,0.3849661320215566,0.0,0.1503803782304886,0.1,0.003125905990600586,0.06422162055969238,0.049800083,0.8151552,2.299982006994702,0.0,0.008637025949906186,0.0,300,0.02024102210998535,12.13127274704502,6.89364819596576,42000,0.27090565445423465,0.0
140,1.8185927867889404,6.625622000830735,10.176545049287245,24.23746391806783,0.2960180514857839,0.0,0.17040768992738714,0.1,0.003144502639770508,0.060529232025146484,0.05075635,1.4449883,2.7325460063783056,0.0,0.08855775293479198,0.0,300,0.02062368392944336,0.7633378832083824,0.7588903243468116,42300,0.22796493599370737,0.0
141,1.8428723812103271,0.32597609553325135,0.09646588233950003,0.42729717522891764,0.2291687303717636,0.0,0.1548431755518448,0.1,0.00302886962890625,0.06072521209716797,0.05010352,0.550232,2.4918890152938,0.0,0.004561457325029066,0.0,300,0.018105268478393555,68.28218772121501,74.48300177493738,42600,0.3491649216682373,0.0
142,2.0222554206848145,0.3813258406365385,0.09821142679001782,0.4951712398608536,0.2676502552389546,0.0,0.15827200555297496,0.1,0.0029053688049316406,0.06035494804382324,0.04968025,0.5181803,2.280832697828074,0.0,0.00529110915278848,0.0,300,0.018860578536987305,55.365958130086916,48.82152502278569,42900,0.6069531992843727,0.0
143,1.7065770626068115,0.4315264239953419,0.024218557144464397,0.46587690623952543,0.39900812408010133,0.0,0.1529245643540507,0.1,0.003117799758911133,0.06133842468261719,0.04962152,0.5328171,2.095902070444801,0.0,0.0059577658747020645,0.0,300,0.021228313446044922,31.163224121194844,23.023437705699365,43200,0.288676125694907,0.0
