iteration,time_sampling,stoc_pol_mean,stoc_pol_std,stoc_pol_max,stoc_pol_min,rollout_success,alpha,delta,time_vpg,time_npg,kl_dist,surr_improvement,running_score,rwd_sparse,rwd_dense,success_percentage,num_samples,time_VF,VF_error_before,VF_error_after,env_samples,eval_score,eval_success
0,1.3547065258026123,0.5753614303263284,0.008863263227754246,0.5888482943633963,0.5639519775440993,0.0,0.1579160050586266,0.1,0.12711811065673828,0.14325213432312012,0.054492924,1.3924214,0.5753614303263284,0.0,0.00786148568099854,0.0,300,0.06643915176391602,0.6916054383506014,0.45092459304139226,300,0.5686584803867671,0.0
1,1.2398436069488525,4.334919680605323,6.520918412329266,15.629479834634212,0.5658528169598362,0.0,0.19367629185323287,0.1,0.0033559799194335938,0.06480073928833008,0.05262353,1.2855592,0.951317255354228,0.0,0.05800109205042939,0.0,300,0.25136375427246094,0.9808399645281362,0.9616542432194941,600,0.5720706804867095,0.0
2,1.3764853477478027,0.5738981245373045,0.012326535043008135,0.5858158480173203,0.5533408833821765,0.0,0.17506700362815406,0.1,0.08666253089904785,0.31165122985839844,0.050856065,1.0498495,0.9135753422725356,0.0,0.00785059794634502,0.0,300,0.2540726661682129,0.8654501451824229,1.9817183971151962,900,0.5717004692226464,0.0
3,1.3781182765960693,2.862296016719002,3.9642489101021656,9.72853308956636,0.5510002254664957,0.0,0.1722620106981639,0.1,0.04062247276306152,0.30724358558654785,0.050389335,3.4913008,1.1084474097171821,0.0,0.03502259670381453,0.0,300,0.0808556079864502,0.9130915933520627,0.8754238290131136,1200,0.5752406221618463,0.0
4,1.385103702545166,0.6025360639365748,0.024447349675586694,0.640819928436539,0.5735479555932848,0.0,0.1685059505767067,0.1,0.09118914604187012,0.07117819786071777,0.05212928,1.277235,1.0578562751391214,0.0,0.008205440227271068,0.0,300,0.20203542709350586,4.112633612620434,6.622205959178769,1500,0.5809690423491493,0.0
5,1.323333740234375,7.384221882829178,9.080303443084631,22.70789532640582,0.5711913523909212,0.0,0.16766291485828205,0.1,0.09533023834228516,0.07593941688537598,0.05199829,1.1005105,1.690492835908127,0.0,0.09865525865441,0.0,300,0.1527411937713623,0.911740360115077,0.8705809010782241,1800,0.5863564890570895,0.0
6,1.4141559600830078,1.5821362208648437,1.7481724241312422,4.609962654615668,0.5582560996881891,0.0,0.18059848864754935,0.1,0.08835101127624512,0.7293062210083008,0.04698267,3.201941,1.6796571744037987,0.0,0.02127113205835271,0.0,300,0.15912985801696777,0.7144494895113953,0.7760115282749886,2100,0.594806868869594,0.0
7,1.440666675567627,2.857998041158049,3.9206746427271826,9.648568786016666,0.5646235258560437,0.0,0.16383300644588808,0.1,0.013736486434936523,0.3101084232330322,0.05084034,3.0985541,1.7974912610792237,0.0,0.03829349298653382,0.0,300,0.267681360244751,0.7564262958895602,0.7323086514817865,2400,0.5910968619629121,0.0
8,1.4279003143310547,0.6554382412929305,0.1311960649824598,0.879722856245361,0.5573554557816036,0.0,0.17488757183108944,0.1,0.005664348602294922,0.0744020938873291,0.05191655,1.053926,1.6832859591005946,0.0,0.008927604636821374,0.0,300,0.06972503662109375,37.12002806962371,28.805807502978855,2700,0.6119871469704597,0.0
9,1.449782133102417,0.6217442133902632,0.031474177714748745,0.6753094776427964,0.5965214386868258,0.0,0.15978102165626093,0.1,0.0188140869140625,0.05958223342895508,0.051216446,2.1807497,1.5771317845295616,0.0,0.0084761755847014,0.0,300,0.13691473007202148,37.67195060203112,16.494020791841034,3000,0.6092150736698967,0.0
10,1.461418628692627,5.354260829724707,8.28470255623372,19.703774822181146,0.5580673397469399,0.0,0.16070456813332595,0.1,0.008025169372558594,0.05980372428894043,0.050197307,1.79651,1.954844689049076,0.0,0.07156802769324196,0.0,300,0.10057854652404785,0.8783773028867103,0.8792040911916118,3300,0.6052024077328768,0.0
11,1.4434726238250732,0.6132796430569191,0.024190523666022187,0.6411864031547445,0.5746406122045494,0.0,0.16798128202091547,0.1,0.0054018497467041016,0.11957955360412598,0.052638218,2.6726055,1.8206881844498604,0.0,0.008328729781370107,0.0,300,0.1404895782470703,15.325331183754333,15.960702665183188,3600,0.6023059506993204,0.0
12,1.4163823127746582,4.636158788583341,4.099108136392438,9.708178493874149,0.5750223610107693,0.0,0.18855466361410955,0.1,0.012023210525512695,0.060256004333496094,0.05191203,0.8196308,2.1022352448632087,0.0,0.05862089629642918,0.0,300,0.13276267051696777,0.7600059848178652,0.7247471960387792,3900,0.6146340704235457,0.0
13,1.4147586822509766,6.846442665038207,6.519268655078114,15.640054409445083,0.5722235416207169,0.0,0.16646498133175414,0.1,0.09371495246887207,0.3694467544555664,0.049516235,1.26097,2.5766559868807084,0.0,0.08814986909055622,0.0,300,0.10195803642272949,0.8007567318845623,0.7243819157767826,4200,0.5995780072454061,0.0
14,1.4603219032287598,0.7295258195446236,0.16730885708267554,1.011748155334303,0.5851010519144233,0.0,0.1561784954548796,0.1,0.09325313568115234,0.09433245658874512,0.05138279,3.0675986,2.3919429701471,0.0,0.009897922132556906,0.0,300,0.12552332878112793,30.42504297143991,38.69279967742796,4500,18.635764384068924,0.0
15,1.4488611221313477,7.361556952468815,6.324193071347592,14.6182241754318,0.576144672091351,0.0,0.17448991218185625,0.1,0.032470703125,0.060172080993652344,0.050044622,1.0061204,2.8889043683792712,0.0,0.09168688897357144,0.0,300,0.16238784790039062,0.6831073330170288,0.6260498129638975,4800,0.6886035469113141,0.0
16,1.4915878772735596,8.447497003735496,8.226918887906477,19.869639160646418,0.6195439150359012,0.0,0.1732955532202775,0.1,0.0931088924407959,0.13500428199768066,0.049879953,1.0907794,3.4447636319148938,0.0,0.11282830131941224,0.0,300,0.04227328300476074,0.7277451358163181,0.641680446366021,5100,29.682848096399713,0.0
17,1.4665229320526123,4.130670437529874,6.107638605009625,14.70924776166172,0.5584212434165543,0.0,0.16569189925921537,0.1,0.09363174438476562,0.09045553207397461,0.04995733,1.7465851,3.513354312476392,0.0,0.055272663562117,0.0,300,0.1648111343383789,0.9304104449599083,0.9827804665180698,5400,0.644776911672993,0.0
18,1.419255256652832,9.662238426895787,9.165598195611226,20.731263320046025,0.5801267896622287,0.0,0.16633641680229347,0.1,0.003572225570678711,0.07913994789123535,0.050963845,0.9742165,4.128242723918332,0.0,0.12900741096629795,0.0,300,0.037813425064086914,0.6560005003318501,0.6457284142603886,5700,0.637193369244992,0.0
19,1.4757945537567139,8.937816577508686,8.338649166788443,17.657096518092594,0.5813065770034617,0.0,0.1708737035356729,0.1,0.013330221176147461,0.0678560733795166,0.049891345,1.2364032,4.609200109277367,0.0,0.11936625397704181,0.0,300,0.10143566131591797,0.6021942192025722,0.5702132752575594,6000,0.6086942809526495,0.0
20,1.47859787940979,8.488243793594759,9.04088329683024,22.637690375089154,0.5978884953486456,0.0,0.1648663206027379,0.1,0.04996156692504883,0.07456803321838379,0.049117077,1.0873631,4.997104477709106,0.0,0.1100140512447736,0.0,300,0.04042768478393555,0.638691576679179,0.623558312140549,6300,2.714411892678393,0.0
21,1.5298266410827637,15.878649959264378,11.847021229627844,32.75435584114072,0.5526110625181831,0.0,0.15992465286647467,0.1,0.09370183944702148,0.09809565544128418,0.049647126,0.9306743,6.085259025864634,0.0,0.20522362594893984,0.0,300,0.1644423007965088,0.5305050934912263,0.42991511568274243,6600,0.6273730927065876,0.0
22,1.5069921016693115,11.09053280475565,6.469064500740711,17.194857964738247,0.6030452632535362,0.0,0.16554730862760966,0.1,0.005544185638427734,0.556776762008667,0.050229367,0.8127653,6.585786403753735,0.0,0.14473287972026383,0.0,300,0.1180274486541748,0.4470479516131091,0.518289619400659,6900,0.6104256875626091,0.0
23,1.5567870140075684,0.5935451076622172,0.023604205068892523,0.6263016456272743,0.5617042387954878,0.0,0.1641418362748841,0.1,0.0032324790954589844,0.15387940406799316,0.048892356,1.8967187,5.986562274144584,0.0,0.008115426362916194,0.0,300,0.09492731094360352,1915.6852595821679,922.6038119874426,7200,0.5817844633436966,0.0
24,1.5715034008026123,13.032281987770318,7.936531073127183,20.121997666315178,0.6086168749272574,0.0,0.16342474365026907,0.1,0.0043430328369140625,0.12717080116271973,0.049955774,0.95713013,6.691134245507158,0.0,0.16727503262723892,0.0,300,0.1853652000427246,0.4621697523654427,0.5175127391982518,7500,0.5913884889194402,0.0
25,1.5199220180511475,12.652053607149726,4.016002211400613,18.584874128467817,7.712754738693099,0.0,0.17463560534134798,0.1,0.00985407829284668,0.31202220916748047,0.05128667,0.6987647,7.287226181671414,0.0,0.15555721971895994,0.0,300,0.2187364101409912,0.3674250563973585,0.3554635963102587,7800,0.5922444599982607,0.0
26,1.5483877658843994,2.0965108505297168,2.629975472511125,6.651745558609925,0.5673285501111556,0.0,0.16633047007371504,0.1,0.09591269493103027,0.08163189888000488,0.05031203,1.2515028,6.768154648557245,0.0,0.028154672203049277,0.0,300,0.09224343299865723,3.77070621943593,3.546209455729308,8100,0.5879936582181503,0.0
27,1.6091415882110596,8.353554214513654,4.806571571114027,13.595868138761476,0.616423002266122,0.0,0.1788848035771338,0.1,0.0037806034088134766,0.32594823837280273,0.051293228,0.85142326,6.926694605152886,0.0,0.10822346546772443,0.0,300,0.1189117431640625,0.38578335128321156,0.3947132924055174,8400,0.5814563305285417,0.0
28,1.560683012008667,2.3884507694975636,3.0888138877702613,7.738064539438057,0.569863174709656,0.0,0.14413672712283684,0.1,0.005071878433227539,0.19400954246520996,0.0479863,2.531051,6.472870221587354,0.0,0.0320388664613604,0.0,300,0.22771310806274414,2.7691622519164465,2.259838087589373,8700,0.5753264053748329,0.0
29,1.4465501308441162,8.100657760420404,13.015575375952462,30.64427922497347,0.5695472992145445,0.0,0.15919479130431946,0.1,0.005327701568603516,0.1627635955810547,0.050813034,1.7372842,6.635648975470659,0.0,0.10820030897378792,0.0,300,0.1024942398071289,0.768340513855669,0.7726459615177991,9000,0.575952829951036,0.0
30,1.4388008117675781,8.140477513947415,8.359220715500694,20.710167591234647,0.5619812997108778,0.0,0.1682812079556636,0.1,0.0031409263610839844,0.06183600425720215,0.050029695,1.2739091,6.786131829318334,0.0,0.10869665545840629,0.0,300,0.12077522277832031,0.6203851495754741,0.6155248019751376,9300,0.5796142417903589,0.0
31,1.5025317668914795,8.810363767078226,5.313246168967642,13.790037151181847,0.6072609595635458,0.0,0.1621004489502373,0.1,0.003361225128173828,0.07387495040893555,0.048566617,1.1401664,6.988555023094323,0.0,0.11433880713979987,0.0,300,0.05909562110900879,0.48000079704233134,0.4565391006005515,9600,0.5807725986144102,0.0
32,1.4625203609466553,7.883541960684928,8.222526703072214,20.595195195411524,0.5969029553631533,0.0,0.1524781173000101,0.1,0.06696915626525879,0.12624573707580566,0.049021844,2.1758375,7.0780537168533835,0.0,0.1019791908872053,0.0,300,0.08935022354125977,0.6044250480975596,0.583084188141119,9900,0.5771222751220982,0.0
33,1.4725449085235596,4.607460161304644,4.912963140938182,12.631160394158183,0.5879546177962099,0.0,0.14705536487141854,0.1,0.003108978271484375,0.058774709701538086,0.05030489,3.5938473,6.83099436129851,0.0,0.061637365644900445,0.0,300,0.024239540100097656,0.8837188250041541,0.8716073104169703,10200,0.5945636310211827,0.0
34,1.480484962463379,7.3677327555495085,7.800812027029071,19.60916037891397,0.5865267233270687,0.0,0.15916854293461,0.1,0.0030853748321533203,0.2188253402709961,0.050536085,2.1774895,6.88466820072361,0.0,0.09507833206807191,0.0,300,0.11086034774780273,0.5952318426215998,0.5945048182662035,10500,0.601618080744963,0.0
35,1.485933542251587,13.351829718325664,9.246827926917785,29.11166835698767,6.622163982395173,0.0,0.15425979472196222,0.1,0.011735677719116211,0.0671854019165039,0.05056996,1.3612748,7.5313843524838155,0.0,0.1748673177898827,0.0,300,0.10649299621582031,0.6062091438160033,0.5776761074350307,10800,0.591135720351051,0.0
36,1.5210881233215332,11.388387851221204,11.097274556132877,25.747747639812978,0.5560507806798817,0.0,0.16836104157527462,0.1,0.0034279823303222656,0.1536087989807129,0.05015873,0.9401399,7.917084702357554,0.0,0.152037864472057,0.0,300,0.0918431282043457,0.6138925290338273,0.5965238001452458,11100,0.5825838761452741,0.0
37,1.5275845527648926,8.738471765706816,2.995570638026925,13.070522038746883,4.602345819583412,0.0,0.14822486833022466,0.1,0.00568842887878418,0.08831620216369629,0.050288744,1.0317491,7.999223408692481,0.0,0.11004271155325732,0.0,300,0.17217326164245605,0.2488883156378069,0.2520338891553356,11400,0.5884515769039311,0.0
38,1.578702449798584,17.476647545114474,13.59157830846788,37.89153613931423,0.5652358759790709,0.0,0.16754293127521963,0.1,0.0031714439392089844,0.7411391735076904,0.05043551,0.8616085,8.94696582233468,0.0,0.23322724620873195,0.0,300,0.06884980201721191,0.5331884402327903,0.47314028778294037,11700,0.5875641275529313,0.0
39,1.5681416988372803,6.4634508508985675,6.977166744659319,17.814518355794753,0.6213661638789773,0.0,0.17023185988828507,0.1,0.07675385475158691,0.06042122840881348,0.049346954,0.81352496,8.69861432519107,0.0,0.08299774637389638,0.0,300,0.07826519012451172,0.8172423927409178,0.8551608628242352,12000,0.6129433130989838,0.0
40,1.5080208778381348,15.295734484729868,6.817478941594665,25.630819560839573,7.8584251120953255,0.0,0.16506337739322474,0.1,0.003143310546875,0.07834529876708984,0.04949842,0.90023273,9.358326341144949,0.0,0.19744652856705017,0.0,300,0.14557528495788574,0.32470112212711194,0.31176047891720066,12300,9.631274419987585,0.0
41,1.5444705486297607,3.5473351385968828,2.845078928301544,7.016579860474385,0.5804058539392409,0.0,0.16100995141706947,0.1,0.03337216377258301,0.2638978958129883,0.049834415,1.0138143,8.777227220890143,0.0,0.04750217241885166,0.0,300,0.17975473403930664,5.741005093134493,3.967634919674268,12600,6.583023177336337,0.0
42,1.5647552013397217,16.774211806451238,3.2457404769723768,20.888294565222008,13.59388783021346,0.0,0.16498164226340684,0.1,0.03739023208618164,0.06673645973205566,0.05052789,0.71223885,9.576925679446253,0.0,0.2238502291320914,0.0,300,0.1572105884552002,0.26347716569448537,0.2925599031889059,12900,20.610697964548283,0.0
43,1.550175666809082,13.27692020345101,9.08245555827916,26.247205635130317,0.5630841467229755,0.0,0.17384242729436475,0.1,0.0050160884857177734,0.09647393226623535,0.049163353,0.8745982,9.94692513184673,0.0,0.177227005032841,0.0,300,0.25788116455078125,0.45088821237153326,0.43646705650072115,13200,21.60519603796821,0.0
44,1.4577767848968506,23.345478596881797,2.747577092129566,25.666204752638006,18.785244645306467,0.0,0.1670924204118311,0.1,0.0032842159271240234,0.13026165962219238,0.049750686,0.6352,11.286780478350238,0.0,0.3045025652504698,0.0,300,0.13605785369873047,0.3877828889136952,0.2672927132775983,13500,13.642907325738642,0.0
45,1.4678761959075928,6.948862219716212,10.769367108892796,25.601069179528103,0.6439096948428623,0.0,0.16064709300224803,0.1,0.015455961227416992,0.25716567039489746,0.050008323,1.1758633,10.852988652486836,0.0,0.08950032272354608,0.0,300,0.18825626373291016,0.9482563852414334,1.0302907212083532,13800,0.6771785848312547,0.0
46,1.4617605209350586,4.7170993467720885,4.18664941880082,9.7885174324824,0.576454605611557,0.0,0.16083391095661567,0.1,0.00339508056640625,0.06162667274475098,0.049655776,1.1649138,10.239399721915362,0.0,0.06305705387442666,0.0,300,0.17465615272521973,3.4367514351620603,1.9909536068890392,14100,0.6327882265044967,0.0
47,1.4066166877746582,7.737792424831866,5.64807013659858,14.709081713448429,0.6359644870792722,0.0,0.1609398127519835,0.1,0.0055501461029052734,0.14789199829101562,0.05031083,1.130229,9.989238992207012,0.0,0.10330407640424419,0.0,300,0.14914941787719727,0.5655734464445358,0.44041626462256805,14400,18.63237571364573,0.0
48,1.496781349182129,6.240888807545576,7.373438906846272,18.611078136191306,0.5761812477103001,0.0,0.16379216918770784,0.1,0.09141016006469727,0.9140245914459229,0.050058305,1.018008,9.614403973740869,0.0,0.08341557356231831,0.0,300,0.24646353721618652,0.734558986956944,0.6513952696244139,14700,0.6066121605677423,0.0
49,1.553699016571045,14.35127834099382,4.152541091506361,19.592927370924777,8.05204922258382,0.0,0.15831772406852798,0.1,0.09328579902648926,0.08869266510009766,0.049834736,0.8758559,10.088091410466163,0.0,0.19151799570546943,0.0,300,0.16710591316223145,0.41282965620549017,0.42707877751286444,15000,0.5950689849402312,0.0
50,1.5113940238952637,11.742671300597891,8.491330278251324,23.212587662922534,0.563308111951269,0.0,0.15014938766665253,0.1,0.09312558174133301,0.07235121726989746,0.05040232,1.3264693,10.253549399479336,0.0,0.15335151607175168,0.0,300,0.16709637641906738,0.5030020398666347,0.4721428261029536,15300,0.5950656478803034,0.0
51,1.5138108730316162,15.140973555627852,13.02351270628922,35.912759814459974,0.5809920041422718,0.0,0.16350563408061183,0.1,0.04856419563293457,0.13301324844360352,0.049536083,1.1263239,10.74229181509419,0.0,0.2020658752020814,0.0,300,0.14187049865722656,0.5732628485558454,0.5284610756237834,15600,0.5920496334319212,0.0
52,1.4995572566986084,14.081733262825407,8.354752406629016,23.939586176281033,0.878454432865027,0.0,0.15931517393054812,0.1,0.005471944808959961,0.1629197597503662,0.050020963,0.9410903,11.076235959867311,0.0,0.1844720786839882,0.0,300,0.10172152519226074,0.41049528932275514,0.37860072037300607,15900,9.601641687177532,0.0
53,1.5067992210388184,23.262431132512905,15.323746220474533,42.99851660948715,0.6168653223929018,0.0,0.16620448802631488,0.1,0.003830432891845703,0.06270432472229004,0.049705766,0.78048986,12.294855477131872,0.0,0.30703092554635464,0.0,300,0.15987205505371094,0.5327810329152325,0.44278352800972987,16200,0.6092012045769896,0.0
54,1.5343070030212402,6.367064540687043,5.467907066195021,12.751380900478646,0.5782656617163402,0.0,0.1615709625639797,0.1,0.0797264575958252,0.23280787467956543,0.04899689,0.95779824,11.70207638348739,0.0,0.08508645028709852,0.0,300,0.020374774932861328,1.6789791673617955,1.8403134439552498,16500,0.5879928620238776,0.0
55,1.4663939476013184,12.296811353468364,13.222866214667905,32.76101631596012,0.6090255250002994,0.0,0.1583768683884835,0.1,0.09610629081726074,0.3001723289489746,0.04930971,0.85611784,11.761549880485488,0.0,0.1608245033152485,0.0,300,0.16873788833618164,0.5793605397733235,0.547730796257027,16800,0.5894802634735485,0.0
56,1.5525496006011963,11.41295492692665,10.831972463620637,23.784203727613395,0.6095118063294649,0.0,0.1631951569607441,0.1,0.01596808433532715,0.06257414817810059,0.04951453,1.1748881,11.726690385129604,0.0,0.14903656669623624,0.0,300,0.0813910961151123,0.521429369817411,0.5170601879056851,17100,0.5716617738551129,0.0
57,1.5684263706207275,13.888173740748751,10.881019247969771,30.590555778653634,0.5912482495992806,0.0,0.1586732160349634,0.1,0.0049724578857421875,0.13714385032653809,0.04941697,1.0495921,11.942838720691519,0.0,0.17869678668071798,0.0,300,0.12617874145507812,0.47146800949976003,0.46440421062869774,17400,0.567709017591212,0.0
58,1.544299840927124,14.573646356622438,11.499951053499132,27.157295874865124,0.6725132278030688,0.0,0.15699076669525752,0.1,0.011514663696289062,0.06593179702758789,0.04966583,0.9198058,12.20591948428461,0.0,0.19449421842712394,0.0,300,0.1507270336151123,0.4506176478272431,0.44062809705671613,17700,0.5786961554653025,0.0
59,1.5739421844482422,14.251416966660617,9.787538301135992,27.706947811475416,0.5753107416714425,0.0,0.1642845324009212,0.1,0.014939308166503906,0.29967260360717773,0.04949486,0.7711043,12.410469232522212,0.0,0.1867974550411385,0.0,300,0.1566460132598877,0.3826242252998545,0.3789383879046703,18000,0.6016740697775856,0.0
60,1.6285791397094727,10.617835499951351,7.436642572524006,19.57320912069703,0.6218568622581183,0.0,0.1515172671868308,0.1,0.0924537181854248,0.06586003303527832,0.04905425,1.1501932,12.231205859265128,0.0,0.13844090908073597,0.0,300,0.10504627227783203,0.4352677929491174,0.4270426302799865,18300,0.5754597728466686,0.0
61,1.5609312057495117,8.542091679036986,9.169100158118566,23.046790580289056,0.6338488059957276,0.0,0.16209612804294984,0.1,0.005341529846191406,0.3306851387023926,0.050387926,1.0991727,11.862294441242314,0.0,0.11075575028865074,0.0,300,0.10469818115234375,0.7065343492392735,0.6488297346766911,18600,0.6027623293625392,0.0
62,1.5886003971099854,17.48343603997186,12.928340063340952,33.66740310386898,0.6749179184295453,0.0,0.16199825134382126,0.1,0.09328627586364746,0.3290247917175293,0.050158564,0.9275164,12.42440860111527,0.0,0.2333101702457288,0.0,300,0.18624401092529297,0.47430391865609417,0.47663835509779634,18900,0.5670796061899476,0.0
63,1.5323684215545654,15.318735524521882,5.07984818621981,23.69306936534461,10.219158624310639,0.0,0.1523526999281259,0.1,0.003506898880004883,0.3819758892059326,0.049619403,0.8833775,12.71384129345593,0.0,0.2010666772649479,0.0,300,0.22919058799743652,0.25606280295536255,0.23631499216429297,19200,0.5665152002513821,0.0
64,1.5015463829040527,24.72278402809316,3.8473546816647457,31.32859794741264,21.716345120620396,0.0,0.1649777184761911,0.1,0.008035659790039062,0.05991673469543457,0.050285295,0.7386272,13.914735566919653,0.0,0.32314057750413666,0.0,300,0.1617565155029297,0.3582487324141082,0.23508194832084137,19500,0.5672017039053819,0.0
65,1.5273103713989258,19.136745042384614,9.206508424090305,34.95242892700286,12.355990222206122,0.0,0.16265183376568154,0.1,0.0030355453491210938,0.06424522399902344,0.049608286,1.0746117,14.436936514466149,0.0,0.2486814999046556,0.0,300,0.24270176887512207,0.238049590417104,0.24599881708132526,19800,0.605359134706437,0.0
66,1.502281904220581,12.64484190233755,13.24637274939507,34.05755908152237,0.7043534758549161,0.0,0.16667573724720514,0.1,0.0031409263610839844,0.059610843658447266,0.04930027,0.8971303,14.257727053253289,0.0,0.16878472386184806,0.0,300,0.04624533653259277,0.840007742882139,0.7406946739465858,20100,0.5584373150938912,0.0
67,1.549851894378662,10.63506294426635,6.096551778143468,15.683972167236776,0.6426260812551368,0.0,0.1579636851207039,0.1,0.09346342086791992,1.5443580150604248,0.050280407,1.162028,13.895460642354594,0.0,0.14197630706630734,0.0,300,0.06310701370239258,0.8879158752354671,0.46760651382544394,20400,0.5525000275095104,0.0
68,1.5587739944458008,21.429789702014414,8.6851721028386,28.778726341657418,6.618941424769791,0.0,0.157137176950955,0.1,0.10046243667602539,0.49752235412597656,0.05100815,0.7229564,14.648893548320578,0.0,0.2792656074051882,0.0,300,0.15775418281555176,0.2793502752066117,0.31568255079358604,20700,0.5494606754204355,0.0
69,1.5552635192871094,8.51856308467018,7.9209637895079545,16.960808414454007,0.5709965184546227,0.0,0.1639924920809231,0.1,0.003123760223388672,0.1673870086669922,0.049830996,0.90484184,14.035860501955538,0.0,0.11377261047947791,0.0,300,0.19174790382385254,0.6422294343024907,0.6005256531099732,21000,0.5501957166080358,0.0
70,1.584214210510254,16.53272470885108,4.782747149179522,24.63247926431713,12.526774555509368,0.0,0.15885550369369408,0.1,0.09331798553466797,1.2634742259979248,0.050509527,0.8527469,14.285546922645093,0.0,0.21729728114988872,0.0,300,0.20612692832946777,0.1745213999653615,0.1716498410118127,21300,0.5498643964371602,0.0
71,1.562502145767212,14.87427314183383,10.650631620985566,30.79548602179756,0.8369904065884232,0.0,0.1658276600300331,0.1,0.003726482391357422,0.07793760299682617,0.049991246,0.7788925,14.344419544563968,0.0,0.19852699695480153,0.0,300,0.15164566040039062,0.3685365279486079,0.35908647752188855,21600,0.5495913861384427,0.0
72,1.5835809707641602,25.2674321661213,10.171191566738857,37.279298198524785,9.210571972882422,0.0,0.1722255273268476,0.1,0.0030374526977539062,0.28057384490966797,0.050711896,0.66138166,15.436720806719702,0.0,0.3270099314858325,0.0,300,0.14128947257995605,0.36474648387146025,0.2784662675546002,21900,0.5508571776409443,0.0
73,1.5649774074554443,30.08527321660857,9.894559212251991,38.599862500940525,13.60183203095631,0.0,0.16388637722912655,0.1,0.04232954978942871,0.1216583251953125,0.05033861,0.65579945,16.901576047708588,0.0,0.3880091655816154,0.0,300,0.1252748966217041,0.32635760582166967,0.17567051335672318,22200,0.5487310526332237,0.0
74,1.5962462425231934,7.753143065942758,7.149794300096864,19.615553215421105,0.5555476886663397,0.0,0.15471099753618064,0.1,0.09552812576293945,0.4140815734863281,0.049814187,1.3925941,15.986732749532004,0.0,0.10356607598582468,0.0,300,0.14887428283691406,3.07967116858505,2.662702232479592,22500,0.547853598604256,0.0
75,1.5955114364624023,13.35949409618392,4.611814110234255,20.948582515468367,8.64326331303984,0.0,0.16018290593275933,0.1,0.019660234451293945,0.06012558937072754,0.049722582,1.5535676,15.724008884197197,0.0,0.17488963996069823,0.0,300,0.25166869163513184,0.6362402902015364,0.2478243217174096,22800,0.5481081965837837,0.0
76,1.623504877090454,12.006756509760349,3.30412871084507,16.71291259001249,7.6637017949210815,0.0,0.1649936134178268,0.1,0.09190654754638672,0.11841845512390137,0.04959431,0.66670614,15.352283646753511,0.0,0.15362906049638497,0.0,300,0.16410565376281738,0.3189375287074761,0.21063628395472442,23100,0.5481258236506239,0.0
77,1.616241693496704,12.688982996362814,10.243038548225469,23.820312737198062,0.558224830646439,0.0,0.16548118073682286,0.1,0.09414410591125488,0.7467048168182373,0.049787644,0.897863,15.085953581714442,0.0,0.1693922717487678,0.0,300,0.1883697509765625,0.414785188251644,0.4214758182869471,23400,0.5475819257941875,0.0
78,1.6323096752166748,13.172643525732742,12.651472603585288,28.70072331640261,0.5751558996647689,0.0,0.16135835931804185,0.1,0.005360126495361328,0.22160911560058594,0.05038697,0.9786367,14.894622576116273,0.0,0.17584042487076876,0.0,300,0.24786853790283203,0.48758381556796837,0.4893859623945464,23700,0.5474962473323061,0.0
79,1.672132968902588,19.4499300196674,7.561441409849268,25.79325937661006,6.598285061904959,0.0,0.1614706759188179,0.1,0.09414386749267578,0.4576544761657715,0.049897313,0.68230516,15.350153320471385,0.0,0.25287031374693963,0.0,300,0.16501212120056152,0.3329440138939021,0.29724958533693563,24000,0.5475557681279412,0.0
80,1.5548698902130127,24.186089181875733,10.741838855813661,39.71243156164839,12.114619760895057,0.0,0.17154652649979227,0.1,0.09461426734924316,0.0723423957824707,0.049559265,0.73016095,16.23374690661182,0.0,0.31268196751199695,0.0,300,0.24666595458984375,0.42146380223527397,0.3249234143120571,24300,0.5477629075706344,0.0
81,1.5595424175262451,18.632419121082744,14.262908976224296,35.86211646604592,0.6083666819892799,0.0,0.15772382596266155,0.1,0.03528785705566406,0.060305118560791016,0.049590282,0.8707186,16.473614128058912,0.0,0.2419624080855476,0.0,300,0.0857996940612793,0.3823059575320713,0.35165619379469537,24600,0.5475478339597543,0.0
82,1.5329515933990479,22.50949100500841,8.427670192590165,34.66341537249087,11.656772962817717,0.0,0.163347381449613,0.1,0.00489354133605957,0.058622121810913086,0.05017429,1.1691006,17.077201815753863,0.0,0.29694727329645726,0.0,300,0.165787935256958,0.26306667573606834,0.24854218625517838,24900,0.547730157536573,0.0
83,1.5727767944335938,30.599564591280842,5.962144570269479,37.07394082691123,23.27799165679378,0.0,0.16765801573254627,0.1,0.09272098541259766,0.3490138053894043,0.05005961,1.0105908,18.429438093306562,0.0,0.40150849011426576,0.0,300,0.11039042472839355,0.14533039532474906,0.09649848631313525,25200,0.5480268523644757,0.0
84,1.6263465881347656,14.629985441785475,10.549152387278106,29.669655564784474,0.6416718527690439,0.0,0.15942489786445094,0.1,0.09368753433227539,1.0378992557525635,0.050726064,0.88947827,18.049492828154452,0.0,0.19192457722572015,0.0,300,0.25786423683166504,0.6834084995298944,0.6317909175244548,25500,0.5485411393128733,0.0
85,1.5922181606292725,12.352237823666375,6.930989649277088,18.199343797252123,0.5553980921163997,0.0,0.1541814206864663,0.1,0.06761407852172852,0.06312036514282227,0.049858756,0.91809416,17.479767327705645,0.0,0.16486719235182545,0.0,300,0.25574254989624023,1.0154495466777698,0.5346814951356285,25800,0.548688225139318,0.0
86,1.6393845081329346,10.23716929227005,6.534803425664514,16.66437510776141,0.5504193231011562,0.0,0.15476869978571903,0.1,0.09331011772155762,0.9175190925598145,0.050411437,1.1103644,16.755507524162084,0.0,0.13325982382926102,0.0,300,0.1180121898651123,1.2461400104575597,0.5877802037582044,26100,0.5480894435169511,0.0
87,1.6152288913726807,16.466055764374197,15.215483280016832,39.73932987796748,0.5863756776012771,0.0,0.16053063594879796,0.1,0.014181375503540039,0.46697354316711426,0.050173488,0.87686574,16.726562348183293,0.0,0.21641700320978285,0.0,300,0.2238759994506836,0.5247958825692226,0.5474789339340869,26400,0.5480114884418512,0.0
88,1.5954203605651855,12.20474191733761,8.19069685922904,22.726525119315358,1.260442468985034,0.0,0.150722352784392,0.1,0.06307077407836914,0.2722165584564209,0.049698155,1.4092189,16.274380305098727,0.0,0.1629088275487644,0.0,300,0.19087505340576172,0.37355324887664487,0.36569377401864306,26700,0.5478395624628344,0.0
89,1.6301932334899902,14.92735401329164,15.081466872311191,35.80133551521732,0.5532812008597346,0.0,0.15512829750193208,0.1,0.003401041030883789,0.6049072742462158,0.05016236,0.86211395,16.13967767591802,0.0,0.19256910180597311,0.0,300,0.17423272132873535,0.5372175691717324,0.5339204811362297,27000,0.5481236372693602,0.0
90,1.6420722007751465,18.356099893455223,7.678950544839936,26.09519922485431,9.61455838556764,0.0,0.16171279444506864,0.1,0.020965576171875,0.4928722381591797,0.049672402,1.061937,16.361319897671738,0.0,0.24160645731784158,0.0,300,0.13538765907287598,0.3539716001257194,0.31461207718564077,27300,0.5480386983227269,0.0
91,1.6602113246917725,9.746729815799611,15.869797001524939,37.234000940540696,0.5639575151916382,0.0,0.14608363257279114,0.1,0.04326200485229492,0.12903928756713867,0.050177883,1.8609731,15.699860889484524,0.0,0.13016188440556112,0.0,300,0.10615372657775879,0.7171286470974617,0.7137643495449802,27600,0.5477249747702938,0.0
92,1.646531343460083,18.464279858510643,11.088926089528977,30.959427920344382,0.5560823820832368,0.0,0.1569745518051838,0.1,0.09325790405273438,0.3259572982788086,0.050422955,0.8373482,15.976302786387137,0.0,0.24305959352295942,0.0,300,0.12108635902404785,0.3336148338606493,0.29827405234530685,27900,0.547861693266764,0.0
93,1.6812865734100342,19.222312027348703,4.893246576693495,25.297119163096852,12.044889351544635,0.0,0.1516166853074221,0.1,0.003080606460571289,0.4993321895599365,0.04994709,1.225768,16.300903710483293,0.0,0.24983500935982234,0.0,300,0.1882181167602539,0.16108923914145976,0.13793906129120242,28200,0.547692048344243,0.0
94,1.667712926864624,11.393916218509117,12.043799834931875,29.762948761804573,0.5816059105450264,0.0,0.1627902540947873,0.1,0.006184816360473633,0.06313586235046387,0.049479794,0.90920633,15.810204961285876,0.0,0.1487871944435897,0.0,300,0.1746823787689209,0.4906793730096736,0.4916502647932547,28500,0.5475409499807647,0.0
95,1.673593521118164,19.288842495297434,14.79898670358811,35.787576337557226,0.6590566586023561,0.0,0.16672960948852197,0.1,0.00704646110534668,0.13145065307617188,0.049362693,0.6327745,16.158068714687033,0.0,0.25072008267225226,0.0,300,0.2619917392730713,0.35064032030507464,0.33879186947992657,28800,0.5476570306927167,0.0
96,1.7642953395843506,15.721655867038786,6.9229153420588805,22.705924401385765,7.62208509995678,0.0,0.17526167040935248,0.1,0.09883856773376465,0.11474609375,0.049200807,0.97697234,16.11442742992221,0.0,0.20982714699215416,0.0,300,0.16180133819580078,0.3168784963137307,0.30327126411527533,29100,0.5474451380405584,0.0
97,1.8701872825622559,20.10220681228949,11.589884936259192,30.96988015538623,0.5695212328306654,0.0,0.14905639970898668,0.1,0.09498047828674316,0.22794580459594727,0.05031353,0.9281009,16.513205368158935,0.0,0.26823523311355707,0.0,300,0.1923537254333496,0.27358426833518384,0.2704350365722525,29400,0.5475579379386811,0.0
98,1.8172812461853027,19.592045654298026,3.6150567994624314,23.242781282849897,14.044362991015626,0.0,0.17137175291471152,0.1,0.09109973907470703,0.059248924255371094,0.05033051,0.7239852,16.821089396772845,0.0,0.26137256478506266,0.0,300,0.2624022960662842,0.13447508033967465,0.122890180586769,29700,0.5473501311068835,0.0
99,1.630181074142456,23.52275748895098,6.768639693937498,30.76137036404314,16.54123170653773,0.0,0.1719930641729822,0.1,0.09934568405151367,0.31175947189331055,0.049700063,0.8880419,17.49125620599066,0.0,0.3138371993405969,0.0,300,0.1877608299255371,0.18714606914509155,0.16815829966520038,30000,0.5471121686068515,0.0
100,1.66459321975708,20.314891542747194,13.667522276160113,38.904331037433245,0.5516500821417,0.0,0.156091730350929,0.1,0.09990239143371582,0.09447598457336426,0.050072186,0.8361635,17.773619739666312,0.0,0.2677367448808625,0.0,300,0.15318703651428223,0.3176197267478403,0.2987017876893015,30300,0.5471730762316767,0.0
101,1.6202077865600586,12.19189102444163,14.367565734434436,35.74691970256583,0.5536157747587466,0.0,0.1602561067669107,0.1,0.1008760929107666,1.1199965476989746,0.049568128,0.88729715,17.215446868143843,0.0,0.1594276299376259,0.0,300,0.247481107711792,0.6976796411985002,0.6712951922113559,30600,0.5471895048549006,0.0
102,1.6146206855773926,5.718182692333888,5.51985784843503,13.946107659595606,0.5666703796330461,0.0,0.15243638970251608,0.1,0.0932624340057373,0.8683211803436279,0.04946894,1.6496105,16.065720450562846,0.0,0.07644636628375664,0.0,300,0.28018975257873535,3.7886989367171524,2.253536115493532,30900,0.547192597592283,0.0
103,1.7277743816375732,17.624741536803405,11.27437089843666,32.033380879007915,0.5708968383717862,0.0,0.1571059649722375,0.1,0.0993952751159668,0.7296257019042969,0.049954057,0.69792783,16.221622559186905,0.0,0.228523687581007,0.0,300,0.26737356185913086,0.29408434418040935,0.32806612007819114,31200,0.5471955152191231,0.0
104,1.6425938606262207,17.683947545709582,12.283376690737294,33.61183883339922,0.5641908000156766,0.0,0.1662961791128466,0.1,0.10022616386413574,0.3801898956298828,0.049547836,0.7524221,16.367855057839172,0.0,0.23265822769001068,0.0,300,0.26170921325683594,0.48405283907952273,0.489356651691513,31500,0.54731955399839,0.0
105,1.629753828048706,8.917119860432953,10.798724544101029,26.9492404509816,0.5572385016504711,0.0,0.16088439325706302,0.1,0.002997875213623047,0.9508798122406006,0.049737312,0.92412394,15.62278153809855,0.0,0.11909278008828766,0.0,300,0.253812313079834,0.5210317024676283,0.5140521982015905,31800,0.5472835435551889,0.0
106,1.7498438358306885,14.42134291364754,14.437975317862277,34.08425481906469,0.5797071806445115,0.0,0.1611046010532751,0.1,0.09759712219238281,0.7872040271759033,0.049400534,0.7680456,15.50263767565345,0.0,0.19247310629683878,0.0,300,0.2571067810058594,0.4472048607982738,0.43777561085022737,32100,0.5472685277881411,0.0
107,1.6906356811523438,19.266278132900457,9.715987322509923,35.67572424001912,10.824772899809199,0.0,0.16174141146327906,0.1,0.0923316478729248,0.3111739158630371,0.049695183,0.8274513,15.879001721378152,0.0,0.2537527076535196,0.0,300,0.2027437686920166,0.28795898948667636,0.2599301958140682,32400,0.5471560514766899,0.0
108,1.6654620170593262,23.269086285772683,13.755909523471487,37.68577334932313,0.5955005407343107,0.0,0.15841802830079327,0.1,0.10219812393188477,0.5125167369842529,0.04941107,0.70996875,16.618010177817606,0.0,0.3071236895472787,0.0,300,0.29435086250305176,0.34325973666857995,0.27569645770637574,32700,0.547053488161824,0.0
109,1.7006309032440186,17.843453181572777,11.911764585617144,30.754874978537913,0.5716236566681392,0.0,0.15510533047798714,0.1,0.09898805618286133,0.1851029396057129,0.05024458,0.89114714,16.740554478193122,0.0,0.2347852072406949,0.0,300,0.2565653324127197,0.28379453757154566,0.287542273587354,33000,0.5470967682447353,0.0
110,1.7369859218597412,20.715142420714418,9.625058540640657,35.78328083817816,9.740125410307416,0.0,0.1675775618759095,0.1,0.07744050025939941,0.28206419944763184,0.049874917,0.8565798,17.138013272445253,0.0,0.2697314320371014,0.0,300,0.26424455642700195,0.23008497143964324,0.22611256379183814,33300,0.5470685492124272,0.0
111,1.6916522979736328,25.729446422390865,10.87400345122966,36.31873615877633,11.58175262258192,0.0,0.17146364581959384,0.1,0.04277825355529785,0.0650944709777832,0.04997142,0.7179342,17.997156587439815,0.0,0.3395034514532501,0.0,300,0.1776437759399414,0.2407286251316644,0.22673743763641524,33600,0.5469919123119367,0.0
112,1.6639184951782227,12.867310199021924,12.869117979104391,30.622953894812234,0.5833140768569273,0.0,0.15888543686276113,0.1,0.045102596282958984,1.2377572059631348,0.04965983,0.8558236,17.484171948598025,0.0,0.1684364979324565,0.0,300,0.2830955982208252,0.6954992224323829,0.6234330820663954,33900,0.5469851624998674,0.0
113,1.5925211906433105,14.471871923149557,3.077481524230213,18.780079805656108,10.740000584490067,0.0,0.17426490002822526,0.1,0.09224843978881836,0.12591814994812012,0.049387034,0.8055089,17.182941946053177,0.0,0.18982940456232683,0.0,300,0.12613558769226074,0.5540072067103615,0.281578600026293,34200,0.5470611664256656,0.0
114,1.6591413021087646,17.488962802112397,8.969034094370592,26.976910597977376,6.818784153582972,0.0,0.15238223465607292,0.1,0.0031728744506835938,0.062166690826416016,0.04963011,0.79523826,17.2135440316591,0.0,0.2300571259815399,0.0,300,0.0576021671295166,0.2527822643195552,0.27874881219712344,34500,0.5471326935095558,0.0
115,1.603203296661377,12.720670800193519,7.15840648366657,24.663951635471754,6.8075825688669465,0.0,0.1681922928954385,0.1,0.09513306617736816,0.2121131420135498,0.050077386,0.905533,16.764256708512544,0.0,0.16981293932390057,0.0,300,0.26338768005371094,0.3482371033160093,0.3135051838954003,34800,0.5472302916851773,0.0
116,1.6379311084747314,23.826447255487246,6.528835971044155,34.84514254430024,17.832416658056268,0.0,0.1586676348595829,0.1,0.010745525360107422,0.06931352615356445,0.05047965,1.2321881,17.470475763210015,0.0,0.3178889632064388,0.0,300,0.24721693992614746,0.30034915391996175,0.27724890130020907,35100,0.5472093845143722,0.0
117,1.7220940589904785,8.407490274231664,8.479775081630123,20.883809864091848,0.5791187538038024,0.0,0.1653523420003803,0.1,0.04606056213378906,0.07384276390075684,0.04991268,0.8257875,16.564177214312178,0.0,0.11230575382694938,0.0,300,0.2583916187286377,0.7553826290097502,0.7796361295064497,35400,0.5472859476642479,0.0
118,1.7466449737548828,13.730949156863176,12.808874824154666,34.92792856401172,0.575871565930876,0.0,0.1634999701849581,0.1,0.05378365516662598,0.07110404968261719,0.04933641,1.238373,16.280854408567276,0.0,0.17995118294149803,0.0,300,0.25760746002197266,0.5284563706768313,0.5185549691247218,35700,0.5474115396470937,0.0
119,1.7197566032409668,16.287663819278805,15.681788123589568,32.84592802561674,0.5566742411689556,0.0,0.1608405819770631,0.1,0.009944677352905273,0.3035247325897217,0.04941163,0.7261407,16.28153534963843,0.0,0.21403839087858484,0.0,300,0.06416797637939453,0.4859283095856438,0.47520144844083134,36000,0.5475087323470218,0.0
120,1.6461272239685059,12.312286021030573,7.055266467720562,17.89013548392973,0.5872011547545576,0.0,0.15501783609885764,0.1,0.0033512115478515625,0.11734271049499512,0.050227683,0.8783356,15.884610416777642,0.0,0.16431359404035178,0.0,300,0.16636967658996582,0.33965829694963307,0.3368743640015586,36300,0.5480659387042308,0.0
121,1.71087646484375,15.71340873832046,11.072588130033749,27.770849374542554,0.5770297688253659,0.0,0.16292275919557062,0.1,0.016310453414916992,0.21372318267822266,0.050204374,0.7418176,15.867490248931924,0.0,0.20971610056917467,0.0,300,0.04444551467895508,0.36560067114027917,0.3659247896510647,36600,0.5476531293221506,0.0
122,1.756026029586792,24.285151468841242,7.061435280990291,32.64201115320351,17.028406324474805,0.0,0.16973755081214886,0.1,0.055036067962646484,0.2531263828277588,0.050221168,0.7805066,16.709256370922855,0.0,0.32066491089852955,0.0,300,0.2548949718475342,0.26931277749144406,0.22449880465206104,36900,0.5476384522582166,0.0
123,1.7591235637664795,18.437946341943803,9.15188474833718,28.75340733173602,6.36236299289214,0.0,0.1645592608976729,0.1,0.09458422660827637,0.6924102306365967,0.049983613,0.88278705,16.88212536802495,0.0,0.2460418647871116,0.0,300,0.2617146968841553,0.33717394677902457,0.3332531030072026,37200,0.5477475258338568,0.0
124,1.76176118850708,12.960409565222982,12.484935986075923,27.630332355768907,0.5701875304926644,0.0,0.15557497610556634,0.1,0.10168719291687012,1.1790492534637451,0.049607,0.790986,16.489953787744756,0.0,0.16967037011305042,0.0,300,0.23735904693603516,0.49537508968766814,0.5016563636623959,37500,0.5477164741675818,0.0
125,1.7608656883239746,13.397706187414396,7.479177717604161,19.23690276566985,0.5547656311972183,0.0,0.15079325325786497,0.1,0.02877950668334961,0.1995372772216797,0.050187305,0.9637897,16.18072902771172,0.0,0.17550829427223646,0.0,300,0.1489732265472412,0.3910100615079497,0.35570505979408945,37800,0.5497957120626938,0.0
126,1.8997159004211426,29.56546652921567,8.183402491303523,41.74753921174464,18.755570108803653,0.0,0.17483891980266034,0.1,0.07750701904296875,0.32396793365478516,0.049473535,0.73883593,17.519202777862116,0.0,0.39107036816189156,0.0,300,0.22760367393493652,0.28827097730476126,0.24943784464983226,38100,0.5514245065783,0.0
127,1.6618249416351318,16.286246053723684,10.39478951003538,30.059696918054012,0.7963769143458553,0.0,0.1548104354316628,0.1,0.024155616760253906,0.18835949897766113,0.049832694,0.9856412,17.395907105448273,0.0,0.21400227920444448,0.0,300,0.2295372486114502,0.26502834645731665,0.28859304836769056,38400,0.5516775913449151,0.0
128,1.690051794052124,16.72224233899789,6.5698066342749115,24.699177264526476,6.927048324091202,0.0,0.1667845737569346,0.1,0.012907981872558594,0.06072688102722168,0.049742207,0.9153657,17.328540628803236,0.0,0.21983393466501785,0.0,300,0.030781984329223633,0.30325306602949387,0.2569354440082187,38700,0.5515635937963775,0.0
129,1.743062973022461,14.710201377547154,6.316057084952964,25.63056289358113,10.686461471971239,0.0,0.1733741680374489,0.1,0.09458565711975098,0.07180190086364746,0.049947985,0.7861855,17.066706703677628,0.0,0.19300143284764448,0.0,300,0.17180705070495605,0.4653379810295942,0.3636824882047389,39000,0.5577629044913593,0.0
130,1.7119660377502441,29.313427263712814,6.3102416156867065,35.77084499891829,20.759009339657847,0.0,0.16604329191085918,0.1,0.003256559371948242,0.058467864990234375,0.05044303,0.7945437,18.291378759681148,0.0,0.3843721864405941,0.0,300,0.24421048164367676,0.26438196473546477,0.24046632438492677,39300,0.5604892993044966,0.0
131,1.6793408393859863,15.430555909163798,3.3086700140600365,18.87527448605254,10.019726090665126,0.0,0.17160793756571677,0.1,0.096832275390625,0.1712501049041748,0.048828352,1.0052063,18.005296474629414,0.0,0.20259173023939248,0.0,300,0.12889790534973145,0.24810847038598619,0.26936639319968375,39600,0.5578519536096805,0.0
132,1.7427294254302979,15.200663300907198,2.821982930473581,19.59512048883636,11.724128639320657,0.0,0.14911778738921133,0.1,0.0033025741577148438,0.06737995147705078,0.04972411,1.6058744,17.724833157257194,0.0,0.19954811578066192,0.0,300,0.10467362403869629,0.18641132638952926,0.16666069347259563,39900,0.560233001979702,0.0
133,1.7079973220825195,22.02824728465471,9.038552255510348,35.79304475551637,10.783674586746802,0.0,0.16357862435373507,0.1,0.048389434814453125,0.3725755214691162,0.049897347,0.87146395,18.155174569996948,0.0,0.28724871631230114,0.0,300,0.22814154624938965,0.2425749900111633,0.23583349364741726,40200,0.564690121359429,0.0
134,1.7343921661376953,22.473167463185355,11.023765402630106,38.66638174570914,11.673500149920345,0.0,0.16795560603790222,0.1,0.0032472610473632812,0.1661386489868164,0.050170295,0.77440757,18.58697385931579,0.0,0.29984746230689474,0.0,300,0.15843486785888672,0.25308220857787417,0.22520084259856432,40500,0.575644163021693,0.0
135,1.7647066116333008,22.72749347343553,5.099336888186468,28.68381898111584,16.73983733163185,0.0,0.1695632792813595,0.1,0.039588212966918945,0.25879359245300293,0.05003779,0.74355984,19.001025820727765,0.0,0.2999057687118317,0.0,300,0.08043837547302246,0.10662703871679523,0.09642482690758414,40800,14.575915026239189,0.0
136,1.7530691623687744,30.362344913012656,4.24679950726103,36.638966517792106,24.941064273072946,0.0,0.15866527303780165,0.1,0.06549358367919922,0.10733890533447266,0.050527453,0.9951234,20.137157729956254,0.0,0.40169106868342996,0.0,300,0.20870757102966309,0.13380222008805892,0.07566216772485218,41100,0.5644316801592449,0.0
137,1.7458477020263672,34.12460455483786,5.320083483188872,39.626289653923976,26.636963650371687,0.0,0.16866704814530975,0.1,0.003184080123901367,0.06783604621887207,0.049900975,0.55325836,21.535902412444415,0.0,0.4485338312095314,0.0,300,0.25162267684936523,0.10601065598305487,0.06591874038441985,41400,28.58166742046205,0.0
138,1.7295684814453125,22.553977002432326,16.160048825995897,40.7899849589026,0.6174141192580082,0.0,0.1597555661625357,0.1,0.007500171661376953,0.24090218544006348,0.049627956,0.91496855,21.637709871443207,0.0,0.29759173854758314,0.0,300,0.07760930061340332,0.46737941395078964,0.4280296227427138,41700,0.5597631195319881,0.0
139,1.7808480262756348,21.900834525283585,14.400478584920394,35.657669933594576,0.6602573643988567,0.0,0.15549124700799438,0.1,0.08426380157470703,0.07630300521850586,0.04992082,0.79017067,21.664022336827244,0.0,0.285540735803095,0.0,300,0.16367149353027344,0.40144256108022847,0.3051679964356501,42000,0.5719134710980728,0.0
140,1.7591264247894287,12.579663218231385,8.602871660868473,22.80812756794042,0.6316674277483535,0.0,0.15593905214043655,0.1,0.0030663013458251953,0.0769948959350586,0.049575165,0.8015401,20.75558642496766,0.0,0.16793370343230293,0.0,300,0.15721464157104492,1.2333503951947749,0.5526728557889985,42300,19.592383246749772,0.0
141,1.7948849201202393,25.73244562965469,11.601375170513425,42.717009934827374,9.955471982908831,0.0,0.18282669128190374,0.1,0.011448144912719727,0.2656099796295166,0.05084437,0.65915656,21.253272345436365,0.0,0.339971495975328,0.0,300,0.18715143203735352,0.2971580509750385,0.34332888527007405,42600,10.577138219335023,0.0
142,1.7142925262451172,24.35742163728472,8.619923815480567,37.290196857014145,14.793769467913567,0.0,0.15488104725715182,0.1,0.005871772766113281,0.206101655960083,0.04896746,0.8406441,21.563687274621202,0.0,0.321628831164637,0.0,300,0.12048912048339844,0.2733575959283352,0.24386260653635278,42900,0.5628273629170178,0.0
143,1.7390828132629395,12.217065768196576,8.952701868979032,25.798427205814754,0.6507024496290996,0.0,0.15334010368115727,0.1,0.005405902862548828,0.14805078506469727,0.050534453,1.1732267,20.62902512397874,0.0,0.16308772127087157,0.0,300,0.029037952423095703,0.4087304992415116,0.4313661998340793,43200,22.596469785180606,0.0
144,1.7833659648895264,24.60037211511077,8.708537357355906,31.852419909741883,10.064396613494523,0.0,0.1707881295441304,0.1,0.005240201950073242,0.17834949493408203,0.049802925,0.90841115,21.026159823091945,0.0,0.3248509848710679,0.0,300,0.14426851272583008,0.22655971955142631,0.2061107360769203,43500,36.61017301025612,0.0
145,1.7722325325012207,26.85027391101344,11.79863717766688,40.85999667718785,10.817202722720362,0.0,0.15313446676306616,0.1,0.028312206268310547,0.06825113296508789,0.05024957,0.7943502,21.608571231884095,0.0,0.35487523803252413,0.0,300,0.09742569923400879,0.24310049783473714,0.20085180008101647,43800,14.59519400483905,0.0
146,1.7896337509155273,18.747457066945213,9.079087812468057,33.811487567672074,10.607212154355134,0.0,0.16847035943019378,0.1,0.007728099822998047,0.13341832160949707,0.05038412,0.7494969,21.322459815390207,0.0,0.2501719985347344,0.0,300,0.06418085098266602,0.32563502936445193,0.34966516516227586,44100,19.59396210703463,0.0
147,1.7723116874694824,15.474940857785112,2.2347483895307403,19.036908493724983,13.237344179397002,0.0,0.16313110819573207,0.1,0.09305238723754883,0.13251805305480957,0.05023053,0.90177166,20.737707919629695,0.0,0.20653838791692194,0.0,300,0.25014472007751465,0.6662467302285792,0.39000832608246033,44400,29.64470338962313,0.0
148,1.7903146743774414,25.827780516736908,9.996534877839546,41.730154368524076,16.903012944804964,0.0,0.17355067213695607,0.1,0.09100818634033203,0.06057286262512207,0.049696304,0.756861,21.24671517934042,0.0,0.3412370578742591,0.0,300,0.2588472366333008,0.24050654031765,0.26102996899370273,44700,33.79145954250419,0.0
149,1.809849500656128,16.577190888637098,14.597482818065615,39.795093572430346,0.599677454769428,0.0,0.1666683576982507,0.1,0.005362033843994141,0.3235909938812256,0.049835995,0.7120007,20.77976275027009,0.0,0.2178708187772906,0.0,300,0.17193961143493652,0.46588356427505023,0.46010426659849074,45000,33.821495147987996,0.0
150,1.814284324645996,30.75353504987827,3.915465336693412,35.60811348009638,26.102180491473977,0.0,0.16992588812478884,0.1,0.003167867660522461,0.2153325080871582,0.05027881,0.63554037,21.77713998023091,0.0,0.41025253072666057,0.0,300,0.2171940803527832,0.20595067824424848,0.16201417210928998,45300,34.79488240675393,0.0
151,1.8250229358673096,30.31598565636704,8.980572028158964,38.67692616862973,15.846995422596246,0.0,0.1646238531588481,0.1,0.0030927658081054688,0.059816598892211914,0.049234208,0.7292877,22.631024547844525,0.0,0.401084663323342,0.0,300,0.1551055908203125,0.20645036066281283,0.13189922688344483,45600,29.765330511897275,0.0
152,1.8535172939300537,23.883789303801922,7.378816067599533,31.21972129946404,15.286347265852807,0.0,0.17130654367373344,0.1,0.09264230728149414,0.28008389472961426,0.049605325,0.6973793,22.756301023440265,0.0,0.30863802562126064,0.0,300,0.20217347145080566,0.2201834132890902,0.2557666109517352,45900,17.69377673592421,0.0
153,1.8610236644744873,16.71003612666383,5.45386450913074,25.782385717445948,11.806337869194628,0.0,0.1642519929089892,0.1,0.005207538604736328,0.07432937622070312,0.04980377,0.97572,22.151674533762623,0.0,0.21966476210877875,0.0,300,0.08758974075317383,0.6672719574502719,0.4001281835778046,46200,15.64446481758818,0.0
154,1.8407654762268066,20.5322977796199,11.4138930829595,38.66828962891983,10.76783346314126,0.0,0.16806881001025994,0.1,0.0029735565185546875,0.05906081199645996,0.049632434,0.91435575,21.98973685834835,0.0,0.2706364942870322,0.0,300,0.06195998191833496,0.43987667463828584,0.3445638983686728,46500,27.602895383339604,0.0
155,1.8710403442382812,18.966646111047346,14.80677819373723,41.90087772255995,0.5706874208839201,0.0,0.15835539156472098,0.1,0.015763282775878906,0.14136862754821777,0.049696088,0.80640906,21.687427783618254,0.0,0.2497612016884353,0.0,300,0.02928304672241211,0.3655188572823832,0.3816099783122463,46800,45.70014619636509,0.0
156,1.867802619934082,12.11025400940737,15.87395427248967,39.08297847770407,0.5908926833959747,0.0,0.15373811406103313,0.1,0.0031006336212158203,0.07288241386413574,0.050190568,1.0633358,20.729710406197167,0.0,0.15833564642186165,0.0,300,0.034088850021362305,0.612850847926896,0.5938214239109718,47100,31.721120863220218,0.0
157,1.771698236465454,13.04164159317342,13.566404660324343,35.85674924393603,0.6158189275540377,0.0,0.16181518984229726,0.1,0.02335500717163086,0.08806633949279785,0.04957372,0.93296945,19.960903524894793,0.0,0.17076098929424335,0.0,300,0.03103947639465332,0.5454027041905685,0.5276289683111929,47400,39.66100776915784,0.0
158,1.794814109802246,14.944549671930798,7.500002164043195,27.732237927391598,8.865301901467074,0.0,0.16535747295665645,0.1,0.0032203197479248047,0.06076478958129883,0.050163966,0.8843459,19.459268139598393,0.0,0.1927994357919645,0.0,300,0.07414364814758301,0.30483741047063895,0.29965154070588096,47700,0.5998002734863687,0.0
159,1.7897539138793945,19.26214217370259,9.651895421483776,29.843895791927196,8.539363488522502,0.0,0.1712729876950463,0.1,0.0029981136322021484,0.059914350509643555,0.05025103,0.7995571,19.43955554300881,0.0,0.25703025983956285,0.0,300,0.030291080474853516,0.2674409099022436,0.2674371940657525,48000,0.5808611068486141,0.0
160,1.8171885013580322,30.333674820517228,11.623158238090216,41.52986959077748,10.829872774737963,0.0,0.15986156658695044,0.1,0.005114078521728516,0.06399178504943848,0.049973253,0.602931,20.528967470759653,0.0,0.3979813854891573,0.0,300,0.06742358207702637,0.39955905066184694,0.3234700162922711,48300,0.5723942632411753,0.0
161,1.8226168155670166,14.562251056022065,3.9139930005876313,19.60750214882242,8.712732610389942,0.0,0.17782352910065116,0.1,0.003251314163208008,0.10619878768920898,0.05009971,0.75027424,19.932295829285895,0.0,0.19436824966234678,0.0,300,0.021739959716796875,0.20992674071687883,0.30411460869445717,48600,0.555502939951749,0.0
162,1.8082904815673828,13.553179474080201,5.422157453219494,22.73136985089648,8.73502259018032,0.0,0.15793001528515332,0.1,0.0031366348266601562,0.06002521514892578,0.04984913,0.93636525,19.294384193765328,0.0,0.1809028671853814,0.0,300,0.026554346084594727,0.4184965436968687,0.37479441976204747,48900,0.5527495812487058,0.0
163,1.8661775588989258,18.166975375759602,6.6627909948655235,23.955748220800817,6.824936518508932,0.0,0.18003864431919944,0.1,0.005270957946777344,0.061365604400634766,0.04965041,0.74703354,19.181643311964756,0.0,0.2390986519280653,0.0,300,0.03434109687805176,0.219506311708778,0.20104433579259715,49200,0.560397842067405,0.0
164,1.8370161056518555,28.602530971484647,4.070145027060523,35.60790782961664,25.83825204333119,0.0,0.16871696640902487,0.1,0.003019094467163086,0.0584564208984375,0.049959037,1.0411955,20.123732077916745,0.0,0.3749054662963365,0.0,300,0.024364948272705078,0.19802077106142024,0.17253535323159933,49500,0.5576439078522871,0.0
165,1.854936122894287,22.629903672627915,6.080338212266921,30.88393944984702,13.84322561062435,0.0,0.18376970893819808,0.1,0.0029211044311523438,0.05886435508728027,0.049913004,0.84705275,20.37434923738786,0.0,0.29527091423594554,0.0,300,0.026844024658203125,0.14325459631694068,0.1191393181444011,49800,0.5601319105079704,0.0
166,1.8353164196014404,24.46030054312271,15.803457406594061,47.84997148635206,3.545440130064523,0.0,0.16068456871196687,0.1,0.004751443862915039,0.07805919647216797,0.050072465,0.6796286,20.782944367961345,0.0,0.32300773810578276,0.0,300,0.03432583808898926,0.3676586445976567,0.35090519333866854,50100,0.5671480049080373,0.0
167,1.8001275062561035,10.923271645913498,7.1443747211290685,19.80120993916899,0.5673292673574443,0.0,0.15448788190744206,0.1,0.003222942352294922,0.09372544288635254,0.049658272,0.72808236,19.79697709575656,0.0,0.14583008718675872,0.0,300,0.045426368713378906,1.4793021902271288,1.1881512049446947,50400,0.557722633257944,0.0
168,1.8309986591339111,12.23362964896217,7.601888296576625,21.706278669237328,0.6121344658801543,0.0,0.16201781756958497,0.1,0.004285573959350586,0.05867457389831543,0.049375214,0.80554605,19.04064235107712,0.0,0.16332041033177275,0.0,300,0.05025887489318848,0.8528189296752313,0.5332014127502375,50700,0.5754953849244232,0.0
169,1.8618779182434082,8.475213834542501,8.824242917001072,21.991999425902495,0.5909816133348236,0.0,0.15999757329739692,0.1,0.003145456314086914,0.15710735321044922,0.049992267,0.9116204,17.98409949942366,0.0,0.11320876548573179,0.0,300,0.07428336143493652,0.969894080543575,0.6749627536625299,51000,0.5709872144853165,0.0
170,1.8664591312408447,16.879180857888343,5.0164176594677015,22.054854319347328,10.716648324639623,0.0,0.1574131676749693,0.1,0.04053616523742676,0.08320856094360352,0.050704207,1.1922871,17.87360763527013,0.0,0.2219271460795295,0.0,300,0.12237000465393066,0.26304712382159545,0.2998569270296915,51300,0.5899225666680967,0.0
171,1.8580894470214844,22.039580174114207,9.811600811858696,36.71821931019293,9.093130544600994,0.0,0.174689540067554,0.1,0.09585452079772949,0.5214188098907471,0.05017659,0.76859486,18.290204889154538,0.0,0.2907259870381408,0.0,300,0.06245136260986328,0.3931586768937799,0.37966038109299105,51600,20.645125627303063,0.0
172,1.8843231201171875,24.88100953270557,12.48111807453316,44.61325690703193,10.752935980370157,0.0,0.16757774700401706,0.1,0.0032210350036621094,0.07257556915283203,0.04944739,0.9000833,18.94928535350964,0.0,0.32861257080924144,0.0,300,0.0835270881652832,0.4482895278252782,0.387742903040024,51900,0.616007393210638,0.0
173,1.8887808322906494,18.562701617812753,9.509127796821117,29.11154124171041,7.644325835906833,0.0,0.1833065713278536,0.1,0.0032019615173339844,0.05949807167053223,0.049402144,0.6223117,18.910626979939952,0.0,0.24436783662554934,0.0,300,0.03810596466064453,0.3129386058669564,0.2792440002020582,52200,0.5972665245160654,0.0
174,1.9099655151367188,14.972513944426453,15.761569474388276,38.62415382806459,0.6337493855117724,0.0,0.16015410908575065,0.1,0.003124713897705078,0.05922865867614746,0.049931176,0.864078,18.516815676388603,0.0,0.19650560372928572,0.0,300,0.03281903266906738,0.5448290780113975,0.5485402153099413,52500,0.62441179758489,0.0
175,1.7435696125030518,23.549674151184472,12.283125714512062,38.78899605054602,7.709506874673205,0.0,0.1733231055857018,0.1,0.0036211013793945312,0.10943365097045898,0.049875487,0.66270906,19.020101523868192,0.0,0.31086773437002235,0.0,300,0.05905938148498535,0.2970776601588218,0.28063168732096383,52800,17.689461587641947,0.0
176,1.7639763355255127,21.258579049985357,10.68993156672025,37.703824206848864,11.746064417396141,0.0,0.15927710655492555,0.1,0.003210783004760742,0.08519387245178223,0.049310036,1.1056055,19.24394927647991,0.0,0.2803194477747267,0.0,300,0.043898820877075195,0.24187564260353767,0.24400136837763936,53100,26.99693852393796,0.0
177,1.7519958019256592,12.768877830064914,7.330443835728059,19.68292039067706,0.5797553171941507,0.0,0.1491802720574705,0.1,0.003075838088989258,0.06143832206726074,0.050030157,0.7461231,18.59644213183841,0.0,0.16712430548144497,0.0,300,0.14594388008117676,0.6659631374100012,0.5533024530545514,53400,9.166176736692462,0.0
178,1.7133047580718994,21.31635150396325,9.770026791208547,33.65063067021282,9.94743106838642,0.0,0.1728209245644333,0.1,0.003473997116088867,0.08662199974060059,0.05038917,0.65774935,18.86843306905089,0.0,0.28108940597493054,0.0,300,0.03228425979614258,0.24383268791757115,0.24632705500431418,53700,18.149847012098714,0.0
179,1.7641777992248535,19.481959444260283,12.750689442925314,34.71850118037645,0.6568003344711271,0.0,0.1581507827172092,0.1,0.0031795501708984375,0.06044459342956543,0.05003553,0.6774492,18.92978570657183,0.0,0.2599651521176513,0.0,300,0.03794240951538086,0.2984852309279472,0.2975928688510156,54000,13.093022405269755,0.0
180,1.7856459617614746,14.184696775723928,5.954952652651807,23.802955165234902,7.635072644834971,0.0,0.1622732685502755,0.1,0.003118753433227539,0.05871725082397461,0.050301433,0.92228466,18.455276813487043,0.0,0.18933318129837637,0.0,300,0.10278177261352539,0.3409083378138345,0.30142765980851005,54300,21.192011621483402,0.0
181,1.7777111530303955,26.958367087915512,6.4178953760533535,35.632222802794395,18.65830732209425,0.0,0.15977154491810278,0.1,0.0032112598419189453,0.08100008964538574,0.049814627,1.0513694,19.305585840929893,0.0,0.3563160017797986,0.0,300,0.06893539428710938,0.2237164063557857,0.2054625150693599,54600,27.19238720840126,0.0
182,1.755641222000122,9.425214067434023,9.169832068430061,21.823405773596726,0.6015430535670432,0.0,0.15579361830400185,0.1,0.003050088882446289,0.06232881546020508,0.049784806,1.0603601,18.317548663580308,0.0,0.12584848403609225,0.0,300,0.049503326416015625,0.9060461254902575,0.8838408180600553,54900,35.17600695044535,0.0
183,1.7868742942810059,17.192855051148726,2.0685762537192605,19.671831305529526,14.63898426143222,0.0,0.15333106126113422,0.1,0.0031003952026367188,0.0980687141418457,0.04938085,1.3706859,18.20507930233715,0.0,0.22944335134522426,0.0,300,0.04594254493713379,0.08228141116576924,0.06769149964170353,55200,19.15759908452311,0.0
184,1.7703115940093994,28.820047762236904,8.287668370880514,38.91790531538239,15.998192031590698,0.0,0.18412443123870542,0.1,0.0030879974365234375,0.14498162269592285,0.04992559,0.69380933,19.26657614832713,0.0,0.37447066015331565,0.0,300,0.03828287124633789,0.2575865322090909,0.22462162286995746,55500,31.185543232097135,0.0
185,1.8013849258422852,20.71005475779585,20.13468624978731,41.125572852420625,0.5543225252987533,0.0,0.1526918366706647,0.1,0.005213499069213867,0.11566829681396484,0.04986494,0.9887505,19.410924009274,0.0,0.276339934493662,0.0,300,0.20210862159729004,0.4616565284376921,0.43117601235381187,55800,17.154344581174147,0.0
186,1.7922956943511963,15.732780671772723,3.889397066143644,21.56756153096548,10.64396433042797,0.0,0.1600496715585267,0.1,0.003022432327270508,0.06440186500549316,0.049864497,1.1714453,19.043109675523876,0.0,0.2099761265120047,0.0,300,0.12410926818847656,0.36811600644632647,0.3992910467974472,56100,17.978362716559207,0.0
187,1.8148856163024902,24.443903747808065,7.356795177839491,32.502065738217176,13.620604977875479,0.0,0.17585364840827603,0.1,0.0030853748321533203,0.059996604919433594,0.050542653,0.74652606,19.583189082752295,0.0,0.32278856316484805,0.0,300,0.07135510444641113,0.1856246703967748,0.18463919717161198,56400,25.070558782327968,0.0
188,1.7320897579193115,22.617757391200865,7.837197025448531,30.99259956975997,12.228220370696341,0.0,0.17127127477836557,0.1,0.0760037899017334,0.15021038055419922,0.049752895,0.7364588,19.886645913597153,0.0,0.2950691458485702,0.0,300,0.14527201652526855,0.16447556072203084,0.16141518443418879,56700,19.06473095754251,0.0
189,1.8082282543182373,19.499342126847818,12.758188787555557,34.70149685009761,0.6559252895003334,0.0,0.15384067778206859,0.1,0.0031135082244873047,0.12048959732055664,0.04973866,0.6209482,19.84791553492222,0.0,0.2568637464409637,0.0,300,0.11844229698181152,0.2802752879178825,0.27977067601290473,57000,11.179151897463413,0.0
190,1.8135628700256348,22.385739414212807,13.035208083442638,34.80125914192896,0.5722547890907492,0.0,0.15801135196140975,0.1,0.06600284576416016,0.17793679237365723,0.049978115,0.6285593,20.101697922851276,0.0,0.2986804926752185,0.0,300,0.05710124969482422,0.23332971826665763,0.23174888663214147,57300,16.107611547609004,0.0
191,1.81986665725708,20.332275502969715,8.426802842272147,34.009607173248966,13.08112893485483,0.0,0.16365451304277978,0.1,0.003070831298828125,0.059662580490112305,0.05000093,1.2162278,20.12475568086312,0.0,0.27130127583492547,0.0,300,0.0419161319732666,0.20626663499548992,0.19040250304436426,57600,28.204310810955743,0.0
192,1.8156113624572754,22.070702083635666,11.009483014232735,40.615612311579035,12.738788573783927,0.0,0.1808744542221696,0.1,0.0032203197479248047,0.07962918281555176,0.050604198,0.7008412,20.319350321140377,0.0,0.2911435698703541,0.0,300,0.04391360282897949,0.27422753566166336,0.2755196427405189,57900,26.120142243839027,0.0
193,1.742079496383667,13.084886855068337,8.840866418332498,24.272864464122478,0.5705083585317648,0.0,0.1561842631405258,0.1,0.0038514137268066406,0.15543437004089355,0.04961943,1.2265306,19.595903974533172,0.0,0.17464992892434447,0.0,300,0.05381631851196289,0.6057205888209187,0.4981947914717721,58200,31.165331226372682,0.0
194,1.771423101425171,13.701746093692588,13.960340201841134,36.88612231229182,0.5994011494169951,0.0,0.16783303784142667,0.1,0.03884768486022949,0.060225725173950195,0.050790608,0.889228,19.006488186449115,0.0,0.17950950231632978,0.0,300,0.22909331321716309,0.5770455707231569,0.5293566404072594,58500,24.118926691177816,0.0
195,1.7599849700927734,21.53207012524587,1.720671997347606,23.568532791459067,19.046001133765913,0.0,0.15370235566051185,0.1,0.0031151771545410156,0.06020021438598633,0.049817953,1.008301,19.25904638032879,0.0,0.2839588439080456,0.0,300,0.06921625137329102,0.09665873442108978,0.11191511643805226,58800,14.5574709754188,0.0
196,1.7809867858886719,15.178917450897302,11.725298176247861,31.762705059322897,0.5903831003366365,0.0,0.16327014976392998,0.1,0.0034804344177246094,0.07359480857849121,0.05051174,0.80279124,18.851033487385642,0.0,0.19925733008044288,0.0,300,0.09366083145141602,0.3966498451876543,0.39211824448272353,59100,12.111544777831115,0.0
197,1.770353078842163,8.043809318127488,8.263222234043523,20.59865848101353,0.5972010754843491,0.0,0.15358349929929813,0.1,0.00323486328125,0.08134126663208008,0.050069153,0.58809024,17.770311070459826,0.0,0.1040583416521092,0.0,300,0.06012749671936035,0.7605829614404496,0.6683774044704164,59400,0.8690085418935992,0.0
198,1.7922358512878418,20.477780926592587,4.53508073046926,27.736559437149435,15.812891980782972,0.0,0.16277806714903528,0.1,0.0052449703216552734,0.07852935791015625,0.049707066,0.7868511,18.0410580560731,0.0,0.2732128157787292,0.0,300,0.15949368476867676,0.13459151901073713,0.1398328256668495,59700,0.9013865220935048,0.0
199,1.7725422382354736,20.745075115320365,9.752979391773218,33.70308919057282,6.638287026173428,0.0,0.1710131232329491,0.1,0.0033881664276123047,0.058338165283203125,0.050578017,1.0459762,18.311459761997828,0.0,0.2767816733471279,0.0,300,0.07502889633178711,0.30591686880166985,0.2830047751863985,60000,12.977680473739921,0.0
