iteration,time_sampling,stoc_pol_mean,stoc_pol_std,stoc_pol_max,stoc_pol_min,rollout_success,alpha,delta,time_vpg,time_npg,kl_dist,surr_improvement,running_score,rwd_sparse,rwd_dense,success_percentage,num_samples,time_VF,VF_error_before,VF_error_after,env_samples,eval_score,eval_success
0,2.017615795135498,-4739.820977699778,3777.084383311221,135.48889178670356,-8724.614252986828,0.0,0.28495441345077405,0.1,0.032128095626831055,0.06866717338562012,0.059097495,0.41692927,-4739.820977699778,0.46880570846334224,-23.637374829937684,0.0,671,0.04183626174926758,1.0000076950455155,0.9997457252542346,671,-2164.67629253598,0.0
1,1.980362892150879,-6678.635840489717,1876.0260975493256,-4659.070452224184,-8665.358146371354,0.0,0.4359951934727897,0.1,0.0037789344787597656,0.11346912384033203,0.05198801,0.2377046,-4933.702463978772,0.22105674740651654,-33.33103644877882,0.0,800,0.21291065216064453,0.9997060662864939,0.9982655476260789,1471,-4758.042294597756,0.0
2,2.1355388164520264,-1817.0506054108375,1966.9434324168071,344.66279920579194,-3779.482819300819,0.0,0.43683474124384536,0.1,0.18782997131347656,0.7426018714904785,0.054459885,0.23541051,-4622.037278121979,0.5465001244985113,-9.151663265748226,0.0,800,0.047005653381347656,0.9971314056593039,0.9919468196734478,2271,-2779.3206510804844,0.0
3,2.167367935180664,-3867.764894200599,2867.016647046949,-72.43613223547003,-7825.602924704095,25.0,0.3917367767543206,0.1,0.003981590270996094,0.07549452781677246,0.050609443,0.24656835,-4546.610039729841,0.729035107796096,-19.322576418566946,25.0,763,0.04494667053222656,0.9942985823619033,0.9848478677599128,3034,-2580.472022794466,0.0
4,2.113536834716797,-5641.760564383924,3552.676041822199,-69.20935555563707,-8833.66393415413,0.0,0.39116872627826976,0.1,0.005646228790283203,0.08673667907714844,0.050546408,0.26295844,-4656.12509219525,0.2257506789753779,-28.178396661993908,0.0,800,0.04685235023498535,0.9885549066839113,0.9695809177141017,3834,-2630.99526069541,0.0
5,2.181363105773926,-1494.8552495365248,1692.6774001633923,-292.9194906798441,-4408.761415421402,0.0,0.40742584860074804,0.1,0.0036344528198242188,0.0819549560546875,0.047743674,0.20774958,-4339.998107929377,0.4586858637079727,-7.540740730290918,0.0,800,0.04800605773925781,0.9382086169096232,0.9032989898874457,4634,-1388.8950053480241,0.0
6,2.124606132507324,-5214.082439911141,3269.7028895404665,-1257.3124215034447,-8459.728683273373,0.0,0.3991619959792688,0.1,0.05392956733703613,0.09492111206054688,0.04885631,0.26138705,-4427.406541127553,0.33412288506650534,-26.007924901463397,0.0,669,0.03902578353881836,0.9519381604097775,0.9202315873908261,5303,-3402.0433302490546,0.0
7,2.185481071472168,-2042.3834756194528,1948.5944935270154,-128.27051459623527,-4782.357008947303,0.0,0.3907579442636519,0.1,0.08081555366516113,0.07473278045654297,0.050490048,0.2324268,-4188.904234576743,0.4098436867656409,-10.245594646720132,0.0,689,0.03917813301086426,0.8688590405591387,0.8276936906929896,5992,-1508.4466733521579,0.0
8,2.1947567462921143,-2294.676926995392,1954.1354894440697,382.24336989154,-5097.623041087721,0.0,0.35154362906008635,0.1,0.024678468704223633,0.09309601783752441,0.049886767,0.29040042,-3999.481503818608,0.500152057667251,-11.449321351241537,0.0,540,0.2635619640350342,0.8251286255699475,0.7943956813386392,6532,-3227.666492650254,0.0
9,2.1529552936553955,-4483.961977423728,4057.909096950209,698.2558891861955,-8452.635464854158,0.0,0.39145204911073134,0.1,0.005825042724609375,0.12242531776428223,0.052107386,0.28537795,-4047.92955117912,0.5714973964591193,-22.333166441008945,0.0,653,0.04070639610290527,0.8790344733900334,0.8249047833664747,7185,-2775.0187979174793,0.0
10,2.3341619968414307,-2235.341454277118,3682.798807016371,375.41967382100603,-8590.81440244493,0.0,0.4388124411165831,0.1,0.008506298065185547,0.09820008277893066,0.051182665,0.20670272,-3866.67074148892,0.698423786321635,-11.2444063726411,0.0,800,0.048809051513671875,0.8636193240090138,0.839376236467314,7985,-3535.6756975877656,0.0
11,2.0702624320983887,-3424.555526510137,1447.010104787512,-1890.8903222549993,-4878.76129487184,0.0,0.3823412112282853,0.1,0.01400136947631836,0.0678098201751709,0.04963792,0.3419511,-3822.459219991042,0.13303407995186511,-17.058788776582823,0.0,519,0.055001020431518555,0.5883172359594852,0.5261095762256454,8504,-3512.875371524069,0.0
12,2.390922784805298,-578.9962389658333,1296.0692436170502,778.739780710773,-2715.885226156349,0.0,0.36387919676082253,0.1,0.02670741081237793,0.11397624015808105,0.050051138,0.23635702,-3498.112921888521,0.7048371073447802,-2.96719062401087,0.0,687,0.04369473457336426,1.95397417604706,1.9434030710399037,9191,-738.7593276165949,0.0
13,2.2419471740722656,-1239.519389440834,1747.0125240909879,-178.51182222683272,-4264.643378708771,0.0,0.436485075922774,0.1,0.030846595764160156,0.11748027801513672,0.051111154,0.21087046,-3272.2535686437527,0.789393513875158,-6.297127128759829,0.0,800,0.04634809494018555,0.8623685315067638,0.825103864544284,9991,-1140.521815557659,0.0
14,2.3371071815490723,-4176.605223196584,4090.3198640181854,51.36192917105413,-8346.933223374459,0.0,0.4337444033950086,0.1,0.06405115127563477,0.07835674285888672,0.049782448,0.23961087,-3362.688734099036,0.7080914034475045,-20.887065583568763,0.0,800,0.38930273056030273,0.7722340553756076,0.7323762887156094,10791,-837.1829915971965,0.0
15,2.120709180831909,-3510.442541234167,452.37389443992265,-2916.834413117688,-4188.350224806971,0.0,0.3518228517377241,0.1,0.0034542083740234375,0.08252739906311035,0.051389065,0.379511,-3377.4641148125493,0.18707554720381703,-17.45698119653086,0.0,474,0.05198812484741211,0.4802576766221337,0.41686228129337094,11265,-357.9718801411604,0.0
16,2.192800521850586,-2289.9042393995715,1744.5030051537178,-90.44424306414629,-4884.070193759564,0.0,0.34487897680386326,0.1,0.00838327407836914,0.1025388240814209,0.04904557,0.32892498,-3268.7081272712517,0.20400273164194788,-11.418160253513603,0.0,542,0.06270766258239746,0.5479263117182612,0.542107789693601,11807,-2275.146725198289,0.0
17,2.156127452850342,-4486.780503270855,2522.3859571896814,-2079.946485821345,-8399.453686480947,0.0,0.3426860193981727,0.1,0.00395655632019043,0.11619448661804199,0.049914382,0.34844097,-3390.515364871212,0.17873992406945197,-22.339415875521986,0.0,543,0.040482282638549805,0.5508672839906694,0.49367435305973995,12350,-1366.3044000769223,0.0
18,2.2282867431640625,-2498.019080673375,2197.332572649069,-248.4021355691488,-4760.860706744946,0.0,0.36807643656326783,0.1,0.08997702598571777,0.27989888191223145,0.04977762,0.2903981,-3301.2657364514284,0.781143113614384,-12.504598863030598,0.0,698,0.05217552185058594,0.491800442106812,0.49429645244381115,13048,-751.9622184910053,0.0
19,2.3411734104156494,-1473.3217109314492,1940.427103467763,-20.75276427292792,-4798.136694362617,0.0,0.40469625977141216,0.1,0.0037369728088378906,0.07503652572631836,0.048731495,0.2662431,-3118.4713338994306,0.417529471408329,-7.432302760646097,0.0,800,0.04811906814575195,1.1801316378478819,0.9741295475233528,13848,-1092.998885189454,0.0
20,2.3156068325042725,-1773.997638676717,1589.8752230161658,-185.1914065724268,-3722.991940265914,0.0,0.4356772586515568,0.1,0.019406795501708984,0.08226990699768066,0.051506095,0.25161505,-2984.0239643771592,0.7681099353778721,-8.912203112767013,0.0,726,0.04297947883605957,0.7442766690055101,0.6684873293662651,14574,-571.4216611610094,0.0
21,2.3205063343048096,-2130.855077548065,1581.3078560239283,-192.650430400653,-4056.8714711924727,0.0,0.4147389328756119,0.1,0.014283418655395508,0.1167604923248291,0.05182099,0.27370265,-2898.7070756942503,0.6092518736063254,-10.758067854574408,0.0,800,0.11143064498901367,0.5637207013782881,0.552105860624079,15374,-2864.242287168188,0.0
22,2.390911102294922,-2524.6461043381423,2343.874446476393,33.284486541280764,-5617.515595299268,0.0,0.44371050085573577,0.1,0.021236181259155273,0.09002900123596191,0.052308396,0.24285747,-2861.3009785586396,1.0629961884602426,-12.666268658889877,0.0,800,0.04734015464782715,0.5644306575475978,0.5595374817254533,16174,-2544.6421535136283,0.0
23,2.28328275680542,-4192.093964579544,3109.0010583817207,147.47957884019544,-8590.53608516289,0.0,0.42711988778760845,0.1,0.0037186145782470703,0.07497167587280273,0.050787136,0.25599328,-2994.38027716073,0.5322573411334106,-20.936613225759245,0.0,702,0.05809760093688965,0.616467971422326,0.5790261356276406,16876,-3961.7600091292575,0.0
24,2.301318407058716,-4489.620575002558,2516.352110339741,-1632.1894329082927,-8464.580810399244,0.0,0.4262158543832778,0.1,0.0060198307037353516,0.07899069786071777,0.050264683,0.24707222,-3143.904306944913,0.2081380812790375,-22.38529397009188,0.0,697,0.04559063911437988,0.5056442826662971,0.4408765049230306,17573,-75.16182536524296,0.0
25,2.3856844902038574,-1121.0295471446946,1729.0058787899452,-57.420626310021795,-4112.653766827496,0.0,0.4484785048759185,0.1,0.007854223251342773,0.1689603328704834,0.049210425,0.23037459,-2941.616830964891,0.2894185371507963,-5.702327980819315,0.0,800,0.10788869857788086,1.541121851897379,1.3116244211651005,18373,-18.755272413880114,0.0
26,2.4666268825531006,-4362.127801095725,2982.157145190737,-77.09938937533644,-8500.143074660726,0.0,0.4272985072319576,0.1,0.05119466781616211,0.087127685546875,0.050325572,0.25482905,-3083.6679279779746,0.41195464265671217,-21.780969345682088,0.0,719,0.051497459411621094,0.5324486052613989,0.5194736873215626,19092,-19.728377458403994,0.0
27,2.299265146255493,-4033.1921858708606,2963.419381219797,-620.5493961598523,-8765.660145164675,0.0,0.427159277735996,0.1,0.003911256790161133,0.1244969367980957,0.050405983,0.22814511,-3178.6203537672636,0.349114701837159,-20.135423239627222,0.0,685,0.04441571235656738,0.5326095359475175,0.5027198414758688,19777,-76.62106365476966,0.0
28,2.3465840816497803,-970.2825931668344,1235.7825461757793,-35.095432950081545,-3050.507397711754,0.0,0.42385566447182355,0.1,0.006066083908081055,0.08066010475158691,0.049598593,0.22375262,-2957.7865777072207,0.35766196076405193,-4.91648391162344,0.0,694,0.14250969886779785,3.6372169080632992,2.890583324400502,20471,-2671.1273398525495,0.0
29,2.256147623062134,-2923.5750445990457,3145.2198948634154,-273.3526765217022,-8289.073196605588,0.0,0.3969298988501302,0.1,0.003350973129272461,0.3216440677642822,0.050301116,0.25516957,-2954.3654243964033,0.27895286695612204,-14.554992236764576,0.0,511,0.13826608657836914,0.6007503293670582,0.6065017527092663,20982,-2512.2679724022073,0.0
30,2.3432669639587402,-1715.82209751434,1350.4895380637993,32.93902665873813,-3216.883271220186,0.0,0.4090217044531823,0.1,0.022861480712890625,0.18724417686462402,0.049279764,0.23642044,-2830.5110917081975,0.38381047974928983,-8.644183011060285,0.0,699,0.05094146728515625,0.8912069552595671,0.8122469634118152,21681,-2336.094135060433,0.0
31,2.4236810207366943,-1541.8344531816363,1640.6677790909866,-37.70713704733499,-4190.657742182307,0.0,0.4683453880261219,0.1,0.04700946807861328,0.14395904541015625,0.049982395,0.22121513,-2701.6434278555416,0.46396375266873063,-7.80627699647378,0.0,800,0.0534665584564209,0.7962016013856099,0.7084693658822886,22481,-3446.640392979982,0.0
32,2.347378969192505,-2892.3654263026997,3461.489045989195,-30.55213378738445,-8557.390893010112,0.0,0.43151140075742,0.1,0.08076763153076172,0.09077620506286621,0.05018692,0.21710585,-2720.7156277002573,0.5140760177943525,-14.46488243193979,0.0,691,0.04467320442199707,0.6905429957112252,0.6882073493465644,23172,-199.30800507697242,0.0
33,2.335817813873291,-3914.3037222104786,3009.4124488223333,-262.0057647737201,-8398.757093784607,0.0,0.43860773044891055,0.1,0.0035381317138671875,0.09930419921875,0.049437035,0.22602525,-2840.0744371512797,0.3287412498268705,-19.509685185198425,0.0,669,0.0882120132446289,0.5663573837893784,0.5311230765570388,23841,-197.88531537315535,0.0
34,2.453119993209839,-5455.181843896633,1341.0440481504445,-4220.814803765268,-7590.686325228218,0.0,0.4478187133011435,0.1,0.005826234817504883,0.08748793601989746,0.048667427,0.24838772,-3101.585177825815,0.35077376068594834,-27.246686545534597,0.0,800,0.04791402816772461,0.428989900389162,0.33716853694664634,24641,-191.03763958011044,0.0
35,2.5179855823516846,-2211.2466079479777,2405.766292436404,340.0183015581482,-4705.288449453312,0.0,0.4512460837235891,0.1,0.07000899314880371,0.0792078971862793,0.05088727,0.22823334,-3012.5513208380316,0.7210080113163959,-11.123290391164566,0.0,800,0.11208558082580566,0.7020257861036343,0.6871005570191734,25441,-208.42929801001375,0.0
36,2.4230690002441406,-1937.201933888086,2041.7965530497609,-98.1652212265725,-5087.0352720738265,0.0,0.42122916519658976,0.1,0.09096360206604004,0.1073005199432373,0.050940454,0.24240094,-2905.0163821430374,0.3785681545162633,-9.719726761350183,0.0,682,0.08684134483337402,0.8843074578884892,0.7570765611356856,26123,-191.08787275300904,0.0
37,2.628798723220825,-2353.4628051429286,2214.9175244478074,-76.19750154577558,-4814.178238733336,0.0,0.47691209482349717,0.1,0.018953323364257812,0.14920592308044434,0.05030305,0.2294355,-2849.8610244430265,0.3502948928784938,-11.832964045398132,0.0,800,0.09960007667541504,0.5584334562187137,0.5420840707648144,26923,-171.96996706258258,0.0
38,2.429030656814575,-2705.2769068240955,1135.2006305253708,-1075.4966158533512,-3822.1846433813375,0.0,0.4516172465625436,0.1,0.003649473190307617,0.08636140823364258,0.049988437,0.24224868,-2835.4026126811336,0.2720207608882199,-13.527588128345648,0.0,688,0.04064583778381348,0.2893812794003597,0.2874721042806341,27611,-173.46674689284325,0.0
39,2.420483350753784,-1125.4564480689824,1654.1123043529667,229.78847902330662,-3908.135643880816,0.0,0.4602265202689113,0.1,0.0711209774017334,0.12125420570373535,0.0496547,0.21016073,-2664.4079962199185,1.0355863812904036,-5.702757476534521,0.0,800,0.0486602783203125,0.9226085800177452,0.825583006516,28411,-4619.969818747145,0.0
40,2.4174869060516357,-3067.924248381216,2943.7054296271813,-30.60857930232607,-7879.537795527293,0.0,0.379703434169069,0.1,0.0035321712493896484,0.0665900707244873,0.04871518,0.2490652,-2704.7596214360483,0.22838861569359917,-15.27737476591249,0.0,545,0.0927734375,0.5780302181739022,0.572398886513157,28956,-6430.841874260513,0.0
41,2.5047476291656494,-1203.4136297758475,1769.007402435021,-22.457064150858738,-4250.169717827967,0.0,0.46221951138760603,0.1,0.06131339073181152,0.07481813430786133,0.04996732,0.2164812,-2554.6250222700282,0.42630198056414853,-6.082369347081011,0.0,800,0.04888105392456055,0.953165547667033,0.8820963413570739,29756,-4934.181577980336,0.0
42,2.551161050796509,-917.2002961015384,1822.4687864374732,355.7624417744818,-4061.629705822854,0.0,0.4466908561929303,0.1,0.0038115978240966797,0.42008137702941895,0.048695635,0.21905611,-2390.882549653179,0.9951570742918407,-4.692776736003496,0.0,800,0.04600381851196289,1.2534546108557219,1.080603089565407,30556,-6982.031966099348,0.0
43,2.5032572746276855,-1585.9122113928652,1541.1415427370368,-41.13840513738768,-3623.667741095581,0.0,0.4336750126577565,0.1,0.0034334659576416016,0.10656118392944336,0.048661176,0.21677172,-2310.3855158271476,0.3123493771718125,-7.963290691560481,0.0,679,0.0595250129699707,0.6265362544279455,0.6078289296671497,31235,-6695.323984857948,0.0
44,2.538609743118286,-3340.7222361797576,3681.344020829112,-20.678917857133147,-8971.688042608717,0.0,0.4595533137241081,0.1,0.003795146942138672,0.09012508392333984,0.050279975,0.20833248,-2413.4191878624088,0.3984933018816754,-16.73798799027223,0.0,800,0.05414295196533203,0.6642420941883312,0.6431273201144418,32035,-6008.048895773842,0.0
45,2.3997485637664795,-1027.2075369837314,1071.1299006004917,24.54393769898724,-2598.155035544318,0.0,0.4104955699189537,0.1,0.027232885360717773,0.08278441429138184,0.050522238,0.21529903,-2274.798022774541,0.6685786879421868,-5.170718746352084,0.0,688,0.039719581604003906,1.2134089102092604,1.170877163015312,32723,-211.83893180739145,0.0
46,2.4280145168304443,-2730.9554825289147,1786.5071073213667,-33.49824682147422,-4900.929569617515,0.0,0.42938504240778874,0.1,0.025735855102539062,0.08153295516967773,0.050536968,0.24621758,-2320.4137687499783,0.364907697869197,-13.657400386930647,0.0,677,0.04189109802246094,0.429719474323253,0.42297913438858176,33400,-210.90689501568022,0.0
47,2.5565171241760254,-946.1373015864655,741.9154869721759,-179.5702314052621,-1855.4920702425757,0.0,0.4116938266768994,0.1,0.0037832260131835938,0.07520079612731934,0.04954731,0.23540263,-2182.986122033627,0.191936311715764,-4.7640205988772575,0.0,719,0.08021020889282227,1.1952121890745206,1.054457947211027,34119,-64.90574570930076,0.0
48,2.4141530990600586,-3585.7647991815716,1057.1834755271193,-1936.6332431775354,-4881.990537997165,0.0,0.3825119457890906,0.1,0.0035538673400878906,0.07302689552307129,0.051309854,0.28611073,-2323.2639897484214,0.14337484974305909,-17.865955621349684,0.0,589,0.03635716438293457,0.38869865150874994,0.35955439471621475,34708,-1197.9952163869848,0.0
49,2.4747238159179688,-347.1785245797028,628.7919856744473,79.14489120189523,-1430.3825652172243,0.0,0.4143563477754748,0.1,0.0037882328033447266,0.07441377639770508,0.050792526,0.22098084,-2125.6554432315497,0.8038157093007046,-1.803623316811485,0.0,689,0.058057308197021484,6.2665587109268985,5.71266878972419,35397,-1092.8821615377733,0.0
50,2.5755553245544434,-2819.9811870138683,1635.9656876331453,-152.3072424970125,-4270.7790621493505,0.0,0.48176154429351603,0.1,0.09265780448913574,0.15222644805908203,0.049864084,0.25136635,-2195.0880176097817,0.36197360596800165,-14.164728216241652,0.0,800,0.05204153060913086,0.41055933749997675,0.4037480862273692,36197,-1660.7614778245306,0.0
51,2.584599256515503,-2237.2299775979095,3346.5102533708623,-32.67501643844379,-8011.071623984942,0.0,0.4798837391523864,0.1,0.1863105297088623,1.4744873046875,0.04953201,0.19004834,-2199.3022136085947,0.6171644475947522,-11.252686135412935,0.0,800,0.9012362957000732,0.7075837625688794,0.7006165201717302,36997,-1505.7330848544318,0.0
52,2.388720989227295,-1472.6260428036592,815.9193413345712,-118.43408530662029,-2300.8974870114034,0.0,0.3339607770617823,0.1,0.1927659511566162,3.104522705078125,0.049620662,0.28961515,-2126.634596528101,0.13121736638507525,-7.299578096714227,0.0,443,0.838585376739502,0.5724877310438578,0.5611597549582107,37440,-460.1738504414797,0.0
53,2.5653645992279053,-923.3773783608964,1504.1414208908761,-19.50981322998212,-3527.7401685874997,0.0,0.47212673837666036,0.1,0.19528460502624512,1.8402633666992188,0.051814895,0.19032738,-2006.3088747113807,0.3687101918257909,-4.714628424814789,0.0,800,0.8302443027496338,0.9150049541263165,0.8153253513496294,38240,-171.4094390707409,0.0
54,2.5626678466796875,-92.47685442916423,55.09532254407358,-43.95851222778388,-182.93351298078576,0.0,0.4808653913467869,0.1,0.010847091674804688,0.13425707817077637,0.050442524,0.21809216,-1814.925672683159,0.43186026249718973,-0.5915350961748826,0.0,800,0.06597471237182617,819.2509515631223,514.0413532616285,39040,-401.4214195139488,0.0
55,2.626103639602661,-1137.4530132825482,1934.4694422314765,61.32274490022493,-4486.838113576784,0.0,0.4576080170043402,0.1,0.1217644214630127,0.8443784713745117,0.04952613,0.19505787,-1747.1784067430979,0.6621193280843511,-5.785557620694873,0.0,800,0.04935503005981445,0.7373773492922917,0.7227589604953895,39840,-336.765496076896,0.0
56,2.5394163131713867,-763.012957932095,1080.2683073751703,-29.89989253349009,-2630.2900881438686,0.0,0.3438946899404092,0.1,0.0035805702209472656,0.07698297500610352,0.050505247,0.21508972,-1648.7618618619974,0.5332009002956674,-3.880997604583972,0.0,680,0.039650678634643555,1.227142046332911,1.096516063856655,40520,-337.65912227023836,0.0
57,2.535282611846924,-2164.819882785099,1699.2968192274757,-190.95301787668575,-4795.884478027054,0.0,0.40047164280301106,0.1,0.0033257007598876953,0.06761693954467773,0.050612316,0.25998515,-1700.3676639543078,0.2593823151975059,-10.793097774748269,0.0,605,0.0899956226348877,0.5651868680815103,0.5581216697721552,41125,-738.60007255831,0.0
58,2.5037434101104736,-878.3902258757075,783.4138408352215,102.6714622376155,-1777.781562583748,0.0,0.35627298282971603,0.1,0.0034027099609375,0.07994437217712402,0.0499826,0.2496899,-1618.1699201464478,0.5250616082830095,-4.39449580696174,0.0,537,0.058797597885131836,0.6871533146812135,0.6874598503295862,41662,-1756.8228638792282,0.0
59,2.6151304244995117,-1238.0215312151909,1629.0344443879167,-86.07734652126237,-4032.8009628831705,0.0,0.4580577283560281,0.1,0.014118671417236328,0.158097505569458,0.049642596,0.19572823,-1580.1550812533221,0.44657929273493596,-6.287771616558544,0.0,800,0.04721689224243164,0.6552310013306001,0.6527680209328226,42462,-131.6731342748697,0.0
60,2.543093681335449,-2749.1283380032082,3168.969470620966,24.740799688980374,-7706.337254124366,0.0,0.46842208470503444,0.1,0.003854990005493164,0.1762692928314209,0.049917165,0.19892024,-1697.0524069283108,0.5156913174935154,-13.780556221175983,0.0,800,0.062192440032958984,0.6967763236839639,0.6567053929248631,43262,-129.32512200347796,0.0
61,2.5035035610198975,-3104.725748872106,1107.6788277803607,-1748.3042809188778,-4773.574187940287,0.0,0.4492689421466724,0.1,0.0033822059631347656,0.07091379165649414,0.049577102,0.2385119,-1837.8197411226904,0.26584524821237615,-15.493510890046744,0.0,707,0.04250216484069824,0.39637854513608983,0.3043407009853125,43969,-126.43336225774596,0.0
62,2.5371787548065186,-2853.4527280901048,2359.7095830576745,-28.636527137935392,-5993.3697817238235,0.0,0.4495110134054758,0.1,0.04180288314819336,0.07657790184020996,0.049877338,0.20814373,-1939.383039819432,0.2672751745031238,-14.237950998400889,0.0,710,0.04203963279724121,0.5126013689303572,0.4639519208628896,44679,-124.94989406710344,0.0
63,2.6266283988952637,-5044.253703116569,3040.389648555626,64.3182942736282,-7808.429159782626,0.0,0.46714030870235956,0.1,0.047942399978637695,0.08447670936584473,0.050907265,0.23579678,-2249.8701061491456,0.49463152119660914,-25.16126401646936,0.0,800,0.06368517875671387,0.4929609699433211,0.3854205268227924,45479,-146.5910561782946,0.0
64,2.815850019454956,-1902.9340758968146,3252.6537934266644,15.308943858628156,-7536.123085891852,0.0,0.45717490485932666,0.1,0.04277372360229492,0.07805562019348145,0.048546888,0.18623339,-2215.176503123913,0.62941585768686,-9.581152600041667,0.0,800,0.051249027252197266,0.7744439491826279,0.7537002967476215,46279,-136.28448448054073,0.0
65,2.6145968437194824,-1674.899106530013,1819.1972173492093,233.8503710347296,-3924.514114749282,0.0,0.4477797628611939,0.1,0.003882169723510742,0.08017635345458984,0.049910992,0.22249699,-2161.1487634645227,0.5116291097948831,-8.440974825902709,0.0,800,0.06377029418945312,0.6662858076184797,0.5329238822063438,47079,-69.02824960573389,0.0
66,2.6351780891418457,-868.0367472725842,1438.117047177773,241.9574466850453,-3333.7422400082796,0.0,0.4754933483529527,0.1,0.024033308029174805,0.2138376235961914,0.04998708,0.20174423,-2031.8375618453288,0.6900464568839751,-4.438958994654653,0.0,800,0.049161672592163086,1.3693834053932832,0.9940592952133774,47879,-74.62114348383096,0.0
67,2.6341261863708496,-2070.5135135904457,2342.1541089559178,-6.425525432756179,-6049.845798888043,0.0,0.41680128677841455,0.1,0.08745265007019043,0.0839078426361084,0.051049445,0.21274437,-2035.7051570198405,0.21514438595306978,-10.322512019071167,0.0,732,0.048047780990600586,0.5018762519967691,0.5022968654895413,48611,-78.8432773352237,0.0
68,2.639357328414917,-1993.4226595712573,1292.8066061551224,171.1600732491923,-3182.6515241364855,0.0,0.49170042422040516,0.1,0.09885859489440918,0.13857269287109375,0.04982901,0.21560255,-2031.4769072749823,0.49566007034006726,-10.001903718899005,0.0,800,0.06230497360229492,0.2695034348494745,0.2640531223798905,49411,-1629.0133697784497,0.0
69,2.625619411468506,-3260.208935613765,2237.3341476551695,43.317615394348174,-6039.616771353569,0.0,0.48812673930851724,0.1,0.006028890609741211,0.07736325263977051,0.050357718,0.2057495,-2154.3501101088605,0.4646000126787314,-16.27213987626018,0.0,800,0.05996131896972656,0.40669290988501,0.36252763792090925,50211,-81.84484775329906,0.0
70,2.6003105640411377,-2818.807051265838,534.0936542493974,-1895.7519967642597,-3178.148332256745,0.0,0.48333968674390604,0.1,0.20165610313415527,1.5046148300170898,0.04995634,0.227881,-2220.795804224558,0.14465002278762895,-14.096629017029246,0.0,800,0.05389237403869629,0.14706747184601052,0.12492307215582248,51011,-71.21190008474122,0.0
71,2.544374942779541,-1865.9520489276188,1278.6329743097235,-63.34623919337456,-3613.7304391483053,0.0,0.45273942117568133,0.1,0.0037384033203125,0.07345271110534668,0.05035557,0.21754153,-2185.3114286948644,0.18921981041096886,-9.267994671639586,0.0,665,0.06093120574951172,0.44319437131334566,0.42458115474588204,51676,-140.3548320900789,0.0
72,2.6138827800750732,-1518.3525044940432,1624.2565982136032,-64.38625478072305,-4039.696619789463,0.0,0.45033126267751866,0.1,0.0035562515258789062,0.07611417770385742,0.05030484,0.23236659,-2118.6155362747822,0.34403575755597315,-7.657564367802834,0.0,714,0.06618523597717285,0.6933324483210882,0.6115668924173312,52390,-106.21083721737045,0.0
73,2.687418222427368,-265.10933201874315,253.192047041066,-92.09154077411638,-701.8190456063629,0.0,0.4530692653506643,0.1,0.003644704818725586,0.13489675521850586,0.049797174,0.21414074,-1933.2649158491786,0.5414214801660207,-1.4553184404719794,0.0,800,0.06560349464416504,38.61260949023583,21.220064138542522,53190,-82.57053327810617,0.0
74,2.6201841831207275,-1945.6620963990765,1176.7385939659903,1.558522617490537,-2959.217968861319,0.0,0.430402503762005,0.1,0.0035424232482910156,0.07797980308532715,0.050755605,0.2326059,-1934.5046339041683,0.20510875710058296,-9.730139271827634,0.0,764,0.10689353942871094,0.31716673075003443,0.3254477496963524,53954,-78.73019435366552,0.0
75,2.686911106109619,-609.1537078331753,1061.2612585584861,34.42749290399882,-2446.8814112065816,0.0,0.5243699510804483,0.1,0.0036668777465820312,0.07929372787475586,0.049113024,0.17465828,-1801.9695412970689,0.46805663107567724,-3.1440417349653003,0.0,800,0.08688735961914062,0.952625853853076,0.859968734661322,54754,-75.63495852779747,0.0
76,2.6652944087982178,-1114.5201107753867,1333.0651780750097,24.25275343514976,-3266.4644537135787,0.0,0.5003329970643422,0.1,0.01315617561340332,0.07385420799255371,0.05052202,0.18854132,-1733.2245982449006,0.2565225373750951,-5.6691447408163365,0.0,800,0.05990719795227051,0.6632089841586352,0.6406888309430683,55554,-71.46593468124367,0.0
77,2.5993077754974365,-2757.1740679593195,614.8799036381989,-2100.60094968434,-3575.3018338917723,0.0,0.4567403935136667,0.1,0.0037207603454589844,0.07470583915710449,0.050387774,0.22835128,-1835.6195452163424,0.1939271584330911,-13.75560091278343,0.0,744,0.05604076385498047,0.34438536592902624,0.29129721363959266,56298,-71.63764639782526,0.0
78,2.646728038787842,-1975.5315631327635,1246.3827091066962,13.551257430550967,-3382.1332178152034,0.0,0.49936279481425694,0.1,0.0036551952362060547,0.12252616882324219,0.050131038,0.1935438,-1849.6107470079846,0.3831876878859012,-9.880057538615235,0.0,786,0.08597207069396973,0.34510006706741125,0.29975680609734934,57084,-72.65219299407481,0.0
79,2.6767642498016357,-766.3436193003358,1043.7193000948212,-16.34018327204872,-2554.89206513059,0.0,0.48648014123474154,0.1,0.003709554672241211,0.07643699645996094,0.050216604,0.1947127,-1741.2840342372197,0.11578740362341032,-3.927394284621454,0.0,800,0.0820157527923584,1.2132050219969,1.0475497076073839,57884,-97.27147663366867,0.0
80,2.6430509090423584,-2002.153262676934,1469.6296705292111,-52.02729076882672,-3796.5464030214625,0.0,0.4814786798362875,0.1,0.003618478775024414,0.07942914962768555,0.050168205,0.20537102,-1767.3709570811911,0.18796052716050216,-10.011901844435839,0.0,793,0.08686542510986328,0.38984672295111344,0.3908564248038854,58677,-90.22609144667327,0.0
81,2.656266212463379,-1993.8067896683347,1365.0227153187466,-81.60699570839594,-3618.834605937327,0.0,0.51436879825236,0.1,0.0040056705474853516,0.07659196853637695,0.049697265,0.19487758,-1790.0145403399056,0.17083511070051,-10.002115385444913,0.0,800,0.07156729698181152,0.3590089084398757,0.3468993949167388,59477,-176.34541410752948,0.0
82,2.7234256267547607,-3608.475962262384,2342.249268891527,-28.615147960637223,-6333.434891091011,0.0,0.4966628215717869,0.1,0.004153251647949219,0.09805750846862793,0.05134542,0.19793496,-1971.8606825321535,0.317251908947315,-18.012368206586533,0.0,800,0.32674551010131836,0.4920725583234984,0.40922927328269876,60277,-100.8794909175863,0.0
83,2.659557580947876,-1056.5914762793427,1345.4852933179288,3.6100121084773917,-3350.6828244750736,0.0,0.4757992344100272,0.1,0.0036759376525878906,0.08338665962219238,0.050466202,0.2126973,-1880.3337619068725,0.21037140533966503,-5.378483752192803,0.0,800,0.07071590423583984,1.0723586679954644,0.9810025791848931,61077,-168.2657198889166,0.0
84,2.7375125885009766,-2361.54771183481,1384.3056467481238,5.667425266135707,-3471.3134747509635,0.0,0.5202096370495394,0.1,0.03180694580078125,0.2236943244934082,0.050513897,0.19787146,-1928.4551568996662,0.24602891554550932,-11.841140365318275,0.0,800,0.07645678520202637,0.2865950690905622,0.28945642135884303,61877,-125.40718450775717,0.0
85,2.6970174312591553,-3324.929024686243,297.4254903992377,-3070.1410432628504,-3812.064281292881,0.0,0.4828783434196892,0.1,0.01000213623046875,0.0771489143371582,0.05084731,0.22988066,-2068.102543678324,0.23815317240646997,-16.626494731471166,0.0,800,0.07372522354125977,0.21500280551375484,0.1629639137307309,62677,-187.55294011340717,0.0
86,2.766084909439087,-703.1491490500098,1084.4189305366904,8.286572951782976,-2575.6591193319073,0.0,0.4502558758458923,0.1,0.010831594467163086,0.08034396171569824,0.05007068,0.23395573,-1931.6072042154924,0.26812306267135316,-3.613283556791307,0.0,800,0.09023094177246094,1.670964879375157,1.2670479361069762,63477,-190.5347068965839,0.0
87,2.759122610092163,-2503.9094556754617,1496.6484455143457,-48.49237315419844,-3922.063523065488,0.0,0.4952405700440713,0.1,0.08778691291809082,0.08383369445800781,0.051285103,0.2131205,-1988.8374293614893,0.17847214559812916,-12.55230325961498,0.0,800,0.21506786346435547,0.2958691603166469,0.30072144523498096,64277,-192.93619343886704,0.0
88,2.7173240184783936,-796.2675389582538,1572.8837956757682,354.9188469853228,-3507.8963953404386,0.0,0.4716303934498453,0.1,0.0037355422973632812,0.07948732376098633,0.05026001,0.1981973,-1869.580440321166,0.6310491359980037,-4.079706065030827,0.0,800,0.11158490180969238,0.9742905052012973,0.8660055888623863,65077,-196.115182725606,0.0
89,2.7466230392456055,-1240.4468228840744,1510.850336711077,514.2849104727892,-2936.197478344218,0.0,0.4523884694269744,0.1,0.004004478454589844,0.07900524139404297,0.049985394,0.22007088,-1806.6670785774568,0.6146183128222265,-6.2694662055703,0.0,800,0.0854957103729248,0.45956841059235176,0.4395990554454232,65877,-190.85238921642107,0.0
90,2.774068832397461,-1287.9663027404658,1368.5110687029257,-3.1881585874653924,-3254.972194019869,0.0,0.4972162440742393,0.1,0.004270792007446289,0.07571196556091309,0.04947749,0.20210545,-1754.7970009937576,0.25665006429140086,-6.505782029778505,0.0,800,0.11504673957824707,0.48324420517574707,0.4773491635820949,66677,-193.76749271195152,0.0
91,2.768662691116333,-698.5857375616442,1236.248259020304,43.20923972728903,-2839.622371432124,0.0,0.469014754885196,0.1,0.010183572769165039,0.08104085922241211,0.05068113,0.20066139,-1649.1758746505461,0.5215176302503324,-3.592326844922554,0.0,800,0.08326363563537598,0.7087018066187274,0.6623447642213428,67477,-185.3944106638185,0.0
92,2.7586185932159424,-2661.352401566801,639.7734563724244,-1930.5017098477508,-3531.679216039568,0.0,0.48911624219701977,0.1,0.003726482391357422,0.09224510192871094,0.049223833,0.23122835,-1750.3935273421716,0.22936310861034917,-13.308313268797498,0.0,800,0.08753275871276855,0.2759989085802264,0.22615505316346607,68277,-186.09233279720968,0.0
93,2.7847676277160645,-1476.6830866409912,1456.5462849558455,-14.710200952002442,-2965.4691891141006,0.0,0.4757236220007062,0.1,0.004354715347290039,0.10343384742736816,0.05020697,0.21329126,-1723.0224832720537,0.3476813255465771,-7.448720613601463,0.0,800,0.06970071792602539,0.43714274458093727,0.4379138755078635,69077,-187.7563388309833,0.0
94,2.910808563232422,-891.3088720425608,1485.3651033732356,25.16458266147142,-3462.629565853692,0.0,0.47968340554186134,0.1,0.0037322044372558594,0.07659482955932617,0.050323356,0.19845799,-1639.8511221491046,0.35385264717810233,-4.55394941303414,0.0,800,0.08990931510925293,0.7326480783687267,0.6507385039540472,69877,-184.83012068745634,0.0
95,2.82730770111084,-18.855710863648294,30.61329691358478,27.830089841480603,-57.08999239309577,0.0,0.450331140199335,0.1,0.006663799285888672,0.07939743995666504,0.05126519,0.22611326,-1477.751581020559,0.4615917596890854,-0.22422552388296127,0.0,800,0.08514904975891113,1587.2793823032655,866.339231651854,70677,-182.26012187961769,0.0
96,2.7889156341552734,-1488.7347212586674,1506.0720643096663,8.943199432561924,-3295.047779472772,0.0,0.448083218728712,0.1,0.012073993682861328,0.11570048332214355,0.050031554,0.21604158,-1478.8498950443698,0.474851410933668,-7.477358862017328,0.0,744,0.07696843147277832,0.529668053543088,0.5255404725456467,71421,-193.02414363157325,0.0
97,2.8796677589416504,-1277.1560793625515,1284.6559455320112,43.88848393732302,-2760.4577697408263,0.0,0.46589284973511,0.1,0.018918991088867188,0.10330963134765625,0.04973219,0.2005907,-1458.6805134761878,0.44642677429743854,-6.452128269695581,0.0,800,0.07791948318481445,0.47281800148772624,0.45515515696292985,72221,-184.80891655574132,0.0
98,2.8705832958221436,-926.7533022875783,1565.3541559054306,37.884663635445285,-3637.249221231263,0.0,0.4579255861518808,0.1,0.02283787727355957,0.07832837104797363,0.048820034,0.19473231,-1405.4877923573267,0.3943480986407546,-4.732010945672141,0.0,800,0.08171248435974121,0.6723686049762371,0.6684325116752292,73021,-177.63524468237483,0.0
99,2.7831168174743652,-568.9930909978958,1004.6094464646121,57.11229965741588,-2308.259317216825,0.0,0.4559119681524975,0.1,0.004015445709228516,0.07823467254638672,0.050128426,0.21660177,-1321.8383222213838,0.6723365657616429,-2.9441924668806236,0.0,800,0.16295480728149414,0.8189136677197077,0.7648379572724503,73821,-143.85662822838856,0.0
100,2.786627769470215,-869.6471387725775,1528.6674868429354,27.91150946696424,-3517.3127448178952,0.0,0.5017395791051183,0.1,0.09381890296936035,0.13505959510803223,0.05015378,0.18844011,-1276.6192038765032,0.5781250635770135,-4.447362959682219,0.0,800,0.07054829597473145,0.6558632905732775,0.6538884678740192,74621,-140.27483767748856,0.0
101,2.786479949951172,-2258.196654768116,1693.0393686590053,-2.371963964630805,-4750.831574084917,0.0,0.49191008195016517,0.1,0.0037889480590820312,0.0897216796875,0.050359856,0.19245243,-1374.7769489656646,0.36795273896168434,-11.293634898936277,0.0,800,0.11283373832702637,0.43801061628566385,0.3669643191898253,75421,-122.98859124945314,0.0
102,2.825639486312866,-3368.3348160996684,1257.968010148039,-2163.623085344877,-5422.53275316496,0.0,0.47038329646362803,0.1,0.003773212432861328,0.15410852432250977,0.050387196,0.20986786,-1574.132735679065,0.12464474986453662,-16.778842070247016,0.0,725,0.06715059280395508,0.3948265139749755,0.2707358828765623,76146,-131.33279513215373,0.0
103,2.7951853275299072,-1254.8809048552366,1283.9888049991475,22.51722529717616,-2873.857002631617,0.0,0.4720390074846979,0.1,0.004408359527587891,0.07757902145385742,0.050141897,0.22210154,-1542.207552596682,0.32670737051589854,-6.3080771176593995,0.0,764,0.06930112838745117,0.5158327057463614,0.5237854694181554,76910,-133.52415015920107,0.0
104,2.7789649963378906,-964.5682478757311,426.85227198085,-253.35550301411,-1341.8674191735904,0.0,0.3804147333013205,0.1,0.0037643909454345703,0.07834315299987793,0.04906168,0.35702693,-1484.4436221245871,-0.18655967639050558,-4.8834352042097064,0.0,641,0.07237577438354492,2.1847338866314194,1.2080800598208368,77551,-141.3284087231975,0.0
105,2.8569297790527344,-1275.3290800671725,1238.3704534099356,-32.619850130340154,-2654.3510843433955,0.0,0.44186053821589477,0.1,0.006258249282836914,0.1303422451019287,0.05093631,0.22063434,-1463.5321679188457,0.3311191918147242,-6.4737921008139985,0.0,800,0.2068936824798584,0.4228453852068442,0.4100440246517163,78351,-116.85818147366592,0.0
106,2.8541226387023926,-1375.9186934675135,1357.487534096055,-6.483688054042063,-2790.864198323156,0.0,0.484638628443591,0.1,0.003908395767211914,0.07792544364929199,0.049696617,0.20272543,-1454.7708204737125,0.36617071289707726,-6.945646287235908,0.0,800,0.0867774486541748,0.39999287137691053,0.39054774096443334,79151,-116.64308428377323,0.0
107,2.848196268081665,-2274.885608429863,1349.6897637625575,3.1087609645316046,-3310.828777470736,0.0,0.4907244327212734,0.1,0.0040187835693359375,0.07848715782165527,0.04944118,0.20532109,-1536.7822992693277,0.24730182529477862,-11.40801619014869,0.0,800,0.07108259201049805,0.3376457213361378,0.2892679665114787,79951,-126.61828425550611,0.0
108,2.9054830074310303,-1444.1947203754216,876.9555198595583,-87.82012642083808,-2540.759051024446,0.0,0.45679154344275924,0.1,0.0035400390625,0.07509016990661621,0.04992618,0.23484369,-1527.5235413799371,0.37429280883596167,-7.285461872192277,0.0,753,0.06561994552612305,0.3430933596520011,0.3486227502281728,80704,-146.8187439252229,0.0
109,2.883477210998535,-750.2488611159401,923.981735360234,7.041489288062761,-2285.5673665138306,0.0,0.44806136870121566,0.1,0.09125614166259766,0.10679030418395996,0.049486313,0.19973053,-1449.7960733535374,0.3080072340112593,-3.8168758982000925,0.0,800,0.07385706901550293,0.6761822129487332,0.5250232405282742,81504,-141.94208112580247,0.0
110,2.8495123386383057,-1926.7262721488225,1250.7242789844609,13.204123189424656,-3175.6273000630567,0.0,0.44693003225731115,0.1,0.003725290298461914,0.07926130294799805,0.05039069,0.22939728,-1497.489093233066,0.22983896760113437,-9.635185412559364,0.0,719,0.06978321075439453,0.2974698683131021,0.29263419024605963,82223,-142.13987826963842,0.0
111,2.74180269241333,-2029.5643720409694,1270.3117609431217,21.864422072645763,-3308.7261114247417,0.0,0.4272807444693045,0.1,0.09172797203063965,0.1112511157989502,0.05047349,0.24309748,-1550.6966211138563,0.28422519724270023,-10.149638937498974,0.0,760,0.07079291343688965,0.2656634349134026,0.23117215264512528,82983,-138.93489986726203,0.0
112,2.828068733215332,-1578.989098844177,802.4725829598877,-285.1774295057144,-2273.5797505141068,0.0,0.4476062351818263,0.1,0.0036351680755615234,0.07675576210021973,0.05006817,0.22556004,-1553.5258688868882,-0.13179071152491975,-7.926443323235936,0.0,800,0.07555341720581055,0.34687080906123896,0.34001986529611444,83783,-134.47544916043054,0.0
113,2.866002082824707,-2039.3601860124993,1424.8804302406143,11.022277166589205,-3470.6413591938017,0.0,0.4961605047102805,0.1,0.008009195327758789,0.0767526626586914,0.050088204,0.21110977,-1602.1093005994494,0.25685980138162956,-10.230675168299772,0.0,800,0.09737539291381836,0.304463846121791,0.2948572136053519,84583,-122.26556046831213,0.0
114,2.852116346359253,-1706.9661396424458,1211.9791641838615,2.3481847831371834,-2924.1946494669564,0.0,0.4213365018446878,0.1,0.003735780715942383,0.07509708404541016,0.049387958,0.24446566,-1612.594984503749,0.23997653919892223,-8.535708696324381,0.0,715,0.0758357048034668,0.3486153393493472,0.3477996280455522,85298,16.73058782317697,0.0
115,2.8552072048187256,-1666.5571631759817,1650.9617106518342,14.995606924774078,-3329.603473209998,0.0,0.5003899683803554,0.1,0.003956794738769531,0.08631706237792969,0.049343906,0.2105975,-1617.9912023709724,0.23238334598199248,-8.39800040375891,0.0,800,0.18841934204101562,0.34208279398253066,0.33516376375979995,86098,-10.092370403587077,0.0
116,2.909229040145874,-1594.4433478949677,1606.0583197048436,-18.882794077305913,-3704.5198281059297,0.0,0.48560202828316457,0.1,0.0037987232208251953,0.08372044563293457,0.050010137,0.2099771,-1615.636416923372,0.46463381644392077,-8.038980285094842,0.0,800,0.07111024856567383,0.4206622860419797,0.41094050550024014,86898,-2.1965043971602967,0.0
117,2.8968937397003174,-1565.9936597254891,1564.4587258477009,2.8502256403076864,-3167.940868550592,0.0,0.48026815728552025,0.1,0.05855870246887207,0.08002233505249023,0.0505275,0.21299493,-1610.6721412035838,0.2662316526247905,-7.895090330023592,0.0,800,0.079833984375,0.36877075072998355,0.3563819226047335,87698,-36.01262328760161,0.0
118,2.7531862258911133,-2175.400192715601,818.3414459729643,-1233.3755631312383,-3001.0271426334207,0.0,0.4099584604101124,0.1,0.09228849411010742,0.40976691246032715,0.050320514,0.26499325,-1667.1449463547856,0.039554187810520045,-10.813636364121647,0.0,584,0.05206108093261719,0.19951924140367006,0.19605414257663928,88282,19.923581704058705,0.0
119,2.9196975231170654,-479.97538592395955,834.6421009146759,10.10604586083514,-1925.591070656952,0.0,0.42354829612852435,0.1,0.0033397674560546875,0.07841229438781738,0.050942715,0.27565047,-1548.427990311703,0.4341739408507246,-2.467223575296901,0.0,751,0.07374882698059082,1.2337985736093893,0.9472235838068644,89033,3.0904815368702763,0.0
120,2.928476572036743,-1911.6011052415186,1173.9173273934464,18.724015364227988,-2903.803638673156,0.0,0.4772847115701574,0.1,0.0037202835083007812,0.12298274040222168,0.049649898,0.22062252,-1584.7453018046847,0.19386720438022836,-9.590852545002114,0.0,800,0.09077906608581543,0.2174365531467027,0.21425739503735344,89833,2.240494540814526,0.0
121,2.9315216541290283,-382.55480645173395,605.4884404457979,20.897455237387202,-1429.7010359679546,0.0,0.40217920187924483,0.1,0.003498554229736328,0.07222628593444824,0.049533047,0.2405724,-1464.5262522693895,0.2709085210538473,-1.977459381230774,0.0,681,0.06226825714111328,4.6485794005353895,2.8798765545833986,90514,12.659576881288523,0.0
122,2.917551040649414,-1602.0406193691301,1228.6129159525028,-96.71502111423449,-2975.0825584171066,0.0,0.4489156396946817,0.1,0.09333229064941406,0.07866215705871582,0.048577175,0.22764862,-1478.2776889793636,0.3630306880725536,-8.044197126485717,0.0,800,0.07458615303039551,0.2831323354076086,0.2867753461948343,91314,-0.9322853446641469,0.0
123,3.006864070892334,-796.8196056746455,885.2673148019218,19.803344167231373,-2098.4650787731375,0.0,0.4382141886641869,0.1,0.08672904968261719,0.21502256393432617,0.047865562,0.22833347,-1410.1318806488919,0.3976397016135121,-4.050460647121454,0.0,800,0.21675872802734375,0.39970157236773024,0.3922124861081228,92114,2.7993457037897813,0.0
124,2.84556245803833,-698.4214879312613,694.4045200413831,19.344285588065027,-1490.236677906686,0.0,0.4161738426113524,0.1,0.0035555362701416016,0.07568359375,0.049797464,0.2819972,-1338.9608413771289,0.33786744722530326,-3.5257336891827795,0.0,740,0.06714582443237305,0.8585216287176661,0.7790659185389749,92854,-2.4225564656072507,0.0
125,2.852376699447632,-1321.1631809851785,1358.1187152312807,29.7747311355227,-3132.839843877352,0.0,0.43772261686519387,0.1,0.0036509037017822266,0.07964897155761719,0.050979167,0.23542699,-1337.1810753379339,0.413376178861573,-6.639732076503309,0.0,727,0.07952332496643066,0.445376272830292,0.429175728861393,93581,-4.206044188486601,0.0
126,2.877194881439209,-2243.4664925941106,764.8745067302198,-1038.5823516145747,-3133.491202054033,0.0,0.5084857749683619,0.1,0.08489203453063965,0.12995147705078125,0.049911615,0.207295,-1427.8096170635517,0.07436385612831561,-11.217722704102858,0.0,800,0.1939535140991211,0.2732727551266144,0.22390258817209743,94381,2.5330804130989484,0.0
127,2.9810473918914795,-1521.0853542990872,1528.3940688019645,-6.830564214269434,-3373.388952383115,0.0,0.48121610505913265,0.1,0.03279733657836914,0.07618093490600586,0.049494695,0.21640593,-1437.1371907871053,0.32341677337362884,-7.6713543993035485,0.0,800,0.06942939758300781,0.3995656191523122,0.3572670657364813,95181,-3.9166141138477073,0.0
128,2.8932790756225586,-1350.1346353292179,1275.494150853256,-30.028482068022527,-2735.3840640790445,0.0,0.44903237465555973,0.1,0.0038726329803466797,0.07703089714050293,0.050150186,0.22089408,-1428.4369352413166,0.344616386279062,-6.784812801197533,0.0,777,0.0828707218170166,0.3856711737823919,0.38180506153415333,95958,-0.7574516045841738,0.0
129,2.9347715377807617,-749.3860515203843,856.4195865030697,29.667452793422918,-2086.991749009092,0.0,0.44681748101162955,0.1,0.0036017894744873047,0.07869815826416016,0.050121423,0.22390968,-1360.5318468692235,0.3798521071572948,-3.780117794083977,0.0,798,0.08582806587219238,0.8883810720818432,0.6056301706659069,96756,-3.788654107100219,0.0
130,2.985569477081299,-2359.6856413644255,1390.8459427517173,-17.58200001736937,-3554.1063721469413,0.0,0.4831770627101738,0.1,0.006224870681762695,0.08802342414855957,0.051302414,0.22418879,-1460.4472263187438,0.2243373933524974,-11.831652179378974,0.0,800,0.0702059268951416,0.2921903022814993,0.2532063537577788,97556,-10.018207220548872,0.0
131,2.9454760551452637,-803.5963865824599,1292.9683105384227,12.785376666851786,-3040.3337148483415,0.0,0.46787775595292863,0.1,0.003717184066772461,0.07971477508544922,0.049951755,0.22866301,-1394.7621423451155,0.3892710555866745,-4.115104456237247,0.0,800,0.09037613868713379,0.5358856571680619,0.5092953985146205,98356,-17.535002984309,0.0
132,2.942662000656128,-1979.5538085219655,984.9310764016766,-1051.59281637183,-3478.999334795937,0.0,0.4320811649875618,0.1,0.004141092300415039,0.07940030097961426,0.049400665,0.28343764,-1453.2413089628008,0.7663480621209596,-9.907780797420266,0.0,800,0.07083272933959961,0.36779117407592743,0.28714186827282584,99156,-17.833607289397673,0.0
133,3.0429928302764893,-1062.215911473906,974.9230056692762,-73.31268090868427,-2258.9536253349784,0.0,0.4878063490891773,0.1,0.19636869430541992,1.966261863708496,0.04949068,0.20389795,-1414.1387692139115,0.3048891764707645,-5.378369735366691,0.0,800,0.9319937229156494,0.7055697722644184,0.6919864807145908,99956,-13.77453782559266,0.0
134,2.9556851387023926,-1632.9699679278087,956.4701327192571,-2.547951019258268,-2401.8574610938554,0.0,0.4902688731295816,0.1,0.003977298736572266,0.13369083404541016,0.05021365,0.21851796,-1436.0218890853012,0.42059251539340087,-8.199095171789887,0.0,800,0.07333111763000488,0.17759661461744894,0.17603634192814496,100756,-10.501266414227173,0.0
135,2.9295973777770996,-100.27594807836027,203.98733995079297,65.18269017277971,-444.12924941809615,0.0,0.40829750574308127,0.1,0.06384038925170898,0.07594609260559082,0.052119218,0.25379288,-1302.4472949846072,0.48517720059083136,-0.5986189982264635,0.0,800,0.07097792625427246,90.23094340188065,54.93058478666818,101556,-23.08247134881748,0.0
136,2.9477787017822266,-9.00079317159464,31.26688480556483,18.191605759648926,-60.337702381406054,0.0,0.4586065293065049,0.1,0.003903627395629883,0.11023259162902832,0.046476822,0.23121414,-1173.102644803306,0.6613265262608417,-0.17589939929949006,0.0,800,0.07401657104492188,366.2907603731333,194.5460168742593,102356,-24.198575801859658,0.0
137,2.883866310119629,-1131.694750019636,1245.6484193934944,10.998270200863182,-3133.0752535937754,0.0,0.46317151333397893,0.1,0.0038614273071289062,0.07884740829467773,0.049922552,0.22513047,-1168.961855324939,0.43482335126056604,-5.724454802444708,0.0,800,0.08713459968566895,0.3754887522913865,0.369635357286904,103156,-8.051832837386867,0.0
138,2.9456045627593994,-1633.4817092874969,1577.574007147786,-49.227902597096076,-3486.735323196323,0.0,0.5197683694475774,0.1,0.003951311111450195,0.07848787307739258,0.04858594,0.19341418,-1215.413840721195,0.33686195427549226,-8.233095820791506,0.0,800,0.07287931442260742,0.3969297348104255,0.37589480615809656,103956,21.880574372399447,0.0
139,2.9632649421691895,-874.0761310451845,1440.4801251703566,9.39362046330213,-3367.8805273536263,0.0,0.47652477274041993,0.1,0.0037009716033935547,0.07603216171264648,0.05158371,0.21628064,-1181.280069753594,0.35750267223842486,-4.466273541678147,0.0,800,0.07446551322937012,0.5748891132358367,0.5410853619187149,104756,-15.086427737113846,0.0
140,2.9024550914764404,-750.7593851208471,1120.0689847771025,-12.2517491550381,-2680.965725673324,0.0,0.44432943594749036,0.1,0.09547233581542969,0.13903522491455078,0.050428167,0.2363593,-1138.2280012903195,0.17321554138536177,-3.8491066247675394,0.0,800,0.07514238357543945,0.6662110273110801,0.6126572999853792,105556,-3114.239291050692,0.0
141,2.941619634628296,-550.9941590299578,1358.0844719733582,697.8011007809803,-2846.5183870949486,0.0,0.44670424436720574,0.1,0.0037229061126708984,0.07717180252075195,0.049255483,0.2206379,-1079.5046170642834,0.9097298322678765,-2.8274449689749943,0.0,783,0.08069586753845215,0.5232333624263965,0.5171333505092729,106339,5.536659583446642,0.0
142,2.974367380142212,-3019.487019506263,260.01955157323664,-2728.9961062184434,-3337.4417082572236,0.0,0.5082749111685818,0.1,0.005902290344238281,0.08276820182800293,0.05015023,0.19875875,-1273.5028573084815,0.06753534387596369,-15.097577827401967,0.0,800,0.07203531265258789,0.3392916068137151,0.20377799976939848,107139,4.595877618037304,0.0
143,2.8858234882354736,-902.0074607865164,851.8595474078705,-63.56427829335763,-1958.3059646989939,0.0,0.45020861682615004,0.1,0.03358316421508789,0.2118077278137207,0.04952105,0.22685733,-1236.353317656285,0.2605983566211494,-4.5430258574461915,0.0,727,0.06612634658813477,0.5906311978157913,0.55290985793109,107866,15.186541755465816,0.0
144,2.9624972343444824,-1342.799895321266,1345.080424259686,61.08092393314599,-3171.579441780518,0.0,0.44622085585358623,0.1,0.005297422409057617,0.07724332809448242,0.05058486,0.22732906,-1246.9979754227832,0.48557234418874795,-6.748128611198663,0.0,738,0.06781315803527832,0.3059855697580358,0.30361293050081073,108604,19.064594578217942,0.0
145,3.055708169937134,-1272.5992908321975,912.9901814324605,-289.73792089247115,-2221.708599271304,0.0,0.47661375453827776,0.1,0.07755494117736816,0.1314077377319336,0.050068945,0.21538617,-1249.5581069637246,0.15538390787639117,-6.425585451482563,0.0,800,0.0827033519744873,0.6467111111000668,0.6097345783672337,109404,19.204387735870487,0.0
146,2.9499313831329346,-1767.6851381709234,1563.465085330464,-105.38291721861555,-3420.1995089393736,0.0,0.48084852521050364,0.1,0.07806754112243652,0.07757735252380371,0.049969792,0.22028922,-1301.3708100844444,0.17695861883602057,-8.87109168746611,0.0,800,0.07150483131408691,0.34365194234618684,0.32955492286180693,110204,7.1378055413098345,0.0
147,2.9275400638580322,-718.6420211479834,997.7223537217106,32.76218035578698,-2413.7895230920562,0.0,0.4472566511690728,0.1,0.003802061080932617,0.07871055603027344,0.049850587,0.23588352,-1243.0979311907984,0.3530920130564664,-3.658595826370303,0.0,800,0.08763599395751953,0.3957746057458953,0.3925299517825065,111004,-750.0719965837208,0.0
148,2.942540168762207,-1707.2520398995766,1193.2261144668125,-155.61807559460078,-2940.036017803616,0.0,0.4649244531424146,0.1,0.04568123817443848,0.09539532661437988,0.050474785,0.21839933,-1289.5133420616762,0.11473408439063015,-8.56880805590757,0.0,800,0.14541316032409668,0.30485475333330136,0.28627022371999034,111804,-3555.868452955145,0.0
149,2.9815566539764404,-841.4957831751697,1024.983864833031,21.15843503196225,-2506.8242092162072,0.0,0.4519777416800825,0.1,0.010967731475830078,0.11416339874267578,0.050920825,0.22749104,-1244.7115861730256,0.5236871027353897,-4.305127633056634,0.0,800,0.08872580528259277,0.398459992152717,0.39634071962707734,112604,-3423.1978766278353,0.0
150,2.9453656673431396,-1136.9026801698126,1025.6234214222222,10.958397827624186,-2692.9662461276976,0.0,0.4561071881450624,0.1,0.0037758350372314453,0.07979536056518555,0.049492445,0.23383105,-1233.9306955727043,0.3843701470408877,-5.7189294523661625,0.0,800,0.0761573314666748,0.3971886498034841,0.3608416751772905,113404,-3326.629753462301,0.0
151,2.9568965435028076,-480.26572739412387,822.1971430300177,2.675599913159278,-1904.2929904024707,0.0,0.44113769904467837,0.1,0.0039014816284179688,0.07954072952270508,0.048913635,0.25503734,-1158.5641987548463,0.4796519632661736,-2.499763808646001,0.0,800,0.08698749542236328,0.4029464368793949,0.3673475986654083,114204,-3848.8104433211374,0.0
152,3.1323816776275635,-372.1423136529315,378.0921918605743,7.61885602721826,-853.7441809338092,0.0,0.41760731816114977,0.1,0.0036094188690185547,0.0779411792755127,0.049604293,0.3127877,-1079.922010244655,0.594223645199612,-1.9903017589042915,0.0,800,0.07094240188598633,4.371107552482897,3.1936310985921152,115004,-8321.612401324528,0.0
153,3.0959575176239014,-599.930134640362,960.3945850475423,37.79912466372697,-2257.3360331363856,0.0,0.4081540835145745,0.1,0.0040972232818603516,0.07855010032653809,0.050621342,0.33904427,-1031.9228226842258,0.5880794649216233,-3.098360242096299,0.0,800,0.12265968322753906,0.3403702451455211,0.34454269923089575,115804,-5945.771648321045,0.0
154,3.1429219245910645,-948.7171385656567,1558.4891990636331,28.700440726949253,-3645.221012270079,0.0,0.4320145637625593,0.1,0.007980585098266602,0.0915842056274414,0.049428776,0.2255188,-1023.6022542723689,0.34652361535832815,-4.8405394759299725,0.0,800,0.07413077354431152,0.5711991199688065,0.5669823994717671,116604,-5246.632432628759,0.0
155,2.971005439758301,-96.83364824222822,61.421331412755535,8.291377994800722,-144.8425080019882,0.0,0.4525349718141686,0.1,0.00412750244140625,0.154679536819458,0.0505329,0.25449586,-930.9253936693549,0.4311082037974626,-0.6138277982233787,0.0,800,0.07218718528747559,153.13499116903265,102.25795679272267,117404,-4774.584992581191,0.0
156,3.1135170459747314,-134.74491394928663,109.38144668094405,10.536488489726025,-289.9859152507687,0.0,0.44447983796899293,0.1,0.0035996437072753906,0.08020401000976562,0.05170702,0.27945584,-851.3073456973481,0.3921606866050845,-0.8024617314043221,0.0,800,0.09491562843322754,31.256192083622704,21.542720754461033,118204,-5182.3330407807125,0.0
157,2.9925291538238525,-621.4591464255333,938.3344960164859,12.194320013149019,-2243.3314288768265,0.0,0.4785202812762655,0.1,0.01786971092224121,0.07545614242553711,0.048842877,0.2220664,-828.3225257701665,0.2970088413574229,-3.204322465859932,0.0,800,0.0773630142211914,0.743699257824971,0.7187864628983512,119004,-4348.647601952864,0.0
158,2.9216244220733643,-307.17645875133405,372.93796592669327,-62.461440624907425,-951.4800913407199,0.0,0.44441144497102036,0.1,0.0043833255767822266,0.10702395439147949,0.049514,0.28292856,-776.2079190682832,0.45560763980515967,-1.6646146580018013,0.0,800,0.07232403755187988,1.342574380041201,1.32851168375011,119804,-4858.465453239904,0.0
159,3.045808792114258,-1033.811206516137,1021.6201292451789,72.80723269029176,-2184.2682478245224,0.0,0.45114763085813697,0.1,0.003778219223022461,0.08138537406921387,0.050509576,0.2347776,-801.9682478130686,0.4378728294508538,-5.236591641727973,0.0,800,0.07431435585021973,0.5838940445796567,0.5051885878008681,120604,-4057.8273211113606,0.0
160,2.9698431491851807,-686.8174085271291,934.0415686997057,-98.57407057674968,-2303.778427924119,0.0,0.42262510344134374,0.1,0.0036804676055908203,0.07900214195251465,0.049287375,0.25649366,-790.4531638844746,0.29630945960952,-3.5301722924094845,0.0,800,0.07320880889892578,0.6889706319223871,0.6775737660676041,121404,-4915.441377649378,0.0
161,3.0205564498901367,2.769182330320138,60.76880202400497,63.67047232721634,-98.45615963778121,0.0,0.4420849793380934,0.1,0.09145188331604004,0.08276653289794922,0.049862046,0.26715717,-711.1309292629952,0.5622995612008544,-0.11607437563915585,0.0,800,0.0818474292755127,89.03433772318448,62.58299172405516,122204,-4614.783192195743,0.0
162,3.040863513946533,-120.91045417449918,212.7759754344275,107.85151120849143,-462.34442997396565,0.0,0.4064524863019383,0.1,0.0441431999206543,0.08121585845947266,0.04984569,0.3713045,-652.1088817541456,0.5300966957733414,-0.7348070974427902,0.0,800,0.07287859916687012,11.093809040108967,8.347674171757475,123004,-4402.714581869598,0.0
163,3.1214892864227295,-1076.002493577666,879.615783794992,26.80991162814647,-2403.946007311115,0.0,0.47199664890752974,0.1,0.06564569473266602,0.09275245666503906,0.050775517,0.21110058,-694.4982429364977,0.26330174466284817,-5.414239251998323,0.0,800,0.09482097625732422,0.43061721848996404,0.3400364570266786,123804,-4218.61630319857,0.0
164,3.1052303314208984,-371.7449115209517,567.5507205829326,40.445577012341715,-1350.185898087719,0.0,0.4232736842569419,0.1,0.00389862060546875,0.07898449897766113,0.051259488,0.30341077,-662.2229097949431,0.456155292166303,-1.9574705249299322,0.0,800,0.0755000114440918,0.4255615345017881,0.384349463513956,124604,-4152.68464499038,0.0
165,2.9642412662506104,-1145.2062345889783,1187.055048187523,35.45296389434298,-2515.2274798987937,0.0,0.43982299211652204,0.1,0.0038383007049560547,0.0850367546081543,0.050437786,0.24483767,-710.5212422743466,0.38690609237677737,-5.792090724815372,0.0,800,0.10065841674804688,0.34010241928040885,0.2663341342648995,125404,-3499.429883766869,0.0
166,3.008561134338379,-632.7188372417502,515.7314425425847,-79.33564506997357,-1315.434980936769,0.0,0.43227725368820036,0.1,0.0036368370056152344,0.07871508598327637,0.048741627,0.25433648,-702.741001771087,0.26390419542972976,-3.197250461730634,0.0,800,0.07157754898071289,0.5407243479486309,0.468680395458586,126204,-3639.072054723975,0.0
167,3.02197265625,-521.8249071607991,588.6313989926969,74.40314099258586,-1498.8929927526983,0.0,0.41989441873318567,0.1,0.0039937496185302734,0.09979081153869629,0.050620798,0.29231456,-684.6493923100581,0.4114434829778729,-2.7060688346265844,0.0,800,0.07676315307617188,0.32194103069655283,0.306298426628716,127004,-3816.7408242279143,0.0
168,3.025838613510132,-72.26674264147239,44.57526952989673,2.026353524189959,-110.54145312946079,0.0,0.41528619774851816,0.1,0.003843545913696289,0.07752680778503418,0.04919175,0.36652616,-623.4111273431996,0.4076202556499539,-0.49088725308763126,0.0,800,0.09111547470092773,101.05154523172965,77.66544758856891,127804,-1037.708010129236,0.0
169,3.0292208194732666,-146.89858603137338,42.074954104720106,-95.78972873347381,-211.78116431730624,0.0,0.42630229599117725,0.1,0.003916740417480469,0.07732725143432617,0.049365595,0.26492321,-575.759873212017,0.37575097452936024,-0.8327634034842399,0.0,800,0.08025217056274414,26.89631920268679,18.953601989837747,128604,233.82033012127786,0.0
170,3.0272574424743652,-83.14833731127338,100.03866559142338,17.15541804362111,-223.0273972147311,0.0,0.4083428711138083,0.1,0.003675699234008789,0.07684588432312012,0.049968652,0.31486,-526.4987196219428,0.5336004254045937,-0.5449321187418126,0.0,800,0.07973408699035645,46.0831007121651,31.780760739847157,129404,-63.5969814356919,0.0
171,3.0315775871276855,-111.60688687047507,89.35139749096369,24.173186543386034,-219.18332550238864,0.0,0.4035916364180712,0.1,0.010830163955688477,0.07558822631835938,0.049728647,0.43910015,-485.00953634679604,0.39270295427011126,-0.6864504736380728,0.0,800,0.0802006721496582,26.182476583638394,20.999808242345615,130204,-434.84509956333096,0.0
172,3.0704164505004883,-510.70022078719563,830.2860220993048,24.16020268470918,-1946.293294919062,0.0,0.445996404930463,0.1,0.007223844528198242,0.07467794418334961,0.048972268,0.23479603,-487.578604790836,0.470666854306179,-2.6521070065201626,0.0,800,0.08116030693054199,0.9636483555738404,0.9534194917972232,131004,47.7597801426705,0.0
173,2.97939133644104,0.3914677320748021,27.4403108395081,31.120059509422774,-42.371313319751856,0.0,0.3365703467247126,0.1,0.004291057586669922,0.08265304565429688,0.049252164,0.6198601,-438.7815975385449,0.5854819732140928,-0.12894209581814425,0.0,800,0.0863490104675293,24.18699798919712,23.833361659672768,131804,49.75040079973951,0.0
174,3.0179755687713623,0.17423598251144412,40.028241889917076,41.64523630655615,-56.79401340889652,0.0,0.41316656032027177,0.1,0.0037543773651123047,0.08186674118041992,0.049163226,0.30583242,-394.88601418643924,0.7612933529039708,-0.13678926980150974,0.0,800,0.07768011093139648,5.716540880856147,5.034946647315943,132604,-2736.6287502929194,0.0
175,3.067795515060425,-23.08589605975976,48.17323888745563,25.986352140337278,-102.99900337840326,0.0,0.36294834537712234,0.1,0.0038824081420898438,0.07774567604064941,0.049509935,0.69935507,-357.7060023737713,0.5167829308868934,-0.24524590660662715,0.0,800,0.07336950302124023,22.3510067543356,18.877075035849,133404,22.42840188355621,0.0
176,3.040864944458008,35.97653039605052,89.59863388360014,150.55152458885658,-99.87001058225707,0.0,0.32823117692368203,0.1,0.003644704818725586,0.08219408988952637,0.04822199,0.4852288,-318.33774909678914,0.7472181716296972,0.07472443184326896,0.0,800,0.07635879516601562,3.4162343218249376,3.061274059613252,134204,29.56334275434075,0.0
177,3.076439142227173,-293.22729915138905,476.4286819589579,28.118233465964227,-1114.948043475836,0.0,0.4002998286603134,0.1,0.0035810470581054688,0.07829022407531738,0.050461512,0.3225008,-315.82670410224915,0.5315264361597136,-1.5645533697920646,0.0,800,0.07411026954650879,0.7394680504086876,0.7014097589950945,135004,30.17283857667083,0.0
178,3.049736261367798,-586.6729110609132,756.3680846889515,19.745998722251418,-1881.2011623167423,0.0,0.4583217250885374,0.1,0.003732919692993164,0.07732105255126953,0.049851105,0.21682002,-342.9113247981156,0.47381622266624335,-3.06233492892805,0.0,800,0.07683086395263672,0.9706152646646461,0.9578951583400781,135804,-80.71061735792891,0.0
179,3.1100566387176514,-50.61901075992215,56.02118726761679,3.3930306158481898,-131.91029874966702,0.0,0.38914979075134903,0.1,0.0037882328033447266,0.08760476112365723,0.050999437,0.3617215,-313.68209339429626,0.5661138019773483,-0.38313779191303715,0.0,800,0.08171844482421875,12.888808138944958,12.808638507474484,136604,-5.336205153473479,0.0
180,3.0927727222442627,-87.347100127242,88.48739188173747,5.670948150992076,-230.05886967242202,0.0,0.37272467647951907,0.1,0.003701448440551758,0.07935667037963867,0.04765142,0.4839168,-291.04859406759084,0.6587219697838714,-0.566592675087471,0.0,800,0.07448697090148926,1.8127319485153215,1.7694933835807498,137404,-66.65063712782445,0.0
181,3.0937860012054443,-79.40491446684322,114.70487572334639,38.62081951065243,-268.44948354913095,0.0,0.3885449790661524,0.1,0.003768444061279297,0.07873916625976562,0.04977422,0.50503534,-269.8842261075161,0.5214582309639105,-0.5268124352677444,0.0,800,0.07365608215332031,8.340682143863685,7.7229076764610305,138204,-63.20243146011978,0.0
182,3.0510005950927734,-185.0939285304419,180.08241637002422,-29.889376319752536,-490.05461120294893,0.0,0.3910693360005581,0.1,0.00360107421875,0.08586382865905762,0.050067913,0.3772155,-261.4051963498087,0.4261161647009501,-1.0534594895692302,0.0,800,0.07309842109680176,2.7043119873919346,2.3466462362904834,139004,-79.32500048804816,0.0
183,3.125088930130005,-88.53687523424148,106.53362901036972,27.53883893668369,-204.76460106765953,0.0,0.3525420444945519,0.1,0.003631114959716797,0.08997058868408203,0.04867171,0.6906741,-244.11836423825198,0.45071837628825406,-0.5721369400114338,0.0,800,0.0730443000793457,4.319436349026201,3.971120752147495,139804,-60.140839090912436,0.0
184,3.20162296295166,-159.35927056227632,164.57660008610426,37.062505053770735,-399.08231925957784,0.0,0.3546608680757106,0.1,0.0043108463287353516,0.07903909683227539,0.05076243,1.0551362,-235.6424548706544,0.45442178400120625,-0.9263714822365359,0.0,800,0.08427143096923828,1.1606756897880282,1.1075105462184358,140604,-25.269944658935074,0.0
185,3.1230969429016113,32.148447075419874,30.806041609114608,64.01457033418296,-14.36410596165179,0.0,0.32745407699139195,0.1,0.0040264129638671875,0.07652139663696289,0.049560662,0.939118,-208.86336467604696,0.6982098560440324,0.02914860492026302,0.0,800,0.07772970199584961,5.757294244047948,5.418352449460453,141404,-73.04551907460733,0.0
186,3.186466693878174,-402.86557558319123,394.1717028046648,-2.1323193572021624,-808.239726971405,0.0,0.41828253687987593,0.1,0.003892183303833008,0.08192920684814453,0.050033193,0.27727202,-228.2635857667614,0.44158212857029083,-2.0810680519904805,0.0,800,0.07484865188598633,0.9621556950442239,0.9514518743470674,142204,-44.94632170344395,0.0
187,3.0886409282684326,-11.624073109912981,82.89658673676969,50.36338616068216,-154.09881562268157,0.0,0.34209151423954504,0.1,0.030896425247192383,0.07886791229248047,0.05134718,0.67669916,-206.59963450107654,0.7113234434847554,-0.19020804194136795,0.0,800,0.10815286636352539,3.9462768831044084,3.8525807800734153,143004,-700.2836917204869,0.0
188,3.0737099647521973,-600.9884690074258,793.2653538296626,-66.2096390973196,-1967.4437997288,0.0,0.41591415383611935,0.1,0.02637004852294922,0.07845473289489746,0.048834834,0.24736753,-246.03851795171147,0.3935177396058223,-3.038973007591235,0.0,800,0.09235763549804688,0.8252639333622338,0.7585659699721112,143804,-40.96916459397469,0.0
189,3.1051394939422607,-480.7000670415782,873.9053514973688,37.404753976603835,-1994.0946899030037,0.0,0.44908651144968076,0.1,0.003681182861328125,0.07896733283996582,0.04961666,0.21871348,-269.5046728606981,0.5620740693596884,-2.5013635858158754,0.0,800,0.0858149528503418,0.9556232776478968,0.9336250106250872,144604,-40.908662365347496,0.0
190,3.1928889751434326,-129.8310536075182,280.75360146660364,55.650481928923966,-615.3080120208662,0.0,0.3722442297215989,0.1,0.003756999969482422,0.08034181594848633,0.04845643,0.44644448,-255.53731093538013,0.5693353890184791,-0.7483038319110772,0.0,800,0.0912315845489502,0.3681987275982016,0.33285505960251416,145404,-4.842528582255167,0.0
191,3.0926826000213623,-681.745264248898,900.1375908257801,26.411213370132298,-2224.839233976674,0.0,0.4471559497034624,0.1,0.08720517158508301,0.28024864196777344,0.049959097,0.20528315,-298.1581062667319,0.2910714486086753,-3.5366409957589853,0.0,800,0.08879613876342773,0.6060649871287355,0.5673712645539699,146204,-4.575887167865081,0.0
192,3.153801918029785,-305.40266436987804,543.5523178646104,90.16911602748598,-1239.960279335571,0.0,0.4110614343743969,0.1,0.09559416770935059,0.12460684776306152,0.05043748,0.35966846,-298.88256207704654,0.5960820497318648,-1.6564191747786563,0.0,800,0.0804603099822998,0.9762114116143056,0.9788401906401369,147004,0.796457949365788,0.0
193,3.0611116886138916,-734.75471646593,1154.8971005096437,46.618471261628606,-2726.1462911067024,0.0,0.4906662455329496,0.1,0.0036208629608154297,0.07805705070495605,0.04975476,0.20417507,-342.4697775159349,0.6098067237608255,-3.7726156418080894,0.0,800,0.0765085220336914,0.9539761927142686,0.947974871167735,147804,-4.012811578115442,0.0
194,3.1968722343444824,23.10409781607582,12.7574829585994,41.33724180716309,5.902087691993232,0.0,0.3186980476054961,0.1,0.19754552841186523,1.1067907810211182,0.051452536,1.2090302,-305.9123899827338,0.6993156767437227,-0.016020052003573156,0.0,800,0.23558855056762695,6.562940068608597,6.607686231807032,148604,18.925969245683348,0.0
195,3.1117470264434814,-78.71601148338877,100.73903075942924,39.050786173352286,-232.46851159439674,0.0,0.40198541462019677,0.1,0.056835174560546875,0.08625507354736328,0.050764512,0.6178656,-283.19275213279934,0.613290416620011,-0.5235720050161563,0.0,800,0.08895993232727051,2.263857843335895,2.0984793532439068,149404,-3755.798728309141,0.0
196,3.1605162620544434,-23.45620070073774,56.39439381442882,44.579521964746924,-110.15451943308257,0.0,0.35918417383327106,0.1,0.004605293273925781,0.08861184120178223,0.049874306,0.6456865,-257.2190969895932,0.6483107123275442,-0.24818965837669207,0.0,800,0.0782010555267334,9.037631003156482,8.057520559757673,150204,-38.98331218180612,0.0
197,3.152292013168335,-96.63742229819292,150.30729967672707,82.1989650126348,-306.020944067923,0.0,0.3693353829820637,0.1,0.0038590431213378906,0.07770824432373047,0.04940642,0.4545354,-241.16092952045318,0.5824207407804435,-0.6129336819618685,0.0,800,0.08243560791015625,6.471962591162034,5.68723164315631,151004,-113.07753063562389,0.0
198,3.187842845916748,-50.411556843489386,88.52268000394061,66.24567571064031,-136.8494269685631,0.0,0.3767519179252937,0.1,0.0365138053894043,0.08217620849609375,0.049551204,0.6389292,-222.08599225275682,0.5306526627426702,-0.381448882042459,0.0,800,0.10360074043273926,10.287704816861666,8.863429072518628,151804,-121.08971485173088,0.0
199,3.217909336090088,10.347012361110874,20.500760644455557,30.167364505213925,-18.635715201877357,0.0,0.4296448527988869,0.1,0.003928422927856445,0.07889962196350098,0.05141842,0.44221005,-198.84269179137004,0.6835538936405653,-0.0785858908721555,0.0,800,0.07451033592224121,12.275209809006173,11.20286533143407,152604,-120.05314692163428,0.0
200,3.1524930000305176,-1248.3133176785288,1225.8767789380167,12.101008046978999,-3029.548839337742,0.0,0.4949820931898262,0.1,0.003849029541015625,0.09533977508544922,0.05025053,0.20221062,-303.7897543800859,0.554316698113653,-6.3709348815462,0.0,800,0.09978294372558594,0.8907511625861054,0.8785723983447525,153404,-105.51925702930315,0.0
201,3.1467819213867188,-276.08507969996435,304.47997154036113,-44.69050392338934,-796.8558653673437,0.0,0.4146480951306496,0.1,0.07169246673583984,0.08342719078063965,0.05009764,0.25943127,-301.01928691207377,0.4846587248396232,-1.4780918548833606,0.0,800,0.08667993545532227,0.9105520269912526,0.8777544920400047,154204,-131.1839971542634,0.0
202,3.2128279209136963,-62.121214981859225,51.98864245428496,23.084575797299372,-117.72941785644332,0.0,0.3674103411959565,0.1,0.015172719955444336,0.09108519554138184,0.04935645,0.60717875,-277.1294797190523,0.4863977946582226,-0.44012192764068586,0.0,800,0.07598471641540527,19.709558781005313,18.681109040539123,155004,-126.75220410031552,0.0
203,3.23937726020813,-328.80919525252904,513.2619318866888,4.728269299566642,-1216.6982359574722,0.0,0.4661072154481052,0.1,0.0036821365356445312,0.07741212844848633,0.051374756,0.21306925,-282.2974512724,0.5507408859561381,-1.7742616007576117,0.0,800,0.07807159423828125,0.9947570578425495,0.9872111676470727,155804,-694.5472590498216,0.0
204,3.240410566329956,-329.5878352429729,566.2616997543903,3.4311058828313623,-1310.317735991477,0.0,0.47476142121808773,0.1,0.0037391185760498047,0.08309078216552734,0.05143162,0.19655043,-287.0264896694573,0.6842867374047173,-1.778647491009028,0.0,800,0.08039212226867676,0.9881892239218664,0.9829901363965202,156604,-453.8806676543486,0.0
205,3.225917100906372,-220.70255445905744,355.39530213494044,100.0206672760387,-801.6752081462057,0.0,0.4311669481434341,0.1,0.004091501235961914,0.07944345474243164,0.050208297,0.25724754,-280.3940961484173,0.6666481528253554,-1.2331911847187227,0.0,800,0.07757830619812012,0.9315048031944445,0.9274682844072142,157404,-310.06032332615337,0.0
206,3.253068208694458,14.955260282147536,93.03566518762985,175.19308210222118,-49.86689086587082,0.0,0.37421373292764953,0.1,0.0036804676055908203,0.07554221153259277,0.049926475,0.5007559,-250.85916050536082,0.7301932502510783,-0.06175536167196097,0.0,800,0.07787847518920898,3.317949964190087,3.0938527882100164,158204,-654.8788343434251,0.0
207,3.21213960647583,-61.04639226636935,64.2213667383549,38.64172215576505,-121.66085835984664,0.0,0.39032636911652796,0.1,0.003777742385864258,0.09003043174743652,0.050195355,0.5148131,-231.8778836814617,0.5674128990271139,-0.43594839175659694,0.0,800,0.0735628604888916,10.803500200958817,9.416136682741275,159004,-672.8706463772223,0.0
208,3.2096974849700928,-44.20634517404777,121.59731156472246,69.04559851743196,-248.79190275465803,0.0,0.42412602258020515,0.1,0.08465242385864258,0.14995384216308594,0.04880126,0.39343816,-213.11072983072032,0.6320043987045701,-0.35267077800833097,0.0,800,0.08524465560913086,2.3029964212139613,2.1246813365198904,159804,-701.8816055505569,0.0
209,3.1651439666748047,-85.7204660221835,129.8981202266963,34.927560540343535,-289.82538788685923,0.0,0.3781147016952556,0.1,0.09804177284240723,0.18962430953979492,0.04895959,0.49290648,-200.37170344986663,0.5508981491176392,-0.5583373149284272,0.0,800,0.07346272468566895,8.268442168580131,7.096420206383872,160604,-469.29765191561165,0.0
210,3.2272255420684814,66.70792263224612,112.3689485447065,260.1986285151318,-16.812820378104384,0.0,0.30827800821135054,0.1,0.03162407875061035,0.09704089164733887,0.048686896,0.911951,-173.66374084165534,0.8661449160168974,0.19746338856994727,0.0,800,0.0791628360748291,2.257447441029088,2.072457632116244,161404,-95.32915937470922,0.0
211,3.1782562732696533,-73.573036343616,65.75661846123748,34.97406221774805,-137.72950297926954,0.0,0.3331262391953565,0.1,0.03730130195617676,0.08167409896850586,0.05008032,0.6301827,-163.65467039185143,0.5674890810966655,-0.4970404916586611,0.0,800,0.09911680221557617,2.8890909777720633,2.6383173348120996,162204,-101.78210695458854,0.0
212,3.226492166519165,-287.8645739335435,187.524540345339,-14.012400982069027,-463.7861338548488,0.0,0.35831464394211004,0.1,0.004296779632568359,0.09079480171203613,0.049140662,0.4183272,-176.07566074602062,0.41012063950875355,-1.5677175493867905,0.0,800,0.1170804500579834,0.9142788751026631,0.8937830073058975,163004,-102.67777532591607,0.0
213,3.327099084854126,1.7181102758952473,50.37746584298784,42.78825620109011,-83.03229755213432,0.0,0.3490603721515758,0.1,0.003864765167236328,0.07905149459838867,0.04982193,0.5753824,-158.29628364382904,0.6348732079145152,-0.12223092095241334,0.0,800,0.09795975685119629,5.810484336918487,5.325334010859154,163804,-198.72842915998038,0.0
214,3.3111822605133057,-84.36380409399536,109.06935026805742,33.705211628472085,-253.39710259513527,0.0,0.38864499329002306,0.1,0.004098653793334961,0.14429831504821777,0.050405923,0.38419542,-150.90303568884568,0.424854591469185,-0.5195115928908212,0.0,800,0.07817602157592773,1.9598778718962446,1.8496090039221302,164604,-230.51266152301056,0.0
215,3.3312158584594727,-152.31637659810795,176.07176167090927,16.65534147040801,-420.38731477585173,0.0,0.4437654959409139,0.1,0.003889322280883789,0.07899618148803711,0.049958553,0.21695939,-151.0443697797719,0.7236632282222462,-0.8618345825928407,0.0,800,0.07709288597106934,1.012956008670454,0.9961305484741906,165404,-278.07122932958663,0.0
216,3.2304534912109375,-144.49618756816554,292.4916268215454,41.30340670748558,-650.61469396847,0.0,0.40997084286221924,0.1,0.003939628601074219,0.07859110832214355,0.050080117,0.3032908,-150.3895515586113,0.5886907666022063,-0.8530809815690948,0.0,800,0.08710646629333496,1.0021829146300836,0.9970003562881768,166204,-542.7756180445065,0.0
217,3.2444732189178467,373.7053987680056,706.5741504555606,1594.0903373332324,-119.49342962264002,25.0,0.4838545384766644,0.1,0.004071474075317383,0.08373165130615234,0.049403764,0.23526902,-97.9800565259496,1.1728634326620735,1.7237367759868938,25.0,800,0.07445240020751953,1.0612288958798348,1.041406642850054,167004,-27.11718875702057,0.0
218,3.269981622695923,-95.06161207547375,359.96869980340904,420.5623218658318,-539.7444246031652,0.0,0.4519066269949624,0.1,0.04989910125732422,0.07815814018249512,0.050333187,0.20177697,-97.68821208090203,0.9918741910372155,-0.6141726718600413,0.0,800,0.08094954490661621,1.0300319936066988,1.0232508949926014,167804,-201.84612310084185,0.0
219,3.2343943119049072,-12.969557750484476,59.42147126075804,33.2523775177857,-113.44552759043343,0.0,0.39762502317890164,0.1,0.00402379035949707,0.08156681060791016,0.048993398,0.412444,-89.21634664786028,0.567373594811256,-0.19571131843508122,0.0,800,0.07979846000671387,3.357648106861606,3.0523844899585737,168604,-76.03005035251421,0.0
220,3.25742244720459,-521.627234294951,824.1269747664807,32.00441905702404,-1938.9158450679956,0.0,0.4369512014490431,0.1,0.05682015419006348,0.16847610473632812,0.05042628,0.18896356,-132.45743541256934,0.4323431823129016,-2.7059000981431436,0.0,800,0.1047210693359375,0.7079322234571603,0.547134943457474,169404,-70.06378613637195,0.0
221,3.2421200275421143,-9.938988251447913,64.2077323318647,45.872384999022096,-116.25182410172417,0.0,0.36312196577531497,0.1,0.003875255584716797,0.08010435104370117,0.050176814,0.50962436,-120.20559069645721,0.5626003118386294,-0.18046965846644367,0.0,800,0.07906985282897949,9.439059520549025,11.803942602220008,170204,-35.22814270917001,0.0
222,3.222900152206421,33.6706510479477,48.46572571815457,109.52718914175736,-24.19819736404313,0.0,0.35790799350701935,0.1,0.004082441329956055,0.08103275299072266,0.05056225,0.4164476,-104.81796652201672,0.7350325126657435,0.03682607394698014,0.0,800,0.0884089469909668,5.443326129941816,4.893844953596675,171004,-40.31880034438564,0.0
223,3.28236985206604,-89.42795290213921,125.98245310200386,44.77149347794835,-239.66754930058664,0.0,0.39947132204077873,0.1,0.04170799255371094,0.1010291576385498,0.048101816,0.37093028,-103.27896516002897,0.5975801379302181,-0.5772424297445786,0.0,800,0.1587374210357666,4.040085653863944,3.66895706534063,171804,-105.41375068748279,0.0
224,3.2924280166625977,4.311816801801026,61.2903095045752,41.71172035172601,-101.81129011144776,0.0,0.34834314949893763,0.1,0.09254217147827148,0.21005582809448242,0.04973238,0.6137167,-92.51988696384598,0.6065047031168114,-0.10893257081527132,0.0,800,0.0883631706237793,6.582558597647709,5.803228641942627,172604,-29.939119172907045,0.0
225,3.2935540676116943,1.609191922717013,34.91034733148167,39.613502994994725,-35.62188788443747,0.0,0.3634602961430992,0.1,0.004080533981323242,0.0791773796081543,0.05039046,0.48902112,-83.10697907518967,0.6069251836587182,-0.12240837759723895,0.0,800,0.07358646392822266,5.5304890257857355,4.974145095289204,173404,-74.31979189536929,0.0
226,3.2903435230255127,-16.236913883631917,40.36244337733931,34.11651122017575,-65.7686180398528,0.0,0.3048890122307763,0.1,0.003675222396850586,0.07960915565490723,0.050988503,0.95704,-76.4199725560339,0.5938568901278531,-0.21227533430037793,0.0,800,0.07393264770507812,4.967609620493825,4.490920302153742,174204,-159.18753353722647,0.0
227,3.209635019302368,-173.92444380838708,206.29502996066674,-6.08676121872038,-520.7490335946496,0.0,0.40833927947563303,0.1,0.017869234085083008,0.07886171340942383,0.04906199,0.3135231,-86.17041968126922,0.5766095938286827,-0.9992623592460732,0.0,800,0.07588863372802734,1.0533450839119556,1.0455979888095464,175004,-46.65299516486723,0.0
228,3.250521659851074,48.59632891966109,26.936572743325417,88.99895506032799,13.188141250638475,0.0,0.2929025957198674,0.1,0.015825271606445312,0.08111429214477539,0.04841704,1.7237767,-72.69374482117618,0.7809673134412151,0.11076182901873713,0.0,800,0.07124948501586914,1.8922962820199414,1.8014403171795128,175804,-521.7232507374953,0.0
229,3.286545991897583,50.50523442969456,7.693882630096558,61.38966126753218,41.76067368797069,0.0,0.30976631100110374,0.1,0.0037522315979003906,0.0787208080291748,0.050266925,2.85081,-60.37384689608911,0.7343804242455082,0.12061975806755285,0.0,800,0.07246685028076172,1.9997600744280521,1.8017634418357102,176604,-403.76695382864517,0.0
230,3.2453768253326416,-227.07325045613865,180.73259684054335,40.962787186596394,-411.89034063661273,0.0,0.48410238765433405,0.1,0.004015445709228516,0.08198070526123047,0.04996136,0.27234286,-77.04378725209406,0.44448329353070526,-1.2650445856551078,0.0,800,0.0852503776550293,1.0854273789730626,1.0617941388358805,177404,32.91228743022008,0.0
231,3.2160680294036865,-123.91531597892126,141.78609473496763,75.23392261690026,-325.721185111443,0.0,0.46457033960784894,0.1,0.003896474838256836,0.08229756355285645,0.0503218,0.23911805,-81.73094012477678,0.487250187498227,-0.7487756066840847,0.0,800,0.08202600479125977,1.4528620518802293,1.3576681421071732,178204,11.463760106646417,0.0
232,3.413698434829712,-12.917733903743908,129.82717151894732,73.46725882385573,-237.21415594968676,0.0,0.38105237270747,0.1,0.08696889877319336,0.1044161319732666,0.048309155,0.49648234,-74.84961950267349,0.7150698334644024,-0.19588504380268756,0.0,800,0.0715174674987793,1.087035351622786,1.075553724877454,179004,-645.9530012732939,0.0
233,3.3107738494873047,-78.01333198820728,58.41652683497177,16.72426105380191,-131.02938959660042,0.0,0.4242211183239958,0.1,0.003881692886352539,0.0753486156463623,0.049955096,0.35038674,-75.16599075122687,0.4929159279967869,-0.5195528948099982,0.0,800,0.07189774513244629,2.851078195602662,2.534056844859135,179804,41.472703780020204,0.0
234,3.2286548614501953,4.618652710743866,58.52037248869616,68.08883835024378,-89.14240648388282,0.0,0.376838694975727,0.1,0.0038824081420898438,0.0823514461517334,0.05041925,0.4896491,-67.1875264050298,0.6726186272036383,-0.10760980410977915,0.0,800,0.07087039947509766,1.810671432698556,1.6424526683180185,180604,32.26671496862311,0.0
235,3.2050487995147705,-95.41483225453126,6.58659799920402,-84.59837655390469,-101.73652896105118,0.0,0.377922483780269,0.1,0.015089035034179688,0.22018957138061523,0.050427914,0.43983796,-70.01025698997995,0.35902021704607445,-0.6048792067153658,0.0,800,0.18314456939697266,2.411930228153803,2.1909878737185844,181404,41.80370281028626,0.0
236,3.253793716430664,-38.61067645747049,81.03093087608418,63.841133971598595,-126.84533988423686,0.0,0.43944286381049735,0.1,0.18155384063720703,1.6616301536560059,0.04978944,0.47713363,-66.870298936729,0.5831740662833267,-0.32362481094689644,0.0,800,0.8967432975769043,1.709824483329822,1.5928315554829429,182204,10.217331421045492,0.0
237,3.2844581604003906,-22.043706179754572,66.51452323100541,44.90515844954187,-106.6197215864009,0.0,0.3780657822747839,0.1,0.17795133590698242,1.6501264572143555,0.049512006,0.55371046,-62.38763966103156,0.6019133091530864,-0.24052517893160336,0.0,800,0.9239134788513184,1.2345703777662427,1.159922247639732,183004,44.35368481926543,0.0
238,3.334317445755005,16.623160240606317,54.51011162591305,63.42841107574392,-75.88598979142864,0.0,0.357287494694612,0.1,0.0042073726654052734,0.07742071151733398,0.04938657,0.6324387,-54.48655967086777,0.7252458309304074,-0.048194023253405056,0.0,800,0.17270636558532715,1.2084726534547259,1.1050457830764773,183804,43.81774398068376,0.0
239,3.2950215339660645,-24.773171104138918,94.27698917556445,49.74067292511456,-184.0120207828498,0.0,0.38710637743118814,0.1,0.16899919509887695,1.358794927597046,0.05007955,0.71350557,-51.51522081419488,0.6197526142645413,-0.25502248242484715,0.0,800,0.911653995513916,1.316684596365777,1.1884149546032237,184604,35.498684144736906,0.0
240,3.3221278190612793,-11.311717549622667,67.89295847367617,45.29912696158703,-126.27587844153892,0.0,0.3639089233685382,0.1,0.004302263259887695,0.08015990257263184,0.049226016,0.6387678,-47.494870487737664,0.6081572419969075,-0.18739069054563023,0.0,800,0.07471203804016113,1.2776227729672747,1.1677449245400435,185404,-19.895307380286656,0.0
241,3.2971317768096924,0.18658468867135447,88.72320584644834,61.20100444475293,-152.91870524355093,0.0,0.35966543237719256,0.1,0.003907680511474609,0.12018847465515137,0.049301796,0.6249719,-42.72672497009676,0.6312997118378736,-0.13023271346534565,0.0,800,0.07647085189819336,1.1959807565634566,1.0735102660732891,186204,-319.7650674227294,0.0
242,3.321852445602417,-34.92435530564117,131.05543924941665,59.17942985757254,-260.95448970278005,0.0,0.35672009268746185,0.1,0.003754138946533203,0.09964323043823242,0.050448846,0.4141185,-41.946488003651204,0.6292450227824918,-0.30591308073594337,0.0,800,0.07142472267150879,0.8396857318073789,0.8163431851015602,187004,-282.7685602925653,0.0
243,3.2577717304229736,-14.886498735108166,72.84717561753664,35.270762780691385,-140.13845061190784,0.0,0.36615840243507386,0.1,0.0035719871520996094,0.08428168296813965,0.05077704,0.9009081,-39.2404890767969,0.6133927443563524,-0.2057492306148438,0.0,800,0.07586908340454102,0.8198914167399135,0.7927025924422768,187804,-81.62517464630412,0.0
244,3.319587469100952,21.878866901189674,22.594839471465495,39.18179591861538,-15.983710784375813,0.0,0.34111135154727795,0.1,0.003693103790283203,0.07894706726074219,0.050123148,0.683058,-33.12855347899824,0.6572595791761564,-0.022557943786016974,0.0,800,0.07425808906555176,0.5685604750106573,0.4691490999151753,188604,-21.898633107699283,0.0
245,3.3006999492645264,37.36712245250218,15.53132087922994,51.18029117487752,11.537922074691611,0.0,0.3284517962877193,0.1,0.06717848777770996,0.07929134368896484,0.050055355,0.82222724,-26.0789858858482,0.7281641682096306,0.05501064267415883,0.0,800,0.09058165550231934,0.5207082406872252,0.42141053779750726,189404,-21.61375133679488,0.0
246,3.296785593032837,0.2314612446291897,43.2150420393405,37.8760556102456,-72.6554029140392,0.0,0.4267361975483053,0.1,0.01068425178527832,0.07962369918823242,0.04987085,1.9496737,-23.447941172800462,0.6217711972498794,-0.12991414795600165,0.0,800,0.07303476333618164,0.6810963887817121,0.6520407055914058,190204,-16.336460495900628,0.0
247,3.3239715099334717,-8.072005192568593,38.77122599405753,28.726116391604986,-68.65735648258267,0.0,0.3499028597020422,0.1,0.012718915939331055,0.07523131370544434,0.048782542,0.43973184,-21.910347574777276,0.6245966268021478,-0.17202198677000316,0.0,800,0.08298730850219727,0.48597857980483405,0.4753806926329102,191004,-14.230506691389792,0.0
248,3.315040111541748,-93.6912446332417,227.4607467269527,51.463158874192395,-487.3790309739821,0.0,0.44779377100396656,0.1,0.0038306713104248047,0.07766914367675781,0.05209278,0.15505223,-29.08843728062372,0.647718074638278,-0.5999881423520725,0.0,800,0.1149148941040039,1.1215498214581159,1.0825966056050047,191804,-23.267952791487705,0.0
249,3.2938051223754883,42.21012929197559,44.16867948334124,96.46264455935285,-26.357931996238605,0.0,0.34015310081183764,0.1,0.010802030563354492,0.106658935546875,0.050645012,1.2104815,-21.958580623363787,0.748684005830877,0.07943022789868064,0.0,800,0.1336069107055664,0.6342036517232494,0.6600805901322208,192604,-35.18470569089232,0.0
250,3.266212224960327,28.20926961972782,10.640642391715073,42.76690021880993,15.155054041887112,0.0,0.37652923146362804,0.1,0.0035247802734375,0.07735705375671387,0.049045626,1.1307629,-16.94179559905463,0.6850756205180498,0.009229539362931728,0.0,800,0.07383489608764648,0.455290954342868,0.41214524126487545,193404,-49.6818146088213,0.0
251,3.3546488285064697,395.49447585231445,624.9468605962971,1477.5713288966579,8.68500167013859,25.0,0.500587614737541,0.1,0.18889546394348145,0.522519588470459,0.050669417,0.23409107,24.301831546082283,1.2053267243988168,1.8318071958541429,25.0,800,0.07212233543395996,0.964721665925754,0.9377069822105653,194204,-56.16231436237282,0.0
252,3.437035322189331,31.419938233665345,18.04116970039088,59.13676872977472,9.008772136363042,0.0,0.3583207177150189,0.1,0.0039081573486328125,0.08267521858215332,0.049897403,0.7397133,25.01364221484059,0.6708601150981958,0.02502019100898433,0.0,800,0.0911257266998291,0.2961720641329355,0.2738018668268705,195004,-74.35335301325294,0.0
253,3.2463600635528564,-97.4441506421113,84.58809925421409,27.67046366896332,-210.9605189401296,0.0,0.41705671814176615,0.1,0.015461206436157227,0.07504534721374512,0.05116302,0.23174416,12.7678629291454,0.4506294026929527,-0.6160245979355878,0.0,800,0.07168889045715332,1.9763662056049283,1.798594162905816,195804,-76.07992414271526,0.0
254,3.280120611190796,-11.646058362880039,30.022344563271478,31.517749808839636,-52.71821290777749,0.0,0.37774568991792296,0.1,0.003876209259033203,0.10889148712158203,0.04963175,0.5173364,10.326470799942856,0.6500995167242183,-0.18966496236064262,0.0,800,0.07520222663879395,0.5557940903989862,0.5307558152738632,196604,-74.00311213312007,0.0
255,3.2884151935577393,14.017728212415125,38.665695389801115,52.55284186520549,-48.560887025567624,0.0,0.33161795917503906,0.1,0.08889985084533691,0.10606527328491211,0.051355086,0.4676042,10.695596541190083,0.7386159428592595,-0.061590482132803034,0.0,800,0.070831298828125,0.3169393584575121,0.31360267537404873,197404,-72.72356049116276,0.0
256,3.3475518226623535,0.3870100144664743,28.367759786008808,48.48107047539989,-24.502921400519245,0.0,0.47637442182496104,0.1,0.06923794746398926,0.09037542343139648,0.050061483,0.19969475,9.664737888517722,0.7042969398162954,-0.12973414931657656,0.0,800,0.07185626029968262,0.353828388592635,0.3528583868068058,198204,-94.07136807807281,0.0
257,3.3425188064575195,-22.418665547670827,98.15294579302369,68.54867809575464,-186.59998650318363,0.0,0.4364034132450764,0.1,0.024306297302246094,0.16096949577331543,0.049907614,0.20775348,6.456397544898867,0.6345944457045143,-0.24268250441089978,0.0,800,0.07471203804016113,0.959174334060978,0.9340586073940156,199004,-107.93270697116043,0.0
258,3.4034667015075684,-42.40996759709522,125.94329142280176,69.65562546224808,-255.1861294268741,0.0,0.3394937231190271,0.1,0.0036804676055908203,0.08426451683044434,0.04974545,0.23159939,1.5697610306994587,0.6453213382854822,-0.3426327490606508,0.0,800,0.07422018051147461,1.077736310539044,1.029973180998224,199804,-87.60091933890202,0.0
259,3.3173940181732178,-66.08077347329888,102.89343978185359,46.38936300275481,-221.6340548011806,0.0,0.3928479769056605,0.1,0.0037550926208496094,0.08224272727966309,0.049656685,0.17861861,-5.195292419700375,0.5634022393617162,-0.4604229373851522,0.0,800,0.12742304801940918,1.545985542435421,1.364246159819876,200604,-97.73567782111151,0.0
260,3.4038023948669434,-21.692925602859184,98.30019422669264,37.25906950934473,-191.93764227543042,0.0,0.38923433180100914,0.1,0.08990478515625,0.14997649192810059,0.049220104,0.2939892,-6.845055738016256,0.6382584741177333,-0.23993310990676942,0.0,800,0.08525896072387695,0.8046423030115143,0.7852947103034468,201404,-101.82577687111355,0.0
261,3.4567453861236572,-105.3894458006832,87.51437819459812,42.96293008967988,-176.72749758640634,0.0,0.39443794472886157,0.1,0.003672361373901367,0.10358667373657227,0.049976073,0.26304498,-16.69949474428295,0.4874424578742247,-0.6567969958297583,0.0,800,0.08092284202575684,1.4792657129266353,1.309333873609508,202204,-92.13739148436197,0.0
262,3.3612167835235596,55.42619771424983,21.550629048137697,82.5029461079697,27.602546750192417,0.0,0.4078359078011022,0.1,0.003962993621826172,0.07773709297180176,0.04966658,0.5911686,-9.486925498429674,0.7545463189834631,0.14534490746219697,0.0,800,0.08567309379577637,0.5228200447430394,0.5057790984395693,203004,-78.90846275254522,0.0
263,3.355013370513916,53.884436445912705,7.499326971141704,63.0431843670469,42.75436722106332,0.0,0.42006354778300725,0.1,0.07859635353088379,0.09317994117736816,0.04913071,1.9058542,-3.149789303995436,0.7733932808421295,0.13738887924307308,0.0,800,0.07775545120239258,0.478702886677576,0.42193361712011096,203804,-75.39231498247314,0.0
264,3.3493521213531494,129.2078065669336,130.62771812150982,352.65880275703574,37.46330256204376,0.0,0.486272566747374,0.1,0.004485130310058594,0.07655525207519531,0.049425498,0.25936928,10.085970283097469,0.9013118942373008,0.5069749459117542,0.0,800,0.07183408737182617,0.7830960609773787,0.737200014836978,204604,-27.809657100221642,0.0
265,3.3363828659057617,36.98939135779642,10.047999877967435,46.57501800999463,22.173949240193274,0.0,0.4551965106155853,0.1,0.0037026405334472656,0.0775294303894043,0.05061493,0.36886433,12.776312390567364,0.6902978928652634,0.052857014163102525,0.0,800,0.07736492156982422,0.26047258353550956,0.23700274782406,205404,-29.11885735718405,0.0
266,3.4267256259918213,36.90934028637767,13.433195043171958,47.56522636899883,13.873740334458578,0.0,0.3460993334906675,0.1,0.003798246383666992,0.08197593688964844,0.0502921,1.3508899,15.189615180148394,0.6947462418710921,0.05241932354196914,0.0,800,0.07535266876220703,0.25320446955683634,0.24486546685076407,206204,-26.586785850509518,0.0
267,3.35575008392334,17.76074373144779,52.33539524376848,75.93511010554234,-66.50515209503047,0.0,0.3945395235964076,0.1,0.0036878585815429688,0.09015321731567383,0.04998028,0.1995678,15.446728035278333,0.7408573835948293,-0.043137926741349704,0.0,800,0.07613492012023926,0.30206335984888566,0.2973901257601104,207004,-30.506784715906026,0.0
268,3.375852584838867,-182.1544357556584,245.6852327702031,-1.3323290566143153,-601.9747556804011,0.0,0.5251945708147989,0.1,0.0064203739166259766,0.17694091796875,0.050000392,0.1646263,-4.313388343815339,0.4881942412796202,-1.040606151351093,0.0,800,0.11785054206848145,1.1797130486380727,1.133650209347951,207804,-23.63421713714374,0.0
269,3.4913833141326904,43.71631369060319,4.088843056341162,47.55427805599668,37.005508065644854,0.0,0.37004851807393446,0.1,0.005459785461425781,0.08561444282531738,0.0499217,0.7818486,0.48958185962651424,0.6945178429285709,0.08643323504986128,0.0,800,0.0791633129119873,0.3246864745973957,0.3645322814596849,208604,-13.345712882497656,0.0
270,3.3374407291412354,49.05756552457359,4.827039151622491,54.02135309918489,44.16928618776391,0.0,0.43751775465013115,0.1,0.06818532943725586,0.08007431030273438,0.05033209,0.5368972,5.346380226121222,0.7306476805492619,0.11300762168882593,0.0,800,0.07689690589904785,0.37363107525182626,0.35307607458938994,209404,-14.73440561775656,0.0
271,3.3596982955932617,47.27837435660869,26.090464355126613,87.98696143274114,15.221184250722354,0.0,0.4090739418998558,0.1,0.003948688507080078,0.09052538871765137,0.04960768,0.33569396,9.539579639169968,0.7560438875708023,0.10474800971969753,0.0,800,0.07578039169311523,0.40012372893648784,0.37322596077974735,210204,-21.449632493211734,0.0
272,3.3722751140594482,51.31642201338028,6.393381052470085,57.63646915263119,41.41856116446789,0.0,0.44228753462407766,0.1,0.003692626953125,0.0813288688659668,0.04938788,0.49586636,13.717263876591,0.7257564749255595,0.12452971100728484,0.0,800,0.07369565963745117,0.35199283808189674,0.3273317865289303,211004,-12.559639374862586,0.0
273,3.3693063259124756,43.85699377087357,1.2371856913154489,45.58506623788571,42.08936843468796,0.0,0.3745780251202616,0.1,0.0037763118743896484,0.0797262191772461,0.04959032,3.251832,16.73123686601926,0.7606121946371001,0.08690636203975845,0.0,800,0.07471561431884766,0.3728325148813439,0.3486029589643865,211804,-23.120259586973116,0.0
274,3.3636269569396973,-7.87395585807073,84.31042479724066,57.01199508232483,-152.2897541207901,0.0,0.41477074231984895,0.1,0.08077001571655273,0.08450031280517578,0.049623813,0.28680366,14.27071759361026,0.6374265242710029,-0.17097318644720952,0.0,800,0.07332968711853027,0.5720618630955516,0.5721272404080954,212604,-22.257705662383916,0.0
275,3.431854248046875,35.008026950761206,18.398419797522763,61.884375155531856,16.454637500409564,0.0,0.3576475497514338,0.1,0.08565330505371094,0.210038423538208,0.049344063,0.72158897,16.344448529325355,0.7194870642638338,0.04288110975321115,0.0,800,0.24437808990478516,0.2914463191584312,0.2839439831889752,213404,-36.32640564289074,0.0
276,3.425265312194824,27.900332069174887,21.912908155333966,46.14219047542868,-8.114879051525067,0.0,0.38835675479621046,0.1,0.004135608673095703,0.07833409309387207,0.048041698,1.1802607,17.500036883310308,0.7327553439619885,0.008064724513739574,0.0,800,0.07462096214294434,0.2977326375965081,0.2932579109249274,214204,-77.2885110692175,0.0
277,3.449594259262085,-2.8260613944219077,50.40862270042872,47.191653673320644,-71.88382074217918,0.0,0.4511593985584328,0.1,0.008706331253051758,0.11628055572509766,0.049676843,0.40112314,15.467427055537087,0.5782732253255918,-0.144743730358391,0.0,800,0.07567000389099121,1.336078334233821,1.272176073451406,215004,-73.5347843575805,0.0
278,3.50708270072937,41.07735116566811,35.80177889568951,83.44685203874621,-15.428396757951063,0.0,0.3978272237059213,0.1,0.004189252853393555,0.08619928359985352,0.049822554,0.713966,18.02841946655019,0.7273834357589322,0.07387306410267441,0.0,800,0.07083916664123535,0.48351957512928095,0.4823037498112878,215804,-59.39208193139252,0.0
279,3.425903558731079,42.04666615383813,5.2917238569848415,51.20501039805837,38.70443311461847,0.0,0.45026554707948563,0.1,0.0036153793334960938,0.08101248741149902,0.050642647,0.47704828,20.430244135278986,0.692056323175856,0.07830614384902249,0.0,800,0.07516264915466309,0.2435060840931387,0.23857049474773592,216604,-59.020510610968614,0.0
280,3.4526734352111816,28.609509195203266,15.587097605790946,41.87738065687484,2.7580673943156713,0.0,0.39581443885888123,0.1,0.0036063194274902344,0.07966375350952148,0.049337894,0.54668933,21.248170641271415,0.6371220411699168,0.011497408498686988,0.0,800,0.09142327308654785,0.30249101513307336,0.3004991985928028,217404,-39.067712580897684,0.0
281,3.778120756149292,45.785033901859336,6.925724421921948,57.04738354209632,39.30053004831534,0.0,0.41378814516608065,0.1,0.0036563873291015625,0.07856631278991699,0.050418682,0.8322041,23.701856967330208,0.7340090985430073,0.09673780328404849,0.0,800,0.0811607837677002,0.2798129410149621,0.2731374594452307,218204,5.614262412979642,0.0
282,3.4206535816192627,56.96752982428754,5.660083642948436,65.07722999723205,49.371264314138045,0.0,0.4380771463367016,0.1,0.004095554351806641,0.07775378227233887,0.049863607,0.40901977,27.028424253025943,0.7411747050058642,0.15267416574692433,0.0,800,0.09334993362426758,0.28218498718827995,0.2675643287630876,219004,27.415134382622863,0.0
283,3.3662962913513184,27.155335603012468,30.955600176871812,62.67010229256993,-3.7881382511360213,0.0,0.4255125239932203,0.1,0.0038633346557617188,0.07718038558959961,0.049919065,0.35266206,27.041115388024593,0.7435612163225331,0.005036779326700276,0.0,800,0.07297682762145996,0.5275152561124983,0.5244224063030369,219804,25.711380866836524,0.0
284,3.3890135288238525,52.71102270002217,7.115795434213146,64.73950812481405,46.26741332631486,0.0,0.3646729196696818,0.1,0.04130125045776367,0.1370537281036377,0.049131263,2.0417826,29.608106119224352,0.7344540818812101,0.13165599637278555,0.0,800,0.07124209403991699,0.2667796568331708,0.2618901224363219,220604,30.07245667292077,0.0
285,3.5278830528259277,34.54639452242131,66.42938776606485,96.05880378661652,-77.63100217802554,0.0,0.4414349555783241,0.1,0.0037260055541992188,0.08088135719299316,0.049294006,0.3333382,30.10193495954405,0.7704636212589733,0.04133427461551206,0.0,800,0.0734567642211914,0.5521246583610466,0.5506585960760911,221404,24.66112364966686,0.0
286,3.43672251701355,62.24227647634153,23.19949719536049,99.44933808705062,42.64887550915708,0.0,0.3995536086181882,0.1,0.0036344528198242188,0.07632756233215332,0.05013342,0.47499576,33.3159691112238,0.766710235587253,0.1787390998439538,0.0,800,0.16142940521240234,0.30975872168494256,0.29716696926095976,222204,69.8009492598433,0.0
287,3.562244176864624,-20.932737495478438,80.95805891581583,66.92414996620032,-128.16661892106217,0.0,0.45130853127840576,0.1,0.031671762466430664,0.07592248916625977,0.049532056,0.3597734,27.891098450553578,0.649332260535893,-0.2353047246881226,0.0,800,0.08229207992553711,1.1255775025964139,1.09287359066601,223004,80.01184979902887,0.0
288,3.410573720932007,189.00839217953552,326.8389855575788,748.5418756942136,-73.30228683081144,0.0,0.47858852872704905,0.1,0.05910825729370117,0.13198232650756836,0.049019765,0.25947395,44.002827823451774,0.9406126640628943,0.8087017872636608,0.0,800,0.07434892654418945,0.8842094034253488,0.8656219899724545,223804,23.60737608578214,0.0
289,3.5301146507263184,-68.6536504992328,224.33848549090155,68.52642283892399,-457.03065976241146,0.0,0.48837040164950896,0.1,0.003826141357421875,0.0806429386138916,0.050102625,0.22464663,32.73717999118331,0.381847299443163,-0.47217264191539243,0.0,800,0.07126140594482422,1.2794610400697024,1.2248498858964463,224604,80.78408672380374,0.0
290,3.5426199436187744,67.80977423579097,17.21941430087119,93.80353229215989,46.135961323261604,0.0,0.4430193670144923,0.1,0.016861915588378906,0.09961795806884766,0.04947811,0.37726432,36.24443941564408,0.8177034066362915,0.20716003194513563,0.0,800,0.10368871688842773,0.2966081974109056,0.30760720762798227,225404,59.59350119078155,0.0
291,3.418501138687134,-45.46212359862626,90.00205916932858,62.43417326332399,-185.88204704192532,0.0,0.45010177791510847,0.1,0.011214971542358398,0.07598590850830078,0.04994631,0.20035072,28.073783114217047,0.5975235634365954,-0.3572137770567581,0.0,800,0.07249236106872559,1.6747775267599303,1.568685698558182,226204,66.22908484283836,0.0
292,3.467768669128418,48.81681815828401,21.19074807600621,63.01583721274074,12.237984225173864,0.0,0.4151718367422483,0.1,0.008307695388793945,0.15044116973876953,0.050232925,0.5829464,30.148086618623744,0.7655075116055529,0.1117307173514335,0.0,800,0.0708770751953125,0.321228930492529,0.32695250759572286,227004,81.94882256572227,0.0
293,3.4745876789093018,56.81011938445049,22.168582942293263,84.96618205637978,28.157375468019627,0.0,0.44772209848162564,0.1,0.032610416412353516,0.0815267562866211,0.049573164,0.2900334,32.814289895206414,0.8106298236972729,0.1521190490290127,0.0,800,0.07250094413757324,0.3050981877036464,0.29554609587524544,227804,67.54114660801656,0.0
294,3.5011253356933594,66.3384631286286,16.27846310091748,93.9854334837338,53.74339009439777,0.0,0.4966533469911229,0.1,0.05872154235839844,0.14221787452697754,0.053154726,0.25287837,36.16670721854864,0.8564700028576683,0.19937321650537312,0.0,800,0.08091545104980469,0.3210865163160909,0.30486227482001327,228604,65.66423431012505,0.0
295,3.486325740814209,38.60662358130355,25.64832181228149,54.12938359246656,-5.791544064861562,0.0,0.41079875500034196,0.1,0.0036585330963134766,0.14279699325561523,0.049749974,1.1959848,36.41069885482413,0.7061885373640108,0.06125770908901144,0.0,800,0.07920074462890625,0.2655909860318859,0.26196251668863774,229404,69.19550439771041,0.0
296,3.472280979156494,35.89965665075893,48.49632246220248,69.40052642198205,-47.72752376305433,0.0,0.39034131034456276,0.1,0.02031564712524414,0.07652711868286133,0.04921115,0.57934356,36.35959463441762,0.8431648223536928,0.04768272598103611,0.0,800,0.06845664978027344,0.31579425580310555,0.31096730171236175,230204,67.85113313547883,0.0
297,3.4712986946105957,76.086929173287,12.863966546329573,90.73907029827738,57.52974052345509,0.0,0.4530490749731367,0.1,0.00397038459777832,0.07584571838378906,0.049501788,0.3401921,40.332328088304564,0.8527577724221684,0.2478277704422382,0.0,800,0.07287907600402832,0.292667510081074,0.27933303625815487,231004,65.46814128662409,0.0
298,3.416640281677246,21.512938664687216,71.44894820657511,67.05788435438723,-102.0988856178208,0.0,0.4721093482216118,0.1,0.0039899349212646484,0.0783073902130127,0.048922725,0.2672625,38.45038914594283,0.695668576259751,-0.023671365635471807,0.0,800,0.07376265525817871,0.8179199971003599,0.8097239078707805,231804,36.06765602266032,0.0
299,3.4135756492614746,74.59349389062966,24.48409817679579,107.39079999636412,43.76566869407301,0.0,0.484535448314687,0.1,0.0038955211639404297,0.31220555305480957,0.050046116,0.25212297,42.06469962041151,0.8598819849446573,0.240599806728479,0.0,800,0.06857466697692871,0.29846041770813264,0.2920808776896211,232604,24.674621088788257,0.0
300,3.5165657997131348,54.30824030722944,4.376435485277468,57.60620320045783,46.795842664218,0.0,0.4805885838812986,0.1,0.003749847412109375,0.09055781364440918,0.050077666,0.28757772,43.28905368909331,0.8250162622576108,0.13949899865353618,0.0,800,0.08036208152770996,0.240674869852749,0.23290679552584678,233404,17.596533224368155,0.0
301,3.529898166656494,-12.423244082940933,117.12727784196706,87.22944860355254,-211.1446000443203,0.0,0.44174501610549516,0.1,0.0038149356842041016,0.08289456367492676,0.049771715,0.17554842,37.71782391188988,0.7173734077551815,-0.19327633789416107,0.0,800,0.07393980026245117,0.9961824728269496,0.9736260879090679,234204,45.39419465112271,0.0
302,3.5309910774230957,40.89340027834267,53.95447315364464,98.29139527672463,-47.55040185084479,0.0,0.42294692390359295,0.1,0.003687143325805664,0.07749819755554199,0.050894648,0.25863346,38.03538154853516,0.7395784407510739,0.07238176831339141,0.0,800,0.0730283260345459,0.3340516708676913,0.33518671943922124,235004,71.83201442004356,0.0
303,3.4940733909606934,48.69345943493876,6.485052032252762,55.207749525427346,37.93233758104694,0.0,0.45645040520356045,0.1,0.07614541053771973,0.09957695007324219,0.049844693,0.28769338,39.101189337175526,0.860872823086058,0.11108324428266717,0.0,800,0.23627495765686035,0.2636965210013714,0.2603930484101808,235804,72.35215406809694,0.0
304,3.460960626602173,62.16468679474581,23.544938278332648,89.73803565884262,24.80313831376292,0.0,0.46351963063332347,0.1,0.003853321075439453,0.08506131172180176,0.050779734,0.24405228,41.40753908293256,0.8238321863038882,0.17876655617220194,0.0,800,0.07067012786865234,0.26839591535069496,0.25955417335808323,236604,69.08736223771676,0.0
305,3.501372814178467,72.90222650705718,29.147799294821294,107.01365039230265,34.45863705985052,0.0,0.4486731153178359,0.1,0.0037925243377685547,0.07736539840698242,0.048861757,0.3588685,44.557007825345025,0.888166215318435,0.2321066956309844,0.0,800,0.07266473770141602,0.3160934940064938,0.299212265021397,237404,62.87772771549891,0.0
306,3.445159912109375,21.44042987540172,35.88602701488313,57.19139225671304,-35.620798637240746,0.0,0.45199853221605957,0.1,0.0037641525268554688,0.07671475410461426,0.05034213,0.4656639,42.2453500303507,0.6752473983753082,-0.02460319869821042,0.0,800,0.3404667377471924,0.4953981220162091,0.4863437702278297,238204,68.00382989765927,0.0
307,3.5773022174835205,55.67362114185671,25.129535419483865,86.92030079018174,18.316259728732373,0.0,0.495016305642941,0.1,0.10017037391662598,0.26546502113342285,0.0495355,0.21601127,43.5881771415013,0.7846289917504644,0.1465241801270072,0.0,800,0.08209967613220215,0.23963400218669642,0.2373535038533533,239004,61.92410810820484,0.0
308,3.5147359371185303,32.13538523817871,35.631750115912226,64.22565750589125,-27.869218789109702,0.0,0.47239358640088996,0.1,0.08777093887329102,0.07845306396484375,0.048912436,0.28083143,42.442897951169044,0.6839010733838153,0.029186559188092247,0.0,800,0.07101750373840332,0.48617525700824954,0.4732926485513107,239804,50.79242399872883,0.0
309,3.6111178398132324,35.77301900338503,48.6335758852416,86.49038368080801,-44.40729876092338,0.0,0.4615161756276731,0.1,0.07553720474243164,0.0888822078704834,0.050118245,0.21541186,41.77591005639064,0.7176216625819775,0.04754671175213433,0.0,800,0.0774073600769043,0.43059405133667183,0.4245987982129757,240604,48.98348754824112,0.0
310,3.4289023876190186,70.08087364704149,15.674198463145313,89.11191297272917,53.15704786911919,0.0,0.4375314830614646,0.1,0.012714385986328125,0.07973217964172363,0.048849452,0.26892182,44.60640641545572,0.8584569420953579,0.21874306223857898,0.0,800,0.09679031372070312,0.25918667349434943,0.249571396924972,241404,31.61602362949792,0.0
311,3.523629665374756,49.42354479959792,7.263347136525382,58.369272027805074,39.39338886900175,0.0,0.4573122553039893,0.1,0.0039865970611572266,0.08453607559204102,0.050030056,0.19298367,45.088120253869945,0.7676796510943775,0.1148820993054358,0.0,800,0.14539361000061035,0.17747718042765168,0.17316527688321223,242204,38.66123892403399,0.0
312,3.6042702198028564,43.169912332412004,9.714015986427041,58.54667458735935,31.96735416701152,0.0,0.47844796660246736,0.1,0.003960609436035156,0.08472418785095215,0.04996465,0.22661017,44.896299461724155,0.7873835992317275,0.08440395025355538,0.0,800,0.07191824913024902,0.2246353172242174,0.21924713180369285,243004,32.0260000411955,0.0
313,3.4980597496032715,68.30331268603095,12.16856320321876,80.86162357040992,48.73460959951377,0.0,0.4454704877035658,0.1,0.0035905838012695312,0.07488846778869629,0.050436392,0.23644231,47.23700078415484,0.8550689623185771,0.20938174290001665,0.0,800,0.07127070426940918,0.23763741555981077,0.22319155249802228,243804,42.89569863892627,0.0
314,3.4458258152008057,73.7519052094622,25.9603630972373,99.61412479699553,30.622744407316837,0.0,0.4468138122937736,0.1,0.03279900550842285,0.07858920097351074,0.049938887,0.24710959,49.888491226685574,0.9331438098766915,0.23627158184597202,0.0,800,0.09206271171569824,0.2637680898719388,0.23840326537815126,244604,47.65418915182011,0.0
315,3.5836567878723145,27.708920946997424,54.88772731072809,78.59935583300523,-55.08361494511674,0.0,0.460986710237607,0.1,0.0037631988525390625,0.07913875579833984,0.048452105,0.23829399,47.67053419871676,0.7388001922724166,0.00787167215613195,0.0,800,0.10035562515258789,0.893928015394233,0.816059815165766,245404,60.76244998879141,0.0
316,3.570194721221924,-84.99514783525379,183.0006124639132,73.78322916089274,-395.580878444135,0.0,0.47134110102346305,0.1,0.0039751529693603516,0.08294534683227539,0.049838714,0.15117037,34.40396599531971,0.6678563809381335,-0.5548671939459182,0.0,800,0.07522153854370117,1.3396540095006073,1.2191328167058895,246204,51.855667835012845,0.0
317,3.499056816101074,38.22129875567109,33.123925777962526,66.39507563004837,-18.160609781716442,0.0,0.46111371916610167,0.1,0.0038819313049316406,0.0799262523651123,0.050466917,0.24219781,34.78569927135485,0.714874173048895,0.06022731943869279,0.0,800,0.09849715232849121,0.453239768630044,0.46064121406720204,247004,52.61104813212913,0.0
318,3.566296339035034,78.15134497249086,18.26221133426321,96.80046793402593,49.95930652242855,0.0,0.4970191414291948,0.1,0.033353567123413086,0.08095049858093262,0.050315924,0.18445185,39.12226384146845,0.8864937244111044,0.2579909372224643,0.0,800,0.06948637962341309,0.39778022806039015,0.35106682092974706,247804,18.927073248651805,0.0
319,3.4993956089019775,19.33336952993669,57.091095734032386,96.14716420125444,-61.07768934564768,0.0,0.4875424605481197,0.1,0.003920316696166992,0.08501267433166504,0.05082681,0.20080435,37.14337441031528,0.6694718676350226,-0.03440188744207344,0.0,800,0.07114076614379883,0.6987224821957005,0.6960222107107943,248604,-548.0984571991454,0.0
320,3.501737594604492,-75.09286347622455,188.67291298271454,71.7773644134515,-398.3276824971313,0.0,0.4651770177580465,0.1,0.01329350471496582,0.08542060852050781,0.049319364,0.14967385,25.9197506216613,0.7452747459220048,-0.5061150363681421,0.0,800,0.12620806694030762,1.1133963391323343,1.0780517128999756,249404,-885.9777114533582,0.0
321,3.5691707134246826,-27.58213434001209,170.01646094276876,105.63060894964036,-319.03622333806555,0.0,0.49949483121840776,0.1,0.0035247802734375,0.08947563171386719,0.04972981,0.15252736,20.569562125493963,0.7844675910876857,-0.26956271346763505,0.0,800,0.06678533554077148,1.0420799567910863,0.9969282687399343,250204,31.72055683048151,0.0
322,3.622437000274658,45.33164981233283,19.61250806176581,59.762693326553126,11.61443314754164,0.0,0.4918230701608884,0.1,0.004195690155029297,0.0823211669921875,0.050758358,0.24511227,23.045770894177853,0.719862732651704,0.09476731251232637,0.0,800,0.07635331153869629,0.42780351709638426,0.40684227773007636,251004,31.742093414799587,0.0
323,3.69573974609375,29.006972275845104,53.98225611115533,93.47365546919445,-50.678669689420296,0.0,0.48934747299605125,0.1,0.023049116134643555,0.16832542419433594,0.050195746,0.22298071,23.64189103234458,0.6894906001286603,0.013697438614781336,0.0,800,0.1038973331451416,0.6047495633484506,0.5893837891351289,251804,18.22385355466618,0.0
324,3.5526223182678223,70.66816325689065,16.981781823017283,94.03281489169038,48.03390961437306,0.0,0.48377529090702287,0.1,0.031553030014038086,0.07945871353149414,0.04896869,0.19344148,28.344518254799187,0.8312419923007168,0.22074684256742094,0.0,800,0.07125234603881836,0.43441724147236965,0.37452697007092906,252604,-2879.918524518533,0.0
325,3.650632619857788,-49.5968934232703,135.11654465938872,78.31700133052848,-267.6507912874315,0.0,0.4773688839297775,0.1,0.08529543876647949,0.08254361152648926,0.050605584,0.16431704,20.55037708699224,0.6364461699206592,-0.3784750905009756,0.0,800,0.07991170883178711,1.1215758641755527,1.098990596936733,253404,-2457.158538786078,0.0
326,3.5495753288269043,68.54840167775475,8.451042396805983,76.48972240099162,54.38519815886886,0.0,0.47421593203615653,0.1,0.003838777542114258,0.09997129440307617,0.04895348,0.19854511,25.35017954606849,0.9182554597319547,0.2103604519878534,0.0,800,0.08654165267944336,0.39789979994666663,0.37083329160339135,254204,37.085683548427575,0.0
327,3.559206008911133,47.04997207628215,8.495786708262074,59.61252152752929,36.011540738644655,0.0,0.46726002272917644,0.1,0.004065275192260742,0.07797074317932129,0.04983859,0.19371127,27.520158799089856,0.7501057454817606,0.10353113149297116,0.0,800,0.09859132766723633,0.3090131445848946,0.271504271915117,255004,38.54039717812923,0.0
328,3.6025984287261963,52.69262744752967,19.064120550489843,83.07722943090222,31.79992254347063,0.0,0.500873401329309,0.1,0.0037779808044433594,0.09514641761779785,0.050466876,0.18947963,30.03740566393384,0.7486618363231037,0.13117579308761992,0.0,800,0.07180666923522949,0.2841577137444113,0.2585983721076676,255804,22.062699069354256,0.0
329,3.570981025695801,-14.675023573088055,43.0869345891257,27.408430950065892,-86.23919396127188,0.0,0.42896028420346743,0.1,0.003699779510498047,0.07885169982910156,0.0498279,0.25038356,25.56616274023165,0.6942974301671276,-0.20363160592788676,0.0,800,0.06985044479370117,1.7709196861616852,1.5761806711829631,256604,27.558780625913844,0.0
330,3.596088409423828,37.114644633381204,27.495303857212743,76.96065647646815,8.16489026748546,0.0,0.47659968703308875,0.1,0.0037844181060791016,0.08015060424804688,0.05049528,0.18864796,26.72101092954661,0.7549888915084026,0.05391070509048538,0.0,800,0.0688471794128418,0.29308955902862044,0.2944395423297666,257404,46.998372998986945,0.0
331,3.6566309928894043,25.001991548767904,46.05808355549461,71.17495033201483,-50.24015590136537,0.0,0.484886835719817,0.1,0.004094362258911133,0.08150887489318848,0.05037881,0.18361337,26.549108991468742,0.6858160085754381,-0.006369374816970565,0.0,800,0.07246088981628418,0.3653129717748605,0.36145391809630206,258204,55.99471863905762,0.0
332,3.7078163623809814,50.598139031902235,32.36135478745581,79.9132017967886,-3.044903157805486,0.0,0.45223920111888066,0.1,0.0038042068481445312,0.08203721046447754,0.049958583,0.19852981,28.954011995512094,0.7391846494748703,0.12093713173720566,0.0,800,0.08853864669799805,0.32051071291722316,0.30432451102635555,259004,55.77143312434541,0.0
333,3.6583802700042725,25.698492654603065,58.03368222222129,88.85703718592494,-46.12182164356662,0.0,0.41056623449657137,0.1,0.0037539005279541016,0.0799405574798584,0.05181932,0.1850437,28.62846006142119,0.7731687182327409,-0.0026992612342811168,0.0,800,0.0714259147644043,0.8793286036444223,0.8638217551415657,259804,37.99341086754859,0.0
334,3.7733187675476074,63.91724484050859,23.298503648147182,94.522632037051,39.34414415995693,0.0,0.4956533217558168,0.1,0.0038766860961914062,0.08424091339111328,0.049836487,0.17696846,32.157338539329935,0.8045484292033569,0.18743856587658086,0.0,800,0.10440492630004883,0.3141557665650329,0.2890560980111923,260604,39.97171697431443,0.0
335,3.531451463699341,-63.083531804072955,120.28301115420821,49.029037675448734,-265.6340454032055,0.0,0.4974115824732427,0.1,0.006543397903442383,0.09724235534667969,0.04970009,0.16983283,22.633251504989648,0.6049320456927212,-0.44439274132577966,0.0,800,0.07772946357727051,1.368567753297797,1.2491003174781425,261404,38.52226465460912,0.0
336,3.567326784133911,49.40760305554682,13.348387258080425,67.9386598427156,31.018919030376555,0.0,0.49013777052906626,0.1,0.008116722106933594,0.11952495574951172,0.050995808,0.17434031,25.310686660045366,0.7207884950103206,0.11513039801427045,0.0,800,0.07047176361083984,0.3142917048250836,0.33953216360062927,262204,50.14109981815426,0.0
337,3.5244650840759277,61.119590704394845,18.447050638254577,89.16932084023342,37.40550892008599,0.0,0.5083072187622099,0.1,0.0319366455078125,0.08189511299133301,0.049603347,0.17575984,28.891577064480316,0.8193984856884164,0.17334035078768067,0.0,800,0.07823419570922852,0.4048919834467423,0.34064800754525465,263004,33.01698936063636,0.0
338,3.768885612487793,36.091953051923355,28.518928427322695,77.66763226358918,2.1449944382654818,0.0,0.4899859641325987,0.1,0.003830432891845703,0.07905030250549316,0.04998702,0.20155907,29.61161466322462,0.6731021102697491,0.04931218613971663,0.0,800,0.0717928409576416,0.33393894702281934,0.3075414836319364,263804,28.361303618563056,0.0
339,3.6426594257354736,16.898812167153334,61.61577814845536,91.95620607673156,-76.59166256560398,0.0,0.4919724389464543,0.1,0.004590034484863281,0.10995292663574219,0.05168127,0.20173359,28.34033441361749,0.6326210504222964,-0.04610583137836272,0.0,800,0.07561302185058594,0.7232006741221578,0.7055328030467154,264604,27.96939299248017,0.0
340,3.5662896633148193,56.59102344628148,12.840359386509466,74.25219659527488,43.81480669150877,0.0,0.49716273023210555,0.1,0.008237123489379883,0.3015763759613037,0.049946357,0.17809036,31.165403316883893,0.7562091854698856,0.15091820081648954,0.0,800,0.06856536865234375,0.27067772771739446,0.2470073079096211,265404,30.311396041302803,0.0
341,3.5804731845855713,64.2671972489394,37.439737623920585,108.40949370065898,12.046427379635835,0.0,0.45883138425629233,0.1,0.005148887634277344,0.0783839225769043,0.050299045,0.1982702,34.47558271008945,0.8504524106653198,0.18928908326918564,0.0,800,0.07265377044677734,0.35957101204044584,0.3210053067864549,266204,40.27120770942552,0.0
342,3.6480913162231445,47.122383355352156,30.039336285633972,89.23729708028905,5.633073365171263,0.0,0.4924021842585247,0.1,0.0037221908569335938,0.07537055015563965,0.049671553,0.17855568,35.74026277461572,0.7394986830449164,0.10394383118755837,0.0,800,0.06973934173583984,0.2726852074993158,0.26403444494971157,267004,40.87570838459384,0.0
343,3.627311944961548,54.52040122297208,26.197995838017295,77.41152673727805,10.062055708536622,0.0,0.5053725195554183,0.1,0.0038449764251708984,0.09521603584289551,0.050561637,0.16693531,37.618276619451365,0.8494461569420935,0.14059294969996836,0.0,800,0.07570075988769531,0.23045880817821585,0.22171909211209606,267804,35.26918897764862,0.0
344,3.653313398361206,69.20294375057219,22.486136966491063,94.40572266051076,42.35008738277298,0.0,0.5223518108105057,0.1,0.0037717819213867188,0.08322763442993164,0.049705524,0.16788454,40.77674333256345,0.8308431890518855,0.21351138662582567,0.0,800,0.0690455436706543,0.2160835535165351,0.18489702607427125,268604,47.96578699620459,0.0
345,3.5965683460235596,-10.656489716063774,69.48944522207087,66.04624839265979,-110.55828371278206,0.0,0.5428916217914569,0.1,0.022665023803710938,0.07524394989013672,0.050237957,0.17252827,35.63342002770072,0.6755649207241744,-0.18385783535689337,0.0,800,0.06994938850402832,1.7255162942325066,1.3606107727258774,269404,27.47827772816782,0.0
346,3.6164252758026123,32.831751037354174,53.6035251066422,94.14981122741715,-52.92266757898619,0.0,0.518702096182227,0.1,0.0037546157836914062,0.07704043388366699,0.049109697,0.19012934,35.35325312866607,0.7138809969432912,0.03263158034903659,0.0,800,0.07023239135742188,0.4796370773123047,0.4733483105961754,270204,47.84988952125145,0.0
347,3.6048460006713867,6.010433843889156,63.15764189337395,52.06314416698657,-101.58653646974935,0.0,0.49450575446325695,0.1,0.004696846008300781,0.07785582542419434,0.050292082,0.18193005,32.41897120018837,0.7620298521084872,-0.10084683136939021,0.0,800,0.06928896903991699,0.8684276526286261,0.8311924836800079,271004,44.114320748789766,0.0
348,3.5983779430389404,41.84513839455255,53.42892725634667,91.47300279008743,-47.16658845789265,0.0,0.542299095167596,0.1,0.004055023193359375,0.08784604072570801,0.05031747,0.18288471,33.36158791962479,0.7398126671878795,0.07790224647294319,0.0,800,0.07465052604675293,0.5141818425900071,0.5090788620061805,271804,44.72760637667639,0.0
